# IRAS 17208-0014
# 
# An Atlas of Galaxy Spectral Energy Distributions from the Ultraviolet to the Mid-Infrared
# Brown et al. (2014)
# http://dx.doi.org/10.5072/03/529D3551F0117
# http://dx.doi.org/10.17909/t9-5bxk-dh29
# 
# The Spectral Energy Distributions of Active Galactic Nuclei
# Brown et al. (2019)
# http://dx.doi.org/10.17909/t9-3dbt-8734
# 
# Column 1: Observed wavelength (um)
# Column 2: f_nu (Jy)
# Column 3: f_lam (erg/s/cm2/A)
# Column 4: Source (0 = model, 1 = Optical Spectrun, 2 = Akari, 3 = Spitzer IRS)
# 
    0.010641 2.989258e-26 7.919900e-35 0 
    0.010839 5.735565e-26 1.464600e-34 0 
    0.011066 1.118353e-25 2.739800e-34 0 
    0.011272 2.185736e-25 5.160800e-34 0 
    0.011482 4.882339e-25 1.111000e-33 0 
    0.011885 1.558117e-24 3.309200e-33 0 
    0.012303 4.493840e-24 8.906700e-33 0 
    0.012618 2.720064e-23 5.125300e-32 0 
    0.013032 6.943907e-23 1.226600e-31 0 
    0.013243 1.065532e-22 1.822700e-31 0 
    0.013335 1.335326e-22 2.252800e-31 0 
    0.013646 2.446843e-22 3.942000e-31 0 
    0.013772 3.361928e-22 5.317600e-31 0 
    0.013964 4.904731e-22 7.546000e-31 0 
    0.014289 9.763674e-22 1.434600e-30 0 
    0.014588 1.669493e-21 2.353500e-30 0 
    0.014928 6.160258e-21 8.293100e-30 0 
    0.015346 2.369127e-20 3.018000e-29 0 
    0.015740 4.381333e-20 5.305400e-29 0 
    0.016181 8.065075e-20 9.241000e-29 0 
    0.016596 1.454164e-19 1.583900e-28 0 
    0.016904 2.216049e-19 2.326600e-28 0 
    0.017298 3.851171e-19 3.861200e-28 0 
    0.017742 6.465447e-19 6.161900e-28 0 
    0.018030 9.431681e-19 8.704000e-28 0 
    0.018450 1.529655e-18 1.348100e-27 0 
    0.018750 2.165742e-18 1.848100e-27 0 
    0.018967 2.726403e-18 2.273600e-27 0 
    0.019409 4.261838e-18 3.394000e-27 0 
    0.019907 7.254461e-18 5.491800e-27 0 
    0.020230 9.967491e-18 7.306600e-27 0 
    0.020654 1.484525e-17 1.044000e-26 0 
    0.021086 2.195827e-17 1.481600e-26 0 
    0.021380 2.908098e-17 1.908600e-26 0 
    0.021878 4.391426e-17 2.752400e-26 0 
    0.022542 7.737136e-17 4.567900e-26 0 
    0.022961 1.087875e-16 6.190400e-26 0 
    0.023281 1.375934e-16 7.615800e-26 0 
    0.023659 1.899226e-16 1.017900e-25 0 
    0.023988 3.536557e-16 1.843800e-25 0 
    0.024378 7.220982e-16 3.645200e-25 0 
    0.025003 1.335300e-15 6.407900e-25 0 
    0.025645 1.830635e-15 8.350600e-25 0 
    0.026303 2.783534e-15 1.207000e-24 0 
    0.026792 3.080368e-15 1.287400e-24 0 
    0.027102 4.261920e-15 1.740700e-24 0 
    0.027542 5.579475e-15 2.206600e-24 0 
    0.028054 7.270817e-15 2.771500e-24 0 
    0.028576 9.367079e-15 3.441300e-24 0 
    0.029107 1.195622e-14 4.233700e-24 0 
    0.029648 1.526127e-14 5.208600e-24 0 
    0.030269 1.930154e-14 6.320000e-24 0 
    0.030832 2.550366e-14 8.048600e-24 0 
    0.031405 3.087399e-14 9.391100e-24 0 
    0.032137 4.232704e-14 1.229500e-23 0 
    0.033189 6.480182e-14 1.764900e-23 0 
    0.034198 9.453485e-14 2.425000e-23 0 
    0.035237 1.338412e-13 3.233800e-23 0 
    0.036308 1.864650e-13 4.243400e-23 0 
    0.037239 2.509543e-13 5.429000e-23 0 
    0.038194 3.377420e-13 6.945700e-23 0 
    0.039084 4.371161e-13 8.584600e-23 0 
    0.040179 5.579739e-13 1.036900e-22 0 
    0.041210 7.596336e-13 1.341900e-22 0 
    0.042267 9.968071e-13 1.673900e-22 0 
    0.043152 1.234817e-12 1.989400e-22 0 
    0.044055 1.477693e-12 2.284100e-22 0 
    0.044875 1.760367e-12 2.622500e-22 0 
    0.046026 2.273035e-12 3.219000e-22 0 
    0.046989 2.789913e-12 3.790700e-22 0 
    0.047973 3.315793e-12 4.322300e-22 0 
    0.048978 4.023422e-12 5.031700e-22 0 
    0.050003 4.927091e-12 5.911800e-22 0 
    0.051050 5.802140e-12 6.679100e-22 0 
    0.052119 7.105443e-12 7.847300e-22 0 
    0.052723 8.464416e-12 9.135200e-22 0 
    0.053333 1.601687e-11 1.689300e-21 0 
    0.054200 1.881852e-11 1.921800e-21 0 
    0.055208 2.273040e-11 2.237300e-21 0 
    0.056364 2.562170e-11 2.419500e-21 0 
    0.057412 3.851207e-11 3.505200e-21 0 
    0.058345 5.183256e-11 4.567900e-21 0 
    0.059429 6.677232e-11 5.671800e-21 0 
    0.060534 7.389193e-11 6.049500e-21 0 
    0.061518 1.020001e-10 8.085700e-21 0 
    0.062517 1.198373e-10 9.198500e-21 0 
    0.063680 1.579748e-10 1.168700e-20 0 
    0.064714 2.063379e-10 1.478100e-20 0 
    0.065766 2.521140e-10 1.748700e-20 0 
    0.066681 2.874717e-10 1.939600e-20 0 
    0.067764 3.677854e-10 2.402800e-20 0 
    0.068549 4.291408e-10 2.739800e-20 0 
    0.069343 4.938600e-10 3.081200e-20 0 
    0.070469 5.618065e-10 3.394000e-20 0 
    0.071450 6.188746e-10 3.636800e-20 0 
    0.072444 8.843104e-10 5.055000e-20 0 
    0.073451 9.345305e-10 5.196600e-20 0 
    0.074645 1.260656e-09 6.787600e-20 0 
    0.075683 1.450748e-09 7.598300e-20 0 
    0.076560 1.646652e-09 8.427900e-20 0 
    0.077625 2.053940e-09 1.022600e-19 0 
    0.078705 2.407793e-09 1.166100e-19 0 
    0.079799 2.809296e-09 1.323500e-19 0 
    0.080910 3.362027e-09 1.540700e-19 0 
    0.081846 3.958972e-09 1.773000e-19 0 
    0.082985 4.514337e-09 1.966600e-19 0 
    0.083946 5.123824e-09 2.181300e-19 0 
    0.084918 5.762363e-09 2.397300e-19 0 
    0.086099 6.895855e-09 2.790700e-19 0 
    0.087096 6.202838e-09 2.453100e-19 0 
    0.088105 8.523215e-09 3.294000e-19 0 
    0.089125 9.519209e-09 3.595200e-19 0 
    0.090157 1.105582e-08 4.080500e-19 0 
    0.091201 1.281136e-08 4.620800e-19 0 
    0.092257 1.501743e-08 5.293200e-19 0 
    0.093325 1.704489e-08 5.871100e-19 0 
    0.094406 1.839063e-08 6.190400e-19 0 
    0.095499 3.108724e-08 1.022600e-18 0 
    0.096383 2.380110e-07 7.686300e-18 0 
    0.097499 5.709337e-07 1.801800e-17 0 
    0.098628 1.190125e-06 3.670400e-17 0 
    0.099541 1.801349e-06 5.454000e-17 0 
    0.100693 2.205960e-06 6.527100e-17 0 
    0.101625 3.789555e-07 1.100800e-17 0 
    0.102802 2.190799e-06 6.219000e-17 0 
    0.103753 2.441180e-06 6.803300e-17 0 
    0.104713 3.720361e-06 1.017900e-16 0 
    0.105925 3.772200e-06 1.008600e-16 0 
    0.106905 1.661844e-06 4.362300e-17 0 
    0.107895 2.962098e-06 7.633400e-17 0 
    0.108893 6.020147e-06 1.523100e-16 0 
    0.109901 6.260550e-06 1.555000e-16 0 
    0.111173 5.291899e-06 1.284500e-16 0 
    0.112202 6.646725e-06 1.583900e-16 0 
    0.113240 5.579417e-06 1.305300e-16 0 
    0.114288 7.755195e-06 1.781200e-16 0 
    0.115345 7.862940e-06 1.773000e-16 0 
    0.116145 7.954402e-06 1.769000e-16 0 
    0.117220 7.544008e-06 1.647100e-16 0 
    0.118304 1.001355e-05 2.146400e-16 0 
    0.119399 9.563006e-06 2.012400e-16 0 
    0.120504 1.068084e-05 2.206600e-16 0 
    0.121619 1.160368e-05 2.353500e-16 0 
    0.122462 8.503765e-06 1.701100e-16 0 
    0.123595 1.231987e-05 2.419500e-16 0 
    0.124738 8.863249e-06 1.708900e-16 0 
    0.125603 6.661727e-06 1.266800e-16 0 
    0.126765 4.401453e-06 8.217100e-17 0 
    0.127644 9.785569e-06 1.801800e-16 0 
    0.128825 1.568919e-05 2.836100e-16 0 
    0.129718 1.809662e-05 3.226400e-16 0 
    0.130918 1.813819e-05 3.174800e-16 0 
    0.131826 1.620334e-05 2.797200e-16 0 
    0.133045 2.190731e-05 3.712900e-16 0 
    0.133968 2.391136e-05 3.996900e-16 0 
    0.134896 1.979705e-05 3.263800e-16 0 
    0.136144 2.039797e-05 3.301500e-16 0 
    0.137088 2.646009e-05 4.223900e-16 0 
    0.138038 2.633838e-05 4.146800e-16 0 
    0.139316 2.441193e-05 3.773300e-16 0 
    0.140281 3.003241e-05 4.578400e-16 0 
    0.141254 3.017180e-05 4.536500e-16 0 
    0.142233 2.809304e-05 4.166000e-16 0 
    0.143549 3.073226e-05 4.474200e-16 0 
    0.144544 3.225526e-05 4.631500e-16 0 
    0.145546 2.934922e-05 4.156400e-16 0 
    0.146555 3.166628e-05 4.423000e-16 0 
    0.147571 3.338880e-05 4.599600e-16 0 
    0.148594 3.544825e-05 4.816300e-16 0 
    0.149624 3.644137e-05 4.883300e-16 0 
    0.150314 3.940898e-05 5.232600e-16 0 
    0.151008 4.079379e-05 5.366800e-16 0 
    0.151705 4.079381e-05 5.317600e-16 0 
    0.152757 3.895806e-05 5.008600e-16 0 
    0.153815 4.014153e-05 5.090000e-16 0 
    0.154882 4.222764e-05 5.281000e-16 0 
    0.155955 4.442163e-05 5.479200e-16 0 
    0.157036 4.361093e-05 5.305400e-16 0 
    0.157761 3.977353e-05 4.794200e-16 0 
    0.158125 4.321108e-05 5.184600e-16 0 
    0.158855 4.291365e-05 5.101700e-16 0 
    0.159956 3.877888e-05 4.546900e-16 0 
    0.161065 4.421803e-05 5.113500e-16 0 
    0.162181 4.301277e-05 4.905900e-16 0 
    0.163305 4.503958e-05 5.066600e-16 0 
    0.164059 4.938519e-05 5.504500e-16 0 
    0.165196 5.328409e-05 5.857600e-16 0 
    0.166341 5.631170e-05 6.105500e-16 0 
    0.167494 5.670136e-05 6.063400e-16 0 
    0.168267 5.842455e-05 6.190400e-16 0 
    0.169434 5.696409e-05 5.952800e-16 0 
    0.170608 6.245896e-05 6.437500e-16 0 
    0.171396 6.510244e-05 6.648400e-16 0 
    0.172584 6.174479e-05 6.219000e-16 0 
    0.173780 6.975881e-05 6.929800e-16 0 
    0.174181 6.318304e-05 6.247700e-16 0 
    0.174985 7.221055e-05 7.074900e-16 0 
    0.175792 7.701809e-05 7.476800e-16 0 
    0.176604 7.406238e-05 7.123900e-16 0 
    0.177828 7.321416e-05 6.945700e-16 0 
    0.178649 7.138319e-05 6.709900e-16 0 
    0.179887 7.304580e-05 6.772000e-16 0 
    0.181134 8.009352e-05 7.323500e-16 0 
    0.181970 8.009281e-05 7.256300e-16 0 
    0.182810 8.741760e-05 7.847300e-16 0 
    0.184077 8.214807e-05 7.273100e-16 0 
    0.184927 8.661555e-05 7.598300e-16 0 
    0.186209 9.048935e-05 7.829200e-16 0 
    0.187068 9.853618e-05 8.447300e-16 0 
    0.188365 1.003685e-04 8.486300e-16 0 
    0.189234 9.519122e-05 7.974800e-16 0 
    0.190108 9.921923e-05 8.236000e-16 0 
    0.191426 9.808354e-05 8.030000e-16 0 
    0.192309 9.217088e-05 7.476800e-16 0 
    0.193642 9.519045e-05 7.615800e-16 0 
    0.194536 1.001372e-04 7.938100e-16 0 
    0.195434 1.105602e-04 8.684000e-16 0 
    0.196789 1.048569e-04 8.123000e-16 0 
    0.197697 1.027065e-04 7.883500e-16 0 
    0.198610 1.110705e-04 8.447300e-16 0 
    0.199526 1.095456e-04 8.255000e-16 0 
    0.200909 1.105595e-04 8.217100e-16 0 
    0.201837 1.157711e-04 8.525500e-16 0 
    0.202768 1.234803e-04 9.009900e-16 0 
    0.203704 1.184664e-04 8.564800e-16 0 
    0.205116 1.326155e-04 9.456200e-16 0 
    0.206063 1.385463e-04 9.788500e-16 0 
    0.207014 1.335355e-04 9.348000e-16 0 
    0.207970 1.326164e-04 9.198500e-16 0 
    0.208930 1.388664e-04 9.543700e-16 0 
    0.209894 1.372769e-04 9.348000e-16 0 
    0.211349 1.467565e-04 9.856400e-16 0 
    0.212324 1.424274e-04 9.478000e-16 0 
    0.213304 1.508673e-04 9.947600e-16 0 
    0.214289 1.474331e-04 9.632000e-16 0 
    0.215278 1.512148e-04 9.788500e-16 0 
    0.216272 1.639102e-04 1.051300e-15 0 
    0.216770 1.576175e-04 1.006300e-15 0 
    0.217270 1.646554e-04 1.046400e-15 0 
    0.218273 1.590803e-04 1.001700e-15 0 
    0.219281 1.635342e-04 1.020300e-15 0 
    0.220801 1.688807e-04 1.039200e-15 0 
    0.221820 1.748222e-04 1.065900e-15 0 
    0.222844 1.661936e-04 1.004000e-15 0 
    0.223872 1.732268e-04 1.036900e-15 0 
    0.224905 1.826357e-04 1.083200e-15 0 
    0.225944 1.805493e-04 1.061000e-15 0 
    0.226986 1.822184e-04 1.061000e-15 0 
    0.228034 1.826396e-04 1.053700e-15 0 
    0.229087 1.948089e-04 1.113600e-15 0 
    0.230144 1.930267e-04 1.093300e-15 0 
    0.231207 1.878468e-04 1.054200e-15 0 
    0.232274 1.853404e-04 1.030600e-15 0 
    0.232809 2.000162e-04 1.107100e-15 0 
    0.233884 1.950846e-04 1.069900e-15 0 
    0.234963 1.920489e-04 1.043600e-15 0 
    0.236048 1.993428e-04 1.073300e-15 0 
    0.237137 2.083468e-04 1.111500e-15 0 
    0.238232 2.167643e-04 1.145800e-15 0 
    0.239332 2.090140e-04 1.094700e-15 0 
    0.240436 2.129894e-04 1.105300e-15 0 
    0.241546 2.082314e-04 1.070700e-15 0 
    0.242661 1.701052e-04 8.666400e-16 0 
    0.243220 2.017416e-04 1.023100e-15 0 
    0.244343 1.990713e-04 1.000300e-15 0 
    0.245471 2.173635e-04 1.082200e-15 0 
    0.246604 2.053065e-04 1.012800e-15 0 
    0.247742 2.150618e-04 1.051200e-15 0 
    0.248886 2.040650e-04 9.883000e-16 0 
    0.250035 2.207910e-04 1.059500e-15 0 
    0.250611 2.148170e-04 1.026100e-15 0 
    0.251768 2.229748e-04 1.055300e-15 0 
    0.252930 2.379391e-04 1.115800e-15 0 
    0.254097 2.326072e-04 1.080800e-15 0 
    0.254683 2.475837e-04 1.145100e-15 0 
    0.255859 2.477152e-04 1.135200e-15 0 
    0.257040 2.506899e-04 1.138300e-15 0 
    0.258226 2.467851e-04 1.110300e-15 0 
    0.259418 2.585353e-04 1.152500e-15 0 
    0.260016 2.469732e-04 1.095900e-15 0 
    0.261216 2.759602e-04 1.213300e-15 0 
    0.261818 2.534701e-04 1.109300e-15 0 
    0.262422 2.624457e-04 1.143300e-15 0 
    0.263027 2.536026e-04 1.099700e-15 0 
    0.264241 2.596263e-04 1.115500e-15 0 
    0.265461 2.597508e-04 1.105800e-15 0 
    0.266686 2.797443e-04 1.180000e-15 0 
    0.267301 2.778684e-04 1.166700e-15 0 
    0.268534 2.965184e-04 1.233600e-15 0 
    0.269774 2.994087e-04 1.234200e-15 0 
    0.270396 2.994749e-04 1.228800e-15 0 
    0.271644 2.948421e-04 1.198700e-15 0 
    0.272898 2.963293e-04 1.193700e-15 0 
    0.273527 3.103909e-04 1.244600e-15 0 
    0.274789 3.207118e-04 1.274200e-15 0 
    0.276058 3.486009e-04 1.372300e-15 0 
    0.276694 3.551598e-04 1.391700e-15 0 
    0.277971 3.354456e-04 1.302400e-15 0 
    0.279254 3.530541e-04 1.358200e-15 0 
    0.279898 3.555984e-04 1.361700e-15 0 
    0.281190 3.476611e-04 1.319100e-15 0 
    0.281838 3.583207e-04 1.353300e-15 0 
    0.283139 3.503328e-04 1.311000e-15 0 
    0.284446 3.553816e-04 1.317700e-15 0 
    0.285102 3.748237e-04 1.383400e-15 0 
    0.286418 3.396533e-04 1.242100e-15 0 
    0.287078 3.484455e-04 1.268400e-15 0 
    0.288403 3.642290e-04 1.313700e-15 0 
    0.289068 3.823719e-04 1.372800e-15 0 
    0.290402 3.738496e-04 1.329900e-15 0 
    0.291743 3.154324e-04 1.111800e-15 0 
    0.292415 3.396604e-04 1.191700e-15 0 
    0.293765 4.029535e-04 1.400800e-15 0 
    0.294442 4.181930e-04 1.447100e-15 0 
    0.295801 4.098126e-04 1.405100e-15 0 
    0.296483 4.061667e-04 1.386200e-15 0 
    0.297852 4.035978e-04 1.364800e-15 0 
    0.298538 4.335631e-04 1.459400e-15 0 
    0.299916 4.357758e-04 1.453400e-15 0 
    0.300608 4.419761e-04 1.467300e-15 0 
    0.301995 4.432063e-04 1.457900e-15 0 
    0.303389 4.784493e-04 1.559400e-15 0 
    0.305492 4.766437e-04 1.532200e-15 0 
    0.307610 4.814465e-04 1.526400e-15 0 
    0.309742 4.987606e-04 1.559600e-15 0 
    0.311889 5.107897e-04 1.575300e-15 0 
    0.314051 5.279559e-04 1.605900e-15 0 
    0.316228 5.394675e-04 1.618400e-15 0 
    0.318420 5.499463e-04 1.627200e-15 0 
    0.319890 5.604933e-04 1.643200e-15 0 
    0.322107 5.753445e-04 1.663600e-15 0 
    0.324340 5.851727e-04 1.668800e-15 0 
    0.326588 5.924592e-04 1.666400e-15 0 
    0.328852 6.095696e-04 1.691000e-15 0 
    0.330370 6.184118e-04 1.699800e-15 0 
    0.332660 6.104523e-04 1.654900e-15 0 
    0.334966 6.383184e-04 1.706700e-15 0 
    0.336512 6.313904e-04 1.672700e-15 0 
    0.338844 6.663112e-04 1.741000e-15 0 
    0.341193 6.935090e-04 1.787200e-15 0 
    0.342768 7.035686e-04 1.796500e-15 0 
    0.345144 7.172876e-04 1.806400e-15 0 
    0.346737 7.310576e-04 1.824200e-15 0 
    0.347536 7.363632e-04 1.829000e-15 0 
    0.348337 7.099121e-04 1.755200e-15 0 
    0.349140 7.644269e-04 1.881300e-15 0 
    0.349945 7.352997e-04 1.801300e-15 0 
    0.350752 7.105627e-04 1.732700e-15 0 
    0.351560 7.124396e-04 1.729300e-15 0 
    0.352371 7.618370e-04 1.840700e-15 0 
    0.353183 7.673480e-04 1.845500e-15 0 
    0.353997 7.800788e-04 1.867500e-15 0 
    0.354813 8.077247e-04 1.924800e-15 0 
    0.355631 7.627612e-04 1.809300e-15 0 
    0.356451 7.807672e-04 1.843500e-15 0 
    0.357273 8.028808e-04 1.887000e-15 0 
    0.358096 8.313329e-04 1.944900e-15 0 
    0.358922 8.126281e-04 1.892400e-15 0 
    0.359749 8.054197e-04 1.867000e-15 0 
    0.360579 8.001259e-04 1.846200e-15 0 
    0.361410 7.893632e-04 1.813000e-15 0 
    0.362243 8.363962e-04 1.912200e-15 0 
    0.363078 8.119580e-04 1.847800e-15 0 
    0.363915 8.504477e-04 1.926500e-15 0 
    0.364754 8.313569e-04 1.874600e-15 0 
    0.365595 8.490065e-04 1.905600e-15 0 
    0.366437 8.395389e-04 1.875700e-15 0 
    0.367282 8.773191e-04 1.951100e-15 0 
    0.368129 8.536791e-04 1.889800e-15 0 
    0.368978 8.900691e-04 1.961300e-15 0 
    0.369828 9.068945e-04 1.989200e-15 0 
    0.370681 9.197851e-04 2.008200e-15 0 
    0.371535 9.157918e-04 1.990300e-15 0 
    0.372392 8.829487e-04 1.910100e-15 0 
    0.373250 8.690970e-04 1.871500e-15 0 
    0.374111 8.417604e-04 1.804300e-15 0 
    0.374799 1.227417e-03 2.621300e-15 1 
    0.375074 7.429806e-04 1.584400e-15 1 
    0.375349 6.564858e-04 1.397900e-15 1 
    0.375624 1.096484e-03 2.331400e-15 1 
    0.375899 1.806568e-03 3.835600e-15 1 
    0.376174 9.039459e-04 1.916400e-15 1 
    0.376449 4.565926e-04 9.665800e-16 1 
    0.376724 -3.491351e-04 -7.380200e-16 1 
    0.376999 1.887890e-04 3.984900e-16 1 
    0.377274 1.336627e-03 2.817200e-15 1 
    0.377549 6.676726e-04 1.405200e-15 1 
    0.377824 4.466916e-04 9.387500e-16 1 
    0.378099 2.310882e-04 4.849400e-16 1 
    0.378374 1.396927e-03 2.927200e-15 1 
    0.378649 1.135722e-03 2.376400e-15 1 
    0.378924 1.276456e-03 2.667000e-15 1 
    0.379199 5.784747e-04 1.206900e-15 1 
    0.379474 1.546229e-03 3.221300e-15 1 
    0.379749 1.474973e-03 3.068400e-15 1 
    0.380024 3.368170e-04 6.996700e-16 1 
    0.380299 1.112136e-03 2.306900e-15 1 
    0.380574 9.836334e-05 2.037400e-16 1 
    0.380849 2.602463e-04 5.382700e-16 1 
    0.381124 1.643808e-03 3.395000e-15 1 
    0.381399 1.220162e-03 2.516400e-15 1 
    0.381674 6.438351e-04 1.325900e-15 1 
    0.381949 1.459142e-03 3.000600e-15 1 
    0.382224 -2.078642e-04 -4.268400e-16 1 
    0.382499 1.048571e-03 2.150100e-15 1 
    0.382774 3.289429e-04 6.735300e-16 1 
    0.383049 6.173275e-04 1.262200e-15 1 
    0.383324 7.070132e-04 1.443500e-15 1 
    0.383599 1.139417e-03 2.323000e-15 1 
    0.383874 6.271119e-04 1.276700e-15 1 
    0.384149 5.280563e-04 1.073500e-15 1 
    0.384424 9.873302e-04 2.004300e-15 1 
    0.384699 7.447024e-04 1.509600e-15 1 
    0.384974 7.950210e-04 1.609300e-15 1 
    0.385249 1.978841e-03 3.999900e-15 1 
    0.385524 1.583689e-04 3.196600e-16 1 
    0.385799 1.143892e-03 2.305600e-15 1 
    0.386074 6.397360e-04 1.287600e-15 1 
    0.386349 9.087784e-04 1.826500e-15 1 
    0.386624 1.047941e-03 2.103200e-15 1 
    0.386899 3.967855e-04 7.952100e-16 1 
    0.387174 1.660583e-03 3.323300e-15 1 
    0.387449 9.840652e-04 1.966600e-15 1 
    0.387724 1.321550e-03 2.637300e-15 1 
    0.387999 4.289880e-04 8.548800e-16 1 
    0.388274 5.837802e-04 1.161700e-15 1 
    0.388549 1.923312e-03 3.821900e-15 1 
    0.388824 2.085585e-03 4.138500e-15 1 
    0.389099 4.051563e-03 8.028300e-15 1 
    0.389374 2.805885e-03 5.552100e-15 1 
    0.389649 1.770852e-03 3.499100e-15 1 
    0.389924 1.200919e-03 2.369600e-15 1 
    0.390199 1.316399e-03 2.593800e-15 1 
    0.390474 1.863132e-03 3.665900e-15 1 
    0.390749 1.126559e-03 2.213500e-15 1 
    0.391024 1.309230e-03 2.568800e-15 1 
    0.391299 1.036384e-03 2.030600e-15 1 
    0.391574 4.971322e-04 9.726700e-16 1 
    0.391849 2.512160e-03 4.908300e-15 1 
    0.392124 1.593991e-03 3.110000e-15 1 
    0.392399 1.942728e-03 3.785100e-15 1 
    0.392674 1.413692e-03 2.750500e-15 1 
    0.392949 9.394238e-04 1.825200e-15 1 
    0.393224 4.053343e-04 7.864200e-16 1 
    0.393499 1.250603e-03 2.423000e-15 1 
    0.393774 1.065558e-03 2.061600e-15 1 
    0.394049 1.318644e-03 2.547700e-15 1 
    0.394324 1.088388e-03 2.099900e-15 1 
    0.394599 1.460700e-03 2.814300e-15 1 
    0.394874 2.191169e-03 4.215800e-15 1 
    0.395149 6.858830e-04 1.317800e-15 1 
    0.395424 1.117506e-03 2.144100e-15 1 
    0.395699 1.172402e-03 2.246300e-15 1 
    0.395974 1.093021e-03 2.091300e-15 1 
    0.396249 4.261340e-04 8.142000e-16 1 
    0.396524 1.082799e-03 2.066000e-15 1 
    0.396799 8.599889e-04 1.638600e-15 1 
    0.397074 1.139097e-03 2.167400e-15 1 
    0.397349 1.417924e-03 2.694200e-15 1 
    0.397624 1.524183e-03 2.892100e-15 1 
    0.397899 2.478345e-03 4.696100e-15 1 
    0.398174 1.618825e-03 3.063200e-15 1 
    0.398449 1.412767e-03 2.669600e-15 1 
