# NGC 5033  
# 
# An Atlas of Galaxy Spectral Energy Distributions from the Ultraviolet to the Mid-Infrared
# Brown et al. (2014)
# http://dx.doi.org/10.5072/03/529D3551F0117
# http://dx.doi.org/10.17909/t9-5bxk-dh29
# 
# The Spectral Energy Distributions of Active Galactic Nuclei
# Brown et al. (2019)
# http://dx.doi.org/10.17909/t9-3dbt-8734
# 
# Column 1: Observed wavelength (um)
# Column 2: f_nu (Jy)
# Column 3: f_lam (erg/s/cm2/A)
# Column 4: Source (0 = model, 1 = Optical Spectrun, 2 = Akari, 3 = Spitzer IRS)
# 
    0.010233 4.504809e-12 1.290600e-20 0 
    0.010423 6.062415e-12 1.674100e-20 0 
    0.010641 8.368140e-12 2.217100e-20 0 
    0.010839 1.168534e-11 2.983900e-20 0 
    0.011041 1.835179e-11 4.516300e-20 0 
    0.011429 3.116599e-11 7.157900e-20 0 
    0.011830 4.961655e-11 1.063600e-19 0 
    0.012134 2.136365e-10 4.353000e-19 0 
    0.012531 3.116285e-10 5.953700e-19 0 
    0.012735 3.636351e-10 6.726500e-19 0 
    0.012823 3.986972e-10 7.274200e-19 0 
    0.013152 4.939131e-10 8.566200e-19 0 
    0.013243 6.062200e-10 1.037000e-18 0 
    0.013428 6.881877e-10 1.145000e-18 0 
    0.013740 9.696759e-10 1.540900e-18 0 
    0.014028 1.165884e-09 1.777400e-18 0 
    0.014355 3.603065e-09 5.245500e-18 0 
    0.014757 1.027217e-08 1.415100e-17 0 
    0.015136 1.237896e-08 1.621000e-17 0 
    0.015560 1.512484e-08 1.874100e-17 0 
    0.015959 1.847859e-08 2.176600e-17 0 
    0.016255 2.116619e-08 2.403200e-17 0 
    0.016634 2.568421e-08 2.784800e-17 0 
    0.017061 3.038560e-08 3.131700e-17 0 
    0.017338 3.448755e-08 3.441800e-17 0 
    0.017742 4.042701e-08 3.852900e-17 0 
    0.018072 4.546559e-08 4.176300e-17 0 
    0.018239 4.882800e-08 4.403400e-17 0 
    0.018664 5.671171e-08 4.884100e-17 0 
    0.019143 6.740441e-08 5.518100e-17 0 
    0.019454 7.545445e-08 5.981200e-17 0 
    0.019861 8.583567e-08 6.528100e-17 0 
    0.020277 9.810064e-08 7.157900e-17 0 
    0.020559 1.078125e-07 7.652200e-17 0 
    0.021038 1.193095e-07 8.087000e-17 0 
    0.021677 1.491642e-07 9.523300e-17 0 
    0.022080 1.677578e-07 1.032300e-16 0 
    0.022387 1.801567e-07 1.078400e-16 0 
    0.022751 2.016773e-07 1.168900e-16 0 
    0.023067 3.278362e-07 1.848400e-16 0 
    0.023442 5.803009e-07 3.168000e-16 0 
    0.024044 8.103615e-07 4.205200e-16 0 
    0.024660 8.349427e-07 4.119000e-16 0 
    0.025293 9.787318e-07 4.589700e-16 0 
    0.025763 8.682724e-07 3.924500e-16 0 
    0.026062 1.063354e-06 4.696600e-16 0 
    0.026485 1.184851e-06 5.067400e-16 0 
    0.026977 1.263728e-06 5.209400e-16 0 
    0.027479 1.341729e-06 5.330700e-16 0 
    0.027990 1.424529e-06 5.454900e-16 0 
    0.028510 1.515855e-06 5.594800e-16 0 
    0.029107 1.547612e-06 5.480100e-16 0 
    0.029717 1.677537e-06 5.698800e-16 0 
    0.030200 1.740537e-06 5.725200e-16 0 
    0.030903 1.904006e-06 5.981200e-16 0 
    0.031915 2.156035e-06 6.350200e-16 0 
    0.032885 2.364063e-06 6.558200e-16 0 
    0.033884 2.556569e-06 6.680200e-16 0 
    0.034914 2.758447e-06 6.788700e-16 0 
    0.035810 2.955788e-06 6.914900e-16 0 
    0.036728 3.203746e-06 7.125000e-16 0 
    0.037584 3.378083e-06 7.174400e-16 0 
    0.038637 3.480753e-06 6.995000e-16 0 
    0.039628 3.851876e-06 7.358500e-16 0 
    0.040644 4.165408e-06 7.564600e-16 0 
    0.041495 4.341664e-06 7.564600e-16 0 
    0.042364 4.473610e-06 7.478000e-16 0 
    0.043152 4.620292e-06 7.443700e-16 0 
    0.044259 4.939328e-06 7.564600e-16 0 
    0.045186 5.112944e-06 7.512500e-16 0 
    0.046132 5.244074e-06 7.392400e-16 0 
    0.047098 5.465994e-06 7.392400e-16 0 
    0.048195 5.789862e-06 7.478000e-16 0 
    0.049091 5.803263e-06 7.224200e-16 0 
    0.050119 6.218243e-06 7.426500e-16 0 
    0.050699 6.146998e-06 7.174400e-16 0 
    0.051404 6.802344e-06 7.723000e-16 0 
    0.052119 6.928787e-06 7.652200e-16 0 
    0.053211 7.057763e-06 7.478000e-16 0 
    0.054200 6.993052e-06 7.141500e-16 0 
    0.055208 7.156016e-06 7.043500e-16 0 
    0.056105 7.685492e-06 7.324700e-16 0 
    0.057148 8.216118e-06 7.547200e-16 0 
    0.058210 8.330278e-06 7.375400e-16 0 
    0.059156 8.643015e-06 7.409500e-16 0 
    0.060117 8.407373e-06 6.978900e-16 0 
    0.061235 7.720809e-06 6.177100e-16 0 
    0.062230 9.368399e-06 7.257500e-16 0 
    0.063241 9.433307e-06 7.076000e-16 0 
    0.064121 9.877886e-06 7.207500e-16 0 
    0.065163 1.001541e-05 7.076000e-16 0 
    0.065917 9.923372e-06 6.851500e-16 0 
    0.066681 1.051163e-05 7.092300e-16 0 
    0.067764 1.090590e-05 7.125000e-16 0 
    0.068707 1.048740e-05 6.664800e-16 0 
    0.069663 1.142008e-05 7.059700e-16 0 
    0.070632 1.080608e-05 6.498100e-16 0 
    0.071779 1.209656e-05 7.043500e-16 0 
    0.072778 1.237842e-05 7.011100e-16 0 
    0.073790 1.269584e-05 6.995000e-16 0 
    0.074645 1.284299e-05 6.914900e-16 0 
    0.075683 1.314194e-05 6.883100e-16 0 
    0.076736 1.232150e-05 6.277500e-16 0 
    0.077804 1.388886e-05 6.883100e-16 0 
    0.078705 1.373006e-05 6.649500e-16 0 
    0.079799 1.447631e-05 6.820000e-16 0 
    0.080724 1.495093e-05 6.883100e-16 0 
    0.081658 1.526379e-05 6.867300e-16 0 
    0.082794 1.594643e-05 6.978900e-16 0 
    0.083753 1.417971e-05 6.064400e-16 0 
    0.084723 1.643113e-05 6.867300e-16 0 
    0.085704 1.665984e-05 6.804400e-16 0 
    0.086696 1.740451e-05 6.946800e-16 0 
    0.087700 1.809940e-05 7.059700e-16 0 
    0.088716 1.886566e-05 7.191000e-16 0 
    0.089743 1.948350e-05 7.257500e-16 0 
    0.090782 1.952848e-05 7.108700e-16 0 
    0.091833 2.509947e-05 8.928700e-16 0 
    0.092683 1.093124e-04 3.817600e-15 0 
    0.093756 2.289111e-04 7.812500e-15 0 
    0.094842 4.371872e-04 1.458100e-14 0 
    0.095719 6.526183e-04 2.136900e-14 0 
    0.096828 6.833920e-04 2.186700e-14 0 
    0.097724 1.139376e-04 3.579200e-15 0 
    0.098855 5.031112e-04 1.544500e-14 0 
    0.099770 6.133024e-04 1.848400e-14 0 
    0.100693 1.036721e-03 3.067500e-14 0 
    0.101859 1.068236e-03 3.088800e-14 0 
    0.102802 4.939248e-04 1.402100e-14 0 
    0.103753 7.025393e-04 1.957900e-14 0 
    0.104713 1.547647e-03 4.234400e-14 0 
    0.105925 1.558361e-03 4.166700e-14 0 
    0.106905 1.147249e-03 3.011500e-14 0 
    0.107895 1.467817e-03 3.782600e-14 0 
    0.108893 1.083081e-03 2.740200e-14 0 
    0.109901 1.639338e-03 4.071800e-14 0 
    0.110918 1.598339e-03 3.897500e-14 0 
    0.111944 1.515889e-03 3.629000e-14 0 
    0.112720 1.344824e-03 3.175300e-14 0 
    0.113763 1.912787e-03 4.433900e-14 0 
    0.114815 1.736441e-03 3.951700e-14 0 
    0.115878 1.939409e-03 4.333000e-14 0 
    0.116950 2.030806e-03 4.454400e-14 0 
    0.117761 1.302173e-03 2.817000e-14 0 
    0.118850 2.035459e-03 4.323000e-14 0 
    0.119950 1.257943e-03 2.622900e-14 0 
    0.120781 8.234956e-04 1.693500e-14 0 
    0.121899 7.009163e-04 1.415100e-14 0 
    0.122744 1.481398e-03 2.949800e-14 0 
    0.123880 2.469826e-03 4.828200e-14 0 
    0.124738 2.771159e-03 5.343000e-14 0 
    0.125893 2.622225e-03 4.963500e-14 0 
    0.126765 2.196147e-03 4.100000e-14 0 
    0.127938 3.116492e-03 5.712000e-14 0 
    0.128825 3.362547e-03 6.078400e-14 0 
    0.130017 2.447197e-03 4.343000e-14 0 
    0.130918 2.441525e-03 4.273500e-14 0 
    0.131826 3.378070e-03 5.831600e-14 0 
    0.132739 3.240898e-03 5.518100e-14 0 
    0.133968 2.758460e-03 4.610900e-14 0 
    0.134896 3.627982e-03 5.981200e-14 0 
    0.135831 3.545364e-03 5.764800e-14 0 
    0.136773 3.080832e-03 4.940700e-14 0 
    0.138038 3.378043e-03 5.318500e-14 0 
    0.138995 3.456729e-03 5.367700e-14 0 
    0.139959 2.996848e-03 4.589700e-14 0 
    0.140929 3.159883e-03 4.773000e-14 0 
    0.141906 3.255868e-03 4.850500e-14 0 
    0.142889 3.472637e-03 5.102500e-14 0 
    0.143880 3.472669e-03 5.032500e-14 0 
    0.144544 3.764146e-03 5.404900e-14 0 
    0.145211 3.896384e-03 5.543500e-14 0 
    0.145881 3.772814e-03 5.318500e-14 0 
    0.146893 3.440901e-03 4.784000e-14 0 
    0.147911 3.512897e-03 4.817100e-14 0 
    0.148936 3.686933e-03 4.986400e-14 0 
    0.149969 3.834139e-03 5.114300e-14 0 
    0.151008 3.611301e-03 4.751000e-14 0 
    0.151705 3.130880e-03 4.081200e-14 0 
    0.152055 3.456780e-03 4.485300e-14 0 
    0.153109 3.347101e-03 4.283400e-14 0 
    0.153815 2.822683e-03 3.579200e-14 0 
    0.154882 3.278419e-03 4.100000e-14 0 
    0.155955 3.123670e-03 3.852900e-14 0 
    0.157036 3.211183e-03 3.906500e-14 0 
    0.158125 3.504826e-03 4.205200e-14 0 
    0.158855 3.798948e-03 4.516300e-14 0 
    0.159956 3.923431e-03 4.600300e-14 0 
    0.161065 3.923459e-03 4.537200e-14 0 
    0.161808 4.005558e-03 4.589700e-14 0 
    0.162930 3.772832e-03 4.263700e-14 0 
    0.164059 4.155910e-03 4.632200e-14 0 
    0.164816 4.262534e-03 4.707500e-14 0 
    0.165959 3.941591e-03 4.293300e-14 0 
    0.167109 4.432695e-03 4.762000e-14 0 
    0.167880 3.842941e-03 4.090600e-14 0 
    0.168267 4.515105e-03 4.784000e-14 0 
    0.169044 4.860280e-03 5.102500e-14 0 
    0.169824 4.546368e-03 4.729200e-14 0 
    0.171002 4.392101e-03 4.506000e-14 0 
    0.172187 4.136836e-03 4.185900e-14 0 
    0.172982 4.155973e-03 4.166700e-14 0 
    0.174181 4.577956e-03 4.526800e-14 0 
    0.174985 4.504676e-03 4.413500e-14 0 
    0.176198 4.973527e-03 4.806000e-14 0 
    0.177011 4.504730e-03 4.313100e-14 0 
    0.177828 4.662992e-03 4.423700e-14 0 
    0.179061 4.849184e-03 4.537200e-14 0 
    0.179887 5.329259e-03 4.940700e-14 0 
    0.181134 5.378575e-03 4.918000e-14 0 
    0.181970 4.894003e-03 4.433900e-14 0 
    0.183231 5.112812e-03 4.568600e-14 0 
    0.184077 4.916618e-03 4.353000e-14 0 
    0.184927 4.484041e-03 3.933600e-14 0 
    0.186209 4.535910e-03 3.924500e-14 0 
    0.187068 4.760643e-03 4.081200e-14 0 
    0.187932 5.353922e-03 4.547700e-14 0 
    0.189234 4.916645e-03 4.119000e-14 0 
    0.190108 4.749657e-03 3.942600e-14 0 
    0.190985 5.148363e-03 4.234400e-14 0 
    0.191867 4.939316e-03 4.025200e-14 0 
    0.193197 4.927906e-03 3.960800e-14 0 
    0.194089 5.160236e-03 4.109500e-14 0 
    0.194984 5.453411e-03 4.303200e-14 0 
    0.195884 5.112875e-03 3.997500e-14 0 
    0.197242 5.816598e-03 4.485300e-14 0 
    0.198153 6.048713e-03 4.621500e-14 0 
    0.199067 5.736766e-03 4.343000e-14 0 
    0.199986 5.606148e-03 4.205200e-14 0 
    0.200909 5.883922e-03 4.373100e-14 0 
    0.202302 5.684226e-03 4.166700e-14 0 
    0.203236 6.090679e-03 4.423700e-14 0 
    0.204174 5.763230e-03 4.147500e-14 0 
    0.205116 6.118754e-03 4.363000e-14 0 
    0.206063 5.830026e-03 4.119000e-14 0 
    0.207014 5.897391e-03 4.128400e-14 0 
    0.207970 6.496378e-03 4.506000e-14 0 
    0.208449 6.261287e-03 4.323000e-14 0 
    0.208930 6.647579e-03 4.568600e-14 0 
    0.209894 6.290243e-03 4.283400e-14 0 
    0.211349 6.407235e-03 4.303200e-14 0 
    0.212324 6.571528e-03 4.373100e-14 0 
    0.213304 6.709072e-03 4.423700e-14 0 
    0.214289 6.218149e-03 4.062400e-14 0 
    0.215278 6.541389e-03 4.234400e-14 0 
    0.216272 6.897076e-03 4.423700e-14 0 
    0.217270 6.693689e-03 4.253900e-14 0 
    0.218273 6.693697e-03 4.214900e-14 0 
    0.219281 6.693796e-03 4.176300e-14 0 
    0.220293 7.090411e-03 4.383200e-14 0 
    0.221309 6.944872e-03 4.253900e-14 0 
    0.222331 6.541379e-03 3.970000e-14 0 
    0.223357 6.421961e-03 3.861800e-14 0 
    0.224388 7.074003e-03 4.214900e-14 0 
    0.224905 6.771110e-03 4.015900e-14 0 
    0.225944 6.392397e-03 3.756500e-14 0 
    0.226986 6.632339e-03 3.861800e-14 0 
    0.228034 6.928935e-03 3.997500e-14 0 
    0.229087 7.322654e-03 4.185900e-14 0 
    0.230144 6.865310e-03 3.888500e-14 0 
    0.231207 7.024386e-03 3.942100e-14 0 
    0.232274 6.615318e-03 3.678500e-14 0 
    0.233346 5.017600e-03 2.764500e-14 0 
    0.234423 6.073532e-03 3.315600e-14 0 
    0.234963 5.853479e-03 3.180800e-14 0 
    0.236048 6.612319e-03 3.560200e-14 0 
    0.237137 5.933433e-03 3.165400e-14 0 
    0.238232 6.240913e-03 3.298900e-14 0 
    0.239332 5.717289e-03 2.994400e-14 0 
    0.240436 6.253636e-03 3.245300e-14 0 
    0.240991 6.013257e-03 3.106200e-14 0 
    0.242103 6.295715e-03 3.222300e-14 0 
    0.243220 6.982178e-03 3.540900e-14 0 
    0.244343 6.791074e-03 3.412400e-14 0 
    0.245471 7.376942e-03 3.672800e-14 0 
    0.246037 7.359548e-03 3.647300e-14 0 
    0.247172 7.240860e-03 3.555600e-14 0 
    0.248313 6.994019e-03 3.402900e-14 0 
    0.249460 7.025385e-03 3.386800e-14 0 
    0.250035 6.632065e-03 3.182500e-14 0 
    0.251189 7.808749e-03 3.712800e-14 0 
    0.251768 6.569864e-03 3.109400e-14 0 
    0.252348 6.768920e-03 3.188900e-14 0 
    0.253513 6.568489e-03 3.066100e-14 0 
    0.254097 6.893420e-03 3.203000e-14 0 
    0.255270 6.845132e-03 3.151400e-14 0 
    0.256448 7.912476e-03 3.609400e-14 0 
    0.257040 7.435027e-03 3.376000e-14 0 
    0.258226 8.151267e-03 3.667300e-14 0 
    0.259418 7.983077e-03 3.558700e-14 0 
    0.260016 7.818676e-03 3.469400e-14 0 
    0.261216 7.517545e-03 3.305200e-14 0 
    0.262422 7.430337e-03 3.236900e-14 0 
    0.263027 8.034937e-03 3.484200e-14 0 
    0.264241 9.055617e-03 3.890800e-14 0 
    0.265461 1.041963e-02 4.435800e-14 0 
    0.266072 1.158313e-02 4.908500e-14 0 
    0.267301 9.479010e-03 3.980000e-14 0 
    0.268534 1.029666e-02 4.283700e-14 0 
    0.269154 1.060892e-02 4.393300e-14 0 
    0.270396 9.718556e-03 3.987700e-14 0 
    0.271019 1.050917e-02 4.292300e-14 0 
    0.272270 9.473441e-03 3.833800e-14 0 
    0.273527 9.192768e-03 3.686100e-14 0 
    0.274157 1.000933e-02 3.995100e-14 0 
    0.275423 8.078859e-03 3.195000e-14 0 
    0.276058 8.616080e-03 3.391800e-14 0 
    0.277332 9.402619e-03 3.667500e-14 0 
    0.278612 1.000427e-02 3.866400e-14 0 
    0.279254 8.874703e-03 3.414100e-14 0 
    0.280543 6.824718e-03 2.601400e-14 0 
    0.281190 7.431056e-03 2.819500e-14 0 
    0.282488 9.999671e-03 3.759300e-14 0 
    0.283139 1.140118e-02 4.266500e-14 0 
    0.284446 1.113989e-02 4.130500e-14 0 
    0.285102 1.039557e-02 3.836800e-14 0 
    0.286418 9.306354e-03 3.403300e-14 0 
    0.287078 1.198818e-02 4.363900e-14 0 
    0.288403 1.302208e-02 4.696800e-14 0 
    0.289068 1.252123e-02 4.495400e-14 0 
    0.290402 1.320013e-02 4.695700e-14 0 
    0.291743 1.572197e-02 5.541500e-14 0 
    0.293765 1.477074e-02 5.134800e-14 0 
    0.295801 1.449787e-02 4.970800e-14 0 
    0.297852 1.535316e-02 5.191800e-14 0 
    0.299916 1.563474e-02 5.214500e-14 0 
    0.301995 1.618027e-02 5.322400e-14 0 
    0.304089 1.670627e-02 5.420000e-14 0 
    0.306196 1.713047e-02 5.481400e-14 0 
    0.307610 1.789338e-02 5.673000e-14 0 
    0.309742 1.830569e-02 5.724100e-14 0 
    0.311889 1.942998e-02 5.992300e-14 0 
    0.314051 1.907072e-02 5.800800e-14 0 
    0.316228 1.937536e-02 5.812600e-14 0 
    0.317687 2.023850e-02 6.015900e-14 0 
    0.319890 1.862365e-02 5.459900e-14 0 
    0.322107 2.032105e-02 5.875800e-14 0 
    0.323594 1.831781e-02 5.248000e-14 0 
    0.325837 2.222062e-02 6.278800e-14 0 
    0.328095 2.469658e-02 6.882700e-14 0 
    0.329610 2.446599e-02 6.755900e-14 0 
    0.331894 2.434689e-02 6.630800e-14 0 
    0.333426 2.456773e-02 6.629600e-14 0 
    0.334195 2.531184e-02 6.799000e-14 0 
    0.334966 2.367467e-02 6.330000e-14 0 
    0.335738 2.736842e-02 7.284000e-14 0 
    0.336512 2.631517e-02 6.971500e-14 0 
    0.337287 2.066155e-02 5.448600e-14 0 
    0.338065 2.350331e-02 6.169500e-14 0 
    0.338844 2.612659e-02 6.826600e-14 0 
    0.339625 2.606416e-02 6.779000e-14 0 
    0.340408 2.612190e-02 6.762800e-14 0 
    0.341193 3.005814e-02 7.746100e-14 0 
    0.341979 2.599713e-02 6.668800e-14 0 
    0.342768 2.482483e-02 6.338800e-14 0 
    0.343558 2.772299e-02 7.046300e-14 0 
    0.344350 3.067625e-02 7.761100e-14 0 
    0.345144 2.696261e-02 6.790200e-14 0 
    0.345939 2.574662e-02 6.454200e-14 0 
    0.346737 2.739562e-02 6.836000e-14 0 
    0.347536 2.544700e-02 6.320600e-14 0 
    0.348337 2.928145e-02 7.239600e-14 0 
    0.349140 2.676409e-02 6.586800e-14 0 
    0.349945 2.874171e-02 7.041000e-14 0 
    0.350752 2.682070e-02 6.540200e-14 0 
    0.351560 3.072063e-02 7.456800e-14 0 
    0.352371 2.820912e-02 6.815700e-14 0 
    0.353183 3.179411e-02 7.646600e-14 0 
    0.353997 2.566261e-02 6.143600e-14 0 
    0.354813 3.099257e-02 7.385500e-14 0 
    0.355631 3.193116e-02 7.574200e-14 0 
    0.356451 3.259698e-02 7.696600e-14 0 
    0.357273 3.112684e-02 7.315700e-14 0 
    0.358096 2.723279e-02 6.371100e-14 0 
    0.358922 2.838229e-02 6.609500e-14 0 
    0.359749 2.426656e-02 5.625100e-14 0 
    0.360579 3.019693e-02 6.967600e-14 0 
    0.361410 3.450819e-02 7.925800e-14 0 
    0.362243 2.798179e-02 6.397300e-14 0 
    0.363078 3.032736e-02 6.901700e-14 0 
    0.363915 3.671030e-02 8.315900e-14 0 
    0.364473 2.486820e-02 5.616100e-14 1 
    0.364748 2.752665e-02 6.207100e-14 1 
    0.365023 2.006266e-02 4.517200e-14 1 
    0.365298 2.319455e-02 5.214500e-14 1 
    0.365573 2.574333e-02 5.778800e-14 1 
    0.365848 2.912283e-02 6.527600e-14 1 
    0.366123 3.339221e-02 7.473300e-14 1 
    0.366398 3.200774e-02 7.152700e-14 1 
    0.366673 3.268457e-02 7.293000e-14 1 
    0.366948 3.561649e-02 7.935300e-14 1 
    0.367223 3.936981e-02 8.758400e-14 1 
    0.367498 3.345757e-02 7.432000e-14 1 
    0.367773 3.438728e-02 7.627100e-14 1 
    0.368048 3.697950e-02 8.189800e-14 1 
    0.368323 3.597345e-02 7.955100e-14 1 
    0.368598 3.799767e-02 8.390200e-14 1 
    0.368873 3.155945e-02 6.958200e-14 1 
    0.369148 2.915002e-02 6.417400e-14 1 
    0.369423 2.779052e-02 6.109000e-14 1 
    0.369698 3.666168e-02 8.047100e-14 1 
    0.369973 3.717159e-02 8.146900e-14 1 
    0.370248 3.502394e-02 7.664800e-14 1 
    0.370523 3.194263e-02 6.980100e-14 1 
    0.370798 3.738247e-02 8.156700e-14 1 
    0.371073 3.798689e-02 8.276300e-14 1 
    0.371348 3.222661e-02 7.010900e-14 1 
    0.371623 3.485322e-02 7.571100e-14 1 
    0.371898 3.148261e-02 6.828800e-14 1 
    0.372173 3.182653e-02 6.893200e-14 1 
    0.372448 3.663345e-02 7.922600e-14 1 
    0.372723 4.774301e-02 1.031000e-13 1 
    0.372998 4.177489e-02 9.007900e-14 1 
    0.373273 4.648140e-02 1.000800e-13 1 
    0.373548 5.093141e-02 1.095000e-13 1 
    0.373823 4.589041e-02 9.851700e-14 1 
    0.374098 4.822653e-02 1.033800e-13 1 
    0.374373 3.901405e-02 8.350900e-14 1 
    0.374648 3.184139e-02 6.805600e-14 1 
    0.374923 3.089715e-02 6.594100e-14 1 
    0.375198 3.246050e-02 6.917600e-14 1 
    0.375473 2.977450e-02 6.335900e-14 1 
    0.375748 3.214771e-02 6.830900e-14 1 
    0.376023 3.219714e-02 6.831400e-14 1 
    0.376298 3.590556e-02 7.607100e-14 1 
    0.376573 3.361918e-02 7.112300e-14 1 
    0.376848 4.056026e-02 8.568200e-14 1 
    0.377123 3.263089e-02 6.883100e-14 1 
    0.377398 4.137807e-02 8.715500e-14 1 
    0.377673 4.044469e-02 8.506500e-14 1 
    0.377948 4.118403e-02 8.649400e-14 1 
    0.378223 3.701248e-02 7.762000e-14 1 
    0.378498 4.113493e-02 8.614000e-14 1 
    0.378773 4.758579e-02 9.950400e-14 1 
    0.379048 4.428137e-02 9.246000e-14 1 
    0.379323 4.832649e-02 1.007600e-13 1 
    0.379598 4.546090e-02 9.464800e-14 1 
    0.379873 4.383507e-02 9.113100e-14 1 
    0.380148 4.242935e-02 8.808100e-14 1 
    0.380423 4.094128e-02 8.486900e-14 1 
    0.380698 3.996471e-02 8.272500e-14 1 
    0.380973 4.046370e-02 8.363700e-14 1 
    0.381248 4.359532e-02 8.998000e-14 1 
    0.381523 4.516041e-02 9.307600e-14 1 
    0.381798 4.778768e-02 9.834900e-14 1 
    0.382073 4.590285e-02 9.433400e-14 1 
    0.382348 4.671599e-02 9.586700e-14 1 
    0.382623 4.178705e-02 8.562900e-14 1 
    0.382898 4.499146e-02 9.206300e-14 1 
    0.383173 3.985031e-02 8.142600e-14 1 
    0.383448 3.928656e-02 8.015900e-14 1 
    0.383723 3.682359e-02 7.502600e-14 1 
    0.383998 3.177594e-02 6.464900e-14 1 
    0.384273 3.544076e-02 7.200200e-14 1 
    0.384548 3.435679e-02 6.970000e-14 1 
    0.384823 3.133410e-02 6.347700e-14 1 
    0.385098 3.362664e-02 6.802400e-14 1 
    0.385373 4.371164e-02 8.829900e-14 1 
    0.385648 4.048476e-02 8.166400e-14 1 
    0.385923 4.441040e-02 8.945500e-14 1 
    0.386198 4.539048e-02 9.129900e-14 1 
    0.386473 4.513502e-02 9.065600e-14 1 
    0.386748 4.394285e-02 8.813600e-14 1 
