# NGC 7673       
# 
# An Atlas of Galaxy Spectral Energy Distributions from the Ultraviolet to the Mid-Infrared
# Brown et al. (2014)
# http://dx.doi.org/10.5072/03/529D3551F0117
# http://dx.doi.org/10.17909/t9-5bxk-dh29
# 
# The Spectral Energy Distributions of Active Galactic Nuclei
# Brown et al. (2019)
# http://dx.doi.org/10.17909/t9-3dbt-8734
# 
# Column 1: Observed wavelength (um)
# Column 2: f_nu (Jy)
# Column 3: f_lam (erg/s/cm2/A)
# Column 4: Source (0 = model, 1 = Optical Spectrun, 2 = Akari, 3 = Spitzer IRS)
# 
    0.010116 7.305927e-17 2.141800e-25 0 
    0.010328 1.080685e-16 3.039400e-25 0 
    0.010520 1.481471e-16 4.015900e-25 0 
    0.010715 2.078007e-16 5.429800e-25 0 
    0.010914 2.914952e-16 7.341500e-25 0 
    0.011117 4.826511e-16 1.171600e-24 0 
    0.011535 8.783928e-16 1.980500e-24 0 
    0.011940 1.495112e-15 3.146200e-24 0 
    0.012246 4.070537e-15 8.143000e-24 0 
    0.012647 6.739617e-15 1.264100e-23 0 
    0.012853 8.563948e-15 1.555200e-23 0 
    0.012942 9.653315e-15 1.729000e-23 0 
    0.013243 1.347831e-14 2.305600e-23 0 
    0.013335 1.579951e-14 2.665500e-23 0 
    0.013552 1.961882e-14 3.204700e-23 0 
    0.013868 2.816355e-14 4.393200e-23 0 
    0.014158 3.807729e-14 5.698800e-23 0 
    0.014454 6.466085e-14 9.285100e-23 0 
    0.014859 1.105716e-13 1.502400e-22 0 
    0.015276 1.587366e-13 2.040700e-22 0 
    0.015668 2.247426e-13 2.746500e-22 0 
    0.016069 3.145118e-13 3.654100e-22 0 
    0.016368 4.005454e-13 4.485200e-22 0 
    0.016788 5.491124e-13 5.845000e-22 0 
    0.017179 7.390247e-13 7.512500e-22 0 
    0.017498 9.196831e-13 9.011200e-22 0 
    0.017906 1.215275e-12 1.137100e-21 0 
    0.018197 1.488212e-12 1.348300e-21 0 
    0.018408 1.700936e-12 1.505900e-21 0 
    0.018793 2.191109e-12 1.861200e-21 0 
    0.019320 2.983113e-12 2.397600e-21 0 
    0.019634 3.578283e-12 2.784700e-21 0 
    0.020045 4.504736e-12 3.363400e-21 0 
    0.020417 5.605990e-12 4.034500e-21 0 
    0.020749 6.616964e-12 4.610900e-21 0 
    0.021232 8.407080e-12 5.594800e-21 0 
    0.021827 1.155186e-11 7.274200e-21 0 
    0.022233 1.398491e-11 8.487600e-21 0 
    0.022542 1.605643e-11 9.479500e-21 0 
    0.022961 1.930458e-11 1.098500e-20 0 
    0.023281 4.849137e-11 2.684000e-20 0 
    0.023659 7.702882e-11 4.128400e-20 0 
    0.024266 1.068212e-10 5.442300e-20 0 
    0.024889 1.252222e-10 6.064400e-20 0 
    0.025468 1.522828e-10 7.043400e-20 0 
    0.026002 1.547669e-10 6.867300e-20 0 
    0.026303 1.860679e-10 8.068300e-20 0 
    0.026730 2.126474e-10 8.928600e-20 0 
    0.027227 2.408045e-10 9.745100e-20 0 
    0.027733 2.720631e-10 1.061200e-19 0 
    0.028249 3.052639e-10 1.147600e-19 0 
    0.028708 3.409230e-10 1.241000e-19 0 
    0.029309 3.772805e-10 1.317600e-19 0 
    0.029923 4.351874e-10 1.458100e-19 0 
    0.030409 4.684567e-10 1.519800e-19 0 
    0.031117 5.453284e-10 1.689600e-19 0 
    0.032137 6.724818e-10 1.953400e-19 0 
    0.033189 8.047264e-10 2.191700e-19 0 
    0.034198 9.542368e-10 2.447800e-19 0 
    0.035156 1.121166e-09 2.721400e-19 0 
    0.036141 1.311179e-09 3.011500e-19 0 
    0.036983 1.533421e-09 3.363400e-19 0 
    0.037931 1.768669e-09 3.687900e-19 0 
    0.038905 2.054357e-09 4.071800e-19 0 
    0.039994 2.509860e-09 4.707400e-19 0 
    0.040926 2.983064e-09 5.343000e-19 0 
    0.041879 3.537166e-09 6.050400e-19 0 
    0.042658 4.061278e-09 6.695500e-19 0 
    0.043451 4.716953e-09 7.495200e-19 0 
    0.044566 5.938391e-09 8.969800e-19 0 
    0.045604 7.288742e-09 1.051400e-18 0 
    0.046559 8.702755e-09 1.204400e-18 0 
    0.047534 1.085605e-08 1.441400e-18 0 
    0.048529 1.357302e-08 1.729000e-18 0 
    0.049545 1.681393e-08 2.054900e-18 0 
    0.050582 2.141156e-08 2.510600e-18 0 
    0.051168 8.368787e-08 9.589300e-18 0 
    0.051761 3.270947e-07 3.662600e-17 0 
    0.052602 3.504829e-07 3.800000e-17 0 
    0.053580 3.851870e-07 4.025200e-17 0 
    0.054576 3.905362e-07 3.933500e-17 0 
    0.055590 5.316875e-07 5.161600e-17 0 
    0.056624 6.740022e-07 6.306400e-17 0 
    0.057677 7.937244e-07 7.157900e-17 0 
    0.058614 8.122105e-07 7.092300e-17 0 
    0.059704 1.003853e-06 8.448600e-17 0 
    0.060674 1.073170e-06 8.745500e-17 0 
    0.061659 1.299086e-06 1.025100e-16 0 
    0.062661 1.565456e-06 1.196100e-16 0 
    0.063680 1.752497e-06 1.296500e-16 0 
    0.064714 1.912754e-06 1.370200e-16 0 
    0.065766 2.201221e-06 1.526800e-16 0 
    0.066527 2.380513e-06 1.613600e-16 0 
    0.067298 2.634380e-06 1.745000e-16 0 
    0.068234 2.888507e-06 1.861200e-16 0 
    0.069343 3.017624e-06 1.882700e-16 0 
    0.070307 3.738118e-06 2.268700e-16 0 
    0.071285 3.790160e-06 2.237600e-16 0 
    0.072444 4.695330e-06 2.684000e-16 0 
    0.073451 5.101019e-06 2.836500e-16 0 
    0.074302 5.541950e-06 3.011500e-16 0 
    0.075336 6.247037e-06 3.302100e-16 0 
    0.076384 6.849722e-06 3.522000e-16 0 
    0.077446 7.510349e-06 3.756500e-16 0 
    0.078343 8.311164e-06 4.062400e-16 0 
    0.079433 9.282476e-06 4.413500e-16 0 
    0.080353 1.003852e-05 4.664300e-16 0 
    0.081470 1.088085e-05 4.918000e-16 0 
    0.082414 1.171292e-05 5.173500e-16 0 
    0.083368 1.299159e-05 5.607700e-16 0 
    0.084528 1.246418e-05 5.233400e-16 0 
    0.085507 1.495094e-05 6.134600e-16 0 
    0.086497 1.613111e-05 6.468200e-16 0 
    0.087498 1.764659e-05 6.914900e-16 0 
    0.088512 1.926055e-05 7.375400e-16 0 
    0.089536 2.106975e-05 7.884700e-16 0 
    0.090573 2.278568e-05 8.332700e-16 0 
    0.091622 2.413585e-05 8.625500e-16 0 
    0.092470 3.545406e-05 1.243900e-15 0 
    0.093541 2.102168e-04 7.207500e-15 0 
    0.094624 4.525499e-04 1.516300e-14 0 
    0.095499 9.155019e-04 3.011500e-14 0 
    0.096605 1.255069e-03 4.034500e-14 0 
    0.097499 1.587321e-03 5.009400e-14 0 
    0.098628 4.871523e-04 1.502400e-14 0 
    0.099541 1.793356e-03 5.429800e-14 0 
    0.100693 1.805770e-03 5.343000e-14 0 
    0.101625 2.166016e-03 6.291900e-14 0 
    0.102565 2.035469e-03 5.804800e-14 0 
    0.103753 8.988154e-04 2.504900e-14 0 
    0.104713 1.805795e-03 4.940700e-14 0 
    0.105682 2.764808e-03 7.426500e-14 0 
    0.106660 2.796839e-03 7.375400e-14 0 
    0.107647 2.550762e-03 6.603700e-14 0 
    0.108643 2.888465e-03 7.341500e-14 0 
    0.109648 2.634290e-03 6.573300e-14 0 
    0.110662 3.102136e-03 7.599500e-14 0 
    0.111686 3.031540e-03 7.291000e-14 0 
    0.112720 3.095047e-03 7.307800e-14 0 
    0.113763 2.921920e-03 6.773100e-14 0 
    0.114815 3.339343e-03 7.599500e-14 0 
    0.115878 3.218578e-03 7.190900e-14 0 
    0.116681 3.385825e-03 7.460800e-14 0 
    0.117761 3.520997e-03 7.617000e-14 0 
    0.118850 2.868523e-03 6.092300e-14 0 
    0.119950 3.602996e-03 7.512500e-14 0 
    0.120781 3.196388e-03 6.573300e-14 0 
    0.121899 2.658687e-03 5.367700e-14 0 
    0.122744 1.392056e-03 2.771900e-14 0 
    0.123880 2.983108e-03 5.831600e-14 0 
    0.125026 3.842952e-03 7.375400e-14 0 
    0.125893 4.070669e-03 7.705200e-14 0 
    0.127057 4.108300e-03 7.634600e-14 0 
    0.127938 4.005555e-03 7.341500e-14 0 
    0.128825 4.381921e-03 7.921100e-14 0 
    0.130017 4.504690e-03 7.994400e-14 0 
    0.130918 4.136796e-03 7.240800e-14 0 
    0.132130 4.272346e-03 7.341500e-14 0 
    0.133045 4.716955e-03 7.994400e-14 0 
    0.133968 4.630915e-03 7.740800e-14 0 
    0.134896 4.494278e-03 7.409400e-14 0 
    0.136144 4.837931e-03 7.830400e-14 0 
    0.137088 4.893979e-03 7.812400e-14 0 
    0.138038 4.771562e-03 7.512500e-14 0 
    0.138995 4.860298e-03 7.547200e-14 0 
    0.139959 4.973526e-03 7.617000e-14 0 
    0.140929 4.515064e-03 6.820000e-14 0 
    0.142233 4.738728e-03 7.027200e-14 0 
    0.143219 5.065975e-03 7.409400e-14 0 
    0.144212 5.089398e-03 7.341500e-14 0 
    0.145211 5.231916e-03 7.443600e-14 0 
    0.145881 5.366142e-03 7.564600e-14 0 
    0.146218 5.366163e-03 7.529800e-14 0 
    0.147231 5.378490e-03 7.443600e-14 0 
    0.148252 5.292534e-03 7.224100e-14 0 
    0.149279 5.366115e-03 7.224100e-14 0 
    0.150314 5.428281e-03 7.207500e-14 0 
    0.151356 5.491124e-03 7.190900e-14 0 
    0.152055 5.366166e-03 6.962800e-14 0 
    0.152757 5.124689e-03 6.588500e-14 0 
    0.153462 5.304770e-03 6.757500e-14 0 
    0.154170 5.378549e-03 6.788700e-14 0 
    0.155239 5.054315e-03 6.291900e-14 0 
    0.156315 5.195971e-03 6.379500e-14 0 
    0.157398 5.124611e-03 6.205600e-14 0 
    0.158125 5.341501e-03 6.408900e-14 0 
    0.159221 5.619036e-03 6.649400e-14 0 
    0.160325 5.736728e-03 6.695500e-14 0 
    0.161436 5.883923e-03 6.773100e-14 0 
    0.162181 5.803160e-03 6.618900e-14 0 
    0.163305 5.856853e-03 6.588500e-14 0 
    0.164437 5.883891e-03 6.528100e-14 0 
    0.165196 6.090610e-03 6.695500e-14 0 
    0.166341 6.132815e-03 6.649400e-14 0 
    0.167494 6.118723e-03 6.543100e-14 0 
    0.168267 6.377680e-03 6.757500e-14 0 
    0.169044 6.203822e-03 6.513000e-14 0 
    0.169434 6.496306e-03 6.788700e-14 0 
    0.170608 6.586643e-03 6.788700e-14 0 
    0.171396 6.481356e-03 6.618900e-14 0 
    0.172584 6.436689e-03 6.483100e-14 0 
    0.173380 6.319145e-03 6.306400e-14 0 
    0.174582 6.377704e-03 6.277500e-14 0 
    0.175388 6.616988e-03 6.453300e-14 0 
    0.176604 6.586695e-03 6.335600e-14 0 
    0.177419 6.786759e-03 6.468200e-14 0 
    0.178649 6.617033e-03 6.219900e-14 0 
    0.179473 6.709029e-03 6.248600e-14 0 
    0.180717 6.865281e-03 6.306400e-14 0 
    0.181552 7.041486e-03 6.408900e-14 0 
    0.182390 7.106640e-03 6.408900e-14 0 
    0.183654 6.912941e-03 6.148700e-14 0 
    0.184502 7.074058e-03 6.234300e-14 0 
    0.185780 7.057696e-03 6.134600e-14 0 
    0.186638 6.755540e-03 5.818100e-14 0 
    0.187499 6.771139e-03 5.778100e-14 0 
    0.188799 6.976926e-03 5.872000e-14 0 
    0.189671 7.272244e-03 6.064400e-14 0 
    0.190546 6.897025e-03 5.698800e-14 0 
    0.191867 6.724621e-03 5.480100e-14 0 
    0.192753 7.155931e-03 5.778100e-14 0 
    0.193642 6.976859e-03 5.581900e-14 0 
    0.194536 6.896989e-03 5.467400e-14 0 
    0.195884 7.222103e-03 5.646600e-14 0 
    0.196789 7.441571e-03 5.764800e-14 0 
    0.197697 7.090247e-03 5.442300e-14 0 
    0.199067 7.545108e-03 5.712000e-14 0 
    0.199986 7.810240e-03 5.858500e-14 0 
    0.200447 7.527669e-03 5.620600e-14 0 
    0.201837 7.493108e-03 5.518000e-14 0 
    0.202768 7.703007e-03 5.620600e-14 0 
    0.203704 7.738601e-03 5.594800e-14 0 
    0.204645 7.973871e-03 5.712000e-14 0 
    0.205589 7.738634e-03 5.492700e-14 0 
    0.207014 7.882425e-03 5.518000e-14 0 
    0.207970 7.667629e-03 5.318400e-14 0 
    0.208930 7.864445e-03 5.404900e-14 0 
    0.209894 8.273033e-03 5.633600e-14 0 
    0.210378 7.955391e-03 5.392400e-14 0 
    0.210863 8.140767e-03 5.492700e-14 0 
    0.211836 7.955351e-03 5.318400e-14 0 
    0.212814 8.178280e-03 5.417300e-14 0 
    0.213796 8.253929e-03 5.417300e-14 0 
    0.214783 8.426885e-03 5.480100e-14 0 
    0.215774 8.330387e-03 5.367700e-14 0 
    0.216770 8.292033e-03 5.294000e-14 0 
    0.217771 8.504741e-03 5.380000e-14 0 
    0.218776 8.485141e-03 5.318400e-14 0 
    0.219786 8.504735e-03 5.281800e-14 0 
    0.220801 8.524477e-03 5.245500e-14 0 
    0.221820 8.702895e-03 5.306200e-14 0 
    0.222844 8.662924e-03 5.233400e-14 0 
    0.223872 8.623084e-03 5.161600e-14 0 
    0.224905 8.563745e-03 5.079100e-14 0 
    0.225944 8.743111e-03 5.137900e-14 0 
    0.226986 8.763144e-03 5.102500e-14 0 
    0.228034 8.682878e-03 5.009400e-14 0 
    0.229087 8.803664e-03 5.032500e-14 0 
    0.230144 8.905217e-03 5.043900e-14 0 
    0.231207 9.004956e-03 5.053600e-14 0 
    0.232274 8.817066e-03 4.902800e-14 0 
    0.233346 8.957083e-03 4.935000e-14 0 
    0.233884 8.873350e-03 4.866400e-14 0 
    0.234963 8.015408e-03 4.355600e-14 0 
    0.236048 8.805776e-03 4.741200e-14 0 
    0.237137 8.761814e-03 4.674300e-14 0 
    0.238232 8.962668e-03 4.737600e-14 0 
    0.239332 8.856795e-03 4.638700e-14 0 
    0.240436 8.955844e-03 4.647600e-14 0 
    0.240991 8.790676e-03 4.540900e-14 0 
    0.242103 8.991953e-03 4.602300e-14 0 
    0.243220 8.947340e-03 4.537500e-14 0 
    0.244343 9.005874e-03 4.525300e-14 0 
    0.245471 9.169759e-03 4.565400e-14 0 
    0.246037 9.021414e-03 4.470900e-14 0 
    0.247172 9.206662e-03 4.520900e-14 0 
    0.248313 9.245407e-03 4.498300e-14 0 
    0.249460 9.220663e-03 4.445100e-14 0 
    0.250035 9.176319e-03 4.403400e-14 0 
    0.251189 9.300336e-03 4.422000e-14 0 
    0.252348 8.980934e-03 4.231000e-14 0 
    0.253513 9.422240e-03 4.398200e-14 0 
    0.254097 9.163536e-03 4.257800e-14 0 
    0.254683 9.353524e-03 4.326100e-14 0 
    0.255270 9.244642e-03 4.256100e-14 0 
    0.256448 9.261985e-03 4.225000e-14 0 
    0.257632 9.258322e-03 4.184600e-14 0 
    0.258226 9.450207e-03 4.251700e-14 0 
    0.259418 9.446353e-03 4.211000e-14 0 
    0.260615 9.617949e-03 4.248200e-14 0 
    0.261216 9.615961e-03 4.227800e-14 0 
    0.262422 9.634026e-03 4.196900e-14 0 
    0.263633 9.607775e-03 4.147100e-14 0 
    0.264241 9.583713e-03 4.117700e-14 0 
    0.265461 9.690737e-03 4.125500e-14 0 
    0.266686 9.753592e-03 4.114200e-14 0 
    0.267301 9.978683e-03 4.189800e-14 0 
    0.268534 1.004355e-02 4.178400e-14 0 
    0.269774 9.924495e-03 4.091000e-14 0 
    0.270396 1.001394e-02 4.108900e-14 0 
    0.271644 1.010241e-02 4.107200e-14 0 
    0.272270 9.961470e-03 4.031300e-14 0 
    0.273527 1.007237e-02 4.038800e-14 0 
    0.274789 1.002180e-02 3.981700e-14 0 
    0.275423 9.973534e-03 3.944300e-14 0 
    0.276694 1.015435e-02 3.979000e-14 0 
    0.277332 9.852817e-03 3.843100e-14 0 
    0.278612 9.939578e-03 3.841400e-14 0 
    0.279898 1.007333e-02 3.857400e-14 0 
    0.280543 1.023472e-02 3.901200e-14 0 
    0.281838 1.020657e-02 3.854800e-14 0 
    0.282488 9.722500e-03 3.655100e-14 0 
    0.283792 9.990457e-03 3.721400e-14 0 
    0.284446 1.033916e-02 3.833600e-14 0 
    0.285759 1.035807e-02 3.805400e-14 0 
    0.286418 1.021366e-02 3.735100e-14 0 
    0.287740 1.030347e-02 3.733400e-14 0 
    0.289068 1.032248e-02 3.706000e-14 0 
    0.289734 1.046356e-02 3.739400e-14 0 
    0.291072 1.048276e-02 3.711900e-14 0 
    0.291743 1.050448e-02 3.702500e-14 0 
    0.293089 1.054809e-02 3.683800e-14 0 
    0.294442 1.068963e-02 3.699000e-14 0 
    0.296483 1.065755e-02 3.637300e-14 0 
    0.298538 1.064983e-02 3.584800e-14 0 
    0.300608 1.076520e-02 3.573900e-14 0 
    0.302691 1.080710e-02 3.538600e-14 0 
    0.304089 1.082671e-02 3.512500e-14 0 
    0.306196 1.089351e-02 3.485700e-14 0 
    0.308319 1.093577e-02 3.451200e-14 0 
    0.310456 1.095263e-02 3.409100e-14 0 
    0.312608 1.099490e-02 3.375300e-14 0 
    0.314775 1.103722e-02 3.341800e-14 0 
    0.316228 1.100635e-02 3.301900e-14 0 
    0.318420 1.107396e-02 3.276600e-14 0 
    0.320627 1.111629e-02 3.244000e-14 0 
    0.322849 1.103116e-02 3.175000e-14 0 
    0.324340 1.112733e-02 3.173300e-14 0 
    0.326588 1.111856e-02 3.127300e-14 0 
    0.328852 1.126424e-02 3.124800e-14 0 
    0.330370 1.133609e-02 3.115900e-14 0 
    0.332660 1.137908e-02 3.084800e-14 0 
    0.334966 1.142219e-02 3.054000e-14 0 
    0.335738 1.163158e-02 3.095700e-14 0 
    0.336512 1.173585e-02 3.109100e-14 0 
    0.337287 1.175963e-02 3.101100e-14 0 
    0.338065 1.114993e-02 2.926800e-14 0 
    0.338844 1.186195e-02 3.099400e-14 0 
    0.339625 1.114388e-02 2.898400e-14 0 
    0.340408 1.142630e-02 2.958200e-14 0 
    0.341193 1.131841e-02 2.916800e-14 0 
    0.341979 1.123730e-02 2.882600e-14 0 
    0.342768 1.176387e-02 3.003800e-14 0 
    0.343558 1.184216e-02 3.009900e-14 0 
    0.344350 1.154267e-02 2.920300e-14 0 
    0.345144 1.153918e-02 2.906000e-14 0 
    0.345939 1.188640e-02 2.979700e-14 0 
    0.346737 1.191044e-02 2.972000e-14 0 
    0.347536 1.207289e-02 2.998700e-14 0 
    0.348337 1.168653e-02 2.889400e-14 0 
    0.349140 1.226179e-02 3.017700e-14 0 
    0.349945 1.173385e-02 2.874500e-14 0 
    0.350752 1.178434e-02 2.873600e-14 0 
    0.351560 1.180821e-02 2.866200e-14 0 
    0.352371 1.166947e-02 2.819500e-14 0 
    0.353183 1.210418e-02 2.911100e-14 0 
    0.353997 1.201718e-02 2.876900e-14 0 
    0.354813 1.174029e-02 2.797700e-14 0 
    0.355631 1.170975e-02 2.777600e-14 0 
    0.356451 1.200649e-02 2.834900e-14 0 
    0.357273 1.214235e-02 2.853800e-14 0 
    0.358096 1.230735e-02 2.879300e-14 0 
    0.358922 1.256130e-02 2.925200e-14 0 
    0.359749 1.261580e-02 2.924400e-14 0 
    0.360579 1.264114e-02 2.916800e-14 0 
    0.361410 1.226452e-02 2.816900e-14 0 
    0.362243 1.195414e-02 2.733000e-14 0 
    0.363078 1.175973e-02 2.676200e-14 0 
    0.363915 1.214112e-02 2.750300e-14 0 
    0.364754 1.227788e-02 2.768500e-14 0 
    0.365595 1.247401e-02 2.799800e-14 0 
    0.366437 1.264344e-02 2.824800e-14 0 
    0.367282 1.326568e-02 2.950200e-14 0 
    0.367492 1.255788e-02 2.789600e-14 1 
    0.367767 1.218761e-02 2.703300e-14 1 
    0.368042 1.333102e-02 2.952500e-14 1 
    0.368317 1.282189e-02 2.835500e-14 1 
    0.368592 1.162102e-02 2.566100e-14 1 
    0.368867 1.196219e-02 2.637500e-14 1 
    0.369142 1.285259e-02 2.829600e-14 1 
    0.369417 1.294544e-02 2.845800e-14 1 
    0.369692 1.284081e-02 2.818600e-14 1 
    0.369967 1.375554e-02 3.014900e-14 1 
    0.370242 1.136386e-02 2.487000e-14 1 
    0.370517 1.232617e-02 2.693600e-14 1 
    0.370792 1.228810e-02 2.681300e-14 1 
    0.371067 1.263496e-02 2.752900e-14 1 
    0.371342 1.161994e-02 2.528000e-14 1 
    0.371617 1.305037e-02 2.835000e-14 1 
    0.371892 1.327023e-02 2.878500e-14 1 
    0.372167 1.188355e-02 2.573900e-14 1 
    0.372442 1.174113e-02 2.539300e-14 1 
    0.372717 1.194648e-02 2.579900e-14 1 
    0.372992 1.255585e-02 2.707500e-14 1 
    0.373267 1.231058e-02 2.650700e-14 1 
    0.373542 1.260872e-02 2.710900e-14 1 
    0.373817 1.242421e-02 2.667300e-14 1 
    0.374092 1.374585e-02 2.946700e-14 1 
    0.374367 1.277333e-02 2.734200e-14 1 
    0.374642 1.334230e-02 2.851800e-14 1 
    0.374917 1.260192e-02 2.689600e-14 1 
    0.375192 1.251671e-02 2.667500e-14 1 
    0.375467 1.254964e-02 2.670600e-14 1 
    0.375742 1.480623e-02 3.146200e-14 1 
    0.376017 1.922605e-02 4.079400e-14 1 
    0.376292 3.626501e-02 7.683500e-14 1 
    0.376567 6.480855e-02 1.371100e-13 1 
    0.376842 8.595859e-02 1.815900e-13 1 
    0.377117 8.256184e-02 1.741600e-13 1 
    0.377392 5.574504e-02 1.174200e-13 1 
    0.377667 3.136676e-02 6.597400e-14 1 
    0.377942 1.968718e-02 4.134800e-14 1 
    0.378217 1.715624e-02 3.598000e-14 1 
    0.378492 1.524962e-02 3.193500e-14 1 
    0.378767 1.335271e-02 2.792200e-14 1 
    0.379042 1.396165e-02 2.915300e-14 1 
    0.379317 1.290376e-02 2.690500e-14 1 
    0.379592 1.533983e-02 3.193800e-14 1 
    0.379867 1.546548e-02 3.215300e-14 1 
    0.380142 1.533952e-02 3.184500e-14 1 
    0.380417 1.569312e-02 3.253200e-14 1 
    0.380692 1.485737e-02 3.075500e-14 1 
    0.380967 1.405979e-02 2.906200e-14 1 
    0.381242 1.442651e-02 2.977700e-14 1 
    0.381517 1.508631e-02 3.109400e-14 1 
    0.381792 1.512070e-02 3.112000e-14 1 
    0.382067 1.573904e-02 3.234600e-14 1 
    0.382342 1.701598e-02 3.492000e-14 1 
    0.382617 1.753724e-02 3.593800e-14 1 
    0.382892 1.777699e-02 3.637700e-14 1 
    0.383167 1.629130e-02 3.328900e-14 1 
    0.383442 1.498360e-02 3.057300e-14 1 
    0.383717 1.487504e-02 3.030800e-14 1 
    0.383992 1.462948e-02 2.976500e-14 1 
    0.384267 1.454068e-02 2.954200e-14 1 
    0.384542 1.559464e-02 3.163800e-14 1 
    0.384817 1.625470e-02 3.293000e-14 1 
    0.385092 1.746628e-02 3.533400e-14 1 
    0.385367 1.844416e-02 3.725900e-14 1 
    0.385642 1.800153e-02 3.631300e-14 1 
    0.385917 1.811806e-02 3.649600e-14 1 
    0.386192 1.777799e-02 3.576000e-14 1 
    0.386467 1.846099e-02 3.708100e-14 1 
    0.386742 1.708830e-02 3.427500e-14 1 
    0.387017 1.640963e-02 3.286700e-14 1 
    0.387292 1.502401e-02 3.004900e-14 1 
    0.387567 1.399289e-02 2.794700e-14 1 
    0.387842 1.423689e-02 2.839400e-14 1 
    0.388117 1.452069e-02 2.891900e-14 1 
    0.388392 1.603015e-02 3.188000e-14 1 
    0.388667 1.759470e-02 3.494200e-14 1 
    0.388942 1.775575e-02 3.521200e-14 1 
    0.389217 1.928617e-02 3.819300e-14 1 
