# NGC 3049       
# 
# An Atlas of Galaxy Spectral Energy Distributions from the Ultraviolet to the Mid-Infrared
# Brown et al. (2014)
# http://dx.doi.org/10.5072/03/529D3551F0117
# http://dx.doi.org/10.17909/t9-5bxk-dh29
# 
# The Spectral Energy Distributions of Active Galactic Nuclei
# Brown et al. (2019)
# http://dx.doi.org/10.17909/t9-3dbt-8734
# 
# Column 1: Observed wavelength (um)
# Column 2: f_nu (Jy)
# Column 3: f_lam (erg/s/cm2/A)
# Column 4: Source (0 = model, 1 = Optical Spectrun, 2 = Akari, 3 = Spitzer IRS)
# 
    0.010257 3.705357e-12 1.056600e-20 0 
    0.010447 4.696650e-12 1.291000e-20 0 
    0.010641 6.077857e-12 1.610300e-20 0 
    0.010864 8.049407e-12 2.046000e-20 0 
    0.011041 1.204490e-11 2.964200e-20 0 
    0.011455 1.869755e-11 4.274800e-20 0 
    0.011858 2.721549e-11 5.806500e-20 0 
    0.012162 1.025194e-10 2.079300e-19 0 
    0.012560 1.392438e-10 2.648000e-19 0 
    0.012764 1.580375e-10 2.910100e-19 0 
    0.012853 1.705300e-10 3.096800e-19 0 
    0.013152 2.021964e-10 3.506800e-19 0 
    0.013274 2.431019e-10 4.139100e-19 0 
    0.013459 2.690361e-10 4.455600e-19 0 
    0.013772 3.595726e-10 5.687400e-19 0 
    0.014060 4.176000e-10 6.337400e-19 0 
    0.014355 1.147582e-09 1.670700e-18 0 
    0.014757 2.956578e-09 4.073000e-18 0 
    0.015171 3.442032e-09 4.486500e-18 0 
    0.015560 4.025381e-09 4.987800e-18 0 
    0.015996 4.740371e-09 5.557900e-18 0 
    0.016293 5.294105e-09 5.982900e-18 0 
    0.016672 6.176822e-09 6.666700e-18 0 
    0.017100 7.092209e-09 7.276300e-18 0 
    0.017378 7.848545e-09 7.796700e-18 0 
    0.017783 8.908448e-09 8.451100e-18 0 
    0.018072 9.767868e-09 8.972400e-18 0 
    0.018281 1.041808e-08 9.352100e-18 0 
    0.018707 1.174322e-08 1.006700e-17 0 
    0.019187 1.354636e-08 1.103900e-17 0 
    0.019498 1.485205e-08 1.172000e-17 0 
    0.019907 1.651203e-08 1.250000e-17 0 
    0.020277 1.831429e-08 1.336300e-17 0 
    0.020606 1.985039e-08 1.402500e-17 0 
    0.021086 2.151662e-08 1.451800e-17 0 
    0.021727 2.598862e-08 1.651600e-17 0 
    0.022131 2.862771e-08 1.753500e-17 0 
    0.022387 3.018426e-08 1.806800e-17 0 
    0.022803 3.324905e-08 1.918300e-17 0 
    0.023121 5.257779e-08 2.950600e-17 0 
    0.023496 9.178584e-08 4.987800e-17 0 
    0.024099 1.201674e-07 6.207400e-17 0 
    0.024717 1.218378e-07 5.982900e-17 0 
    0.025351 1.376520e-07 6.425600e-17 0 
    0.025823 1.221250e-07 5.494300e-17 0 
    0.026122 1.441460e-07 6.337400e-17 0 
    0.026546 1.573221e-07 6.697500e-17 0 
    0.027040 1.643627e-07 6.743900e-17 0 
    0.027542 1.713086e-07 6.775000e-17 0 
    0.028054 1.785581e-07 6.806300e-17 0 
    0.028510 1.852607e-07 6.837700e-17 0 
    0.029174 1.865433e-07 6.575200e-17 0 
    0.029717 1.980617e-07 6.728400e-17 0 
    0.030269 2.031365e-07 6.651400e-17 0 
    0.030974 2.161630e-07 6.759400e-17 0 
    0.031989 2.364769e-07 6.932800e-17 0 
    0.032961 2.510661e-07 6.932800e-17 0 
    0.033963 2.641212e-07 6.869300e-17 0 
    0.034995 2.772036e-07 6.790600e-17 0 
    0.035892 2.902567e-07 6.759400e-17 0 
    0.036813 3.046438e-07 6.743900e-17 0 
    0.037670 3.153413e-07 6.666700e-17 0 
    0.038726 3.190019e-07 6.381300e-17 0 
    0.039719 3.410243e-07 6.485000e-17 0 
    0.040738 3.562796e-07 6.440400e-17 0 
    0.041591 3.645750e-07 6.322800e-17 0 
    0.042364 3.704937e-07 6.193100e-17 0 
    0.043251 3.791244e-07 6.080100e-17 0 
    0.044361 3.933632e-07 5.996700e-17 0 
    0.045290 4.006783e-07 5.860200e-17 0 
    0.046238 4.081209e-07 5.726800e-17 0 
    0.047206 4.166600e-07 5.609300e-17 0 
    0.048195 4.283476e-07 5.532400e-17 0 
    0.049204 4.323078e-07 5.356900e-17 0 
    0.050234 4.474926e-07 5.320000e-17 0 
    0.050816 4.558216e-07 5.295600e-17 0 
    0.051404 5.392375e-07 6.122200e-17 0 
    0.052240 5.543636e-07 6.094100e-17 0 
    0.053211 5.685849e-07 6.024400e-17 0 
    0.054200 5.659657e-07 5.779800e-17 0 
    0.055208 6.335719e-07 6.236100e-17 0 
    0.056234 6.962881e-07 6.605600e-17 0 
    0.057280 7.547389e-07 6.901000e-17 0 
    0.058345 7.547430e-07 6.651400e-17 0 
    0.059293 8.487858e-07 7.242900e-17 0 
    0.060256 8.745594e-07 7.226200e-17 0 
    0.061235 9.263820e-07 7.411600e-17 0 
    0.062230 1.085895e-06 8.412200e-17 0 
    0.063241 1.163552e-06 8.727900e-17 0 
    0.064269 1.212812e-06 8.808700e-17 0 
    0.065313 1.351416e-06 9.504100e-17 0 
    0.066069 1.431481e-06 9.838100e-17 0 
    0.066834 1.537318e-06 1.032500e-16 0 
    0.067764 1.598767e-06 1.044500e-16 0 
    0.068865 1.620948e-06 1.025400e-16 0 
    0.069823 2.017379e-06 1.241400e-16 0 
    0.070795 1.976038e-06 1.182800e-16 0 
    0.071945 2.397734e-06 1.389700e-16 0 
    0.072946 2.557330e-06 1.441800e-16 0 
    0.073790 2.715041e-06 1.495900e-16 0 
    0.074817 3.067476e-06 1.644000e-16 0 
    0.075858 3.340450e-06 1.741500e-16 0 
    0.076913 3.538323e-06 1.794400e-16 0 
    0.077804 3.997504e-06 1.981100e-16 0 
    0.078886 4.343032e-06 2.093700e-16 0 
    0.079799 4.685911e-06 2.207600e-16 0 
    0.080910 5.067589e-06 2.322300e-16 0 
    0.081846 5.392508e-06 2.415000e-16 0 
    0.082985 6.050488e-06 2.635800e-16 0 
    0.083946 5.221541e-06 2.222900e-16 0 
    0.084918 6.742107e-06 2.804900e-16 0 
    0.085901 7.124899e-06 2.896700e-16 0 
    0.086896 7.866543e-06 3.125400e-16 0 
    0.087902 8.605810e-06 3.341300e-16 0 
    0.088920 9.523436e-06 3.613400e-16 0 
    0.089950 1.027530e-05 3.809900e-16 0 
    0.090991 1.063622e-05 3.854000e-16 0 
    0.092045 1.544497e-05 5.469000e-16 0 
    0.092897 9.700529e-05 3.372200e-15 0 
    0.093972 2.181663e-04 7.411600e-15 0 
    0.095060 4.293195e-04 1.425300e-14 0 
    0.095940 6.205663e-04 2.022600e-14 0 
    0.097051 7.191013e-04 2.290400e-14 0 
    0.097949 1.210028e-04 3.783700e-15 0 
    0.099083 6.394099e-04 1.953900e-14 0 
    0.100000 6.851666e-04 2.055500e-14 0 
    0.100925 1.013425e-03 2.984800e-14 0 
    0.102094 9.903415e-04 2.850400e-14 0 
    0.103039 4.283620e-04 1.210400e-14 0 
    0.103992 7.141427e-04 1.981100e-14 0 
    0.104954 1.395681e-03 3.801100e-14 0 
    0.105925 1.392490e-03 3.723200e-14 0 
    0.106905 1.118868e-03 2.937000e-14 0 
    0.108143 1.360781e-03 3.490700e-14 0 
    0.109144 1.093440e-03 2.753700e-14 0 
    0.110154 1.474997e-03 3.646800e-14 0 
    0.110918 1.431513e-03 3.490700e-14 0 
    0.111944 1.395712e-03 3.341300e-14 0 
    0.112980 1.275810e-03 2.998500e-14 0 
    0.114025 1.647359e-03 3.801100e-14 0 
    0.115080 1.519813e-03 3.442800e-14 0 
    0.116145 1.639803e-03 3.646800e-14 0 
    0.116950 1.713128e-03 3.757600e-14 0 
    0.118032 1.207215e-03 2.599600e-14 0 
    0.119124 1.713128e-03 3.621700e-14 0 
    0.119950 1.196171e-03 2.494100e-14 0 
    0.121060 8.785986e-04 1.798500e-14 0 
    0.122180 5.912962e-04 1.188300e-14 0 
    0.123027 1.224019e-03 2.426100e-14 0 
    0.124165 1.882718e-03 3.663600e-14 0 
    0.125026 2.097904e-03 4.026300e-14 0 
    0.126183 2.036071e-03 3.836300e-14 0 
    0.127057 1.777397e-03 3.303000e-14 0 
    0.128233 2.326948e-03 4.245300e-14 0 
    0.129122 2.464861e-03 4.435200e-14 0 
    0.130017 1.976014e-03 3.506800e-14 0 
    0.131220 1.985142e-03 3.458700e-14 0 
    0.132130 2.504922e-03 4.304400e-14 0 
    0.133045 2.425446e-03 4.110700e-14 0 
    0.134277 2.191765e-03 3.646800e-14 0 
    0.135207 2.628981e-03 4.314300e-14 0 
    0.136144 2.575032e-03 4.167800e-14 0 
    0.137088 2.332351e-03 3.723200e-14 0 
    0.138038 2.476194e-03 3.898600e-14 0 
    0.139316 2.545613e-03 3.934700e-14 0 
    0.140281 2.227373e-03 3.395600e-14 0 
    0.141254 2.332337e-03 3.506800e-14 0 
    0.142233 2.442260e-03 3.621700e-14 0 
    0.143219 2.533876e-03 3.706000e-14 0 
    0.144212 2.551458e-03 3.680500e-14 0 
    0.144877 2.708885e-03 3.871800e-14 0 
    0.145546 2.771949e-03 3.925600e-14 0 
    0.146218 2.715151e-03 3.809900e-14 0 
    0.147231 2.539746e-03 3.514900e-14 0 
    0.148252 2.569158e-03 3.506800e-14 0 
    0.149279 2.647217e-03 3.563800e-14 0 
    0.150314 2.721408e-03 3.613400e-14 0 
    0.151356 2.610898e-03 3.419100e-14 0 
    0.152055 2.348526e-03 3.047300e-14 0 
    0.152405 2.516444e-03 3.250200e-14 0 
    0.153109 2.464887e-03 3.154400e-14 0 
    0.154170 2.176630e-03 2.747300e-14 0 
    0.155239 2.386699e-03 2.971100e-14 0 
    0.156315 2.289746e-03 2.811300e-14 0 
    0.157398 2.381124e-03 2.883400e-14 0 
    0.158125 2.557359e-03 3.068400e-14 0 
    0.159221 2.708873e-03 3.205600e-14 0 
    0.160325 2.797635e-03 3.265200e-14 0 
    0.161436 2.771997e-03 3.190900e-14 0 
    0.162181 2.797641e-03 3.190900e-14 0 
    0.163305 2.690232e-03 3.026300e-14 0 
    0.164437 2.895933e-03 3.213000e-14 0 
    0.165196 2.956568e-03 3.250200e-14 0 
    0.166341 2.778369e-03 3.012400e-14 0 
    0.167494 3.060437e-03 3.272700e-14 0 
    0.167880 2.752889e-03 2.930300e-14 0 
    0.168655 3.117329e-03 3.287800e-14 0 
    0.169434 3.264277e-03 3.411200e-14 0 
    0.170216 3.095914e-03 3.205600e-14 0 
    0.171396 3.011590e-03 3.075500e-14 0 
    0.172187 2.882611e-03 2.916800e-14 0 
    0.173380 2.902654e-03 2.896800e-14 0 
    0.174181 3.110256e-03 3.075500e-14 0 
    0.175388 3.074557e-03 2.998500e-14 0 
    0.176198 3.286915e-03 3.176200e-14 0 
    0.177419 3.067587e-03 2.923600e-14 0 
    0.178238 3.160782e-03 2.984800e-14 0 
    0.179473 3.256809e-03 3.033300e-14 0 
    0.180302 3.481694e-03 3.213000e-14 0 
    0.181552 3.497725e-03 3.183500e-14 0 
    0.182390 3.264293e-03 2.943800e-14 0 
    0.183231 3.355681e-03 2.998500e-14 0 
    0.184502 3.271793e-03 2.883400e-14 0 
    0.185353 3.039452e-03 2.654100e-14 0 
    0.186209 3.081691e-03 2.666300e-14 0 
    0.187499 3.204692e-03 2.734700e-14 0 
    0.188365 3.473626e-03 2.937000e-14 0 
    0.189234 3.234314e-03 2.709600e-14 0 
    0.190546 3.138928e-03 2.593600e-14 0 
    0.191426 3.355728e-03 2.747300e-14 0 
    0.192309 3.256824e-03 2.641900e-14 0 
    0.193642 3.226886e-03 2.581700e-14 0 
    0.194536 3.355776e-03 2.660200e-14 0 
    0.195434 3.522037e-03 2.766400e-14 0 
    0.196336 3.317297e-03 2.581700e-14 0 
    0.197697 3.662571e-03 2.811300e-14 0 
    0.198610 3.791280e-03 2.883400e-14 0 
    0.199526 3.620644e-03 2.728400e-14 0 
    0.200447 3.546466e-03 2.648000e-14 0 
    0.201372 3.679434e-03 2.722100e-14 0 
    0.202302 3.595767e-03 2.635800e-14 0 
    0.203704 3.791289e-03 2.741000e-14 0 
    0.204645 3.629005e-03 2.599600e-14 0 
    0.205589 3.782600e-03 2.684800e-14 0 
    0.206538 3.604027e-03 2.534600e-14 0 
    0.207491 3.671088e-03 2.558100e-14 0 
    0.208449 3.979097e-03 2.747300e-14 0 
    0.208930 3.808760e-03 2.617600e-14 0 
    0.209411 3.951738e-03 2.703400e-14 0 
    0.210378 3.782661e-03 2.564000e-14 0 
    0.211349 3.844014e-03 2.581700e-14 0 
    0.212324 3.915477e-03 2.605600e-14 0 
    0.213304 3.997507e-03 2.635800e-14 0 
    0.214783 3.791260e-03 2.465500e-14 0 
    0.215774 3.897561e-03 2.511400e-14 0 
    0.216770 4.062376e-03 2.593600e-14 0 
    0.217771 3.970039e-03 2.511400e-14 0 
    0.218776 3.979165e-03 2.494100e-14 0 
    0.219786 3.942727e-03 2.448600e-14 0 
    0.220801 4.147587e-03 2.552200e-14 0 
    0.221820 4.071804e-03 2.482600e-14 0 
    0.222331 3.906538e-03 2.370900e-14 0 
    0.223357 3.835250e-03 2.306300e-14 0 
    0.224388 4.081201e-03 2.431700e-14 0 
    0.225424 3.960936e-03 2.338400e-14 0 
    0.226464 3.844052e-03 2.248600e-14 0 
    0.227510 3.951765e-03 2.290400e-14 0 
    0.228560 4.071909e-03 2.338400e-14 0 
    0.229615 4.185858e-03 2.381800e-14 0 
    0.230675 3.998271e-03 2.254200e-14 0 
    0.231739 4.045802e-03 2.260100e-14 0 
    0.232809 3.927696e-03 2.174000e-14 0 
    0.233884 3.230502e-03 1.771700e-14 0 
    0.234423 3.735233e-03 2.039100e-14 0 
    0.235505 3.659793e-03 1.979600e-14 0 
    0.236592 3.931738e-03 2.107200e-14 0 
    0.237684 3.696005e-03 1.962700e-14 0 
    0.238781 3.809454e-03 2.004400e-14 0 
    0.239883 3.597450e-03 1.875500e-14 0 
    0.240436 3.811186e-03 1.977800e-14 0 
    0.241546 3.708374e-03 1.906800e-14 0 
    0.242661 3.813548e-03 1.942900e-14 0 
    0.243781 4.031477e-03 2.035100e-14 0 
    0.244906 3.922823e-03 1.962100e-14 0 
    0.245471 4.127336e-03 2.054900e-14 0 
    0.246604 4.100251e-03 2.022700e-14 0 
    0.247742 4.101560e-03 2.004800e-14 0 
    0.248886 4.000153e-03 1.937300e-14 0 
    0.249460 4.084589e-03 1.969100e-14 0 
    0.250611 3.821947e-03 1.825600e-14 0 
    0.251768 4.299548e-03 2.034900e-14 0 
    0.252348 3.912894e-03 1.843400e-14 0 
    0.252930 4.032468e-03 1.891000e-14 0 
    0.253513 3.905189e-03 1.822900e-14 0 
    0.254683 3.978939e-03 1.840300e-14 0 
    0.255859 3.952925e-03 1.811500e-14 0 
    0.256448 4.207243e-03 1.919200e-14 0 
    0.257632 4.141311e-03 1.871800e-14 0 
    0.258821 4.367861e-03 1.956100e-14 0 
    0.260016 4.359384e-03 1.934400e-14 0 
    0.260615 4.320176e-03 1.908200e-14 0 
    0.261818 4.223054e-03 1.848200e-14 0 
    0.263027 4.205186e-03 1.823500e-14 0 
    0.263633 4.373784e-03 1.887900e-14 0 
    0.264850 4.529063e-03 1.937000e-14 0 
    0.266072 4.877020e-03 2.066700e-14 0 
    0.266686 4.991539e-03 2.105500e-14 0 
    0.267917 4.617097e-03 1.929700e-14 0 
    0.268534 4.802320e-03 1.997900e-14 0 
    0.269774 4.848471e-03 1.998600e-14 0 
    0.271019 4.674685e-03 1.909300e-14 0 
    0.271644 4.795396e-03 1.949600e-14 0 
    0.272898 4.623551e-03 1.862500e-14 0 
    0.273527 4.613716e-03 1.850000e-14 0 
    0.274789 4.832827e-03 1.920100e-14 0 
    0.276058 4.348684e-03 1.711900e-14 0 
    0.276694 4.450663e-03 1.744000e-14 0 
    0.277971 4.629891e-03 1.797600e-14 0 
    0.278612 4.815575e-03 1.861100e-14 0 
    0.279898 4.621708e-03 1.769800e-14 0 
    0.280543 3.907410e-03 1.489400e-14 0 
    0.281838 4.169155e-03 1.574600e-14 0 
    0.283139 4.888893e-03 1.829500e-14 0 
    0.283792 5.096707e-03 1.898500e-14 0 
    0.285102 4.959356e-03 1.830400e-14 0 
    0.285759 4.858663e-03 1.785000e-14 0 
    0.287078 4.727804e-03 1.721000e-14 0 
    0.287740 5.137387e-03 1.861500e-14 0 
    0.289068 5.198843e-03 1.866500e-14 0 
    0.289734 5.187850e-03 1.854000e-14 0 
    0.291072 5.225709e-03 1.850400e-14 0 
    0.292415 5.627469e-03 1.974400e-14 0 
    0.294442 5.489596e-03 1.899600e-14 0 
    0.296483 5.454916e-03 1.861700e-14 0 
    0.298538 5.597937e-03 1.884300e-14 0 
    0.300608 5.653245e-03 1.876800e-14 0 
    0.302691 5.748354e-03 1.882200e-14 0 
    0.304789 5.818097e-03 1.878900e-14 0 
    0.306196 5.847249e-03 1.871000e-14 0 
    0.308319 5.945724e-03 1.876400e-14 0 
    0.310456 6.018150e-03 1.873200e-14 0 
    0.312608 6.105455e-03 1.874300e-14 0 
    0.314775 6.066870e-03 1.836900e-14 0 
    0.316228 6.125676e-03 1.837700e-14 0 
    0.318420 6.214610e-03 1.838800e-14 0 
    0.320627 6.007045e-03 1.753000e-14 0 
    0.322849 6.250761e-03 1.799100e-14 0 
    0.324340 6.027054e-03 1.718800e-14 0 
    0.326588 6.447224e-03 1.813400e-14 0 
    0.328852 6.708871e-03 1.861100e-14 0 
    0.330370 6.711649e-03 1.844800e-14 0 
    0.332660 6.731242e-03 1.824800e-14 0 
    0.334195 6.843392e-03 1.838200e-14 0 
    0.334966 6.972245e-03 1.864200e-14 0 
    0.335738 6.674903e-03 1.776500e-14 0 
    0.336512 7.170378e-03 1.899600e-14 0 
    0.337287 6.912590e-03 1.822900e-14 0 
    0.338065 6.334600e-03 1.662800e-14 0 
    0.338844 6.379901e-03 1.667000e-14 0 
    0.339625 6.996836e-03 1.819800e-14 0 
    0.340408 7.063127e-03 1.828600e-14 0 
    0.341193 6.935866e-03 1.787400e-14 0 
    0.341979 7.230996e-03 1.854900e-14 0 
    0.342768 6.843395e-03 1.747400e-14 0 
    0.343558 6.988287e-03 1.776200e-14 0 
    0.344350 7.136355e-03 1.805500e-14 0 
    0.345144 7.439714e-03 1.873600e-14 0 
    0.345939 6.960627e-03 1.744900e-14 0 
    0.346737 7.140656e-03 1.781800e-14 0 
    0.347536 7.076978e-03 1.757800e-14 0 
    0.348337 7.013375e-03 1.734000e-14 0 
    0.349140 7.311892e-03 1.799500e-14 0 
    0.349945 7.081540e-03 1.734800e-14 0 
    0.350752 7.399662e-03 1.804400e-14 0 
    0.351560 6.987206e-03 1.696000e-14 0 
    0.352371 7.403150e-03 1.788700e-14 0 
    0.353183 7.104258e-03 1.708600e-14 0 
    0.353997 7.492099e-03 1.793600e-14 0 
    0.354813 7.140189e-03 1.701500e-14 0 
    0.355631 7.582081e-03 1.798500e-14 0 
    0.356451 7.796237e-03 1.840800e-14 0 
    0.357273 7.708846e-03 1.811800e-14 0 
    0.358096 7.639679e-03 1.787300e-14 0 
    0.358922 7.247265e-03 1.687700e-14 0 
    0.359749 7.182342e-03 1.664900e-14 0 
    0.360579 6.643013e-03 1.532800e-14 0 
    0.361410 7.319352e-03 1.681100e-14 0 
    0.362243 7.683805e-03 1.756700e-14 0 
    0.363078 7.255683e-03 1.651200e-14 0 
    0.363459 7.789201e-03 1.768900e-14 1 
    0.363734 8.206278e-03 1.860800e-14 1 
    0.364009 7.977538e-03 1.806200e-14 1 
    0.364284 6.880200e-03 1.555400e-14 1 
    0.364559 7.537388e-03 1.701400e-14 1 
    0.364834 9.686411e-03 2.183200e-14 1 
    0.365109 7.657904e-03 1.723400e-14 1 
    0.365384 7.854572e-03 1.765000e-14 1 
    0.365659 6.402313e-03 1.436500e-14 1 
    0.365934 6.782425e-03 1.519500e-14 1 
    0.366209 7.181539e-03 1.606500e-14 1 
    0.366484 7.553624e-03 1.687200e-14 1 
    0.366759 9.027560e-03 2.013400e-14 1 
    0.367034 9.411567e-03 2.095900e-14 1 
    0.367309 8.049533e-03 1.789900e-14 1 
    0.367584 7.649031e-03 1.698300e-14 1 
    0.367859 8.573440e-03 1.900700e-14 1 
    0.368134 8.211769e-03 1.817800e-14 1 
    0.368409 8.265212e-03 1.826900e-14 1 
    0.368684 8.396720e-03 1.853200e-14 1 
    0.368959 8.252700e-03 1.818700e-14 1 
    0.369234 7.469272e-03 1.643600e-14 1 
    0.369509 7.927788e-03 1.741900e-14 1 
    0.369784 8.389012e-03 1.840500e-14 1 
    0.370059 8.118933e-03 1.778600e-14 1 
    0.370334 6.866050e-03 1.501900e-14 1 
    0.370609 7.695778e-03 1.680900e-14 1 
    0.370884 6.986415e-03 1.523700e-14 1 
    0.371159 7.263114e-03 1.581700e-14 1 
    0.371434 7.857465e-03 1.708600e-14 1 
    0.371709 7.165832e-03 1.555900e-14 1 
    0.371984 7.488698e-03 1.623600e-14 1 
    0.372259 8.252708e-03 1.786600e-14 1 
    0.372534 8.154343e-03 1.762700e-14 1 
    0.372809 8.589833e-03 1.854100e-14 1 
    0.373084 8.324126e-03 1.794100e-14 1 
    0.373359 8.042275e-03 1.730800e-14 1 
    0.373634 8.769821e-03 1.884600e-14 1 
    0.373909 1.079783e-02 2.317000e-14 1 
    0.374184 1.734770e-02 3.717000e-14 1 
    0.374459 2.248935e-02 4.811600e-14 1 
    0.374734 2.333733e-02 4.985700e-14 1 
    0.375009 1.845932e-02 3.937800e-14 1 
    0.375284 1.265149e-02 2.694900e-14 1 
    0.375559 9.986896e-03 2.124200e-14 1 
    0.375834 9.445468e-03 2.006100e-14 1 
    0.376109 7.726906e-03 1.638700e-14 1 
    0.376384 7.932291e-03 1.679800e-14 1 
    0.376659 7.794921e-03 1.648300e-14 1 
    0.376934 8.654521e-03 1.827400e-14 1 
    0.377209 8.032081e-03 1.693500e-14 1 
    0.377484 9.558984e-03 2.012500e-14 1 
    0.377759 8.230092e-03 1.730200e-14 1 
    0.378034 7.872896e-03 1.652700e-14 1 
    0.378309 8.258369e-03 1.731100e-14 1 
    0.378584 9.469061e-03 1.982000e-14 1 
    0.378859 8.729747e-03 1.824600e-14 1 
    0.379134 8.488480e-03 1.771600e-14 1 
    0.379409 1.003532e-02 2.091400e-14 1 
    0.379684 1.039826e-02 2.163900e-14 1 
    0.379959 8.896008e-03 1.848600e-14 1 
    0.380234 8.368169e-03 1.736400e-14 1 
    0.380509 9.783264e-03 2.027100e-14 1 
    0.380784 1.043781e-02 2.159600e-14 1 
    0.381059 9.806727e-03 2.026100e-14 1 
    0.381334 9.516968e-03 1.963400e-14 1 
    0.381609 8.893345e-03 1.832100e-14 1 
    0.381884 9.857500e-03 2.027800e-14 1 
    0.382159 9.815232e-03 2.016200e-14 1 
    0.382434 1.119929e-02 2.297200e-14 1 
    0.382709 9.419240e-03 1.929300e-14 1 
    0.382984 1.092204e-02 2.233900e-14 1 
    0.383259 1.002850e-02 2.048200e-14 1 
    0.383534 1.032434e-02 2.105600e-14 1 
    0.383809 1.151272e-02 2.344600e-14 1 
    0.384084 8.650604e-03 1.759200e-14 1 
    0.384359 9.399192e-03 1.908700e-14 1 
    0.384634 7.719683e-03 1.565400e-14 1 
    0.384909 8.483847e-03 1.717900e-14 1 
    0.385184 7.545931e-03 1.525800e-14 1 
    0.385459 7.689441e-03 1.552600e-14 1 
    0.385734 7.316039e-03 1.475100e-14 1 
    0.386009 8.694819e-03 1.750600e-14 1 
    0.386284 1.014714e-02 2.040100e-14 1 
