# NGC 4826  
# 
# An Atlas of Galaxy Spectral Energy Distributions from the Ultraviolet to the Mid-Infrared
# Brown et al. (2014)
# http://dx.doi.org/10.5072/03/529D3551F0117
# http://dx.doi.org/10.17909/t9-5bxk-dh29
# 
# The Spectral Energy Distributions of Active Galactic Nuclei
# Brown et al. (2019)
# http://dx.doi.org/10.17909/t9-3dbt-8734
# 
# Column 1: Observed wavelength (um)
# Column 2: f_nu (Jy)
# Column 3: f_lam (erg/s/cm2/A)
# Column 4: Source (0 = model, 1 = Optical Spectrun, 2 = Akari, 3 = Spitzer IRS)
# 
    0.010023 7.362083e-11 2.198500e-19 0 
    0.010209 1.056724e-10 3.041700e-19 0 
    0.010423 1.389927e-10 3.838200e-19 0 
    0.010617 1.853541e-10 4.933100e-19 0 
    0.010814 2.517540e-10 6.458400e-19 0 
    0.011015 3.836826e-10 9.486900e-19 0 
    0.011402 6.222501e-10 1.435900e-18 0 
    0.011803 9.483816e-10 2.042300e-18 0 
    0.012106 3.845951e-09 7.872700e-18 0 
    0.012531 5.394888e-09 1.030700e-17 0 
    0.012706 6.166025e-09 1.145800e-17 0 
    0.012823 6.729544e-09 1.227800e-17 0 
    0.013122 8.091062e-09 1.409700e-17 0 
    0.013213 9.840101e-09 1.690900e-17 0 
    0.013428 1.104166e-08 1.837100e-17 0 
    0.013709 1.506626e-08 2.405000e-17 0 
    0.014028 1.778279e-08 2.711000e-17 0 
    0.014322 5.470269e-08 8.000600e-17 0 
    0.014723 1.545258e-07 2.138600e-16 0 
    0.015136 1.811405e-07 2.372000e-16 0 
    0.015524 2.133124e-07 2.655400e-16 0 
    0.015922 2.517693e-07 2.979400e-16 0 
    0.016218 2.818384e-07 3.214600e-16 0 
    0.016634 3.334206e-07 3.615100e-16 0 
    0.017022 3.837236e-07 3.973000e-16 0 
    0.017338 4.285443e-07 4.276800e-16 0 
    0.017742 4.886622e-07 4.657200e-16 0 
    0.018030 5.382581e-07 4.967300e-16 0 
    0.018239 5.754483e-07 5.189500e-16 0 
    0.018621 6.501406e-07 5.625000e-16 0 
    0.019143 7.568750e-07 6.196200e-16 0 
    0.019409 8.298654e-07 6.608800e-16 0 
    0.019815 9.268130e-07 7.081500e-16 0 
    0.020230 1.039912e-06 7.623000e-16 0 
    0.020512 1.127238e-06 8.037500e-16 0 
    0.021038 1.227470e-06 8.320000e-16 0 
    0.021627 1.489337e-06 9.552600e-16 0 
    0.022029 1.648162e-06 1.018900e-15 0 
    0.022336 1.749964e-06 1.052300e-15 0 
    0.022751 1.940857e-06 1.124900e-15 0 
    0.023014 3.061873e-06 1.734300e-15 0 
    0.023442 5.495273e-06 3.000000e-15 0 
    0.024044 7.261304e-06 3.768100e-15 0 
    0.024660 7.378875e-06 3.640200e-15 0 
    0.025235 8.356159e-06 3.936600e-15 0 
    0.025763 7.464332e-06 3.373800e-15 0 
    0.026062 8.851471e-06 3.909500e-15 0 
    0.026424 9.638336e-06 4.141200e-15 0 
    0.026915 1.011552e-05 4.189100e-15 0 
    0.027416 1.056852e-05 4.218200e-15 0 
    0.027925 1.106596e-05 4.257200e-15 0 
    0.028445 1.158819e-05 4.296600e-15 0 
    0.029040 1.161422e-05 4.131600e-15 0 
    0.029648 1.244494e-05 4.247400e-15 0 
    0.030130 1.282322e-05 4.237600e-15 0 
    0.030832 1.370910e-05 4.326400e-15 0 
    0.031842 1.506607e-05 4.457800e-15 0 
    0.032810 1.610689e-05 4.488700e-15 0 
    0.033884 1.713922e-05 4.478400e-15 0 
    0.034834 1.803043e-05 4.457800e-15 0 
    0.035727 1.887950e-05 4.437300e-15 0 
    0.036644 1.990720e-05 4.447600e-15 0 
    0.037584 2.074952e-05 4.406800e-15 0 
    0.038548 2.098952e-05 4.237600e-15 0 
    0.039537 2.254306e-05 4.326400e-15 0 
    0.040551 2.360513e-05 4.306500e-15 0 
    0.041495 2.437774e-05 4.247400e-15 0 
    0.042267 2.483175e-05 4.169900e-15 0 
    0.043053 2.541046e-05 4.112700e-15 0 
    0.044157 2.642424e-05 4.065600e-15 0 
    0.045186 2.703990e-05 3.973000e-15 0 
    0.046026 2.754264e-05 3.900500e-15 0 
    0.047098 2.831412e-05 3.829300e-15 0 
    0.048084 2.917448e-05 3.785500e-15 0 
    0.049091 2.944448e-05 3.665400e-15 0 
    0.050119 3.047957e-05 3.640200e-15 0 
    0.050699 3.054907e-05 3.565500e-15 0 
    0.051286 3.213644e-05 3.665400e-15 0 
    0.052119 3.265826e-05 3.606800e-15 0 
    0.053088 3.296044e-05 3.508500e-15 0 
    0.054075 3.288449e-05 3.373800e-15 0 
    0.055081 3.349747e-05 3.312300e-15 0 
    0.056105 3.483428e-05 3.319900e-15 0 
    0.057016 3.597470e-05 3.319900e-15 0 
    0.058076 3.614091e-05 3.214600e-15 0 
    0.059020 3.706760e-05 3.192400e-15 0 
    0.060117 3.681275e-05 3.055800e-15 0 
    0.061094 3.388467e-05 2.723500e-15 0 
    0.062087 3.908377e-05 3.041700e-15 0 
    0.063096 3.935588e-05 2.965700e-15 0 
    0.064121 4.027217e-05 2.938500e-15 0 
    0.065163 4.083303e-05 2.884900e-15 0 
    0.065917 4.073774e-05 2.812700e-15 0 
    0.066527 4.187879e-05 2.838700e-15 0 
    0.067608 4.265815e-05 2.799800e-15 0 
    0.068549 4.178320e-05 2.667600e-15 0 
    0.069663 4.436228e-05 2.742400e-15 0 
    0.070632 4.305237e-05 2.588900e-15 0 
    0.071779 4.602482e-05 2.679900e-15 0 
    0.072778 4.666691e-05 2.643200e-15 0 
    0.073621 4.731525e-05 2.618900e-15 0 
    0.074645 4.819487e-05 2.594900e-15 0 
    0.075683 4.909015e-05 2.571100e-15 0 
    0.076560 4.645186e-05 2.377500e-15 0 
    0.077625 5.105124e-05 2.541700e-15 0 
    0.078524 5.116973e-05 2.489600e-15 0 
    0.079616 5.284580e-05 2.501100e-15 0 
    0.080538 5.395146e-05 2.495300e-15 0 
    0.081658 5.495345e-05 2.472400e-15 0 
    0.082604 5.675494e-05 2.495300e-15 0 
    0.083560 5.188062e-05 2.229100e-15 0 
    0.084528 5.807681e-05 2.438500e-15 0 
    0.085704 5.902093e-05 2.410600e-15 0 
    0.086696 6.095385e-05 2.432900e-15 0 
    0.087700 6.309678e-05 2.461100e-15 0 
    0.088716 6.546443e-05 2.495300e-15 0 
    0.089536 6.714249e-05 2.512600e-15 0 
    0.090573 6.729852e-05 2.461100e-15 0 
    0.091622 8.974377e-05 3.207200e-15 0 
    0.092683 3.775652e-04 1.318600e-14 0 
    0.093541 7.870551e-04 2.698500e-14 0 
    0.094624 1.485956e-03 4.978800e-14 0 
    0.095719 2.157742e-03 7.065200e-14 0 
    0.096605 2.371395e-03 7.623000e-14 0 
    0.097724 4.197535e-04 1.318600e-14 0 
    0.098628 1.931975e-03 5.958300e-14 0 
    0.099541 2.177736e-03 6.593600e-14 0 
    0.100693 3.411801e-03 1.009500e-13 0 
    0.101625 3.404094e-03 9.888300e-14 0 
    0.102565 1.527583e-03 4.356400e-14 0 
    0.103753 2.376843e-03 6.624000e-14 0 
    0.104713 4.841696e-03 1.324700e-13 0 
    0.105682 4.819660e-03 1.294600e-13 0 
    0.106660 3.723974e-03 9.820300e-14 0 
    0.107647 4.613134e-03 1.194300e-13 0 
    0.108643 3.564558e-03 9.059900e-14 0 
    0.109648 5.046722e-03 1.259300e-13 0 
    0.110662 4.920474e-03 1.205400e-13 0 
    0.111686 4.742525e-03 1.140600e-13 0 
    0.112720 4.275501e-03 1.009500e-13 0 
    0.113763 5.754454e-03 1.333900e-13 0 
    0.114551 5.236088e-03 1.197100e-13 0 
    0.115611 5.741101e-03 1.288600e-13 0 
    0.116681 5.998076e-03 1.321700e-13 0 
    0.117761 4.055133e-03 8.772500e-14 0 
    0.118577 5.984151e-03 1.276800e-13 0 
    0.119674 3.962812e-03 8.300900e-14 0 
    0.120781 2.773334e-03 5.703300e-14 0 
    0.121619 2.046458e-03 4.150700e-14 0 
    0.122744 4.295392e-03 8.553100e-14 0 
    0.123595 6.823665e-03 1.340100e-13 0 
    0.124738 7.655827e-03 1.476100e-13 0 
    0.125603 7.311177e-03 1.390300e-13 0 
    0.126765 6.265981e-03 1.169800e-13 0 
    0.127644 8.491906e-03 1.563600e-13 0 
    0.128529 9.057203e-03 1.644800e-13 0 
    0.129718 6.966279e-03 1.242000e-13 0 
    0.130617 6.934078e-03 1.219300e-13 0 
    0.131826 9.204598e-03 1.589000e-13 0 
    0.132739 8.871490e-03 1.510500e-13 0 
    0.133660 7.744475e-03 1.300500e-13 0 
    0.134586 9.705155e-03 1.607400e-13 0 
    0.135831 9.506087e-03 1.545700e-13 0 
    0.136773 8.453004e-03 1.355600e-13 0 
    0.137721 9.078274e-03 1.435900e-13 0 
    0.138676 9.289872e-03 1.449200e-13 0 
    0.139637 8.128271e-03 1.250600e-13 0 
    0.140605 8.550424e-03 1.297500e-13 0 
    0.141579 8.810276e-03 1.318600e-13 0 
    0.142561 9.268256e-03 1.368100e-13 0 
    0.143549 9.290014e-03 1.352500e-13 0 
    0.144544 1.002305e-02 1.439200e-13 0 
    0.144877 1.027988e-02 1.469300e-13 0 
    0.145546 1.002339e-02 1.419500e-13 0 
    0.146555 9.247154e-03 1.291600e-13 0 
    0.147571 9.354034e-03 1.288600e-13 0 
    0.148594 9.727789e-03 1.321700e-13 0 
    0.149624 1.009296e-02 1.352500e-13 0 
    0.150661 9.615942e-03 1.270900e-13 0 
    0.151356 8.472379e-03 1.109500e-13 0 
    0.152055 9.246748e-03 1.199800e-13 0 
    0.152757 9.098977e-03 1.169800e-13 0 
    0.153815 7.924994e-03 1.004900e-13 0 
    0.154882 9.225951e-03 1.153800e-13 0 
    0.155597 8.649578e-03 1.071800e-13 0 
    0.156675 8.831212e-03 1.079300e-13 0 
    0.157761 9.795297e-03 1.180700e-13 0 
    0.158855 1.056838e-02 1.256400e-13 0 
    0.159588 1.104052e-02 1.300500e-13 0 
    0.160694 1.088937e-02 1.265100e-13 0 
    0.161808 1.099026e-02 1.259300e-13 0 
    0.162555 1.025697e-02 1.164500e-13 0 
    0.163682 1.124630e-02 1.259300e-13 0 
    0.164816 1.183006e-02 1.306500e-13 0 
    0.165577 1.056786e-02 1.156400e-13 0 
    0.166725 1.216221e-02 1.312600e-13 0 
    0.167494 1.028001e-02 1.099300e-13 0 
    0.167880 1.312233e-02 1.396800e-13 0 
    0.168655 1.402788e-02 1.479500e-13 0 
    0.169824 1.288291e-02 1.340100e-13 0 
    0.170608 1.250246e-02 1.288600e-13 0 
    0.171791 1.235969e-02 1.256400e-13 0 
    0.172584 1.247406e-02 1.256400e-13 0 
    0.173780 1.383539e-02 1.374400e-13 0 
    0.174582 1.352043e-02 1.330800e-13 0 
    0.175792 1.510118e-02 1.466000e-13 0 
    0.176604 1.324388e-02 1.273900e-13 0 
    0.177828 1.435464e-02 1.361800e-13 0 
    0.178649 1.455452e-02 1.368100e-13 0 
    0.179887 1.659602e-02 1.538600e-13 0 
    0.180717 1.621828e-02 1.489800e-13 0 
    0.181552 1.531154e-02 1.393600e-13 0 
    0.182810 1.556012e-02 1.396800e-13 0 
    0.183654 1.475747e-02 1.312600e-13 0 
    0.184927 1.352075e-02 1.186100e-13 0 
    0.185780 1.415773e-02 1.230600e-13 0 
    0.186638 1.513526e-02 1.303500e-13 0 
    0.187932 1.625590e-02 1.380800e-13 0 
    0.188799 1.534639e-02 1.291600e-13 0 
    0.189671 1.538175e-02 1.282700e-13 0 
    0.190546 1.592217e-02 1.315600e-13 0 
    0.191867 1.592160e-02 1.297500e-13 0 
    0.192753 1.566772e-02 1.265100e-13 0 
    0.193642 1.499639e-02 1.199800e-13 0 
    0.194984 1.741766e-02 1.374400e-13 0 
    0.195884 1.675002e-02 1.309600e-13 0 
    0.196789 1.879369e-02 1.455900e-13 0 
    0.197697 1.909910e-02 1.466000e-13 0 
    0.198610 1.845018e-02 1.403200e-13 0 
    0.199986 1.815479e-02 1.361800e-13 0 
    0.200909 1.832276e-02 1.361800e-13 0 
    0.201837 1.782431e-02 1.312600e-13 0 
    0.202768 1.832353e-02 1.337000e-13 0 
    0.203704 1.836583e-02 1.327800e-13 0 
    0.204645 1.972388e-02 1.412900e-13 0 
    0.205589 1.883692e-02 1.337000e-13 0 
    0.207014 1.888039e-02 1.321700e-13 0 
    0.207491 2.103833e-02 1.466000e-13 0 
    0.207970 2.137923e-02 1.482900e-13 0 
    0.208930 2.223329e-02 1.528000e-13 0 
    0.209894 2.108643e-02 1.435900e-13 0 
    0.210863 2.065464e-02 1.393600e-13 0 
    0.211836 2.123312e-02 1.419500e-13 0 
    0.212814 2.172703e-02 1.439200e-13 0 
    0.213796 1.945363e-02 1.276800e-13 0 
    0.214783 2.137898e-02 1.390300e-13 0 
    0.215774 2.223320e-02 1.432600e-13 0 
    0.216770 2.113419e-02 1.349300e-13 0 
    0.217771 2.118439e-02 1.340100e-13 0 
    0.218776 2.182709e-02 1.368100e-13 0 
    0.219786 2.322708e-02 1.442500e-13 0 
    0.220801 2.254180e-02 1.387100e-13 0 
    0.221820 2.065425e-02 1.259300e-13 0 
    0.222844 2.046466e-02 1.236300e-13 0 
    0.223872 2.344217e-02 1.403200e-13 0 
    0.224905 2.218201e-02 1.315600e-13 0 
    0.225944 2.051217e-02 1.205400e-13 0 
    0.226986 2.103842e-02 1.225000e-13 0 
    0.228034 2.228526e-02 1.285700e-13 0 
    0.228560 2.393274e-02 1.374400e-13 0 
    0.229615 2.218234e-02 1.262200e-13 0 
    0.230675 2.313080e-02 1.304100e-13 0 
    0.231739 2.174970e-02 1.215000e-13 0 
    0.232809 1.609705e-02 8.909800e-14 0 
    0.233884 1.914378e-02 1.049900e-13 0 
    0.234963 1.751130e-02 9.515700e-14 0 
    0.236048 2.165784e-02 1.166100e-13 0 
    0.236592 1.793688e-02 9.613200e-14 0 
    0.237684 1.977091e-02 1.049900e-13 0 
    0.238781 1.680063e-02 8.839900e-14 0 
    0.239883 1.886326e-02 9.834200e-14 0 
    0.240991 1.831951e-02 9.463100e-14 0 
    0.242103 1.946273e-02 9.961500e-14 0 
    0.242661 2.298060e-02 1.170800e-13 0 
    0.243781 2.242065e-02 1.131800e-13 0 
    0.244906 2.459937e-02 1.230400e-13 0 
    0.246037 2.478876e-02 1.228500e-13 0 
    0.246604 2.417541e-02 1.192600e-13 0 
    0.247742 2.294443e-02 1.121500e-13 0 
    0.248886 2.259313e-02 1.094200e-13 0 
    0.250035 2.184153e-02 1.048100e-13 0 
    0.250611 2.669459e-02 1.275100e-13 0 
    0.251768 2.097691e-02 9.928000e-14 0 
    0.252348 2.074403e-02 9.772700e-14 0 
    0.252930 2.004698e-02 9.400900e-14 0 
    0.254097 2.159493e-02 1.003400e-13 0 
    0.254683 2.175303e-02 1.006100e-13 0 
    0.255859 2.635137e-02 1.207600e-13 0 
    0.257040 2.438407e-02 1.107200e-13 0 
    0.257632 2.730637e-02 1.234200e-13 0 
    0.258821 2.670377e-02 1.195900e-13 0 
    0.260016 2.587596e-02 1.148200e-13 0 
    0.260615 2.449428e-02 1.081900e-13 0 
    0.261818 2.373383e-02 1.038700e-13 0 
    0.263027 2.733198e-02 1.185200e-13 0 
    0.263633 3.182977e-02 1.373900e-13 0 
    0.264850 3.829712e-02 1.637900e-13 0 
    0.266072 4.390191e-02 1.860400e-13 0 
    0.266686 3.440618e-02 1.451300e-13 0 
    0.267917 3.792829e-02 1.585200e-13 0 
    0.269154 3.983689e-02 1.649700e-13 0 
    0.269774 3.503048e-02 1.444000e-13 0 
    0.271019 3.897326e-02 1.591800e-13 0 
    0.271644 3.387720e-02 1.377300e-13 0 
    0.272898 3.260194e-02 1.313300e-13 0 
    0.274157 3.652375e-02 1.457800e-13 0 
    0.274789 2.721092e-02 1.081100e-13 0 
    0.276058 3.034349e-02 1.194500e-13 0 
    0.276694 3.390313e-02 1.328500e-13 0 
    0.277971 3.668936e-02 1.424500e-13 0 
    0.278612 3.018047e-02 1.166400e-13 0 
    0.279898 2.000094e-02 7.659000e-14 0 
    0.281190 2.261445e-02 8.580400e-14 0 
    0.281838 3.626895e-02 1.369800e-13 0 
    0.283139 4.373949e-02 1.636800e-13 0 
    0.283792 4.227166e-02 1.574600e-13 0 
    0.285102 3.840629e-02 1.417500e-13 0 
    0.285759 3.330838e-02 1.223700e-13 0 
    0.287078 4.486331e-02 1.633100e-13 0 
    0.287740 4.978146e-02 1.803800e-13 0 
    0.289068 4.835078e-02 1.735900e-13 0 
    0.289734 5.159029e-02 1.843700e-13 0 
    0.291072 6.381612e-02 2.259700e-13 0 
    0.293089 5.921453e-02 2.068000e-13 0 
    0.295121 5.766943e-02 1.986400e-13 0 
    0.297167 6.116227e-02 2.077800e-13 0 
    0.299227 6.280708e-02 2.104400e-13 0 
    0.301301 6.464305e-02 2.136200e-13 0 
    0.303389 6.746276e-02 2.198800e-13 0 
    0.305492 6.959894e-02 2.237300e-13 0 
    0.307610 7.449741e-02 2.361900e-13 0 
    0.309742 7.579908e-02 2.370200e-13 0 
    0.311172 8.185195e-02 2.536000e-13 0 
    0.313329 7.953816e-02 2.430500e-13 0 
    0.315501 8.168325e-02 2.461800e-13 0 
    0.317687 8.683254e-02 2.581100e-13 0 
    0.319154 7.853351e-02 2.313000e-13 0 
    0.321366 8.621833e-02 2.504500e-13 0 
    0.323594 7.783323e-02 2.229900e-13 0 
    0.325087 9.694874e-02 2.752100e-13 0 
    0.327341 1.094237e-01 3.063600e-13 0 
    0.329610 1.095662e-01 3.025500e-13 0 
    0.331131 1.074109e-01 2.938800e-13 0 
    0.332660 1.065202e-01 2.887700e-13 0 
    0.333426 1.155123e-01 3.117100e-13 0 
    0.334195 1.103610e-01 2.964400e-13 0 
    0.334966 1.111774e-01 2.972600e-13 0 
    0.335738 1.047620e-01 2.788200e-13 0 
    0.336512 1.151843e-01 3.051500e-13 0 
    0.337287 1.155031e-01 3.045900e-13 0 
    0.338065 9.789905e-02 2.569800e-13 0 
    0.338844 9.862248e-02 2.576900e-13 0 
    0.339625 1.191708e-01 3.099500e-13 0 
    0.340408 1.225637e-01 3.173100e-13 0 
    0.341193 1.168317e-01 3.010800e-13 0 
    0.341979 1.160803e-01 2.977700e-13 0 
    0.342768 1.324189e-01 3.381200e-13 0 
    0.343558 1.244924e-01 3.164200e-13 0 
    0.344350 1.268654e-01 3.209700e-13 0 
    0.345144 9.606190e-02 2.419200e-13 0 
    0.345939 1.252386e-01 3.139500e-13 0 
    0.346737 1.078793e-01 2.691900e-13 0 
    0.347536 1.208175e-01 3.000900e-13 0 
    0.348337 1.031177e-01 2.549500e-13 0 
    0.349140 1.173641e-01 2.888400e-13 0 
    0.349945 1.105950e-01 2.709300e-13 0 
    0.350752 1.318070e-01 3.214100e-13 0 
    0.351560 1.312614e-01 3.186100e-13 0 
    0.352371 1.217110e-01 2.940700e-13 0 
    0.353183 1.146927e-01 2.758400e-13 0 
    0.353997 1.323523e-01 3.168500e-13 0 
    0.354813 1.468701e-01 3.499900e-13 0 
    0.355631 1.452547e-01 3.445500e-13 0 
    0.356451 1.397461e-01 3.299600e-13 0 
    0.357273 1.326008e-01 3.116500e-13 0 
    0.358096 1.182349e-01 2.766100e-13 0 
    0.358922 1.018448e-01 2.371700e-13 0 
    0.359749 1.151185e-01 2.668500e-13 0 
    0.360579 1.518298e-01 3.503300e-13 0 
    0.361410 1.310874e-01 3.010800e-13 0 
    0.362243 1.418269e-01 3.242500e-13 0 
    0.363078 1.475612e-01 3.358100e-13 0 
    0.363860 1.321779e-01 2.995100e-13 1 
    0.364135 1.330628e-01 3.010600e-13 1 
    0.364410 1.432367e-01 3.235900e-13 1 
    0.364685 1.490432e-01 3.362000e-13 1 
    0.364960 1.505779e-01 3.391500e-13 1 
    0.365235 1.530015e-01 3.440900e-13 1 
    0.365510 1.474694e-01 3.311500e-13 1 
    0.365785 1.596753e-01 3.580200e-13 1 
    0.366060 1.544215e-01 3.457200e-13 1 
    0.366335 1.668928e-01 3.730800e-13 1 
    0.366610 1.602486e-01 3.576900e-13 1 
    0.366885 1.716029e-01 3.824600e-13 1 
    0.367160 1.748844e-01 3.891900e-13 1 
    0.367435 1.681531e-01 3.736500e-13 1 
    0.367710 1.694956e-01 3.760700e-13 1 
    0.367985 1.694377e-01 3.753800e-13 1 
    0.368260 1.596329e-01 3.531300e-13 1 
    0.368535 1.559010e-01 3.443600e-13 1 
    0.368810 1.615927e-01 3.564000e-13 1 
    0.369085 1.635548e-01 3.601900e-13 1 
    0.369360 1.491509e-01 3.279800e-13 1 
    0.369635 1.621844e-01 3.561100e-13 1 
    0.369910 1.691398e-01 3.708300e-13 1 
    0.370185 1.729269e-01 3.785700e-13 1 
    0.370460 1.739113e-01 3.801600e-13 1 
    0.370735 1.793375e-01 3.914400e-13 1 
    0.371010 1.768507e-01 3.854400e-13 1 
    0.371285 1.526901e-01 3.322900e-13 1 
    0.371560 1.523411e-01 3.310400e-13 1 
    0.371835 1.605674e-01 3.484000e-13 1 
    0.372110 1.829919e-01 3.964700e-13 1 
    0.372385 1.697652e-01 3.672700e-13 1 
    0.372660 1.742471e-01 3.764100e-13 1 
    0.372935 1.806656e-01 3.897000e-13 1 
    0.373210 1.915921e-01 4.126600e-13 1 
    0.373485 2.193683e-01 4.717900e-13 1 
    0.373760 2.179220e-01 4.679900e-13 1 
    0.374035 1.893856e-01 4.061100e-13 1 
    0.374310 1.651499e-01 3.536200e-13 1 
    0.374585 1.426525e-01 3.050000e-13 1 
    0.374860 1.575370e-01 3.363300e-13 1 
    0.375135 1.508304e-01 3.215400e-13 1 
    0.375410 1.445546e-01 3.077100e-13 1 
    0.375685 1.418214e-01 3.014500e-13 1 
    0.375960 1.582462e-01 3.358700e-13 1 
    0.376235 1.691650e-01 3.585200e-13 1 
    0.376510 1.735045e-01 3.671800e-13 1 
    0.376785 1.781070e-01 3.763700e-13 1 
    0.377060 1.791206e-01 3.779600e-13 1 
    0.377335 1.782144e-01 3.755000e-13 1 
    0.377610 1.756891e-01 3.696400e-13 1 
    0.377885 1.857124e-01 3.901600e-13 1 
    0.378160 2.029718e-01 4.258000e-13 1 
    0.378435 2.093679e-01 4.385800e-13 1 
    0.378710 2.206584e-01 4.615600e-13 1 
    0.378985 2.220227e-01 4.637400e-13 1 
    0.379260 2.193915e-01 4.575800e-13 1 
    0.379535 2.137607e-01 4.451900e-13 1 
    0.379810 1.908743e-01 3.969500e-13 1 
    0.380085 1.796755e-01 3.731200e-13 1 
    0.380360 1.702135e-01 3.529600e-13 1 
    0.380635 1.712952e-01 3.546900e-13 1 
    0.380910 1.684910e-01 3.483800e-13 1 
    0.381185 1.920602e-01 3.965400e-13 1 
    0.381460 2.023923e-01 4.172700e-13 1 
    0.381735 2.127778e-01 4.380500e-13 1 
    0.382010 2.097232e-01 4.311400e-13 1 
    0.382285 1.993667e-01 4.092600e-13 1 
    0.382560 1.866185e-01 3.825400e-13 1 
    0.382835 1.737402e-01 3.556300e-13 1 
    0.383110 1.699439e-01 3.473600e-13 1 
    0.383385 1.658372e-01 3.384800e-13 1 
    0.383660 1.511693e-01 3.081000e-13 1 
    0.383935 1.463153e-01 2.977800e-13 1 
    0.384210 1.419341e-01 2.884500e-13 1 
    0.384485 1.449017e-01 2.940600e-13 1 
    0.384760 1.512379e-01 3.064800e-13 1 
    0.385035 1.684439e-01 3.408600e-13 1 
    0.385310 1.872623e-01 3.784000e-13 1 
    0.385585 1.972432e-01 3.980000e-13 1 
    0.385860 1.995098e-01 4.020000e-13 1 
