# UGC 09618 N    
# 
# An Atlas of Galaxy Spectral Energy Distributions from the Ultraviolet to the Mid-Infrared
# Brown et al. (2014)
# http://dx.doi.org/10.5072/03/529D3551F0117
# http://dx.doi.org/10.17909/t9-5bxk-dh29
# 
# The Spectral Energy Distributions of Active Galactic Nuclei
# Brown et al. (2019)
# http://dx.doi.org/10.17909/t9-3dbt-8734
# 
# Column 1: Observed wavelength (um)
# Column 2: f_nu (Jy)
# Column 3: f_lam (erg/s/cm2/A)
# Column 4: Source (0 = model, 1 = Optical Spectrun, 2 = Akari, 3 = Spitzer IRS)
# 
    0.010544 8.921870e-19 2.407500e-27 0 
    0.010740 1.442806e-18 3.752500e-27 0 
    0.010965 2.370960e-18 5.916000e-27 0 
    0.011169 3.923446e-18 9.435400e-27 0 
    0.011376 7.216953e-18 1.673000e-26 0 
    0.011776 1.685954e-17 3.647300e-26 0 
    0.012190 3.616829e-17 7.302000e-26 0 
    0.012503 1.874754e-16 3.597800e-25 0 
    0.012912 3.575749e-16 6.434300e-25 0 
    0.013122 4.754539e-16 8.283800e-25 0 
    0.013243 5.583713e-16 9.551500e-25 0 
    0.013552 8.309242e-16 1.357300e-24 0 
    0.013646 1.080037e-15 1.740000e-24 0 
    0.013836 1.381011e-15 2.164200e-24 0 
    0.014158 2.305497e-15 3.450500e-24 0 
    0.014488 3.291196e-15 4.703900e-24 0 
    0.014791 1.202088e-14 1.648400e-23 0 
    0.015205 4.348799e-14 5.643100e-23 0 
    0.015596 6.337494e-14 7.816500e-23 0 
    0.016032 9.295739e-14 1.085000e-22 0 
    0.016444 1.348330e-13 1.495900e-22 0 
    0.016749 1.755364e-13 1.877200e-22 0 
    0.017179 2.510766e-13 2.552300e-22 0 
    0.017579 3.461656e-13 3.360600e-22 0 
    0.017865 4.394702e-13 4.130900e-22 0 
    0.018281 5.948001e-13 5.339400e-22 0 
    0.018621 7.429056e-13 6.427600e-22 0 
    0.018793 8.564303e-13 7.274800e-22 0 
    0.019231 1.135345e-12 9.209700e-22 0 
    0.019724 1.586619e-12 1.223500e-21 0 
    0.020045 1.945659e-12 1.452700e-21 0 
    0.020464 2.497297e-12 1.789000e-21 0 
    0.020893 3.205784e-12 2.203200e-21 0 
    0.021184 3.824498e-12 2.556700e-21 0 
    0.021727 4.884588e-12 3.104200e-21 0 
    0.022336 7.096309e-12 4.267200e-21 0 
    0.022751 8.820213e-12 5.112100e-21 0 
    0.023067 1.018680e-11 5.743500e-21 0 
    0.023442 1.254718e-11 6.849800e-21 0 
    0.023768 2.178323e-11 1.156800e-20 0 
    0.024210 4.231816e-11 2.166000e-20 0 
    0.024831 6.481884e-11 3.153800e-20 0 
    0.025410 7.567445e-11 3.516100e-20 0 
    0.026062 9.887519e-11 4.367100e-20 0 
    0.026546 9.849688e-11 4.193200e-20 0 
    0.026853 1.244518e-10 5.177700e-20 0 
    0.027290 1.480601e-10 5.964200e-20 0 
    0.027797 1.720872e-10 6.681500e-20 0 
    0.028314 1.986356e-10 7.433200e-20 0 
    0.028840 2.292679e-10 8.269400e-20 0 
    0.029376 2.634009e-10 9.157000e-20 0 
    0.029992 2.943140e-10 9.815700e-20 0 
    0.030620 3.499065e-10 1.119600e-19 0 
    0.031117 3.919871e-10 1.214500e-19 0 
    0.031842 4.691376e-10 1.388100e-19 0 
    0.032885 6.010190e-10 1.667300e-19 0 
    0.033884 7.439087e-10 1.943800e-19 0 
    0.034914 9.060328e-10 2.229800e-19 0 
    0.035975 1.090666e-09 2.528200e-19 0 
    0.036898 1.283632e-09 2.828500e-19 0 
    0.037844 1.510508e-09 3.164100e-19 0 
    0.038726 1.741505e-09 3.483700e-19 0 
    0.039811 1.974435e-09 3.737300e-19 0 
    0.040832 2.360607e-09 4.247600e-19 0 
    0.041879 2.751499e-09 4.706500e-19 0 
    0.042756 3.085731e-09 5.063900e-19 0 
    0.043652 3.397247e-09 5.348600e-19 0 
    0.044463 3.732432e-09 5.663900e-19 0 
    0.045604 4.289502e-09 6.187600e-19 0 
    0.046666 4.774424e-09 6.577200e-19 0 
    0.047534 5.208480e-09 6.915500e-19 0 
    0.048529 5.771791e-09 7.352400e-19 0 
    0.049659 6.452332e-09 7.849500e-19 0 
    0.050699 6.970294e-09 8.135300e-19 0 
    0.051642 7.761112e-09 8.730499e-19 0 
    0.052360 8.070540e-09 8.831300e-19 0 
    0.052966 8.933786e-09 9.553500e-19 0 
    0.053703 9.527816e-09 9.911000e-19 0 
    0.054828 1.028991e-08 1.026900e-18 0 
    0.055847 1.083813e-08 1.042500e-18 0 
    0.056885 1.178839e-08 1.092900e-18 0 
    0.057943 1.312068e-08 1.172400e-18 0 
    0.058884 1.447377e-08 1.252300e-18 0 
    0.059979 1.531088e-08 1.276800e-18 0 
    0.060954 1.677251e-08 1.354300e-18 0 
    0.062087 1.757787e-08 1.368000e-18 0 
    0.063096 1.727800e-08 1.302000e-18 0 
    0.064121 2.103719e-08 1.535000e-18 0 
    0.065163 2.241153e-08 1.583400e-18 0 
    0.066222 2.409459e-08 1.648300e-18 0 
    0.067143 2.585743e-08 1.720700e-18 0 
    0.068077 2.717658e-08 1.759200e-18 0 
    0.068707 2.899267e-08 1.842500e-18 0 
    0.069823 3.073358e-08 1.891200e-18 0 
    0.070795 3.141980e-08 1.880700e-18 0 
    0.071779 3.628540e-08 2.112800e-18 0 
    0.072946 3.672814e-08 2.070700e-18 0 
    0.073961 4.192566e-08 2.299300e-18 0 
    0.074989 4.466065e-08 2.382600e-18 0 
    0.076033 4.746601e-08 2.463200e-18 0 
    0.077090 5.209321e-08 2.629700e-18 0 
    0.077983 5.590381e-08 2.757800e-18 0 
    0.079068 5.712223e-08 2.741100e-18 0 
    0.080168 6.548377e-08 3.056700e-18 0 
    0.081096 6.977732e-08 3.183000e-18 0 
    0.082224 7.550896e-08 3.350600e-18 0 
    0.083176 8.082357e-08 3.504800e-18 0 
    0.084333 8.645178e-08 3.646700e-18 0 
    0.085310 9.533913e-08 3.930000e-18 0 
    0.086298 8.467631e-08 3.411000e-18 0 
    0.087297 1.059769e-07 4.171900e-18 0 
    0.088308 1.115963e-07 4.293100e-18 0 
    0.089331 1.224801e-07 4.604500e-18 0 
    0.090365 1.341075e-07 4.926900e-18 0 
    0.091411 1.488728e-07 5.344900e-18 0 
    0.092470 1.611237e-07 5.653000e-18 0 
    0.093541 1.646210e-07 5.644200e-18 0 
    0.094624 2.653250e-07 8.889900e-18 0 
    0.095719 1.853712e-06 6.069700e-17 0 
    0.096605 4.194037e-06 1.348200e-16 0 
    0.097724 8.548187e-06 2.685300e-16 0 
    0.098628 1.328709e-05 4.097800e-16 0 
    0.099770 1.404782e-05 4.233800e-16 0 
    0.100693 2.005071e-06 5.932700e-17 0 
    0.101859 1.042921e-05 3.015600e-16 0 
    0.102802 1.320503e-05 3.748500e-16 0 
    0.103992 2.343251e-05 6.500400e-16 0 
    0.104954 2.444892e-05 6.658600e-16 0 
    0.105925 1.118607e-05 2.990900e-16 0 
    0.106905 1.607253e-05 4.219000e-16 0 
    0.108143 3.741670e-05 9.598200e-16 0 
    0.109144 3.814394e-05 9.606100e-16 0 
    0.110154 2.797512e-05 6.916600e-16 0 
    0.111173 3.673554e-05 8.916799e-16 0 
    0.112202 2.706403e-05 6.449300e-16 0 
    0.113240 4.213736e-05 9.858000e-16 0 
    0.114288 4.168004e-05 9.573000e-16 0 
    0.115345 3.973380e-05 8.959501e-16 0 
    0.116413 3.575872e-05 7.915900e-16 0 
    0.117220 5.200332e-05 1.135400e-15 0 
    0.118304 4.744589e-05 1.017000e-15 0 
    0.119399 5.399744e-05 1.136300e-15 0 
    0.120504 5.721359e-05 1.182000e-15 0 
    0.121339 3.673427e-05 7.485000e-16 0 
    0.122462 5.849807e-05 1.170200e-15 0 
    0.123595 3.549976e-05 6.971800e-16 0 
    0.124451 2.289547e-05 4.434800e-16 0 
    0.125603 1.998834e-05 3.801000e-16 0 
    0.126765 4.393097e-05 8.201500e-16 0 
    0.127644 7.520844e-05 1.384800e-15 0 
    0.128825 8.554623e-05 1.546400e-15 0 
    0.129718 8.103207e-05 1.444700e-15 0 
    0.130617 6.793043e-05 1.194500e-15 0 
    0.131826 9.862069e-05 1.702500e-15 0 
    0.132739 1.077382e-04 1.834400e-15 0 
    0.133968 7.765851e-05 1.298100e-15 0 
    0.134896 7.808303e-05 1.287300e-15 0 
    0.135831 1.103806e-04 1.794800e-15 0 
    0.137088 1.070707e-04 1.709200e-15 0 
    0.138038 9.056599e-05 1.425900e-15 0 
    0.138995 1.216878e-04 1.889600e-15 0 
    0.139959 1.195422e-04 1.830800e-15 0 
    0.141254 1.042794e-04 1.567900e-15 0 
    0.142233 1.151909e-04 1.708200e-15 0 
    0.143219 1.187490e-04 1.736800e-15 0 
    0.144212 1.041935e-04 1.503000e-15 0 
    0.145211 1.106606e-04 1.574400e-15 0 
    0.146218 1.135405e-04 1.593200e-15 0 
    0.147231 1.225399e-04 1.695900e-15 0 
    0.148252 1.228607e-04 1.677000e-15 0 
    0.148936 1.340084e-04 1.812400e-15 0 
    0.149624 1.392717e-04 1.866300e-15 0 
    0.150314 1.353926e-04 1.797700e-15 0 
    0.151356 1.237754e-04 1.620900e-15 0 
    0.152405 1.266739e-04 1.636100e-15 0 
    0.153462 1.338772e-04 1.705400e-15 0 
    0.154525 1.401876e-04 1.761300e-15 0 
    0.155597 1.323342e-04 1.639800e-15 0 
    0.156315 1.146380e-04 1.407500e-15 0 
    0.156675 1.275383e-04 1.558700e-15 0 
    0.157761 1.231899e-04 1.484900e-15 0 
    0.158855 1.043464e-04 1.240500e-15 0 
    0.159588 1.233346e-04 1.452800e-15 0 
    0.160694 1.174754e-04 1.364800e-15 0 
    0.161808 1.204451e-04 1.380100e-15 0 
    0.162930 1.320142e-04 1.491900e-15 0 
    0.163682 1.439344e-04 1.611700e-15 0 
    0.164816 1.496120e-04 1.652300e-15 0 
    0.165959 1.498765e-04 1.632500e-15 0 
    0.167109 1.543345e-04 1.658000e-15 0 
    0.167880 1.448548e-04 1.541900e-15 0 
    0.169044 1.601868e-04 1.681700e-15 0 
    0.170216 1.656994e-04 1.715700e-15 0 
    0.171002 1.519690e-04 1.559100e-15 0 
    0.172187 1.723360e-04 1.743800e-15 0 
    0.172982 1.485167e-04 1.489000e-15 0 
    0.173380 1.757845e-04 1.754300e-15 0 
    0.174181 1.907010e-04 1.885700e-15 0 
    0.175388 1.790287e-04 1.746000e-15 0 
    0.176198 1.719002e-04 1.661100e-15 0 
    0.177419 1.617314e-04 1.541400e-15 0 
    0.178238 1.633445e-04 1.542500e-15 0 
    0.179473 1.805402e-04 1.681500e-15 0 
    0.180302 1.781808e-04 1.644300e-15 0 
    0.181552 1.973712e-04 1.796400e-15 0 
    0.182390 1.780513e-04 1.605700e-15 0 
    0.183654 1.861605e-04 1.655800e-15 0 
    0.184502 1.932507e-04 1.703100e-15 0 
    0.185353 2.139561e-04 1.868300e-15 0 
    0.186638 2.155860e-04 1.856700e-15 0 
    0.187499 1.957948e-04 1.670800e-15 0 
    0.188799 2.046621e-04 1.722500e-15 0 
    0.189671 1.968677e-04 1.641700e-15 0 
    0.190546 1.791789e-04 1.480500e-15 0 
    0.191867 1.804816e-04 1.470800e-15 0 
    0.192753 1.907844e-04 1.540500e-15 0 
    0.193642 2.160715e-04 1.728700e-15 0 
    0.194984 1.970892e-04 1.555200e-15 0 
    0.195884 1.908551e-04 1.492200e-15 0 
    0.196789 2.068738e-04 1.602600e-15 0 
    0.198153 1.989276e-04 1.519900e-15 0 
    0.199067 1.984554e-04 1.502400e-15 0 
    0.199986 2.077976e-04 1.558700e-15 0 
    0.200909 2.200668e-04 1.635600e-15 0 
    0.202302 2.067450e-04 1.515500e-15 0 
    0.203236 2.351486e-04 1.707900e-15 0 
    0.204174 2.450224e-04 1.763300e-15 0 
    0.205116 2.312449e-04 1.648900e-15 0 
    0.206063 2.258976e-04 1.596000e-15 0 
    0.207491 2.374777e-04 1.654800e-15 0 
    0.208449 2.277266e-04 1.572300e-15 0 
    0.209411 2.450212e-04 1.676200e-15 0 
    0.210378 2.306479e-04 1.563400e-15 0 
    0.211349 2.464207e-04 1.655000e-15 0 
    0.212324 2.357160e-04 1.568600e-15 0 
    0.213304 2.371842e-04 1.563900e-15 0 
    0.214289 2.604722e-04 1.701700e-15 0 
    0.214783 2.486501e-04 1.617000e-15 0 
    0.215774 2.637689e-04 1.699600e-15 0 
    0.216770 2.487923e-04 1.588400e-15 0 
    0.217771 2.514432e-04 1.590600e-15 0 
    0.218776 2.570559e-04 1.611200e-15 0 
    0.219786 2.633798e-04 1.635700e-15 0 
    0.220801 2.416040e-04 1.486700e-15 0 
    0.221820 2.544509e-04 1.551400e-15 0 
    0.222844 2.685914e-04 1.622600e-15 0 
    0.223872 2.603498e-04 1.558400e-15 0 
    0.224905 2.594196e-04 1.538600e-15 0 
    0.225944 2.572784e-04 1.511900e-15 0 
    0.226986 2.733963e-04 1.591900e-15 0 
    0.228034 2.661682e-04 1.535600e-15 0 
    0.229087 2.508935e-04 1.434200e-15 0 
    0.230144 2.436978e-04 1.380300e-15 0 
    0.231207 2.682100e-04 1.505200e-15 0 
    0.232274 2.576350e-04 1.432600e-15 0 
    0.233346 2.450266e-04 1.350000e-15 0 
    0.233884 2.548918e-04 1.397900e-15 0 
    0.234963 2.682722e-04 1.457800e-15 0 
    0.236048 2.830136e-04 1.523800e-15 0 
    0.237137 2.679361e-04 1.429400e-15 0 
    0.238232 2.718162e-04 1.436800e-15 0 
    0.239332 2.573391e-04 1.347800e-15 0 
    0.240436 1.904283e-04 9.882200e-16 0 
    0.241546 2.387650e-04 1.227700e-15 0 
    0.242661 2.329073e-04 1.186600e-15 0 
    0.243220 2.620018e-04 1.328700e-15 0 
    0.244343 2.363463e-04 1.187600e-15 0 
    0.245471 2.493394e-04 1.241400e-15 0 
    0.246604 2.301590e-04 1.135400e-15 0 
    0.247742 2.542402e-04 1.242700e-15 0 
    0.248886 2.446178e-04 1.184700e-15 0 
    0.249460 2.562229e-04 1.235200e-15 0 
    0.250611 2.830452e-04 1.352000e-15 0 
    0.251768 2.748466e-04 1.300800e-15 0 
    0.252930 2.994604e-04 1.404300e-15 0 
    0.253513 2.981646e-04 1.391800e-15 0 
    0.254683 2.976367e-04 1.376600e-15 0 
    0.255859 2.876917e-04 1.318400e-15 0 
    0.257040 2.972910e-04 1.349900e-15 0 
    0.257632 2.833295e-04 1.280600e-15 0 
    0.258821 3.284883e-04 1.471100e-15 0 
    0.260016 2.829859e-04 1.255700e-15 0 
    0.261216 2.811915e-04 1.236300e-15 0 
    0.261818 2.925200e-04 1.280200e-15 0 
    0.263027 2.899929e-04 1.257500e-15 0 
    0.264241 3.300780e-04 1.418200e-15 0 
    0.264850 3.153275e-04 1.348600e-15 0 
    0.266072 3.459246e-04 1.465900e-15 0 
    0.267301 3.421732e-04 1.436700e-15 0 
    0.268534 3.392319e-04 1.411300e-15 0 
    0.269154 3.262872e-04 1.351200e-15 0 
    0.270396 3.242362e-04 1.330400e-15 0 
    0.271644 3.516361e-04 1.429600e-15 0 
    0.272270 3.821451e-04 1.546500e-15 0 
    0.273527 4.359837e-04 1.748200e-15 0 
    0.274157 4.683599e-04 1.869400e-15 0 
    0.275423 3.997960e-04 1.581100e-15 0 
    0.276694 4.336079e-04 1.699100e-15 0 
    0.277332 4.407630e-04 1.719200e-15 0 
    0.278612 4.153954e-04 1.605400e-15 0 
    0.279898 4.443348e-04 1.701500e-15 0 
    0.280543 4.091053e-04 1.559400e-15 0 
    0.281838 4.065098e-04 1.535300e-15 0 
    0.282488 4.397483e-04 1.653200e-15 0 
    0.283792 3.626353e-04 1.350800e-15 0 
    0.285102 3.834397e-04 1.415200e-15 0 
    0.285759 4.109858e-04 1.509900e-15 0 
    0.287078 4.406390e-04 1.604000e-15 0 
    0.287740 4.038430e-04 1.463300e-15 0 
    0.289068 3.136575e-04 1.126100e-15 0 
    0.289734 3.440378e-04 1.229500e-15 0 
    0.291072 4.496245e-04 1.592100e-15 0 
    0.291743 5.011511e-04 1.766400e-15 0 
    0.293089 4.877754e-04 1.703500e-15 0 
    0.293765 4.670441e-04 1.623600e-15 0 
    0.295121 4.351046e-04 1.498700e-15 0 
    0.296483 5.319254e-04 1.815400e-15 0 
    0.297167 5.584612e-04 1.897200e-15 0 
    0.298538 5.473162e-04 1.842300e-15 0 
    0.299227 5.615151e-04 1.881400e-15 0 
    0.300608 6.525571e-04 2.166400e-15 0 
    0.302691 6.251968e-04 2.047100e-15 0 
    0.304789 6.228699e-04 2.011500e-15 0 
    0.306902 6.588509e-04 2.098500e-15 0 
    0.309030 6.747997e-04 2.119800e-15 0 
    0.311172 7.039719e-04 2.181100e-15 0 
    0.313329 7.226667e-04 2.208300e-15 0 
    0.315501 7.401528e-04 2.230700e-15 0 
    0.317687 7.686114e-04 2.284700e-15 0 
    0.319154 7.906317e-04 2.328600e-15 0 
    0.321366 8.210450e-04 2.385000e-15 0 
    0.323594 8.198685e-04 2.348900e-15 0 
    0.325837 8.358745e-04 2.361900e-15 0 
    0.327341 8.637890e-04 2.418400e-15 0 
    0.329610 8.124667e-04 2.243500e-15 0 
    0.331894 8.814126e-04 2.400500e-15 0 
    0.334195 8.214527e-04 2.206500e-15 0 
    0.335738 9.480879e-04 2.523300e-15 0 
    0.338065 1.033315e-03 2.712400e-15 0 
    0.340408 1.036641e-03 2.683800e-15 0 
    0.341979 1.044438e-03 2.679200e-15 0 
    0.343558 1.049896e-03 2.668500e-15 0 
    0.344350 1.079643e-03 2.731500e-15 0 
    0.345144 9.986594e-04 2.515000e-15 0 
    0.345939 1.115679e-03 2.796800e-15 0 
    0.346737 1.073182e-03 2.677900e-15 0 
    0.347536 9.858571e-04 2.448700e-15 0 
    0.348337 1.081289e-03 2.673400e-15 0 
    0.349140 1.056984e-03 2.601300e-15 0 
    0.349945 1.089458e-03 2.668900e-15 0 
    0.350752 1.167731e-03 2.847500e-15 0 
    0.351560 1.271952e-03 3.087400e-15 0 
    0.352371 1.141824e-03 2.758800e-15 0 
    0.353183 1.126511e-03 2.709300e-15 0 
    0.353997 1.244116e-03 2.978400e-15 0 
    0.354813 1.300131e-03 3.098200e-15 0 
    0.355631 1.230628e-03 2.919100e-15 0 
    0.356451 1.104848e-03 2.608700e-15 0 
    0.357273 1.168283e-03 2.745800e-15 0 
    0.358096 1.093441e-03 2.558100e-15 0 
    0.358922 1.259050e-03 2.932000e-15 0 
    0.359749 1.133153e-03 2.626700e-15 0 
    0.360579 1.217655e-03 2.809600e-15 0 
    0.361410 1.198892e-03 2.753600e-15 0 
    0.362243 1.309269e-03 2.993300e-15 0 
    0.363078 1.259726e-03 2.866800e-15 0 
    0.363915 1.356788e-03 3.073500e-15 0 
    0.364754 1.150178e-03 2.593500e-15 0 
    0.365595 1.333567e-03 2.993200e-15 0 
    0.366437 1.413390e-03 3.157800e-15 0 
    0.367282 1.443793e-03 3.210900e-15 0 
    0.368058 1.484986e-03 3.288600e-15 1 
    0.368333 1.676012e-03 3.706100e-15 1 
    0.368608 1.527743e-03 3.373200e-15 1 
    0.368883 1.494236e-03 3.294300e-15 1 
    0.369158 2.003008e-03 4.409400e-15 1 
    0.369433 1.835893e-03 4.035500e-15 1 
    0.369708 1.571365e-03 3.448900e-15 1 
    0.369983 1.449227e-03 3.176100e-15 1 
    0.370258 1.071000e-03 2.343700e-15 1 
    0.370533 1.396653e-03 3.051800e-15 1 
    0.370808 8.747660e-04 1.908600e-15 1 
    0.371083 1.059851e-03 2.309000e-15 1 
    0.371358 1.356451e-03 2.950800e-15 1 
    0.371633 1.333417e-03 2.896400e-15 1 
    0.371908 1.738857e-03 3.771500e-15 1 
    0.372183 1.635185e-03 3.541400e-15 1 
    0.372458 1.594828e-03 3.448900e-15 1 
    0.372733 1.071566e-03 2.313900e-15 1 
    0.373008 1.448534e-03 3.123300e-15 1 
    0.373283 1.435669e-03 3.091000e-15 1 
    0.373558 1.262841e-03 2.714900e-15 1 
    0.373833 1.677945e-03 3.602000e-15 1 
    0.374108 1.385992e-03 2.970900e-15 1 
    0.374383 9.767935e-04 2.090700e-15 1 
    0.374658 1.325922e-03 2.833800e-15 1 
    0.374933 1.473270e-03 3.144100e-15 1 
    0.375208 1.415272e-03 3.015900e-15 1 
    0.375483 1.263060e-03 2.687600e-15 1 
    0.375758 1.285384e-03 2.731100e-15 1 
    0.376033 1.345523e-03 2.854700e-15 1 
    0.376308 1.732948e-03 3.671300e-15 1 
    0.376583 1.248395e-03 2.640900e-15 1 
    0.376858 1.564372e-03 3.304500e-15 1 
    0.377133 1.170595e-03 2.469100e-15 1 
    0.377408 1.347215e-03 2.837500e-15 1 
    0.377683 1.491253e-03 3.136300e-15 1 
    0.377958 1.781320e-03 3.740900e-15 1 
    0.378233 1.317108e-03 2.762000e-15 1 
    0.378508 1.368547e-03 2.865700e-15 1 
    0.378783 1.642376e-03 3.434100e-15 1 
    0.379058 1.338330e-03 2.794300e-15 1 
    0.379333 1.403298e-03 2.925700e-15 1 
    0.379608 1.530942e-03 3.187200e-15 1 
    0.379883 1.406504e-03 2.923900e-15 1 
    0.380158 1.563178e-03 3.244900e-15 1 
    0.380433 1.593759e-03 3.303600e-15 1 
    0.380708 1.723368e-03 3.567100e-15 1 
    0.380983 1.900956e-03 3.929000e-15 1 
    0.381258 2.035734e-03 4.201500e-15 1 
    0.381533 2.042748e-03 4.209900e-15 1 
    0.381808 1.715265e-03 3.529900e-15 1 
    0.382083 1.397586e-03 2.872000e-15 1 
    0.382358 1.579763e-03 3.241700e-15 1 
    0.382633 1.253936e-03 2.569400e-15 1 
    0.382908 1.187024e-03 2.428800e-15 1 
    0.383183 1.532408e-03 3.131000e-15 1 
    0.383458 1.417466e-03 2.892000e-15 1 
    0.383733 1.772461e-03 3.611100e-15 1 
    0.384008 1.645039e-03 3.346700e-15 1 
    0.384283 2.495041e-03 5.068700e-15 1 
    0.384558 2.578570e-03 5.230900e-15 1 
    0.384833 4.270558e-03 8.650900e-15 1 
    0.385108 5.395452e-03 1.091400e-14 1 
    0.385383 5.553660e-03 1.121800e-14 1 
    0.385658 4.906275e-03 9.896200e-15 1 
    0.385933 3.724898e-03 7.502600e-15 1 
    0.386208 2.713706e-03 5.458100e-15 1 
    0.386483 2.136825e-03 4.291700e-15 1 
    0.386758 1.680601e-03 3.370600e-15 1 
    0.387033 1.798483e-03 3.601900e-15 1 
    0.387308 1.635982e-03 3.271800e-15 1 
    0.387583 1.888423e-03 3.771300e-15 1 
    0.387858 1.983220e-03 3.955000e-15 1 
    0.388133 1.749969e-03 3.484900e-15 1 
    0.388408 1.872534e-03 3.723700e-15 1 
    0.388683 2.108849e-03 4.187700e-15 1 
    0.388958 2.263980e-03 4.489400e-15 1 
    0.389233 2.059826e-03 4.078800e-15 1 
    0.389508 2.314941e-03 4.577500e-15 1 
    0.389783 2.270555e-03 4.483400e-15 1 
    0.390058 2.198955e-03 4.335900e-15 1 
    0.390333 2.012521e-03 3.962700e-15 1 
    0.390608 1.845797e-03 3.629300e-15 1 
    0.390883 2.169000e-03 4.258800e-15 1 
    0.391158 2.670746e-03 5.236600e-15 1 
    0.391433 2.504378e-03 4.903500e-15 1 
    0.391708 2.140574e-03 4.185300e-15 1 
    0.391983 1.800581e-03 3.515600e-15 1 
    0.392258 2.038062e-03 3.973700e-15 1 
    0.392533 2.013597e-03 3.920500e-15 1 
    0.392808 1.885883e-03 3.666700e-15 1 
    0.393083 2.169741e-03 4.212700e-15 1 
