# UGCA 410       
# 
# An Atlas of Galaxy Spectral Energy Distributions from the Ultraviolet to the Mid-Infrared
# Brown et al. (2014)
# http://dx.doi.org/10.5072/03/529D3551F0117
# http://dx.doi.org/10.17909/t9-5bxk-dh29
# 
# The Spectral Energy Distributions of Active Galactic Nuclei
# Brown et al. (2019)
# http://dx.doi.org/10.17909/t9-3dbt-8734
# 
# Column 1: Observed wavelength (um)
# Column 2: f_nu (Jy)
# Column 3: f_lam (erg/s/cm2/A)
# Column 4: Source (0 = model, 1 = Optical Spectrun, 2 = Akari, 3 = Spitzer IRS)
# 
    0.010023 6.773719e-18 2.022800e-26 0 
    0.010233 1.018207e-17 2.917100e-26 0 
    0.010423 1.438198e-17 3.971500e-26 0 
    0.010617 2.055123e-17 5.469600e-26 0 
    0.010814 2.936351e-17 7.532800e-26 0 
    0.011015 4.762211e-17 1.177500e-25 0 
    0.011429 8.971122e-17 2.060400e-25 0 
    0.011830 1.587814e-16 3.403700e-25 0 
    0.012134 3.853407e-16 7.851600e-25 0 
    0.012531 6.573630e-16 1.255900e-24 0 
    0.012735 8.488513e-16 1.570200e-24 0 
    0.012823 9.611989e-16 1.753700e-24 0 
    0.013122 1.373535e-15 2.393100e-24 0 
    0.013243 1.609961e-15 2.754000e-24 0 
    0.013428 2.017682e-15 3.357000e-24 0 
    0.013740 2.916139e-15 4.634000e-24 0 
    0.014028 4.007063e-15 6.108800e-24 0 
    0.014322 6.544002e-15 9.571000e-24 0 
    0.014723 1.098574e-14 1.520400e-23 0 
    0.015136 1.602697e-14 2.098700e-23 0 
    0.015524 2.311219e-14 2.877100e-23 0 
    0.015922 3.272139e-14 3.872200e-23 0 
    0.016218 4.215302e-14 4.807900e-23 0 
    0.016634 5.845628e-14 6.338100e-23 0 
    0.017022 7.940654e-14 8.221600e-23 0 
    0.017338 9.973214e-14 9.953100e-23 0 
    0.017742 1.332982e-13 1.270400e-22 0 
    0.018030 1.639925e-13 1.513400e-22 0 
    0.018239 1.882973e-13 1.698100e-22 0 
    0.018621 2.448227e-13 2.118200e-22 0 
    0.019143 3.364052e-13 2.754000e-22 0 
    0.019454 4.053665e-13 3.213300e-22 0 
    0.019861 5.138490e-13 3.908000e-22 0 
    0.020230 6.439185e-13 4.720200e-22 0 
    0.020559 7.617967e-13 5.407000e-22 0 
    0.021038 9.791436e-13 6.636800e-22 0 
    0.021627 1.348426e-12 8.648800e-22 0 
    0.022029 1.639912e-12 1.013800e-21 0 
    0.022336 1.891651e-12 1.137500e-21 0 
    0.022751 2.284722e-12 1.324200e-21 0 
    0.023067 7.547823e-12 4.255600e-21 0 
    0.023442 1.139793e-11 6.222400e-21 0 
    0.024044 1.588002e-11 8.240600e-21 0 
    0.024660 1.878550e-11 9.267400e-21 0 
    0.025235 2.295258e-11 1.081300e-20 0 
    0.025763 2.327266e-11 1.051900e-20 0 
    0.026062 2.824003e-11 1.247300e-20 0 
    0.026485 3.249608e-11 1.389800e-20 0 
    0.026977 3.688280e-11 1.520400e-20 0 
    0.027479 4.176685e-11 1.659400e-20 0 
    0.027990 4.675570e-11 1.790400e-20 0 
    0.028445 5.270325e-11 1.954100e-20 0 
    0.029040 5.886103e-11 2.093900e-20 0 
    0.029648 6.727018e-11 2.295900e-20 0 
    0.030200 7.142489e-11 2.349400e-20 0 
    0.030903 8.410644e-11 2.642100e-20 0 
    0.031842 1.053996e-10 3.118600e-20 0 
    0.032885 1.273015e-10 3.531500e-20 0 
    0.033884 1.519927e-10 3.971500e-20 0 
    0.034914 1.810643e-10 4.456100e-20 0 
    0.035810 2.152007e-10 5.034500e-20 0 
    0.036644 2.581321e-10 5.767100e-20 0 
    0.037584 3.011901e-10 6.396700e-20 0 
    0.038548 3.563205e-10 7.193800e-20 0 
    0.039628 4.485786e-10 8.569500e-20 0 
    0.040551 5.480731e-10 9.999000e-20 0 
    0.041495 6.650301e-10 1.158700e-19 0 
    0.042267 7.741497e-10 1.300000e-19 0 
    0.043053 9.159061e-10 1.482400e-19 0 
    0.044157 1.185308e-09 1.823700e-19 0 
    0.045186 1.485391e-09 2.182500e-19 0 
    0.046132 1.798225e-09 2.534900e-19 0 
    0.047098 2.284768e-09 3.090000e-19 0 
    0.048084 2.896254e-09 3.758000e-19 0 
    0.049091 3.621075e-09 4.507700e-19 0 
    0.050119 4.664876e-09 5.571300e-19 0 
    0.050699 1.962577e-08 2.290600e-18 0 
    0.051286 7.325432e-08 8.355200e-18 0 
    0.052119 7.831172e-08 8.648800e-18 0 
    0.053088 8.626362e-08 9.182400e-18 0 
    0.054075 8.766566e-08 8.994100e-18 0 
    0.055081 1.169069e-07 1.156000e-17 0 
    0.056105 1.471793e-07 1.402700e-17 0 
    0.057148 1.721235e-07 1.581100e-17 0 
    0.058076 1.765335e-07 1.570200e-17 0 
    0.059156 2.166849e-07 1.857600e-17 0 
    0.060117 2.321788e-07 1.927300e-17 0 
    0.061094 2.778705e-07 2.233400e-17 0 
    0.062087 3.325404e-07 2.588000e-17 0 
    0.063096 3.705480e-07 2.792300e-17 0 
    0.064121 4.053531e-07 2.957700e-17 0 
    0.065163 4.632764e-07 3.273100e-17 0 
    0.065917 5.009988e-07 3.459100e-17 0 
    0.066681 5.518668e-07 3.723500e-17 0 
    0.067608 6.037168e-07 3.962400e-17 0 
    0.068707 6.336373e-07 4.026800e-17 0 
    0.069663 7.741723e-07 4.785800e-17 0 
    0.070632 7.885589e-07 4.741900e-17 0 
    0.071779 9.656815e-07 5.622900e-17 0 
    0.072778 1.049140e-06 5.942300e-17 0 
    0.073621 1.137199e-06 6.294400e-17 0 
    0.074645 1.273025e-06 6.854200e-17 0 
    0.075683 1.392628e-06 7.293900e-17 0 
    0.076736 1.523470e-06 7.761700e-17 0 
    0.077625 1.678181e-06 8.355200e-17 0 
    0.078705 1.869989e-06 9.056400e-17 0 
    0.079616 2.017611e-06 9.549000e-17 0 
    0.080724 2.181896e-06 1.004500e-16 0 
    0.081658 2.343368e-06 1.054300e-16 0 
    0.082604 2.593127e-06 1.140100e-16 0 
    0.083753 2.510981e-06 1.073900e-16 0 
    0.084723 2.977429e-06 1.244400e-16 0 
    0.085704 3.205190e-06 1.309100e-16 0 
    0.086696 3.498038e-06 1.396200e-16 0 
    0.087700 3.800523e-06 1.482400e-16 0 
    0.088716 4.138586e-06 1.577500e-16 0 
    0.089743 4.465030e-06 1.663200e-16 0 
    0.090782 4.729723e-06 1.721700e-16 0 
    0.091622 6.805215e-06 2.432000e-16 0 
    0.092683 3.943160e-05 1.377100e-15 0 
    0.093756 8.276254e-05 2.824600e-15 0 
    0.094624 1.617486e-04 5.419500e-15 0 
    0.095719 2.112664e-04 6.917600e-15 0 
    0.096605 2.641416e-04 8.491000e-15 0 
    0.097724 9.054018e-05 2.844200e-15 0 
    0.098628 2.876319e-04 8.870700e-15 0 
    0.099770 2.863084e-04 8.628900e-15 0 
    0.100693 3.371582e-04 9.976000e-15 0 
    0.101625 3.242191e-04 9.418000e-15 0 
    0.102802 1.595278e-04 4.528500e-15 0 
    0.103753 2.991147e-04 8.336000e-15 0 
    0.104713 4.225108e-04 1.156000e-14 0 
    0.105682 4.244472e-04 1.140100e-14 0 
    0.106660 3.907019e-04 1.030300e-14 0 
    0.107647 4.353565e-04 1.127100e-14 0 
    0.108643 4.025713e-04 1.023200e-14 0 
    0.109648 4.664801e-04 1.164000e-14 0 
    0.110662 4.579625e-04 1.121900e-14 0 
    0.111686 4.675582e-04 1.124500e-14 0 
    0.112720 4.413994e-04 1.042200e-14 0 
    0.113763 4.986992e-04 1.156000e-14 0 
    0.114815 4.828744e-04 1.098900e-14 0 
    0.115878 5.079703e-04 1.134900e-14 0 
    0.116681 5.222052e-04 1.150700e-14 0 
    0.117761 4.254411e-04 9.203600e-15 0 
    0.118850 5.319126e-04 1.129700e-14 0 
    0.119674 4.918606e-04 1.030300e-14 0 
    0.120781 4.244539e-04 8.728800e-15 0 
    0.121899 2.414548e-04 4.874800e-15 0 
    0.122744 4.729747e-04 9.418000e-15 0 
    0.123880 5.712899e-04 1.116800e-14 0 
    0.124738 5.954129e-04 1.148000e-14 0 
    0.125893 6.009431e-04 1.137500e-14 0 
    0.126765 5.968162e-04 1.114200e-14 0 
    0.127644 6.380334e-04 1.174800e-14 0 
    0.128825 6.513883e-04 1.177500e-14 0 
    0.129718 6.050903e-04 1.078800e-14 0 
    0.130918 6.263925e-04 1.096400e-14 0 
    0.131826 6.789622e-04 1.172100e-14 0 
    0.132739 6.696052e-04 1.140100e-14 0 
    0.133660 6.543947e-04 1.098900e-14 0 
    0.134896 6.947588e-04 1.145400e-14 0 
    0.135831 7.044233e-04 1.145400e-14 0 
    0.136773 6.899711e-04 1.106500e-14 0 
    0.137721 6.995688e-04 1.106500e-14 0 
    0.138676 7.125739e-04 1.111600e-14 0 
    0.139959 6.468978e-04 9.907300e-15 0 
    0.140929 6.726915e-04 1.016100e-14 0 
    0.141906 7.258159e-04 1.081300e-14 0 
    0.142889 7.274672e-04 1.068900e-14 0 
    0.143880 7.478746e-04 1.083800e-14 0 
    0.144544 7.635683e-04 1.096400e-14 0 
    0.144877 7.617733e-04 1.088800e-14 0 
    0.145881 7.652744e-04 1.078800e-14 0 
    0.146893 7.547829e-04 1.049400e-14 0 
    0.147911 7.652806e-04 1.049400e-14 0 
    0.148936 7.741494e-04 1.047000e-14 0 
    0.149969 7.813269e-04 1.042200e-14 0 
    0.150661 7.635855e-04 1.009200e-14 0 
    0.151705 7.359317e-04 9.593100e-15 0 
    0.152055 7.565487e-04 9.816500e-15 0 
    0.152757 7.653082e-04 9.839100e-15 0 
    0.153815 7.208284e-04 9.140200e-15 0 
    0.154882 7.325507e-04 9.161300e-15 0 
    0.155955 7.258323e-04 8.952800e-15 0 
    0.156675 7.600341e-04 9.288700e-15 0 
    0.157761 7.958606e-04 9.593100e-15 0 
    0.158855 8.106548e-04 9.637300e-15 0 
    0.159956 8.257260e-04 9.681800e-15 0 
    0.160694 8.162683e-04 9.483200e-15 0 
    0.161808 8.219348e-04 9.418000e-15 0 
    0.162930 8.295418e-04 9.374700e-15 0 
    0.163682 8.547475e-04 9.571000e-15 0 
    0.164816 8.567082e-04 9.461400e-15 0 
    0.165959 8.646474e-04 9.418000e-15 0 
    0.166725 8.909196e-04 9.615200e-15 0 
    0.167494 8.706352e-04 9.310200e-15 0 
    0.167880 9.095630e-04 9.681800e-15 0 
    0.169044 9.179809e-04 9.637300e-15 0 
    0.169824 9.053897e-04 9.418000e-15 0 
    0.171002 9.012385e-04 9.246100e-15 0 
    0.171791 8.868204e-04 9.014800e-15 0 
    0.172982 8.929753e-04 8.952800e-15 0 
    0.173780 9.222220e-04 9.161300e-15 0 
    0.174985 9.201030e-04 9.014800e-15 0 
    0.175792 9.415268e-04 9.140200e-15 0 
    0.177011 9.264823e-04 8.870700e-15 0 
    0.177828 9.329042e-04 8.850300e-15 0 
    0.179061 9.524373e-04 8.911600e-15 0 
    0.179887 9.723763e-04 9.014800e-15 0 
    0.180717 9.836346e-04 9.035600e-15 0 
    0.181970 9.568356e-04 8.668800e-15 0 
    0.182810 9.768630e-04 8.769100e-15 0 
    0.184077 9.768631e-04 8.648800e-15 0 
    0.184927 9.372075e-04 8.221600e-15 0 
    0.185780 9.393618e-04 8.165000e-15 0 
    0.187068 9.656832e-04 8.278600e-15 0 
    0.187932 9.996294e-04 8.491000e-15 0 
    0.188799 9.502499e-04 7.997600e-15 0 
    0.190108 9.286202e-04 7.708300e-15 0 
    0.190985 9.836407e-04 8.090200e-15 0 
    0.191867 9.590387e-04 7.815500e-15 0 
    0.192753 9.480639e-04 7.655200e-15 0 
    0.194089 9.904590e-04 7.887800e-15 0 
    0.194984 1.018206e-03 8.034500e-15 0 
    0.195884 9.723735e-04 7.602500e-15 0 
    0.197242 1.029994e-03 7.942500e-15 0 
    0.198153 1.063744e-03 8.127500e-15 0 
    0.199067 1.029989e-03 7.797500e-15 0 
    0.199986 1.020550e-03 7.655200e-15 0 
    0.200909 1.049139e-03 7.797500e-15 0 
    0.201837 1.056422e-03 7.779600e-15 0 
    0.202768 1.086008e-03 7.924200e-15 0 
    0.204174 1.056419e-03 7.602500e-15 0 
    0.205116 1.071112e-03 7.637600e-15 0 
    0.206063 1.037133e-03 7.327500e-15 0 
    0.207014 1.063742e-03 7.446600e-15 0 
    0.207970 1.119018e-03 7.761700e-15 0 
    0.208449 1.078540e-03 7.446600e-15 0 
    0.208930 1.098598e-03 7.550200e-15 0 
    0.209894 1.076055e-03 7.327500e-15 0 
    0.210863 1.106200e-03 7.463700e-15 0 
    0.211836 1.116433e-03 7.463700e-15 0 
    0.212814 1.134585e-03 7.515500e-15 0 
    0.213796 1.126766e-03 7.395300e-15 0 
    0.214783 1.119018e-03 7.277100e-15 0 
    0.215774 1.145073e-03 7.378300e-15 0 
    0.216770 1.145081e-03 7.310700e-15 0 
    0.217771 1.147713e-03 7.260300e-15 0 
    0.218776 1.147721e-03 7.193800e-15 0 
    0.219786 1.166362e-03 7.243600e-15 0 
    0.220801 1.163687e-03 7.160700e-15 0 
    0.221820 1.161020e-03 7.078800e-15 0 
    0.222844 1.155675e-03 6.981600e-15 0 
    0.223872 1.171758e-03 7.013900e-15 0 
    0.224905 1.174453e-03 6.965600e-15 0 
    0.225944 1.169061e-03 6.870000e-15 0 
    0.226986 1.182582e-03 6.885800e-15 0 
    0.228034 1.190789e-03 6.870000e-15 0 
    0.229087 1.201812e-03 6.870000e-15 0 
    0.230144 1.177087e-03 6.667000e-15 0 
    0.231207 1.198428e-03 6.725600e-15 0 
    0.232274 1.192358e-03 6.630200e-15 0 
    0.232809 1.084687e-03 6.003800e-15 0 
    0.233884 1.180591e-03 6.474700e-15 0 
    0.234963 1.177321e-03 6.397600e-15 0 
    0.236048 1.198638e-03 6.453700e-15 0 
    0.237137 1.187080e-03 6.332900e-15 0 
    0.238232 1.197501e-03 6.329900e-15 0 
    0.238781 1.180771e-03 6.212800e-15 0 
    0.239883 1.199387e-03 6.252900e-15 0 
    0.240991 1.196050e-03 6.178300e-15 0 
    0.242103 1.200979e-03 6.146900e-15 0 
    0.243220 1.217094e-03 6.172300e-15 0 
    0.243781 1.202866e-03 6.072100e-15 0 
    0.244906 1.216193e-03 6.083100e-15 0 
    0.246037 1.224022e-03 6.066100e-15 0 
    0.247172 1.220577e-03 5.993600e-15 0 
    0.248313 1.219971e-03 5.935700e-15 0 
    0.248886 1.225299e-03 5.934200e-15 0 
    0.250035 1.180393e-03 5.664300e-15 0 
    0.251189 1.238236e-03 5.887400e-15 0 
    0.251768 1.204186e-03 5.699200e-15 0 
    0.252348 1.231901e-03 5.803600e-15 0 
    0.252930 1.220296e-03 5.722500e-15 0 
    0.254097 1.222479e-03 5.680200e-15 0 
    0.255270 1.219043e-03 5.612300e-15 0 
    0.255859 1.238532e-03 5.675800e-15 0 
    0.257040 1.237879e-03 5.620800e-15 0 
    0.258226 1.254441e-03 5.643800e-15 0 
    0.258821 1.254110e-03 5.616400e-15 0 
    0.260016 1.256343e-03 5.574800e-15 0 
    0.261216 1.252795e-03 5.508100e-15 0 
    0.261818 1.249574e-03 5.468700e-15 0 
    0.263027 1.257566e-03 5.453200e-15 0 
    0.264241 1.265594e-03 5.437700e-15 0 
    0.264850 1.285814e-03 5.499200e-15 0 
    0.266072 1.291052e-03 5.471000e-15 0 
    0.267301 1.278523e-03 5.368200e-15 0 
    0.267917 1.287031e-03 5.379100e-15 0 
    0.269154 1.295248e-03 5.363800e-15 0 
    0.270396 1.282663e-03 5.263000e-15 0 
    0.271019 1.291200e-03 5.273700e-15 0 
    0.272270 1.287506e-03 5.210400e-15 0 
    0.272898 1.278285e-03 5.149300e-15 0 
    0.274157 1.298324e-03 5.182100e-15 0 
    0.275423 1.273906e-03 5.038000e-15 0 
    0.276058 1.279431e-03 5.036600e-15 0 
    0.277332 1.287576e-03 5.022200e-15 0 
    0.277971 1.305106e-03 5.067200e-15 0 
    0.279254 1.301351e-03 5.006300e-15 0 
    0.279898 1.253930e-03 4.801700e-15 0 
    0.281190 1.282401e-03 4.865700e-15 0 
    0.281838 1.311883e-03 4.954700e-15 0 
    0.283139 1.311116e-03 4.906400e-15 0 
    0.284446 1.301349e-03 4.825200e-15 0 
    0.285102 1.306979e-03 4.823800e-15 0 
    0.286418 1.306193e-03 4.776700e-15 0 
    0.287078 1.320928e-03 4.808400e-15 0 
    0.288403 1.323196e-03 4.772500e-15 0 
    0.289068 1.322787e-03 4.749100e-15 0 
    0.290402 1.325045e-03 4.713600e-15 0 
    0.291743 1.336516e-03 4.710800e-15 0 
    0.293765 1.332238e-03 4.631300e-15 0 
    0.295801 1.327931e-03 4.553000e-15 0 
    0.297852 1.339017e-03 4.528000e-15 0 
    0.299916 1.340849e-03 4.472000e-15 0 
    0.301995 1.342661e-03 4.416600e-15 0 
    0.303389 1.341830e-03 4.373400e-15 0 
    0.305492 1.343636e-03 4.319200e-15 0 
    0.307610 1.345457e-03 4.265700e-15 0 
    0.309742 1.344153e-03 4.203100e-15 0 
    0.311889 1.349071e-03 4.160600e-15 0 
    0.314051 1.344629e-03 4.090000e-15 0 
    0.315501 1.343769e-03 4.049900e-15 0 
    0.317687 1.345499e-03 3.999500e-15 0 
    0.319890 1.331854e-03 3.904600e-15 0 
    0.321366 1.343278e-03 3.902000e-15 0 
    0.323594 1.338826e-03 3.835700e-15 0 
    0.325837 1.349842e-03 3.814200e-15 0 
    0.328095 1.357779e-03 3.784000e-15 0 
    0.329610 1.353725e-03 3.738100e-15 0 
    0.331894 1.355440e-03 3.691500e-15 0 
    0.332660 1.386530e-03 3.758800e-15 0 
    0.333426 1.395628e-03 3.766100e-15 0 
    0.334195 1.401589e-03 3.764800e-15 0 
    0.334966 1.313626e-03 3.512300e-15 0 
    0.335738 1.416815e-03 3.770800e-15 0 
    0.336512 1.343257e-03 3.558600e-15 0 
    0.337287 1.364619e-03 3.598600e-15 0 
    0.338065 1.348521e-03 3.539800e-15 0 
    0.338844 1.329522e-03 3.473900e-15 0 
    0.339625 1.394907e-03 3.628000e-15 0 
    0.340408 1.397600e-03 3.618300e-15 0 
    0.341193 1.365326e-03 3.518500e-15 0 
    0.341979 1.364802e-03 3.501000e-15 0 
    0.342768 1.402555e-03 3.581300e-15 0 
    0.343558 1.402025e-03 3.563500e-15 0 
    0.344350 1.417745e-03 3.586900e-15 0 
    0.345144 1.397805e-03 3.520200e-15 0 
    0.345939 1.426551e-03 3.576100e-15 0 
    0.346737 1.371264e-03 3.421700e-15 0 
    0.347536 1.373927e-03 3.412600e-15 0 
    0.348337 1.395759e-03 3.450900e-15 0 
    0.349140 1.350963e-03 3.324800e-15 0 
    0.349945 1.427207e-03 3.496300e-15 0 
    0.350752 1.416860e-03 3.455000e-15 0 
    0.351560 1.387265e-03 3.367300e-15 0 
    0.352371 1.389948e-03 3.358300e-15 0 
    0.353183 1.415238e-03 3.403700e-15 0 
    0.353997 1.421268e-03 3.402500e-15 0 
    0.354813 1.433871e-03 3.416900e-15 0 
    0.355631 1.463340e-03 3.471100e-15 0 
    0.356451 1.476321e-03 3.485800e-15 0 
    0.357273 1.465608e-03 3.444600e-15 0 
    0.358096 1.444927e-03 3.380400e-15 0 
    0.358922 1.395347e-03 3.249400e-15 0 
    0.359749 1.382026e-03 3.203600e-15 0 
    0.360579 1.400719e-03 3.232000e-15 0 
    0.361410 1.439402e-03 3.306000e-15 0 
    0.362243 1.452168e-03 3.320000e-15 0 
    0.363078 1.471789e-03 3.349400e-15 0 
    0.363915 1.526436e-03 3.457800e-15 0 
    0.364754 1.480841e-03 3.339100e-15 0 
    0.365595 1.490528e-03 3.345500e-15 0 
    0.366437 1.486526e-03 3.321200e-15 0 
    0.367282 1.492805e-03 3.319900e-15 0 
    0.368129 1.492199e-03 3.303300e-15 0 
    0.368978 1.474539e-03 3.249200e-15 0 
    0.368992 1.407027e-03 3.100200e-15 1 
    0.369267 1.590163e-03 3.498500e-15 1 
    0.369542 1.652892e-03 3.631100e-15 1 
    0.369817 1.605617e-03 3.522000e-15 1 
    0.370092 1.440356e-03 3.154800e-15 1 
    0.370367 1.526538e-03 3.338600e-15 1 
    0.370642 1.547443e-03 3.379300e-15 1 
    0.370917 1.639351e-03 3.574700e-15 1 
    0.371192 1.574085e-03 3.427300e-15 1 
    0.371467 1.308814e-03 2.845500e-15 1 
    0.371742 1.552266e-03 3.369800e-15 1 
    0.372017 1.492193e-03 3.234600e-15 1 
    0.372292 1.877863e-03 4.064600e-15 1 
    0.372567 2.167643e-03 4.684900e-15 1 
    0.372842 4.257541e-03 9.188200e-15 1 
    0.373117 8.086146e-03 1.742500e-14 1 
    0.373392 1.281098e-02 2.756600e-14 1 
    0.373667 1.294901e-02 2.782200e-14 1 
    0.373942 9.046704e-03 1.940900e-14 1 
    0.374217 4.748701e-03 1.017300e-14 1 
    0.374492 2.309823e-03 4.941000e-15 1 
    0.374767 1.903289e-03 4.065400e-15 1 
    0.375042 1.552473e-03 3.311200e-15 1 
    0.375317 1.536203e-03 3.271700e-15 1 
    0.375592 1.617313e-03 3.439400e-15 1 
    0.375867 1.456791e-03 3.093500e-15 1 
    0.376142 1.573430e-03 3.336300e-15 1 
    0.376417 1.486137e-03 3.146600e-15 1 
    0.376692 1.503066e-03 3.177800e-15 1 
    0.376967 1.643529e-03 3.469700e-15 1 
    0.377242 1.801237e-03 3.797100e-15 1 
    0.377517 1.597924e-03 3.363600e-15 1 
    0.377792 1.610767e-03 3.385700e-15 1 
    0.378067 1.665903e-03 3.496500e-15 1 
    0.378342 1.585687e-03 3.323300e-15 1 
    0.378617 1.671041e-03 3.497100e-15 1 
    0.378892 1.909241e-03 3.989800e-15 1 
    0.379167 1.958882e-03 4.087600e-15 1 
    0.379442 1.821203e-03 3.794800e-15 1 
    0.379717 1.748339e-03 3.637700e-15 1 
    0.379992 1.479219e-03 3.073300e-15 1 
    0.380267 1.605816e-03 3.331500e-15 1 
    0.380542 1.902108e-03 3.940500e-15 1 
    0.380817 1.798654e-03 3.720800e-15 1 
    0.381092 1.689909e-03 3.490800e-15 1 
    0.381367 1.706505e-03 3.520000e-15 1 
    0.381642 1.769169e-03 3.644000e-15 1 
    0.381917 1.881893e-03 3.870600e-15 1 
    0.382192 1.866492e-03 3.833400e-15 1 
    0.382467 1.920767e-03 3.939200e-15 1 
    0.382742 1.897748e-03 3.886400e-15 1 
    0.383017 1.904388e-03 3.894400e-15 1 
    0.383292 1.891502e-03 3.862500e-15 1 
    0.383567 1.716050e-03 3.499200e-15 1 
    0.383842 1.666699e-03 3.393700e-15 1 
    0.384117 1.805125e-03 3.670300e-15 1 
    0.384392 1.913554e-03 3.885200e-15 1 
    0.384667 1.757967e-03 3.564200e-15 1 
    0.384942 1.709211e-03 3.460400e-15 1 
    0.385217 1.877655e-03 3.796000e-15 1 
    0.385492 1.768438e-03 3.570100e-15 1 
    0.385767 1.851819e-03 3.733100e-15 1 
    0.386042 1.978899e-03 3.983600e-15 1 
    0.386317 1.915804e-03 3.851100e-15 1 
    0.386592 1.958587e-03 3.931500e-15 1 
    0.386867 2.409374e-03 4.829500e-15 1 
    0.387142 3.082460e-03 6.169900e-15 1 
    0.387417 4.289777e-03 8.574300e-15 1 
    0.387692 4.921088e-03 9.822200e-15 1 
    0.387967 4.394083e-03 8.757900e-15 1 
    0.388242 3.140347e-03 6.250200e-15 1 
    0.388517 2.311931e-03 4.594900e-15 1 
    0.388792 1.994647e-03 3.958700e-15 1 
    0.389067 2.162012e-03 4.284800e-15 1 
