,lambda (Angstroms),Total Flux (erg/s/cm^2/Angstrom)
0,100.07000000000001,0.0017229740932355503
1,101.93,0.002070842930230029
2,104.07,0.0024710771158141043
3,104.712855,0.0025913081039362
4,106.0,0.002390455634365637
5,107.97,0.0020830491890825495
6,109.98,0.0017694158224748303
7,114.11,0.001124964709751659
8,118.11999999999999,0.0004992433205423815
9,120.22644299999999,0.0001707500977610447
10,120.87,0.00016616856268568742
11,125.12,0.00013561143665818826
12,126.86,0.00012311775169281217
13,128.03,0.0001147133006523006
14,131.01,9.33122157012542e-05
15,131.92000000000002,8.68596500141895e-05
16,134.06,7.150462530504883e-05
17,136.87,5.148713123510233e-05
18,138.038426,4.3124831881421315e-05
19,140.06,4.273810260038786e-05
20,142.98999999999998,4.341208303446575e-05
21,147.0,4.505070341011503e-05
22,151.12,4.49994131501836e-05
23,154.99,4.522852260748103e-05
24,158.489319,4.558500546275715e-05
25,158.97000000000003,4.5568211875844406e-05
26,161.92000000000002,4.5579952054889445e-05
27,166.08,4.575923418533939e-05
28,169.95,4.610682527784931e-05
29,173.11,4.647269141540262e-05
30,177.14000000000001,4.7167110666776e-05
31,180.02,4.785607752631826e-05
32,181.970086,4.836976211627515e-05
33,182.1,4.847126772884218e-05
34,185.91,5.174377643448478e-05
35,191.12,5.6253899598893694e-05
36,193.78,5.9193066070549694e-05
37,197.84,6.324815700097198e-05
38,201.98000000000002,6.77275050433238e-05
39,204.79000000000002,7.116455484984761e-05
40,208.929613,7.479686948942972e-05
41,210.04,7.64814112001853e-05
42,215.93,8.981633728759105e-05
43,219.94,9.820211404658883e-05
44,223.0,0.00010418859401729541
45,227.14999999999998,0.00011356619051351504
46,229.77999999999997,0.00015360325414846872
47,234.04999999999998,0.0002344365461337357
48,239.88329199999998,0.00029315560053511173
49,240.06,0.00029468760927128785
50,246.21,0.0002952993146504237
51,251.95,0.00031776473300428385
52,257.21999999999997,0.00028278351013404746
53,260.2,0.00032469023534214907
54,263.82,0.0003440420720043396
55,268.73,0.0003530964239411782
56,273.72,0.0003610980148097778
57,275.42287,0.00036388095755168786
58,278.81,0.000373833894133742
59,284.0,0.00038922708412560586
60,289.94,0.00039163334492554246
61,296.01,0.00041561295133221173
62,300.82,0.00042141353878131864
63,307.83000000000004,0.00044637116726743925
64,316.227766,0.0004761814770631285
65,317.92,0.0004802142321453978
66,328.33,0.0004939422193141557
67,338.31,0.0005044965114317546
68,347.78999999999996,0.0005136400372107965
69,356.71000000000004,0.0005224244926906544
70,363.078055,0.0005294934540988142
71,365.86,0.0005350248184256171
72,375.24,0.0005490699835898858
73,384.87,0.0005481099924952061
74,394.74,0.0005756256953919364
75,404.87,0.0005905526917793607
76,414.3,0.0006004220056918396
77,416.86938299999997,0.0006022484056235861
78,422.0,0.0006051053264735232
79,429.84000000000003,0.0006094547138582696
80,440.87,0.0006209203291457383
81,451.14,0.0006258701992275427
82,459.53000000000003,0.0006290828259058619
83,470.23,0.0006354753176171868
84,478.630092,0.0006418545762524133
85,480.08000000000004,0.0006421816706390433
86,490.13,0.0006391515276246615
87,500.39,0.0006453370860995315
88,506.19,0.0007189321558026744
89,512.05,0.0012222413545027464
90,520.37,0.0012577296420769098
91,530.0400000000001,0.0013055660820819773
92,539.9,0.0012741409805773203
93,549.5408739999999,0.00160613059385539
94,549.93,0.001619609884921609
95,560.1600000000001,0.0018636875053681763
96,570.5699999999999,0.0020747493830660024
97,579.84,0.002013977631505854
98,590.62,0.002410864037997935
99,600.22,0.0025099197580650953
100,609.97,0.0029004096925083042
101,619.88,0.0033150788556192993
102,629.9599999999999,0.003588569261689817
103,630.957344,0.003597354041221261
104,640.19,0.0036808136735285253
105,650.6,0.004173132825263226
106,658.13,0.004459307318304753
107,665.75,0.004754288769430441
108,675.0100000000001,0.004887567123423076
109,684.4,0.004922230750203944
110,695.52,0.0061856282379359195
111,705.2,0.006019604396321309
112,716.66,0.007195203059037895
113,724.43596,0.0074722375759179276
114,726.6300000000001,0.007550279096192424
115,735.04,0.007886094871392675
116,745.27,0.00890327723409167
117,755.63,0.009515152424469148
118,764.3800000000001,0.010169092902828504
119,775.02,0.011094197260513482
120,785.8,0.012021412201852209
121,794.9000000000001,0.012614560139345941
122,804.0999999999999,0.01323748563659235
123,815.2900000000001,0.013795851572917057
124,824.73,0.015156215213569895
125,831.763771,0.013677813737952548
126,834.28,0.013148332259301114
127,845.88,0.016196850508208512
128,855.6800000000001,0.016877425408147517
129,865.5899999999999,0.01816211217941237
130,875.61,0.019544980822003073
131,885.75,0.02122780968785833
132,896.01,0.02242974877697815
133,904.3,0.022792552534171454
134,914.77,0.03543330701400425
135,925.3599999999999,0.24767741171710161
136,936.0799999999999,0.5647351449954022
137,944.74,1.1345748177743278
138,954.992586,1.5732535429388856
139,955.68,1.602666110178835
140,964.52,1.9047388799051843
141,975.69,0.346640888937234
142,984.72,1.8022963537142627
143,996.12,1.8189750567550298
144,1005.34,2.4593798165827376
145,1014.64,2.3058185743265214
146,1024.03,0.93288802972589
147,1035.8799999999999,1.693667021044582
148,1045.47,3.0606647712341397
149,1055.1399999999999,2.997966519339773
150,1064.91,2.4707072648405
151,1074.76,2.8828130082573034
152,1084.7,2.3649597493296914
153,1094.74,2.997962487797174
154,1096.4782,2.9680537344436817
155,1104.8700000000001,2.8236577583450875
156,1115.09,2.7403879251204657
157,1125.41,2.4650490837429606
158,1135.82,3.0187742350278617
159,1143.7,2.759409592580697
160,1154.28,2.8961847300056975
161,1164.96,2.9841398592778146
162,1175.74,2.1469639803970493
163,1183.8899999999999,2.9296963159371012
164,1194.8400000000001,2.217309423196435
165,1205.9,1.6324455214875977
166,1214.26,0.9480448399065958
167,1225.49,2.0550429243378576
168,1233.99,2.91614923134282
169,1245.41,3.1175713002836045
170,1254.04,2.9979195966898193
171,1258.92541,2.8710518391846187
172,1265.64,2.696683237326595
173,1274.42,3.197528288242625
174,1286.21,3.2645763566139228
175,1295.12,2.6780534082838345
176,1304.1,2.7152994603596836
177,1316.17,3.204979530354727
178,1325.2900000000002,3.0465715832424487
179,1334.48,2.772204636536107
180,1343.73,3.13190069017771
181,1356.1599999999999,3.060669762260427
182,1365.5600000000002,2.8041998167718947
183,1375.03,2.8695588716892986
184,1384.56,2.8961669269546477
185,1394.16,2.4877839826259334
186,1403.8200000000002,2.605137038645165
187,1413.5500000000002,2.7090720950703324
188,1426.63,2.7278351709224595
189,1436.52,2.746724228275482
190,1443.15,2.8432322667234637
191,1445.43977,2.843229529527577
192,1446.48,2.8432282850649737
193,1456.5,2.7785913338335027
194,1466.6000000000001,2.605127382991401
195,1473.37,2.605111415941794
196,1483.58,2.605116465635075
197,1493.86,2.617143515669054
198,1504.22,2.470681566092403
199,1511.16,2.2326085998702063
200,1518.14,2.3486666338426945
201,1525.14,2.343316667912525
202,1535.7199999999998,2.0740277194066397
203,1546.36,2.1718057711927816
204,1553.4999999999998,2.078866805944009
205,1564.2700000000002,2.1519278583628765
206,1575.1100000000001,2.2689939111224424
207,1586.03,2.3218049642713776
208,1593.3500000000001,2.3540679998986858
209,1604.3899999999999,2.3164250536316753
210,1615.52,2.3164151078027055
211,1626.71,2.2326021622657635
212,1634.22,2.3433001988178237
213,1645.5500000000002,2.348679253962278
214,1653.1499999999999,2.2325722909523793
215,1659.58691,2.3130443692964193
216,1664.61,2.375841500820567
217,1672.29,2.2274917737958453
218,1676.14,2.3813709106389216
219,1683.88,2.420110185746819
220,1695.5500000000002,2.305818600541285
221,1703.3799999999999,2.2223968788481114
222,1715.19,2.1174712986186894
223,1723.1,2.102866579769009
224,1735.05,2.207084004515698
225,1743.06,2.1469752892203835
226,1755.14,2.2429367185877482
227,1763.24,2.1078190064913622
228,1775.46,2.117486440834839
229,1783.6599999999999,2.1469597322928182
230,1796.0200000000002,2.232609171612407
231,1804.3100000000002,2.232594466269316
232,1816.8200000000002,2.0598379109204523
233,1825.1999999999998,2.1174722087762903
234,1833.6299999999999,2.0456415084093105
235,1846.34,1.8959189601691786
236,1854.8600000000001,1.878543263001128
237,1863.42,1.9268115672548236
238,1876.34,2.0550290264788598
239,1885.0,1.882951334286921
240,1893.7,1.7857576435167286
241,1905.46072,1.9000985939165231
242,1906.83,1.9134109988005523
243,1915.63,1.8231235956182732
244,1924.47,1.777623190603347
245,1933.3500000000001,1.8527777837557746
246,1946.7499999999998,1.9090191698191221
247,1955.74,1.773480757931771
248,1964.7700000000002,1.913427344211773
249,1973.8400000000001,1.9715939286591284
250,1982.95,1.8612995112738373
251,1996.69,1.8148448817596876
252,2005.9099999999999,1.8655784593346179
253,2015.17,1.8231090350769013
254,2024.4699999999998,1.900328608986538
255,2033.8100000000002,1.781629181063528
256,2043.2,1.8231177508497098
257,2057.36,1.7532211020927697
258,2066.86,1.7776096668391728
259,2071.63,1.8699834482960511
260,2076.4,1.7572032297529292
261,2085.9900000000002,1.8231027903758772
262,2095.61,1.72908634962434
263,2105.29,1.765339906123833
264,2115.0,1.773482461248841
265,2124.77,1.7940140136248786
266,2134.57,1.7212375646264313
267,2144.43,1.705367112879014
268,2154.32,1.7612056597571117
269,2164.27,1.725080203886239
270,2174.26,1.70935874618272
271,2184.29,1.678070286646554
272,2187.7616199999998,1.6956191838934978
273,2194.38,1.7290753693522907
274,2204.51,1.689772739389927
275,2214.68,1.6398821108887187
276,2224.9,1.5916294842139547
277,2235.17,1.651327859365635
278,2245.49,1.61423823634376
279,2255.86,1.5636216151483293
280,2266.27,1.5898259954140543
281,2276.73,1.6052743775062235
282,2287.2400000000002,1.624705761424837
283,2292.51,1.551917953932077
284,2303.09,1.5597783404077132
285,2313.72,1.5075257287097934
286,2324.4,1.257438118838318
287,2335.13,1.4344495107932869
288,2345.91,1.4089499045747005
289,2356.74,1.4625763001825582
290,2367.62,1.3973546976168603
291,2373.0699999999997,1.4139128966993004
292,2384.03,1.3540672970559136
293,2395.0299999999997,1.4023336988736825
294,2406.0899999999997,1.3585191028831844
295,2417.19,1.371776508353842
296,2422.7599999999998,1.4073027118197485
297,2433.95,1.3602131205780064
298,2445.1800000000003,1.405508530797419
299,2456.4700000000003,1.3900589432085655
300,2467.81,1.3748663574461564
301,2473.5,1.3408065652955294
302,2484.91,1.3633029820901426
303,2496.38,1.2876914010764886
304,2502.14,1.380137611482884
305,2511.88643,1.3029639626909528
306,2513.69,1.2886829420109085
307,2519.48,1.3251238601539646
308,2525.29,1.280468778014268
309,2536.9399999999996,1.2811326133107455
310,2542.79,1.2609755306055432
311,2554.5299999999997,1.3119883646296329
312,2566.32,1.2887131979468405
313,2572.2400000000002,1.3282121142520034
314,2584.11,1.3197669464381996
315,2596.04,1.3083587777761374
316,2602.02,1.2730426932330419
317,2614.0299999999997,1.2620325234399683
318,2626.1,1.2802743527986362
319,2632.1499999999996,1.2984222672659056
320,2644.3,1.3540940954935623
321,2656.51,1.3642109228729606
322,2662.63,1.291223836350595
323,2674.92,1.3189586625989822
324,2687.27,1.3166454879991105
325,2693.4599999999996,1.2722924004871101
326,2705.9,1.2847612246148508
327,2712.1299999999997,1.2472281365373448
328,2724.65,1.236471959534074
329,2737.23,1.268882781682545
330,2743.54,1.1736526924740278
331,2756.2,1.1851825134914873
332,2762.56,1.2075424235760879
333,2775.3100000000004,1.2363592433211599
334,2788.12,1.2005810622179731
335,2794.55,1.0727839713129388
336,2807.44,1.1162467890787409
337,2813.9199999999996,1.2158406974668245
338,2826.9,1.230625513960239
339,2833.4199999999996,1.1891824217828166
340,2846.5,1.173542236862467
341,2853.06,1.1498011441195393
342,2866.23,1.2046749579268017
343,2872.8399999999997,1.1994898644769918
344,2884.0315,1.1954156964139488
345,2886.1,1.1946627056570989
346,2892.75,1.1922707037330542
347,2912.7999999999997,1.2324086979319873
348,2932.99,1.1998696920904142
349,2953.33,1.1762956862054417
350,2966.96,1.1796996822618735
351,2987.52,1.1726336763132483
352,3008.23,1.1682946703212238
353,3029.08,1.1666686642886928
354,3050.08,1.1570156582127626
355,3071.2200000000003,1.1527576520963259
356,3092.5099999999998,1.14323664593649
357,3106.78,1.1386806418077506
358,3128.32,1.1215096355755818
359,3150.0,1.1148426293029072
360,3171.84,1.1107576229839395
361,3186.48,1.0712576187481482
362,3208.57,1.087193612356848
363,3230.81,1.0561266059221484
364,3253.2,1.0842725994440494
365,3268.22,1.1000595950983125
366,3290.8700000000003,1.0885345885449875
367,3311.31121,1.0805247097201274
368,3313.69,1.0795925694739408
369,3321.3199999999997,1.0824395272733618
370,3328.9800000000005,1.108009484906856
371,3336.65,1.105838442485042
372,3344.35,1.0637253998973015
373,3352.0499999999997,1.068998357309561
374,3359.78,1.0644343145558943
375,3367.53,1.06478527169161
376,3375.2900000000004,0.9917596287720171
377,3383.07,1.0151961857418064
378,3390.8700000000003,1.0683031426009784
379,3398.6899999999996,1.078545099349533
380,3406.52,1.0303490560427786
381,3414.38,1.049855012570098
382,3422.25,1.084609969042109
383,3430.13,1.0651789254588109
384,3438.04,1.0679878817095867
385,3445.97,0.9970350378497447
386,3453.91,1.0711707939345942
387,3461.8700000000003,0.9977140499088261
388,3469.85,1.0119437057724403
389,3477.85,0.9824261615254374
390,3485.87,1.0102986171678168
391,3493.91,1.0036815726995785
392,3501.96,1.0109885281760318
393,3510.03,1.0020604835418674
394,3518.1200000000003,0.9841088387970855
395,3526.23,0.9844526939416862
396,3534.3599999999997,1.0123843489756694
397,3542.5099999999998,1.048312303899035
398,3550.68,1.043858258711783
399,3558.8599999999997,1.0181072134692222
400,3567.07,1.0397731680607354
401,3575.29,0.9508071225969398
402,3583.5299999999997,0.9316317770225265
403,3591.7900000000004,0.9065688313374959
404,3600.07,0.9966653855418477
405,3608.3700000000003,0.9631642396355818
406,3616.69,0.9701782936186987
407,3625.03,0.995423747491198
408,3633.38,1.0049798013083886
409,3641.76,1.0193327549596527
410,3650.1499999999996,0.9850721085556083
411,3650.23,0.8096145081131383
412,3652.91,0.8244344932903922
413,3655.59,1.0743946784676464
414,3658.2599999999998,0.9928336637002089
415,3660.9399999999996,0.7772273488774629
416,3663.6200000000003,0.9245559340547168
417,3666.29,0.7086649192872796
418,3668.97,0.5590309044645335
419,3671.65,0.6468958896417875
420,3674.3199999999997,0.7257200748743502
421,3677.0000000000005,1.0149065600516043
422,3679.6800000000003,0.9509043452288581
423,3682.36,0.6677964304061121
424,3685.03,1.010922515638675
425,3687.71,0.9857175008159288
426,3690.39,0.9842405859931826
427,3693.0600000000004,1.1192214712257456
428,3695.7400000000002,0.9741228564029993
429,3698.42,0.9790295415802533
430,3701.09,0.8658535268128161
431,3703.77,1.06951741199007
432,3706.45,1.126580397167324
433,3709.13,0.925106682344578
434,3711.8,0.8255799675771407
435,3714.48,0.9013118527543947
436,3717.16,1.1538093379316487
437,3719.83,1.4300413231642113
438,3722.5099999999998,2.3295173083414653
439,3725.19,3.6439852935187194
440,3727.86,4.079538278751282
441,3730.54,3.9401432639285363
442,3733.22,2.16365424910579
443,3735.89,1.4035712343383526
444,3738.57,1.0394472195156066
445,3741.25,0.7332729046928605
446,3743.93,0.9820478898701145
447,3746.6,0.9219252751026773
448,3749.2799999999997,1.0417901602799313
449,3751.9599999999996,0.8095841454571852
450,3754.63,0.7367354306897479
451,3757.31,1.212766115867002
452,3759.9900000000002,0.9824210010442559
453,3762.66,1.0588060862768185
454,3765.3399999999997,1.0056680714540724
455,3768.0200000000004,1.1978880566313266
456,3770.7000000000003,0.6093383418085805
457,3773.37,0.9215113270411432
458,3776.05,1.0691990122183972
459,3778.73,1.238448997395651
460,3781.3999999999996,1.1936589826282138
461,3784.0800000000004,0.9850280678054678
462,3786.76,1.5392309529827217
463,3789.43,1.1234959382152845
464,3792.11,1.1742999233925384
465,3794.79,1.2091109085697924
466,3797.47,1.1342438937470465
467,3800.1400000000003,0.9599362789796091
468,3801.8939600000003,1.2278435805533192
469,3802.82,1.3692908652240536
470,3805.5,1.1954048534898032
471,3808.17,1.379578841799337
472,3810.85,1.191353830065087
473,3813.53,1.0136618183308366
474,3816.2000000000003,0.9550150066403706
475,3818.88,1.4351397949061204
476,3821.56,1.3227167831718698
477,3824.23,1.142190771481404
478,3826.91,0.9804100597471536
479,3829.59,1.0623177480129034
480,3832.27,0.9236035362786528
481,3834.94,1.169860724588187
482,3837.62,0.6308750128539367
483,3840.2999999999997,1.3806777011196862
484,3842.97,1.0744816894292202
485,3845.65,1.20658867769497
486,3848.33,0.9641939659607195
487,3851.0,1.1692416542702535
488,3853.68,1.0850406425360033
489,3856.3599999999997,1.3545796308017528
490,3859.0400000000004,1.2856276190675024
491,3861.71,1.3736226073770368
492,3864.39,1.2879325956427863
493,3867.07,1.430310583908536
494,3869.74,1.17361157221807
495,3872.4199999999996,1.4471345604838197
496,3875.1000000000004,0.8935893487495692
497,3877.77,1.2197995370591033
498,3880.45,1.149496525324853
499,3883.13,1.0467655135906027
500,3885.81,1.1866355018563521
501,3888.4800000000005,1.2280154901658864
502,3891.1600000000003,1.0731134784316358
503,3893.84,1.0322744666973855
504,3896.51,1.2857014550069197
505,3899.19,1.0743414432726692
506,3901.87,1.2845534315384188
507,3904.5400000000004,1.505181419847953
508,3907.2200000000003,1.4664364081137027
509,3909.9,0.9626220963794523
510,3912.58,1.2891153846452017
511,3915.25,1.1478973729547362
512,3917.93,0.9942366612204856
513,3920.61,1.3901893494862352
514,3923.28,1.3089053377957693
515,3925.96,1.271870326061519
516,3928.64,1.2114803143272685
517,3931.31,1.1740933026368028
518,3933.99,1.2793022909025524
519,3936.67,1.233223279168302
520,3939.34,1.3070312674778362
521,3942.02,1.3178932557435856
522,3944.7,1.3470922440093354
523,3947.3799999999997,1.0785162322750848
524,3950.0499999999997,1.2938212205846191
525,3952.73,1.5458502088503687
526,3955.41,1.2981461971161181
527,3958.08,1.3901951854256525
528,3960.7599999999998,1.125216173691402
529,3963.4399999999996,1.0677631619571515
530,3966.11,0.9529875502666857
531,3968.79,1.1065351385324353
532,3971.47,1.0956551267981849
533,3974.15,1.3049151150639346
534,3976.8199999999997,1.1943741033734687
535,3979.5000000000005,1.1459100916392182
536,3982.1800000000003,1.273826079904968
537,3984.85,1.3950200682145022
538,3987.53,1.3592810564802518
539,3990.21,1.4293460447460011
540,3992.8799999999997,1.4377610330555355
541,3995.5600000000004,1.4603700213212851
542,3998.2400000000002,1.2406410095870346
543,4000.92,1.1544279978527843
544,4003.59,1.3360789861623183
545,4006.27,1.376762974428068
546,4008.95,1.4082509626938178
547,4011.6200000000003,1.5686009510033518
548,4014.3,1.5903829392691013
549,4016.98,1.4912499275348512
550,4019.65,1.265268915844385
551,4022.33,1.3041189041101346
552,4025.0099999999998,1.3750518923758843
553,4027.6800000000003,1.2376398806854185
554,4030.36,1.249976868951168
555,4033.04,1.3137688572169177
556,4035.72,1.3585338454826674
557,4038.39,1.3061468337922015
558,4041.07,1.278914822057951
559,4043.75,1.3007798103237007
560,4046.42,1.2193707986332347
561,4049.1,1.2575867868989843
562,4051.7799999999997,1.280140775164734
563,4054.45,1.3527907634742682
564,4057.13,1.3380637517400178
565,4059.81,1.1905247400057672
566,4062.4900000000002,1.350164728271517
567,4065.16,1.361570716581051
568,4067.8399999999997,1.2994577048468006
569,4070.5200000000004,1.2365446931125503
570,4073.19,1.2760766814220845
571,4075.87,1.309839669687834
572,4078.55,1.3135466579535837
573,4081.22,1.359118646263118
574,4083.8999999999996,1.3536286345288673
575,4086.5800000000004,1.3245906227946171
576,4089.26,1.1886476110603668
577,4091.93,1.2017495993699008
578,4094.61,1.2218355876356504
579,4097.29,1.1409715759014
580,4099.96,1.2548995642109342
581,4102.64,1.2772335524766836
582,4105.32,1.3211435407424335
583,4107.990000000001,1.2174125290519675
584,4110.67,1.1404225173177172
