,lambda (Angstroms),Total Flux (erg/s/cm^2/Angstrom)
0,100.09,5.164682e-12
1,101.94999999999999,7.980566e-12
2,104.09,1.116997e-11
3,104.712855,1.2703913412512953e-11
4,106.02000000000001,1.59231e-11
5,107.99,2.301923e-11
6,110.0,3.819906e-11
7,114.13,6.966851e-11
8,117.87,1.18312e-10
9,120.22644299999999,4.171410418726129e-10
10,120.89000000000001,5.012891e-10
11,125.14000000000001,7.85332e-10
12,126.88,9.507562e-10
13,128.05,1.061838e-09
14,131.04,1.386985e-09
15,131.95,1.710144e-09
16,134.09,2.009315e-09
17,136.9,2.924188e-09
18,138.038426,3.200517893168648e-09
19,140.09,3.698496e-09
20,143.02,1.054444e-08
21,147.03,2.890922e-08
22,151.15,3.724172e-08
23,155.02,4.809022e-08
24,158.489319,6.029896276616581e-08
25,159.0,6.209608e-08
26,161.95999999999998,7.413255e-08
27,166.11,9.44177e-08
28,169.98,1.169578e-07
29,173.14,1.374225e-07
30,177.17,1.679066e-07
31,180.05,1.936725e-07
32,181.970086,2.1171809294497604e-07
33,182.14000000000001,2.13315e-07
34,185.95000000000002,2.559014e-07
35,191.16,3.184653e-07
36,193.82,3.639585e-07
37,197.88,4.276097e-07
38,202.02,5.02388e-07
39,204.83,5.650142e-07
40,208.929613,6.313559925239731e-07
41,210.09,6.501339e-07
42,215.97000000000003,8.376246e-07
43,219.99,9.638604e-07
44,223.04999999999998,1.054486e-06
45,227.19,1.208008e-06
46,229.82,1.959127e-06
47,234.1,3.342328e-06
48,239.88329199999998,4.671258138213997e-06
49,240.1,4.721055e-06
50,246.26,5.012434e-06
51,252.0,5.970743e-06
52,257.27,5.470896e-06
53,260.25,6.699668e-06
54,263.87,7.534487e-06
55,268.78,8.185617e-06
56,273.78,8.811068e-06
57,275.42287,9.021541272204323e-06
58,278.87,9.463164e-06
59,284.05,1.02338e-05
60,290.0,1.061777e-05
61,296.07,1.166952e-05
62,300.88,1.213521e-05
63,307.89,1.34602e-05
64,316.227766,1.5107706202660052e-05
65,317.98,1.545394e-05
66,327.64,1.718068e-05
67,338.37,1.883941e-05
68,347.85,2.041909e-05
69,356.78000000000003,2.218376e-05
70,363.078055,2.3619110825420762e-05
71,365.93,2.426908e-05
72,375.31,2.582587e-05
73,384.94,2.667227e-05
74,394.82000000000005,2.965161e-05
75,404.94,3.20672e-05
76,414.38000000000005,3.37322e-05
77,416.86938299999997,3.4089274511148044e-05
78,422.08000000000004,3.483668e-05
79,429.93,3.622809e-05
80,440.96000000000004,3.890888e-05
81,451.23,4.083553e-05
82,459.62,4.217318e-05
83,470.32,4.457073e-05
84,478.630092,4.716649902170153e-05
85,480.16999999999996,4.764751e-05
86,490.22999999999996,4.954893e-05
87,500.49,5.3832e-05
88,506.29,7.889382e-05
89,512.15,0.0002773649
90,520.47,0.0003013296
91,530.15,0.0003326903
92,540.0,0.0003304138
93,549.5408739999999,0.0005083530006725092
94,550.04,0.0005176618
95,560.27,0.0006531962
96,569.37,0.000776327
97,579.96,0.0007603834
98,589.38,0.001002408
99,600.3399999999999,0.00107903
100,610.09,0.001355314
101,620.01,0.001599665
102,630.0799999999999,0.001803136
103,630.957344,0.0018085650800687507
104,640.32,0.001866502
105,650.72,0.002223541
106,658.26,0.002443681
107,664.3499999999999,0.002636621
108,675.1400000000001,0.002723095
109,684.53,0.00276091
110,695.6600000000001,0.003724338
111,705.34,0.003606159
112,716.8,0.004498233
113,724.43596,0.004719224728621864
114,726.7700000000001,0.004786774
115,735.18,0.005070462
116,745.41,0.00590263
117,755.7800000000001,0.006442399
118,764.53,0.006983185
119,775.1700000000001,0.007763201
120,784.14,0.00855165
121,795.0500000000001,0.009058213
122,804.26,0.009617132
123,815.45,0.01009349
124,824.8900000000001,0.01129918
125,831.763771,0.009884372228418021
126,834.44,0.009333532
127,844.1,0.01221934
128,855.8499999999999,0.01276553
129,865.76,0.01396436
130,875.7800000000001,0.01520726
131,885.9200000000001,0.0168282
132,894.12,0.0179907
133,904.47,0.01819863
134,914.95,0.02870998
135,925.54,0.214309
136,934.1099999999999,0.471022
137,944.9200000000001,0.863065
138,954.992586,1.1232295844089566
139,955.86,1.145634
140,964.71,1.273616
141,975.88,0.2084651
142,984.91,1.002406
143,994.0200000000001,1.076576
144,1005.5300000000001,1.570499
145,1014.84,1.570493
146,1024.23,0.7999045
147,1036.0900000000001,1.196843
148,1045.6699999999998,2.089534
149,1055.3500000000001,2.000128
150,1065.11,1.599685
151,1074.97,1.896888
152,1084.91,1.559648
153,1094.95,2.032578
154,1096.4782,2.012779671656805
155,1105.09,1.901211
156,1115.31,1.845195
157,1125.6299999999999,1.592334
158,1136.05,2.065631
159,1143.9199999999998,1.905715
160,1154.5,2.000144
161,1165.19,2.032535
162,1175.97,1.288362
163,1184.1200000000001,2.009362
164,1195.08,1.629502
165,1206.1299999999999,1.166949
166,1214.49,0.8975213
167,1225.73,1.621931
168,1234.23,2.138213
169,1245.6499999999999,2.238872
170,1254.2800000000002,2.153023
171,1258.92541,2.1048171683049106
172,1265.89,2.032545
173,1274.6599999999999,2.360707
174,1286.46,2.415651
175,1295.3799999999999,1.927657
176,1304.36,2.000118
177,1316.42,2.415645
178,1325.55,2.285797
179,1334.74,2.104022
180,1343.99,2.371534
181,1356.42,2.328305
182,1365.8300000000002,2.118532
183,1375.2900000000002,2.15805
184,1384.83,2.162908
185,1394.43,1.714156
186,1404.0900000000001,1.82406
187,1413.8300000000002,2.018555
188,1423.6299999999999,2.032541
189,1433.49,2.084641
190,1443.43,2.167937
191,1445.43977,2.1679363964654654
192,1446.76,2.167936
193,1453.44,2.113643
194,1463.51,1.954538
195,1473.6499999999999,1.995521
196,1483.87,2.00934
197,1494.1599999999999,2.018568
198,1504.51,1.87952
199,1511.46,1.667357
200,1518.43,1.766254
201,1525.44,1.782533
202,1536.02,1.531283
203,1546.66,1.577837
204,1553.8,1.534827
205,1564.5700000000002,1.633175
206,1575.4199999999998,1.754037
207,1586.34,1.811565
208,1593.66,1.83246
209,1604.71,1.840986
210,1615.8300000000002,1.841006
211,1623.29,1.778463
212,1634.54,1.905699
213,1645.8700000000001,1.927683
214,1653.47,1.849396
215,1659.58691,1.9127647322958108
216,1664.93,1.968117
217,1672.61,1.832464
218,1676.4699999999998,2.013964
219,1684.2099999999998,2.037297
220,1695.8799999999999,1.927696
221,1703.71,1.875192
222,1715.5200000000002,1.774398
223,1723.44,1.77032
224,1735.3799999999999,1.879537
225,1743.3899999999999,1.836676
226,1755.48,1.918869
227,1763.58,1.828251
228,1775.81,1.799082
229,1784.0,1.849408
230,1796.37,1.941122
231,1804.6599999999999,1.959019
232,1812.9899999999998,1.770329
233,1825.56,1.845192
234,1833.99,1.782522
235,1846.7,1.633175
236,1855.22,1.64077
237,1863.78,1.686772
238,1876.7,1.819853
239,1885.3700000000001,1.644558
240,1894.07,1.55259
241,1902.81,1.694492
242,1905.46072,1.6754367596906743
243,1916.0,1.599673
244,1924.84,1.5526
245,1933.7299999999998,1.644575
246,1947.1299999999999,1.70236
247,1956.1200000000001,1.559643
248,1965.1499999999999,1.7181
249,1974.2199999999998,1.786597
250,1983.3300000000002,1.675093
251,1997.08,1.640767
252,2006.3,1.710224
253,2015.5600000000002,1.671289
254,2024.86,1.749984
255,2034.2099999999998,1.621918
256,2043.6000000000001,1.679023
257,2053.03,1.614593
258,2067.2599999999998,1.63317
259,2072.03,1.749971
260,2076.81,1.603448
261,2086.39,1.686758
262,2096.02,1.596002
263,2105.7000000000003,1.640765
264,2115.42,1.655954
265,2125.1800000000003,1.682823
266,2134.99,1.618257
267,2144.84,1.59235
268,2154.74,1.663559
269,2164.69,1.644568
270,2174.68,1.629509
271,2184.72,1.588673
272,2187.7616199999998,1.6066873565476183
273,2194.8,1.648373
274,2204.93,1.621913
275,2215.11,1.577831
276,2225.34,1.534818
277,2235.61,1.581351
278,2245.93,1.559375
279,2256.29,1.509181
280,2266.71,1.540244
281,2277.17,1.553819
282,2282.42,1.571451
283,2292.96,1.482996
284,2303.54,1.509996
285,2314.17,1.458042
286,2324.85,1.209492
287,2335.5899999999997,1.384911
288,2346.3700000000003,1.378002
289,2357.2000000000003,1.422494
290,2362.63,1.370812
291,2373.54,1.376503
292,2384.49,1.33227
293,2395.5,1.372169
294,2406.55,1.331119
295,2417.6600000000003,1.342853
296,2423.2400000000002,1.377051
297,2434.42,1.329674
298,2445.66,1.369457
299,2456.95,1.362532
300,2462.61,1.346695
301,2473.98,1.31847
302,2485.4,1.333149
303,2496.87,1.21529
304,2502.63,1.338402
305,2511.88643,1.2709727142069254
306,2514.18,1.254265
307,2519.9700000000003,1.301043
308,2525.78,1.262383
309,2537.44,1.261808
310,2543.2900000000004,1.235641
311,2555.0299999999997,1.278484
312,2566.82,1.263264
313,2572.7400000000002,1.298344
314,2584.61,1.288816
315,2596.54,1.279344
316,2602.53,1.252807
317,2614.5400000000004,1.240729
318,2626.6099999999997,1.257391
319,2632.6699999999996,1.265798
320,2644.82,1.306644
321,2657.03,1.309031
322,2663.15,1.241207
323,2675.44,1.272433
324,2687.79,1.265967
325,2693.99,1.225507
326,2706.42,1.230557
327,2712.66,1.205027
328,2725.18,1.207212
329,2737.76,1.231873
330,2744.07,1.149366
331,2756.74,1.156743
332,2763.09,1.169854
333,2775.8500000000004,1.199247
334,2782.25,1.171651
335,2795.09,1.055789
336,2807.9900000000002,1.097382
337,2814.4599999999996,1.180991
338,2827.46,1.188551
339,2833.9700000000003,1.142642
340,2847.0499999999997,1.139423
341,2853.62,1.126082
342,2866.79,1.162359
343,2873.3999999999996,1.151413
344,2884.0315,1.1488032313348415
345,2886.66,1.148158
346,2893.3199999999997,1.137332
347,2906.67,1.163201
348,2926.82,1.141051
349,2947.11,1.119312
350,2967.5299999999997,1.120986
351,2988.1000000000004,1.11236
352,3008.8199999999997,1.103786
353,3029.67,1.102867
354,3050.6699999999996,1.091839
355,3071.82,1.083399
356,3093.11,1.072556
357,3107.39,1.064555
358,3128.93,1.049047
359,3150.62,1.045725
360,3172.4599999999996,1.035224
361,3187.1,1.004106
362,3209.19,1.014825
363,3231.44,0.9908328
364,3246.35,1.001703
365,3268.86,1.0031
366,3291.51,0.9929977
367,3306.71,0.9855569
368,3311.31121,0.9958083416062248
369,3321.9700000000003,1.019556
370,3329.63,1.023947
371,3337.3,1.002643
372,3345.0,0.9817604
373,3352.71,1.002015
374,3360.44,0.9743952
375,3368.18,0.9763353
376,3375.95,0.9385548
377,3383.73,0.9535038
378,3391.5299999999997,0.9844328
379,3399.35,1.009365
380,3407.1800000000003,0.9526112
381,3415.04,0.9633264
382,3422.9100000000003,0.9968591
383,3430.8,0.9874073
384,3438.71,0.9916376
385,3446.6400000000003,0.9467054
386,3454.58,0.9595683
387,3462.5499999999997,0.9266821
388,3470.53,0.9457846
389,3478.53,0.9218293
390,3486.5499999999997,0.9215272
391,3494.59,0.9383498
392,3502.6400000000003,0.9423799
393,3510.72,0.9163887
394,3518.81,0.9203231
395,3526.92,0.9221276
396,3535.05,0.9411331
397,3543.2000000000003,0.9517139
398,3551.37,0.9579805
399,3559.55,0.9423574
400,3567.7599999999998,0.9398685
401,3575.99,0.8890367
402,3584.23,0.8745382
403,3592.49,0.8702274
404,3600.77,0.9109224
405,3609.0699999999997,0.898119
406,3617.39,0.9082094
407,3625.7299999999996,0.9398058
408,3634.0899999999997,0.9373201
409,3642.47,0.9413236
410,3650.86,0.9111547
411,3650.9599999999996,0.6669032
412,3653.6400000000003,1.025212
413,3656.32,1.046862
414,3658.99,0.8967751
415,3661.67,0.8486428
416,3664.35,0.9457582
417,3667.03,0.7841899
418,3669.7000000000003,0.8116773
419,3672.38,0.9495036
420,3675.06,0.6708498
421,3677.74,1.082919
422,3680.41,1.142993
423,3683.09,0.7715081
424,3685.77,1.126955
425,3688.45,0.9784909
426,3691.12,0.8566611
427,3693.7999999999997,0.8851886
428,3696.4799999999996,0.9262101
429,3699.1600000000003,0.8834092
430,3701.83,0.8325141
431,3704.5099999999998,0.9113162
432,3707.19,0.9086697
433,3709.87,0.7401829
434,3712.5399999999995,0.885746
435,3715.2200000000003,0.9166882
436,3717.9,1.161168
437,3720.58,1.655824
438,3723.25,2.83849
439,3725.9300000000003,4.469896
440,3728.61,5.018214
441,3731.29,4.336941
442,3733.96,2.336558
443,3736.64,1.414631
444,3739.3199999999997,1.263995
445,3741.9999999999995,0.9890177
446,3744.67,1.02044
447,3747.35,0.926184
448,3750.0299999999997,1.027274
449,3752.71,1.09369
450,3755.3799999999997,0.8775659
451,3758.06,1.123388
452,3760.7400000000002,0.9951914
453,3763.42,1.066356
454,3766.09,1.045509
455,3768.77,1.126346
456,3771.4500000000003,0.9656454
457,3774.13,0.8880894
458,3776.8,1.117096
459,3779.48,1.112902
460,3782.16,1.251759
461,3784.8399999999997,1.110729
462,3787.51,1.10064
463,3790.19,1.18012
464,3792.87,1.148416
465,3795.5499999999997,1.138159
466,3798.22,1.100667
467,3800.8999999999996,1.07249
468,3801.8939600000003,1.1138413321642036
469,3803.58,1.183985
470,3806.26,1.128039
471,3808.93,1.271121
472,3811.61,1.175074
473,3814.29,1.148158
474,3816.9700000000003,1.22525
475,3819.6400000000003,1.13077
476,3822.32,1.10559
477,3825.0,1.118476
478,3827.68,0.9975642
479,3830.3500000000004,1.009655
480,3833.03,1.048547
481,3835.71,1.097748
482,3838.39,0.776566
483,3841.06,1.058722
484,3843.74,0.9858323
485,3846.4199999999996,1.156976
486,3849.1,1.20893
487,3851.77,1.176174
488,3854.45,1.248071
489,3857.1299999999997,1.328134
490,3859.8100000000004,1.297297
491,3862.48,1.323348
492,3865.1600000000003,1.35779
493,3867.84,1.352145
494,3870.52,1.318989
495,3873.19,1.311153
496,3875.8700000000003,1.185234
497,3878.55,1.100502
498,3881.23,1.093365
499,3883.9,1.050854
500,3886.58,1.206817
501,3889.2599999999998,1.241422
502,3891.94,1.16936
503,3894.61,1.132031
504,3897.29,1.225036
505,3899.97,1.216217
506,3902.6499999999996,1.186276
507,3905.3199999999997,1.371493
508,3908.0,1.339123
509,3910.6800000000003,1.137644
510,3913.36,1.415576
511,3916.0299999999997,1.310868
512,3918.71,1.341158
513,3921.3900000000003,1.367962
514,3924.07,1.214899
515,3926.7400000000002,1.180813
516,3929.42,1.307543
517,3932.1,1.212011
518,3934.7799999999997,1.146271
519,3937.4500000000003,1.080726
520,3940.13,1.171547
521,3942.81,1.292768
522,3945.49,1.271848
523,3948.16,1.175401
524,3950.8399999999997,1.201269
525,3953.52,1.311339
526,3956.2000000000003,1.368639
527,3958.87,1.193646
528,3961.5499999999997,1.15638
529,3964.2300000000005,1.080302
530,3966.9100000000003,1.126343
531,3969.58,1.101413
532,3972.26,1.103189
533,3974.94,1.219649
534,3977.62,1.085307
535,3980.2900000000004,1.150005
536,3982.9700000000003,1.159025
537,3985.65,1.225564
538,3988.33,1.259354
539,3991.0,1.287779
540,3993.68,1.30468
541,3996.36,1.341591
542,3999.04,1.272418
543,4001.71,1.174098
544,4004.39,1.26264
545,4007.0699999999997,1.178477
546,4009.7500000000005,1.289103
547,4012.42,1.345596
548,4015.1,1.322899
549,4017.78,1.291126
550,4020.46,1.316452
551,4023.1299999999997,1.253227
552,4025.8100000000004,1.232972
553,4028.4900000000002,1.196886
554,4031.17,1.333599
555,4033.84,1.238318
556,4036.52,1.311666
557,4039.2,1.265257
558,4041.88,1.192665
559,4044.55,1.271418
560,4047.23,1.241111
561,4049.91,1.17358
562,4052.5899999999997,1.298124
563,4055.2599999999998,1.330402
564,4057.94,1.344305
565,4060.62,1.28045
566,4063.3,1.289863
567,4065.97,1.463061
568,4068.6499999999996,1.400929
569,4071.3300000000004,1.465635
570,4074.01,1.338944
571,4076.68,1.412868
572,4079.36,1.24008
573,4082.04,1.229674
574,4084.72,1.308082
575,4087.3900000000003,1.262953
576,4090.07,1.128855
577,4092.75,1.197496
578,4095.43,1.280353
579,4098.1,1.211336
580,4100.78,1.296866
581,4103.46,1.333844
582,4106.139999999999,1.232019
583,4108.81,1.163924
584,4111.49,1.210493
585,4114.17,1.202976
586,4116.85,1.187469
587,4119.5199999999995,1.238264
588,4122.2,1.223462
589,4124.88,1.293622
590,4127.56,1.326409
591,4130.23,1.255384
592,4132.91,1.246605
593,4135.59,1.285306
594,4138.27,1.329746
595,4140.9400000000005,1.18084
596,4143.62,1.348375
597,4146.3,1.23354
598,4148.98,1.312884
599,4151.65,1.343045
600,4154.33,1.291806
601,4157.01,1.291899
602,4159.69,1.219091
603,4162.36,1.240556
604,4165.04,1.212799
605,4167.719999999999,1.266559
606,4170.400000000001,1.227515
607,4173.07,1.236785
608,4175.75,1.275744
609,4178.43,1.264849
610,4181.11,1.235682
611,4183.780000000001,1.236894
612,4186.46,1.335433
613,4189.14,1.268498
614,4191.82,1.221587
615,4194.49,1.263564
616,4197.17,1.237543
617,4199.85,1.171884
618,4202.53,1.215265
619,4205.2,1.229052
620,4207.88,1.260211
621,4210.5599999999995,1.245003
622,4213.24,1.203151
623,4215.91,1.250079
624,4218.59,1.183728
625,4221.2699999999995,1.279025
626,4223.95,1.102887
627,4226.62,1.256794
628,4229.299999999999,1.227301
629,4231.9800000000005,1.150993
630,4234.66,1.215618
631,4237.33,1.207062
632,4240.01,1.258177
633,4242.6900000000005,1.220381
634,4245.37,1.300702
635,4248.04,1.175264
636,4250.72,1.238303
637,4253.4,1.208728
638,4256.08,1.218589
639,4258.75,1.161685
640,4261.43,1.153097
641,4264.11,1.215253
642,4266.79,1.169807
643,4269.46,1.201175
644,4272.139999999999,1.204728
645,4274.82,1.24092
646,4277.5,1.245069
647,4280.17,1.263102
648,4282.85,1.249833
649,4285.53,1.212744
650,4288.21,1.17522
651,4290.88,1.202409
652,4293.56,1.203018
653,4296.24,1.090707
654,4298.92,1.110837
655,4301.59,1.06294
656,4304.27,1.086611
657,4306.95,1.145417
658,4309.63,1.224273
659,4312.3,1.188301
660,4314.98,1.203846
661,4317.66,1.235642
662,4320.34,1.183888
663,4323.01,1.181939
664,4325.69,1.11906
665,4328.37,1.138268
666,4331.05,1.117796
667,4333.719999999999,1.216558
668,4336.400000000001,1.376645
669,4339.08,1.63195
670,4341.76,1.680784
671,4344.43,1.494262
672,4347.110000000001,1.278593
673,4349.79,1.205255
674,4352.47,1.128187
675,4355.14,1.166012
676,4357.82,1.151509
677,4360.5,1.134402
678,4363.18,1.253425
679,4365.15832,1.2441809848988803
680,4365.85,1.240949
681,4368.53,1.229377
682,4371.21,1.140343
683,4373.889999999999,1.161043
684,4376.5599999999995,1.127377
685,4379.24,1.187743
686,4381.92,1.092674
687,4384.6,1.159863
688,4387.2699999999995,1.152162
689,4389.95,1.119372
690,4392.63,1.227422
691,4395.31,1.137507
692,4397.9800000000005,1.140916
693,4400.66,1.148036
694,4403.34,1.182573
695,4406.0199999999995,1.116792
696,4408.6900000000005,1.14641
697,4411.37,1.042251
698,4414.05,1.16468
699,4416.73,1.282958
700,4419.4,1.204878
701,4422.08,1.153395
702,4424.76,1.261092
703,4427.4400000000005,1.213542
704,4430.11,1.162539
705,4432.79,1.183714
706,4435.47,1.206571
707,4438.150000000001,1.229848
708,4440.82,1.176851
709,4443.5,1.25374
710,4446.18,1.244351
711,4448.86,1.250007
712,4451.530000000001,1.212855
713,4454.21,1.219243
714,4456.89,1.204048
715,4459.57,1.154627
716,4462.24,1.208649
717,4464.92,1.16924
718,4467.599999999999,1.184567
719,4470.28,1.150354
720,4472.95,1.232321
721,4475.63,1.225171
722,4478.3099999999995,1.198879
723,4480.990000000001,1.255514
724,4483.66,1.173663
725,4486.34,1.149135
726,4489.02,1.161045
727,4491.69,1.256266
728,4494.37,1.267348
729,4497.05,1.332136
730,4499.7300000000005,1.229768
731,4502.4,1.279531
732,4505.08,1.284101
733,4507.76,1.326615
734,4510.44,1.281033
735,4513.110000000001,1.236732
736,4515.79,1.177936
737,4518.47,1.192179
738,4521.15,1.193507
739,4523.82,1.140049
740,4526.5,1.125057
741,4529.18,1.150247
742,4531.86,1.194593
743,4534.53,1.238794
744,4537.21,1.277576
745,4539.889999999999,1.169483
746,4542.570000000001,1.16369
747,4545.24,1.242741
748,4547.92,1.173107
749,4550.6,1.172631
750,4553.28,1.184567
751,4555.950000000001,1.192846
752,4558.63,1.238684
753,4561.31,1.248965
754,4563.99,1.246644
755,4566.66,1.221592
756,4569.34,1.158565
757,4572.0199999999995,1.169212
758,4574.7,1.236456
759,4577.37,1.262574
760,4580.05,1.209436
761,4582.73,1.198948
762,4585.41,1.125638
763,4588.08,1.150182
764,4590.76,1.178547
765,4593.44,1.202516
766,4596.12,1.155917
767,4598.79,1.259345
768,4601.469999999999,1.253185
769,4604.150000000001,1.169877
770,4606.83,1.269719
771,4609.5,1.250541
772,4612.18,1.19157
773,4614.86,1.300135
774,4617.54,1.240417
775,4620.21,1.304682
776,4622.89,1.299838
777,4625.57,1.276598
778,4628.25,1.309588
779,4630.92,1.259657
780,4633.6,1.218253
781,4636.28,1.17997
782,4638.96,1.1748
783,4641.63,1.245441
784,4644.3099999999995,1.236513
785,4646.99,1.276205
786,4649.67,1.25462
787,4652.34,1.193185
788,4655.02,1.268894
789,4657.7,1.201363
790,4660.38,1.174556
791,4663.05,1.184558
792,4665.7300000000005,1.186035
793,4668.41,1.274414
794,4671.09,1.218699
795,4673.76,1.19035
796,4676.44,1.168874
797,4679.12,1.216312
798,4681.8,1.25576
799,4684.47,1.275393
800,4687.15,1.18651
801,4689.83,1.203886
802,4692.509999999999,1.2297
803,4695.18,1.200416
804,4697.86,1.236242
805,4700.54,1.11929
806,4703.22,1.236307
807,4705.889999999999,1.116878
808,4708.570000000001,1.12423
809,4711.25,1.124513
810,4713.93,1.142107
811,4716.6,1.146044
812,4719.28,1.172944
813,4721.96,1.15003
