,lambda (Angstroms),Total Flux (erg/s/cm^2/Angstrom)
0,102.01,0.09655188745895432
1,103.91,0.11300097805594024
2,104.712855,0.11995163248998678
3,106.08,0.11007603056995408
4,108.06,0.0957734944327673
5,110.06,0.08132658230132413
6,113.93,0.05337178428925455
7,117.94000000000001,0.024405810255389942
8,120.22644299999999,0.007892787700540776
9,120.96000000000001,0.007648633747378007
10,124.92,0.00632721847992577
11,126.95,0.0056497840534944456
12,128.13,0.00525614808405161
13,131.10999999999999,0.004261958452221393
14,132.02,0.003960234842786652
15,133.86,0.0033467898284351063
16,136.98,0.002309485193230319
17,138.038426,0.001956990484476375
18,139.85,0.0019377947010499133
19,143.1,0.0019493068557156932
20,147.11,0.002038389853872548
21,150.89,0.002025546566499209
22,155.11,0.0020149285853575446
23,158.489319,0.0020143018498201865
24,159.09,0.0020103863578047813
25,162.05,0.001992497812230109
26,165.82,0.0019829419149947993
27,170.07999999999998,0.0019615784358907097
28,172.84,0.0019601821339359474
29,176.87,0.0019527430299947544
30,180.16,0.0019442878374472299
31,181.82,0.001952430825401974
32,181.970086,0.001952469280523898
33,186.06,0.002051570568650023
34,190.82999999999998,0.002182093097350562
35,193.93,0.0022747920126486073
36,197.99,0.0023888747739744336
37,202.14,0.002517492139615365
38,204.95,0.00261488330767585
39,208.929613,0.002696985234850756
40,210.21,0.0027613107316712543
41,216.1,0.003206421892300421
42,220.10999999999999,0.0034845100984333514
43,223.18,0.003671567827318164
44,226.79999999999998,0.0039550394099119816
45,229.95999999999998,0.005162498205767358
46,234.23,0.007510131160926364
47,239.88329199999998,0.009102591636101033
48,240.24,0.009180012882850714
49,245.84,0.00894018221737627
50,252.14000000000001,0.00945959271871752
51,256.83,0.008424962536382676
52,259.81,0.009404988503683775
53,264.03,0.009833902537915535
54,268.94,0.00993406872229419
55,273.94,0.00998092405669201
56,275.42287,0.01000085700044985
57,279.03000000000003,0.010267112826470675
58,284.21999999999997,0.010651251190715177
59,290.17,0.010674413253770052
60,296.24,0.011254259111373933
61,301.06,0.011509584359092336
62,308.07,0.012096993107330095
63,316.227766,0.01277313403924712
64,318.15999999999997,0.012828929681649316
65,327.83,0.012939628991724144
66,337.79,0.012931196564458918
67,348.05999999999995,0.01286964572831295
68,356.98,0.01286761022116377
69,363.078055,0.012882086067963601
70,366.14,0.013013835732148746
71,374.67,0.013270476070053184
72,385.17,0.013223983133124298
73,395.05,0.013844731379137882
74,405.18,0.01421393479331982
75,413.67,0.014364962304317323
76,416.86938299999997,0.01439201926665932
77,422.33,0.014399273458887373
78,430.18,0.014456607212042956
79,441.21,0.014682532154374938
80,451.49,0.014684727948316259
81,459.88,0.014693975488313115
82,469.51,0.014743781353649198
83,478.630092,0.014863270101791084
84,480.45,0.014842141760997279
85,490.51,0.014463859899556246
86,499.63,0.014414385965526206
87,506.58000000000004,0.014134633417115156
88,512.45,0.014473441466155031
89,519.5799999999999,0.014319825484835493
90,530.46,0.013982217984589129
91,540.3199999999999,0.013482099937490864
92,549.5408739999999,0.013306663184658611
93,550.36,0.013298824261750712
94,560.59,0.013430835896602218
95,569.7,0.013544537968302827
96,580.3,0.013263721333838114
97,589.7199999999999,0.013323608909625133
98,600.6899999999999,0.0129432440058442
99,610.45,0.011897034199016311
100,620.37,0.013106246329781409
101,630.45,0.012907602398139493
102,630.957344,0.012906554316893715
103,640.69,0.012990718182488478
104,649.6,0.013045619172741016
105,658.6400000000001,0.013000299728507901
106,664.74,0.013214607802642634
107,675.5400000000001,0.013204903245372985
108,684.93,0.012865296477524648
109,694.4599999999999,0.013603540780230225
110,705.75,0.013165449969899266
111,715.5699999999999,0.013837487918752231
112,724.43596,0.013892107145936153
113,725.5200000000001,0.013895911579354483
114,735.61,0.013957360981137193
115,745.85,0.014258725299695662
116,754.48,0.014424395511527655
117,764.98,0.013929649685830773
118,775.62,0.014884753782457932
119,784.6,0.014972818800100028
120,795.52,0.01526699274137527
121,804.73,0.015502512631406864
122,815.92,0.015630001422878473
123,825.37,0.016173691179751277
124,831.763771,0.015065532083632698
125,834.93,0.014481530817216672
126,844.5999999999999,0.016190208837548698
127,854.38,0.016177467673003425
128,864.27,0.016607237323580853
129,874.2800000000001,0.017055001499746678
130,884.4000000000001,0.017695546491035212
131,894.64,0.018043676007912145
132,905.0,0.017715100050377477
133,915.48,0.02474475861843121
134,923.95,0.13432805138287923
135,934.6500000000001,0.2885450215811784
136,945.47,0.5592677763050659
137,954.22,0.8242907229625535
138,954.992586,0.8272726322496581
139,965.27,0.8670058361970733
140,974.2,0.12958466819708908
141,985.48,0.6402482665128986
142,994.6,0.7467107694065317
143,1006.1199999999999,1.215392478324805
144,1015.43,1.2098152521120555
145,1024.82,0.5291628294334607
146,1034.31,0.7746095861725594
147,1043.8799999999999,1.6616179464458125
148,1055.96,1.6350073801031686
149,1065.73,1.2014505992118087
150,1075.6000000000001,1.4981756977381417
151,1085.55,1.1034306997986296
152,1095.5900000000001,1.6052745933350416
153,1096.4782,1.6001809128752629
154,1105.73,1.5470996059566935
155,1115.96,1.447280997855864
156,1126.29,1.2782250123542445
157,1134.09,1.7556325750926147
158,1144.5900000000001,1.564906948009652
159,1155.18,1.7117019812659782
160,1165.87,1.763709637121514
161,1173.95,1.141839143137672
162,1184.81,1.7116051574118647
163,1195.77,1.0486437942852673
164,1204.06,0.6916967077597663
165,1215.2,0.5396584653117467
166,1223.63,1.1495776504251392
167,1234.95,1.8763559286556977
168,1246.3799999999999,2.0858587917453866
169,1255.02,1.94674018431712
170,1258.92541,1.79480095618961
171,1263.72,1.6082877323416864
172,1275.4099999999999,2.2349558704370422
173,1284.25,2.372848243470656
174,1296.13,1.7311144325701273
175,1305.12,1.6956618458701482
176,1314.16,2.2870172725923053
177,1326.32,2.1690825368557376
178,1335.52,1.829414006528729
179,1344.7700000000002,2.3403114896238564
180,1354.1000000000001,2.255673994194401
181,1363.48,1.9511715121870816
182,1376.1000000000001,2.0907078999341637
183,1385.6399999999999,2.1149204608776784
184,1395.24,1.8294490379277568
185,1404.91,1.9024986337688248
186,1414.65,1.9199992484008832
187,1424.4599999999998,2.015103881823932
188,1434.3300000000002,1.9830115313535435
189,1440.95,2.1246873084443267
190,1445.43977,2.161466819100908
191,1447.6,2.179163000392829
192,1454.28,2.095487505404956
193,1464.3600000000001,1.8937007764412195
194,1474.51,1.8981090632485682
195,1484.74,1.9603383680800144
196,1495.03,2.0105406864295334
197,1505.39,1.8763520205501374
198,1512.3400000000001,1.619478586393593
199,1515.83,1.7755883726948392
200,1526.33,1.6919097383576134
201,1533.38,1.4302693267311908
202,1544.0100000000002,1.6458047216831233
203,1554.71,1.5395911324061413
204,1565.49,1.5537435611532564
205,1576.34,1.6686330056714567
206,1583.6100000000001,1.7838536436113015
207,1594.59,1.82112511741866
208,1605.64,1.7920636069971039
209,1616.77,1.8086521145996448
210,1624.2400000000002,1.680205797599733
211,1635.5,1.8170033344914323
212,1646.83,1.8506648871542164
213,1654.43,1.676425599443463
214,1659.58691,1.7624968031210895
215,1665.8999999999999,1.8678741484343606
216,1673.5900000000001,1.6047698010420757
217,1677.45,1.872147152025922
218,1685.19,1.992218886900267
219,1696.8700000000001,1.8507221043850666
220,1704.7,1.7594369873393458
221,1716.52,1.6421264351707099
222,1724.4399999999998,1.6383374662049233
223,1736.3999999999999,1.7716541443828517
224,1744.41,1.7273823234969994
225,1756.5,1.876537215568166
226,1764.6100000000001,1.6804065592155741
227,1776.8400000000001,1.735509681633305
228,1785.04,1.7717481733606475
229,1793.28,1.9336827309012938
230,1805.72,1.9158591988388713
231,1814.0500000000002,1.735564904459452
232,1826.62,1.7841435862902681
233,1835.06,1.6960224728974351
234,1843.53,1.53276140886458
235,1856.3,1.5362854197619165
236,1864.8700000000001,1.5976315202623217
237,1873.4799999999998,1.7677816865760312
238,1886.47,1.6087700594465404
239,1895.1699999999998,1.5434993738401839
240,1903.92,1.6424247705004575
241,1905.46072,1.634220987236699
242,1917.12,1.5720955778896384
243,1925.9699999999998,1.546975808349165
244,1934.86,1.5866639539746101
245,1943.79,1.6727800147659744
246,1952.76,1.561218990723257
247,1966.3,1.7434952743867587
248,1975.37,1.7923390382588384
249,1984.4899999999998,1.6882256960883164
250,1993.6499999999999,1.6309812690837135
251,2002.85,1.6843827572450292
252,2016.74,1.6085532986103201
253,2026.0500000000002,1.6958845534779123
254,2035.4,1.6048647235114235
255,2044.79,1.6880988087108533
256,2054.23,1.6048347878676814
257,2063.71,1.6010046821904287
258,2073.2400000000002,1.7353484704705742
259,2078.02,1.6842103327978664
260,2082.81,1.7756601739166384
261,2097.25,1.6648355488133122
262,2106.93,1.661012018965653
263,2116.65,1.6879414042839127
264,2126.42,1.7035926835595707
265,2136.2400000000002,1.5573258567926274
266,2146.1,1.6343139451916027
267,2156.0,1.7035399487564966
268,2165.9500000000003,1.6306298462787892
269,2175.9500000000003,1.6156836377584802
270,2186.0,1.6081913231955696
271,2187.7616199999998,1.6220851800849898
272,2196.09,1.6878026698465811
273,2206.2200000000003,1.6305987990632944
274,2216.41,1.5148200297363752
275,2226.64,1.4702103280470342
276,2236.91,1.6192436939952717
277,2247.2400000000002,1.5352621613998767
278,2252.42,1.4293299204662708
279,2262.82,1.4654125062366379
280,2273.26,1.5232831596445833
281,2283.75,1.5981688975995014
282,2294.29,1.4875617201013924
283,2304.88,1.5041906271502568
284,2315.52,1.4033496187460937
285,2326.21,1.0450546948889035
286,2336.9500000000003,1.2499228555786863
287,2342.34,1.182567969742367
288,2353.15,1.344621248797912
289,2364.01,1.1762386124004298
290,2374.92,1.2368130605499204
291,2385.88,1.1071205932463841
292,2396.9,1.2077502273992153
293,2402.42,1.1505885613850253
294,2413.51,1.1987403139036186
295,2424.65,1.331998150969185
296,2435.84,1.283363072581724
297,2447.09,1.3839960956506305
298,2452.73,1.3742026325491759
299,2464.05,1.3393317739838444
300,2475.42,1.2727299999654862
301,2486.85,1.2663883274034953
302,2492.58,1.2119910164865915
303,2504.09,1.4068234791997574
304,2511.88643,1.2378957870700984
305,2515.64,1.1565572060116984
306,2527.26,1.1245876014410963
307,2533.08,1.1799627926114142
308,2544.77,1.165972142230146
309,2556.52,1.3440574525825921
310,2562.41,1.251287597942244
311,2574.24,1.3681038559396428
312,2586.12,1.3241600812151375
313,2592.09,1.2848621742197421
314,2604.05,1.2181303471401894
315,2616.0699999999997,1.1871574807943515
316,2622.1,1.2952705345326707
317,2634.2,1.4524776158317856
318,2646.3599999999997,1.674401657864615
319,2652.46,1.848036665792268
320,2664.71,1.4948426489256694
321,2677.01,1.6156365993371662
322,2683.18,1.6529185614541528
323,2695.5600000000004,1.4965524595106026
324,2708.0,1.6137973183007668
325,2714.2500000000005,1.4315372280627063
326,2726.77,1.3791580344978236
327,2733.06,1.5013199180822394
328,2745.68,1.1705386590735476
329,2752.0,1.2509815230248207
330,2764.71,1.3614312051167008
331,2777.4700000000003,1.4446498544866766
332,2783.87,1.2523456660829024
333,2796.72,0.9198010565534501
334,2803.1699999999996,1.0058330354277718
335,2816.11,1.3968215669988913
336,2822.6,1.6068683196956892
337,2835.63,1.5551237923673806
338,2842.1600000000003,1.4444285188866548
339,2855.28,1.2663139326589183
340,2861.8700000000003,1.6456436199119073
341,2875.07,1.7582559813291234
342,2881.7,1.6826186424045888
343,2884.0315,1.6935292377851912
344,2895.0,1.7448649696786165
345,2908.3700000000003,2.058187790611225
346,2928.5299999999997,1.9063145206038499
347,2948.83,1.8486322487214233
348,2969.27,1.9341549749639455
349,2989.85,1.9461846993314165
350,3010.57,1.9944274218238363
351,3031.44,2.015881142307273
352,3052.45,2.0376478609156576
353,3066.54,2.093652672205146
354,3087.8,2.1210263874652253
355,3109.2,2.1937841008502534
356,3130.76,2.132135812092366
357,3152.46,2.130467521459427
358,3167.01,2.193924326588033
359,3188.96,1.9947220326067883
360,3211.0699999999997,2.150247736482628
361,3233.32,1.9238194384834166
362,3248.2499999999995,2.2744202385225973
363,3270.7599999999998,2.4801769370411484
364,3293.44,2.432828633282851
365,3308.64,2.4036134297058616
366,3311.31121,2.401430418841997
367,3323.91,2.3911311683014804
368,3331.5699999999997,2.4573382071359595
369,3339.2500000000005,2.225265240849902
370,3346.9500000000003,2.6193972694433088
371,3354.67,2.3938662929161776
372,3362.3999999999996,2.1429223138287794
373,3370.15,2.2380393296208436
374,3377.9199999999996,2.447425340292372
375,3385.71,2.331155345843363
376,3393.51,2.5201613488340864
377,3401.3300000000004,2.7560383467042726
378,3409.17,2.399798339453923
379,3417.0299999999997,2.307111327083036
380,3424.91,2.6417483095916126
381,3432.81,2.7590622869796526
382,3440.72,2.5565172618074246
383,3448.6499999999996,2.2363392315146595
384,3456.6000000000004,2.400992196101358
385,3464.57,2.19418315556752
386,3472.56,2.5651851099131453
387,3480.56,2.2387650616985026
388,3488.58,2.425798008363323
389,3496.63,2.3481709473473384
390,3504.6899999999996,2.615551883771085
391,3512.77,2.485738815074296
392,3520.86,2.6686617438172386
393,3528.98,2.1687556648793755
394,3537.1200000000003,2.6182745808209766
395,3545.27,2.6969544942023087
396,3553.44,2.771677402463105
397,3561.63,2.646121305603364
398,3569.84,2.2568562036230864
399,3575.2400000000002,1.6403938210782025
400,3577.92,2.621464134926297
401,3580.59,1.5212654513346602
402,3583.2599999999998,2.015656767743023
403,3585.94,2.334152081591118
404,3588.6099999999997,2.1398263979994807
405,3591.28,2.9255147144078437
406,3593.96,2.082602028255938
407,3596.63,1.6979043446643007
408,3599.3,2.810313661072664
409,3601.97,2.799512977481027
410,3604.6499999999996,2.7234132913291216
411,3607.32,2.4265216077374845
412,3609.9900000000002,1.9622349241458472
413,3612.67,1.6972892379939417
414,3615.34,2.3280595544023046
415,3618.0099999999998,2.3020408708106674
416,3620.68,2.5779401872190304
417,3623.36,2.218489501067125
418,3626.03,2.532279817475488
419,3628.7000000000003,3.016355133883851
420,3631.38,3.030191447731945
421,3634.0499999999997,2.3370337641403083
422,3636.72,2.8442400805486714
423,3639.3900000000003,2.559522396957034
424,3642.07,2.3904437108051284
425,3644.7400000000002,3.0075210272134916
426,3647.41,2.4872343436218545
427,3650.0899999999997,2.8389016574699495
428,3652.7599999999998,3.1590839738783125
429,3655.4300000000003,2.974955290286675
430,3658.1000000000004,2.4368626066950383
431,3660.78,2.5452019205431324
432,3663.45,2.7839702369514954
433,3666.12,3.1904355533598583
434,3668.7999999999997,3.429642867207953
435,3671.47,2.972055183616316
436,3674.1400000000003,2.723859500024679
437,3676.81,3.2573938164330416
438,3679.4900000000002,2.956073130281136
439,3682.16,2.322263446689499
440,3684.83,2.336874763097862
441,3687.5099999999998,2.031905076945957
442,3690.1800000000003,2.3059763933543196
443,3692.85,2.4958957097626824
444,3695.53,2.517342023610777
445,3698.2,2.90752434001914
446,3700.87,3.269554656427503
447,3703.54,3.1636439728358656
448,3706.2200000000003,2.8615632866839604
449,3708.8900000000003,2.6331506030923233
450,3711.56,2.803134919500686
451,3714.24,2.862624233348781
452,3716.91,2.598755549757144
453,3719.58,3.071416866165507
454,3722.2499999999995,3.1689661825738695
455,3724.9300000000003,3.972137496421964
456,3727.6,4.813827812830327
457,3730.27,5.09475212923869
458,3732.95,4.972535443086785
459,3735.62,4.064507759495147
460,3738.2900000000004,3.8564890759035104
461,3740.96,3.157092392311873
462,3743.64,3.003229706159968
463,3746.31,2.5797280225683306
464,3748.98,2.3902723389766938
465,3751.66,2.736005652824788
466,3754.3300000000004,2.878445969233151
467,3757.0,3.215367285641514
468,3759.67,3.6610966020498767
469,3762.35,2.9277459158979715
470,3765.02,2.8752492323063343
471,3767.69,3.303629548714697
472,3770.37,2.9164808625627923
473,3773.0399999999995,3.1503791789711553
474,3775.71,3.089969495379518
475,3778.38,2.9288188117878806
476,3781.06,2.8995891256359756
477,3783.73,3.8155404420443384
478,3786.3999999999996,4.0850507584527005
479,3789.0800000000004,3.660007072300796
480,3791.75,3.1957233887091587
481,3794.42,3.0272687051175216
482,3797.1,2.658992018965616
483,3799.77,3.384113335373979
484,3801.8939600000003,3.2047137431936945
485,3802.44,3.1585926809115223
486,3805.1099999999997,2.8626131397543433
487,3807.79,3.4023695965703578
488,3810.46,3.289612055413179
489,3813.13,2.949503514256
490,3815.81,3.1124719710720146
491,3818.48,3.1304324299148356
492,3821.1499999999996,3.0301528887576565
493,3823.82,3.0363953476004775
494,3826.5,2.731271804416492
495,3829.17,2.549881263259313
496,3831.84,2.439100722102134
497,3834.52,2.1476741789181486
498,3837.1899999999996,2.1367206377609693
499,3839.86,2.66690509660379
500,3842.53,2.8417585554466114
501,3845.21,2.516548012262626
502,3847.88,2.4354414711054466
503,3850.5499999999997,2.7493839299482676
504,3853.2300000000005,3.090399386764283
505,3855.9,3.297210845607103
506,3858.57,3.321258304449924
507,3861.2400000000002,3.0771717632927453
508,3863.92,3.3233812201087605
509,3866.5899999999997,3.672020678951581
510,3869.2599999999998,3.4895661377944016
511,3871.9399999999996,2.976416594610417
512,3874.61,3.216250053453238
513,3877.28,3.2098625122960582
514,3879.95,2.987232971138879
515,3882.63,3.3693344279548945
516,3885.2999999999997,3.152335886797715
517,3887.9700000000003,2.7247253456405356
518,3890.65,3.340721802456551
519,3893.32,3.512076261299372
520,3895.99,3.5654947201421927
521,3898.67,3.7859831769582075
522,3901.3399999999997,3.827380635801028
523,3904.0099999999998,3.792385094643849
524,3906.6800000000003,3.82906455348667
525,3909.36,3.7748750103026847
526,3912.03,4.370192469145506
527,3914.7,3.9724109279883266
528,3917.3799999999997,3.8925033848043413
529,3920.0499999999997,4.041184843647162
530,3922.7200000000003,3.555292302489983
531,3925.3900000000003,3.561230761332804
532,3928.07,3.382106218148819
533,3930.74,2.8336686769916395
534,3933.41,2.8205851358344605
535,3936.0899999999997,2.6276155926504754
536,3938.76,2.3742470514932963
537,3941.4300000000003,2.809321510336117
538,3944.1,3.412550969178938
539,3946.7799999999997,3.8098694259949526
540,3949.45,3.8316358848377736
541,3952.12,4.106470343680595
542,3954.8,3.98775880049661
543,3957.4700000000003,3.97315525933943
544,3960.14,4.102510718182251
545,3962.81,3.358069177025072
546,3965.49,2.590177633841087
547,3968.16,2.6012890926839076
548,3970.8300000000004,2.4392245515267286
549,3973.51,2.6263920083427434
550,3976.1800000000003,2.9865954671855643
551,3978.85,3.014294926028385
552,3981.52,3.656483384871206
553,3984.2,3.827363841687221
554,3986.8700000000003,3.536559300530042
555,3989.54,3.8949397593728623
556,3992.2200000000003,3.9494042161888774
557,3994.89,4.304892675031699
558,3997.56,4.457835133874519
559,4000.24,4.6090815906905345
560,4002.91,4.509565049533355
561,4005.5800000000004,4.535743508376176
562,4008.25,4.847102967218996
563,4010.93,4.786672424035012
564,4013.6,4.882700882877832
565,4016.27,4.710444341720653
566,4018.95,4.466184798536669
567,4021.6200000000003,4.744825257379489
568,4024.29,4.843745716222309
569,4026.96,4.8236651750651305
570,4029.64,4.510926631881146
571,4032.31,4.843741090723967
572,4034.98,4.769029549566787
573,4037.6600000000003,4.510922006382802
574,4040.33,4.700842465225623
575,4043.0,4.747262924068444
576,4045.67,4.445808382911264
577,4048.35,4.45370483972728
578,4051.02,4.698562298570101
579,4053.6899999999996,4.566631757412921
580,4056.3700000000003,4.514875214228937
581,4059.04,4.489923673071757
582,4061.71,4.657780131914579
583,4064.38,4.499219590757399
584,4067.06,4.755770047573414
585,4069.7299999999996,4.619122506416234
586,4072.4,4.8101099652590555
587,4075.08,4.66491742207507
588,4077.75,4.945839880917891
589,4080.42,4.8063013397607115
590,4083.0899999999997,5.046593798603533
