,lambda (Angstroms),Total Flux (erg/s/cm^2/Angstrom)
0,100.07000000000001,0.012060702781788852
1,101.93,0.014495749865950203
2,104.07,0.017297361174618726
3,104.712855,0.018138964728376568
4,106.0,0.016732970685359456
5,107.97,0.014581072050237849
6,109.98,0.012385494875723813
7,114.11,0.007874164197501612
8,118.11999999999999,0.003493918096996671
9,120.22644299999999,0.0011931824062762328
10,120.87,0.0011607196405998119
11,125.12,0.0009460370524073177
12,126.86,0.0008581602370496852
13,128.03,0.0007990671293661044
14,131.01,0.0006485616027087795
15,131.92000000000002,0.0006026845262993265
16,134.06,0.0004946169159353419
17,136.87,0.0003528599986457163
18,138.038426,0.0002938772340554251
19,140.06,0.000290397316202715
20,142.98999999999998,0.0002865881352412603
21,147.0,0.0002820910978708052
22,151.12,0.00027573584005128525
23,154.99,0.0002700435042523672
24,158.489319,0.0002650457168511745
25,158.97000000000003,0.0002638988691309109
26,161.92000000000002,0.0002569753243842261
27,166.08,0.0002473746792973757
28,169.95,0.00023862411694494518
29,173.11,0.00023156099990781834
30,177.14000000000001,0.00022278111466743198
31,180.02,0.00021669936268422783
32,181.970086,0.00021262850420988752
33,182.1,0.00021282829410189524
34,185.91,0.0002189831950413935
35,191.12,0.00022743485719225586
36,193.78,0.00023238640249384783
37,197.84,0.0002395130190068039
38,201.98000000000002,0.0002471244153032666
39,204.79000000000002,0.00025268732394893325
40,208.929613,0.0002594513940642024
41,210.04,0.0002662373584012971
42,215.93,0.0003066325610131374
43,219.94,0.00033344137832612186
44,223.0,0.0003534863381210678
45,227.14999999999998,0.0003819301735946053
46,229.77999999999997,0.00043405017903928097
47,234.04999999999998,0.0005345010229361499
48,239.88329199999998,0.0006200198217463156
49,240.06,0.000620883064899015
50,246.21,0.000598219602552966
51,251.95,0.0005989615310299871
52,257.21999999999997,0.0005440355709383322
53,260.2,0.0005746642473950434
54,263.82,0.0005803159040303771
55,268.73,0.0005707879675882471
56,273.72,0.0005599045036684447
57,275.42287,0.0005562427984649588
58,278.81,0.0005798816589361942
59,284.0,0.000616245388879241
60,289.94,0.0006426526144787973
61,296.01,0.000691158459325482
62,300.82,0.0007163941714692307
63,307.83000000000004,0.0007696761708720745
64,316.227766,0.0008334182123447742
65,317.92,0.0008324426250177846
66,328.33,0.0008153611351990903
67,338.31,0.0007963785800222825
68,347.78999999999996,0.0007774650604755754
69,356.71000000000004,0.0007598498488345806
70,363.078055,0.0007480718895917001
71,365.86,0.0007600291289793203
72,375.24,0.0007957406851292
73,384.87,0.0008170245474664428
74,394.74,0.0008673384677435549
75,404.87,0.000905664242455525
76,414.3,0.0009373154398428772
77,416.86938299999997,0.0009450767285453894
78,422.0,0.0009550440853146626
79,429.84000000000003,0.000970258797007888
80,440.87,0.0009970107040201681
81,451.14,0.0010161935945927987
82,459.53000000000003,0.0010310337813410337
83,470.23,0.0010522552233203082
84,478.630092,0.001070276028358731
85,480.08000000000004,0.0010679684944733033
86,490.13,0.001046676493372631
87,500.39,0.0010342186026967208
88,506.19,0.0010972744906187209
89,512.05,0.0015899354815192245
90,520.37,0.0016103054945383693
91,530.0400000000001,0.0016405705745738417
92,539.9,0.0015912288640412419
93,549.5408739999999,0.001905700042213261
94,549.93,0.0019189491944512638
95,560.1600000000001,0.0021569765375772333
96,570.5699999999999,0.0023618816814620185
97,579.84,0.0022956274205409763
98,590.62,0.0026861382659855468
99,600.22,0.002779516306455665
100,609.97,0.0031642398475581293
101,619.88,0.0035730479893350954
102,629.9599999999999,0.0038405768318287192
103,630.957344,0.0038487717572268263
104,640.19,0.003939591714699677
105,650.6,0.004440209776842581
106,658.13,0.004732387228133269
107,665.75,0.005033443386013088
108,675.0100000000001,0.00517410386396153
109,684.4,0.005216253251427607
110,695.52,0.006488515665551438
111,705.2,0.006330208774249162
112,716.66,0.007514943413265268
113,724.43596,0.0077981769690864886
114,726.6300000000001,0.007877213673346971
115,735.04,0.00821684409974872
116,745.27,0.009238666638641695
117,755.63,0.009855240971284039
118,764.3800000000001,0.010513150319799535
119,775.02,0.011443080823594378
120,785.8,0.012375185412965466
121,794.9000000000001,0.012972460975421582
122,804.0999999999999,0.013599559456146444
123,815.2900000000001,0.014163001010419403
124,824.73,0.015527646494989262
125,831.763771,0.01405243543352129
126,834.28,0.013520465815107793
127,845.88,0.016557513557459574
128,855.6800000000001,0.017228397857032632
129,865.5899999999999,0.018503285255886612
130,875.61,0.019876245754021513
131,885.75,0.021549047815008326
132,896.01,0.02274084143884706
133,904.3,0.02309544773920019
134,914.77,0.03572584909802977
135,925.3599999999999,0.24795948201971127
136,936.0799999999999,0.5650066149678157
137,944.74,1.1348377244202954
138,954.992586,1.5735063114508079
139,955.68,1.6029187712518447
140,964.52,1.904990159336289
141,975.69,0.34689042256063785
142,984.72,1.8025444759998384
143,996.12,1.8192213972852078
144,1005.34,2.4596247160791647
145,1014.64,2.3060620202856503
146,1024.03,0.9331300080812308
147,1035.8799999999999,1.6939071473120755
148,1045.47,3.0609033986389784
149,1055.1399999999999,2.99820363537841
150,1064.91,2.470942853883503
151,1074.76,2.8830470578011247
152,1084.7,2.3651922453078416
153,1094.74,2.9981934145802196
154,1096.4782,2.9682843895559174
155,1104.8700000000001,2.8238843084156118
156,1115.09,2.740609475843259
157,1125.41,2.4652655862007262
158,1135.82,3.0189856451950323
159,1143.7,2.7596171480648812
160,1154.28,2.8963871100398824
161,1164.96,2.984337014944703
162,1175.74,2.1471558627793446
163,1183.8899999999999,2.929884211559709
164,1194.8400000000001,2.217491962375045
165,1205.9,1.6326226504131836
166,1214.26,0.9482178793461707
167,1225.49,2.055210470365004
168,1233.99,2.91631261939974
169,1245.41,3.117729101985232
170,1254.04,2.9980731768287345
171,1258.92541,2.8712030295130253
172,1265.64,2.696834661286163
173,1274.42,3.1976800176983744
174,1286.21,3.264728496297459
175,1295.12,2.678205857986844
176,1304.1,2.715452222517784
177,1316.17,3.20513271248309
178,1325.2900000000002,3.046725082697141
179,1334.48,2.7723584557527468
180,1343.73,3.132054831243971
181,1356.1599999999999,3.0608243358229896
182,1365.5600000000002,2.8043547174032613
183,1375.03,2.869714101825088
184,1384.56,2.896322488682533
185,1394.16,2.4879398783815336
186,1403.8200000000002,2.605293270516153
187,1413.5500000000002,2.7092286654923274
188,1426.63,2.7279921964572162
189,1436.52,2.746881597928374
190,1443.15,2.8433898670642463
191,1445.43977,2.8433872095398844
192,1446.48,2.843385995454818
193,1456.5,2.7787493368345184
194,1466.6000000000001,2.605285680939805
195,1473.37,2.6052699115925564
196,1483.58,2.6052752594455244
197,1493.86,2.6173026096833802
198,1504.22,2.4708409626468226
199,1511.16,2.232768199091445
200,1518.14,2.348826436898861
201,1525.14,2.3434766753876737
202,1535.7199999999998,2.0741880358464786
203,1546.36,2.1719663983494732
204,1553.4999999999998,2.079027641608062
205,1564.2700000000002,2.152089008540135
206,1575.1100000000001,2.269155377857096
207,1586.03,2.3219667498996435
208,1593.3500000000001,2.3542299992908013
209,1604.3899999999999,2.3165873754217285
210,1615.52,2.31657775461894
211,1626.71,2.2327651358603418
212,1634.22,2.3434633917247676
213,1645.5500000000002,2.3488427777359453
214,1653.1499999999999,2.232736036666656
215,1659.58691,2.3132083029859234
216,1664.61,2.37600650574397
217,1672.29,2.2276584165709186
218,1676.14,2.381538374472449
219,1683.88,2.4202793002277327
220,1695.5500000000002,2.3059902037889946
221,1703.3799999999999,2.2225701519367815
222,1715.19,2.117647090330826
223,1723.1,2.103044058383061
224,1735.05,2.2072640316098884
225,1743.06,2.1471570245426825
226,1755.14,2.243121030114237
227,1763.24,2.1080050454395343
228,1775.46,2.1176750858438713
229,1783.6599999999999,2.147150126049728
230,1796.0200000000002,2.232802201286848
231,1804.3100000000002,2.2327892638852083
232,1816.8200000000002,2.060035376443167
233,1825.1999999999998,2.11767146143403
234,1833.6299999999999,2.0458425588651727
235,1846.34,1.8961227211842504
236,1854.8600000000001,1.8787488410078963
237,1863.42,1.927018970783766
238,1876.34,2.055239185352018
239,1885.0,1.8831633400084469
240,1893.7,1.7859715046170994
241,1905.46072,1.9003149631308125
242,1906.83,1.913626991603866
243,1915.63,1.8233371693279115
244,1924.47,1.77783433422343
245,1933.3500000000001,1.8529864862904215
246,1946.7499999999998,1.9092241887338546
247,1955.74,1.7736833055223968
248,1964.7700000000002,1.913627409482412
249,1973.8400000000001,1.9717915006138997
250,1982.95,1.8614945789168607
251,1996.69,1.8150361723178137
252,2005.9099999999999,1.8657672153423253
253,2015.17,1.8232952455383096
254,2024.4699999999998,1.900512262905767
255,2033.8100000000002,1.7818102674446972
256,2043.2,1.8232962559479686
257,2057.36,1.7533957146493877
258,2066.86,1.7777816678742095
259,2071.63,1.870154138072357
260,2076.4,1.7573726082705043
261,2085.9900000000002,1.8232695326311406
262,2095.61,1.7292504473703814
263,2105.29,1.7655013428668316
264,2115.0,1.7736412287418863
265,2124.77,1.7941700953741508
266,2134.57,1.7213909523850197
267,2144.43,1.7055177901530982
268,2154.32,1.7613536182997815
269,2164.27,1.7252254272036738
270,2174.26,1.7095012232790394
271,2184.29,1.6782100065258778
272,2187.7616199999998,1.6957579494348687
273,2194.38,1.7292155854660352
274,2204.51,1.6899151757294884
275,2214.68,1.6400267762210303
276,2224.9,1.5917763894976829
277,2235.17,1.6514770155594465
278,2245.49,1.6143896544063208
279,2255.86,1.563775306038306
280,2266.27,1.58998196789838
281,2276.73,1.6054326425435645
282,2287.2400000000002,1.62486632997386
283,2292.51,1.552079677524541
284,2303.09,1.5599423828539916
285,2313.72,1.507692100968553
286,2324.4,1.2576068318682252
287,2335.13,1.4346205755530084
288,2345.91,1.4091233320229024
289,2356.74,1.4627521012779072
290,2367.62,1.3975328833180227
291,2373.0699999999997,1.4140922768951028
292,2384.03,1.3542490793913955
293,2395.0299999999997,1.4025178921157773
294,2406.0899999999997,1.3587057201822916
295,2417.19,1.3719655584768948
296,2422.7599999999998,1.4074929827382407
297,2433.95,1.3604058440460436
298,2445.1800000000003,1.4057037155819347
299,2456.4700000000003,1.3902566024599592
300,2467.81,1.3750665021230943
301,2473.5,1.3410079570687063
302,2484.91,1.3635068746309968
303,2496.38,1.2878978075354202
304,2502.14,1.3803452803801872
305,2511.88643,1.3031737677457595
306,2513.69,1.2888925940763596
307,2519.48,1.3253330210777527
308,2525.29,1.2806774460998762
309,2536.9399999999996,1.2813402931752182
310,2542.79,1.261182714238802
311,2554.5299999999997,1.3121945524074299
312,2566.32,1.2889183856278832
313,2572.2400000000002,1.3284167997640228
314,2584.11,1.319970625067397
315,2596.04,1.3085614444329619
316,2602.02,1.273244852631292
317,2614.0299999999997,1.2622336640797778
318,2626.1,1.280474469590454
319,2632.1499999999996,1.2986218708613397
320,2644.3,1.3542926684549368
321,2656.51,1.3644084601107245
322,2662.63,1.2914208544541659
323,2674.92,1.3191546381928745
324,2687.27,1.3168404159937737
325,2693.4599999999996,1.2724868034097707
326,2705.9,1.2849545723039557
327,2712.1299999999997,1.2474209557614133
328,2724.65,1.236663716738519
329,2737.23,1.2690734717778156
330,2743.54,1.1738428473181939
331,2756.2,1.1853715944404113
332,2762.56,1.2077309650326151
333,2775.3100000000004,1.2365467032481183
334,2788.12,1.2007674355258118
335,2794.55,1.0729697991905716
336,2807.44,1.1164315235511861
337,2813.9199999999996,1.216024882267771
338,2826.9,1.2308085977216716
339,2833.4199999999996,1.189364952479717
340,2846.5,1.1737236580372685
341,2853.06,1.1499820088367745
342,2866.23,1.2048547054876118
343,2872.8399999999997,1.199669051338943
344,2884.0315,1.1955939339474162
345,2886.1,1.1948409395996913
346,2892.75,1.192448926131379
347,2912.7999999999997,1.2325868855239108
348,2932.99,1.2000478446328997
349,2953.33,1.1764738034380917
350,2966.96,1.1798777758331147
351,2987.52,1.1728117341927387
352,3008.23,1.168472692248566
353,3029.08,1.1668466500208499
354,3050.08,1.1571936074893374
355,3071.2200000000003,1.1529355646742812
356,3092.5099999999998,1.1434145215554288
357,3106.78,1.1388584926542533
358,3128.32,1.1216874490290731
359,3150.0,1.1150204051203498
360,3171.84,1.1109353608875765
361,3186.48,1.0714353312370366
362,3208.57,1.087371286497936
363,3230.81,1.0563042414550388
364,3253.2,1.084450196108345
365,3268.22,1.100237165688187
366,3290.8700000000003,1.0887121198149128
367,3311.31121,1.0807022055045186
368,3313.69,1.0797699863175858
369,3321.3199999999997,1.0826166909135313
370,3328.9800000000005,1.108186394347993
371,3336.65,1.1060150973952936
372,3344.35,1.0639017992811102
373,3352.0499999999997,1.069174501166927
374,3359.78,1.0646102018912598
375,3367.53,1.06496090184127
376,3375.2900000000004,0.991935001404119
377,3383.07,1.0153713001926454
378,3390.8700000000003,1.0684779982068493
379,3398.6899999999996,1.0787196954467309
380,3406.52,1.0305233922994508
381,3414.38,1.050029087990687
382,3422.25,1.084783783294762
383,3430.13,1.0653524782116757
384,3438.04,1.0681611719671056
385,3445.97,0.9972080649482128
386,3453.91,1.071343557542159
387,3461.8700000000003,0.9978865493617823
388,3469.85,1.0121159404070832
389,3477.85,0.9825981306780617
390,3485.87,1.0104703201747174
391,3493.91,1.0038530088970505
392,3501.96,1.0111596972322228
393,3510.03,1.0022313847930722
394,3518.1200000000003,0.9842794715795989
395,3526.23,0.9846230575918034
396,3534.3599999999997,1.012554442829685
397,3542.5099999999998,1.0484821272932443
398,3550.68,1.044027810982481
399,3558.8599999999997,1.0182764942845561
400,3567.07,1.0399421764251477
401,3575.29,0.9509758581785781
402,3583.5299999999997,0.9318002391576858
403,3591.7900000000004,0.906737019362471
404,3600.07,0.9968332987929336
405,3608.3700000000003,0.9633318774490736
406,3616.69,0.970345655330891
407,3625.03,0.9955908324383861
408,3633.38,1.0051466091587198
409,3641.76,1.0194992847175695
410,3650.1499999999996,0.9852383598892581
411,3650.23,0.8097807567919679
412,3652.91,0.8246006530327457
413,3655.59,1.0745607492735234
414,3658.2599999999998,0.9929996459014624
415,3660.9399999999996,0.7773932421422403
416,3663.6200000000003,0.9247217383830179
417,3666.29,0.708830635010957
418,3668.97,0.5591965312517346
419,3671.65,0.6470614274925124
420,3674.3199999999997,0.7258855241204514
421,3677.0000000000005,1.0150719203612293
422,3679.6800000000003,0.951069616602007
423,3682.36,0.6679616128427848
424,3685.03,1.0110876094707237
425,3687.71,0.9858825057115015
426,3690.39,0.9844055019522792
427,3693.0600000000004,1.1193862985802183
428,3695.7400000000002,0.9742875948209959
429,3698.42,0.9791941910617737
430,3701.09,0.8660180876897129
431,3703.77,1.0696818839304907
432,3706.45,1.1267447801712682
433,3709.13,0.9252709764120461
434,3711.8,0.825744173039985
435,3714.48,0.9014759692807629
436,3717.16,1.1539733655215407
437,3719.83,1.4302052621494794
438,3722.5099999999998,2.3296811583902572
439,3725.19,3.6441490546310353
440,3727.86,4.079701951258974
441,3730.54,3.9403068474997522
442,3733.22,2.1638177437405295
443,3735.89,1.4037346403684685
444,3738.57,1.0396105366092465
445,3741.25,0.7334361328500242
446,3743.93,0.9822110290908019
447,3746.6,0.922088325718741
448,3749.2799999999997,1.0419531219595186
449,3751.9599999999996,0.8097470182002964
450,3754.63,0.7368982148282355
451,3757.31,1.2129288110690133
452,3759.9900000000002,0.982583607309791
453,3762.66,1.05896860393773
454,3765.3399999999997,1.0058305001785077
455,3768.0200000000004,1.1980503964192857
456,3770.7000000000003,0.6095005926600633
457,3773.37,0.9216734892880023
458,3776.05,1.06936108552878
459,3778.73,1.2386109817695576
460,3781.3999999999996,1.1938208783974968
461,3784.0800000000004,0.9851898746382746
462,3786.76,1.5393926708790524
463,3789.43,1.1236575675069913
464,3792.11,1.174461463747769
465,3794.79,1.2092723599885469
466,3797.47,1.1344052562293245
467,3800.1400000000003,0.9600975528572636
468,3801.8939600000003,1.2280047962253686
469,3802.82,1.3694520565683748
470,3805.5,1.1955659744286222
471,3808.17,1.3797398925953608
472,3810.85,1.1915148104556084
473,3813.53,1.0138227283158556
474,3816.2000000000003,0.9551758464825945
475,3818.88,1.4353005643428418
476,3821.56,1.322877482203089
477,3824.23,1.1423514003698279
478,3826.91,0.9805706182300752
479,3829.59,1.0624782360903227
480,3832.27,0.9237639539505699
481,3834.94,1.1700210721173088
482,3837.62,0.6310352899775561
483,3840.2999999999997,1.3808379078378035
484,3842.97,1.0746418260045423
485,3845.65,1.2067487438647895
486,3848.33,0.9643539617250367
487,3851.0,1.1694015798917756
488,3853.68,1.0852004977520229
489,3856.3599999999997,1.3547394156122703
490,3859.0400000000004,1.2857873334725176
491,3861.71,1.3737822516392566
492,3864.39,1.2880921694995038
493,3867.07,1.4304700873597511
494,3869.74,1.17377100552649
495,3872.4199999999996,1.4472939233867375
496,3875.1000000000004,0.8937486412469846
497,3877.77,1.2199587594137236
498,3880.45,1.1496556772739708
499,3883.13,1.046924595134218
500,3885.81,1.1867945129944655
501,3888.4800000000005,1.2281744311612044
502,3891.1600000000003,1.0732723490214515
503,3893.84,1.032433266881699
504,3896.51,1.2858601850484377
505,3899.19,1.074500102908685
506,3901.87,1.2847120207689324
507,3904.5400000000004,1.5053399389356712
508,3907.2200000000003,1.4665948567959186
509,3909.9,0.9627804746561659
510,3912.58,1.289273692516413
511,3915.25,1.148055610683152
512,3917.93,0.9943948285433993
513,3920.61,1.3903474464036467
514,3923.28,1.3090633645703855
515,3925.96,1.2720282824306328
516,3928.64,1.21163820029088
517,3931.31,1.174251118457619
518,3933.99,1.2794600363178663
519,3936.67,1.2333809541781138
520,3939.34,1.3071888723448526
521,3942.02,1.3180507902050997
522,3944.7,1.3472497080653472
523,3947.3799999999997,1.0786736259255942
524,3950.0499999999997,1.2939785440923333
525,3952.73,1.5460074619525808
526,3955.41,1.2983033798128278
527,3958.08,1.3903522979795668
528,3960.7599999999998,1.125373215839814
529,3963.4399999999996,1.0679201337000612
530,3966.11,0.9531444518668002
531,3968.79,1.1066919697270476
532,3971.47,1.0958118875872949
533,3974.15,1.305071805447542
534,3976.8199999999997,1.194530723614281
535,3979.5000000000005,1.1460666414745282
536,3982.1800000000003,1.2739825593347758
537,3984.85,1.3951764775015145
538,3987.53,1.359437395361762
539,3990.21,1.429502313222009
540,3992.8799999999997,1.437917231388748
541,3995.5600000000004,1.4605261492489954
542,3998.2400000000002,1.2407970671092428
543,4000.92,1.1545839849694899
544,4003.59,1.3362349031362288
545,4006.27,1.3769188209964762
546,4008.95,1.4084067388567234
547,4011.6200000000003,1.5687566570234623
548,4014.3,1.5905385748837095
549,4016.98,1.491405492743957
550,4019.65,1.2654244109106958
551,4022.33,1.304274328770943
552,4025.0099999999998,1.3752072466311904
553,4027.6800000000003,1.2377951647979293
554,4030.36,1.2501320826581765
555,4033.04,1.313924000518424
556,4035.72,1.3586889183786712
557,4038.39,1.3063018365454102
558,4041.07,1.2790697544056573
559,4043.75,1.3009346722659045
560,4046.42,1.2195255904326434
561,4049.1,1.2577415082928909
562,4051.7799999999997,1.280295426153138
563,4054.45,1.3529453443198771
564,4057.13,1.3382182621801244
565,4059.81,1.1906791800403715
566,4062.4900000000002,1.350319097900619
567,4065.16,1.3617250160673577
568,4067.8399999999997,1.299611933927605
569,4070.5200000000004,1.2366988517878523
570,4073.19,1.2762307699545914
571,4075.87,1.3099936878148386
572,4078.55,1.313700605675086
573,4081.22,1.3592725238418248
574,4083.8999999999996,1.353782441702072
575,4086.5800000000004,1.3247443595623194
576,4089.26,1.1888012774225667
577,4091.93,1.2019031955893056
578,4094.61,1.2219891134495529
579,4097.29,1.1411250313098003
580,4099.96,1.2550529494765392
581,4102.64,1.2773868673367863
582,4105.32,1.3212967851970336
583,4107.990000000001,1.2175657033637726
584,4110.67,1.14057562122402
