,lambda (Angstroms),Total Flux (erg/s/cm^2/Angstrom)
0,102.01,0.012069128173506789
1,103.91,0.01412530892100503
2,104.712855,0.014994163545993372
3,106.08,0.013759752166369259
4,108.06,0.011972024092708412
5,110.06,0.010166332227453017
6,113.93,0.006672295430456819
7,117.94000000000001,0.003051968030298743
8,120.22644299999999,0.0009906602699910295
9,120.96000000000001,0.0009610457822972508
10,124.92,0.0007977903896157212
11,126.95,0.0007140591313118058
12,128.13,0.0006655314073814512
13,131.10999999999999,0.0005428863277776741
14,132.02,0.0005073055178483315
15,133.86,0.00043199539480438825
16,136.98,0.0003071803579037899
17,138.038426,0.0002642378015776383
18,139.85,0.00026375406263123917
19,143.1,0.00030883599946446164
20,147.11,0.0004393389442340685
21,150.89,0.0004655398958124011
22,155.11,0.0004985109856696931
23,158.489319,0.0005327897894259654
24,159.09,0.0005384074072255977
25,162.05,0.0005674955515287635
26,165.82,0.0006177714518743499
27,170.07999999999998,0.0006640163169863388
28,172.84,0.0007064226042419934
29,176.87,0.0007629416287493443
30,180.16,0.0008067003921809038
31,181.82,0.0008411884156752468
32,181.970086,0.000843608811161024
33,186.06,0.0009218223960812528
34,190.82999999999998,0.0010279839371688203
35,193.93,0.0011048507640810759
36,197.99,0.001198198596746804
37,202.14,0.0013056213924519207
38,204.95,0.0013886615384594814
39,208.929613,0.0014504390834546334
40,210.21,0.0014750539664589067
41,216.1,0.0017374894865375527
42,220.10999999999999,0.0018912093873041688
43,223.18,0.0019830524784147704
44,226.79999999999998,0.0021542514262389975
45,229.95999999999998,0.0032637042757209197
46,234.23,0.005478905145115795
47,239.88329199999998,0.006896031369472274
48,240.24,0.0069825659853563395
49,245.84,0.0068858071521720335
50,252.14000000000001,0.00756617346483969
51,256.83,0.006651365942047835
52,259.81,0.007707526562960472
53,264.03,0.008244255442239442
54,268.94,0.008469864965286773
55,273.94,0.008644463007086501
56,275.42287,0.008702281116549356
57,279.03000000000003,0.008870146603308834
58,284.21999999999997,0.009112719273839397
59,290.17,0.008973585406721257
60,296.24,0.009387862138921742
61,301.06,0.009511714044886542
62,308.07,0.009907913638416262
63,316.227766,0.010361538230651975
64,318.15999999999997,0.010455938710206164
65,327.83,0.010759838623965517
66,337.79,0.010950400820557366
67,348.05999999999995,0.01109403821603912
68,356.98,0.01127021877764547
69,363.078055,0.01140652998197389
70,366.14,0.011490534466518593
71,374.67,0.011614165758756649
72,385.17,0.011403945391640536
73,395.05,0.011870633922392236
74,405.18,0.012081879349164977
75,413.67,0.012100521538039666
76,416.86938299999997,0.012077690237831694
77,422.33,0.012033856682360922
78,430.18,0.012017748401505369
79,441.21,0.012140480269296868
80,451.49,0.012046499743539532
81,459.88,0.01197725318603914
82,469.51,0.011936963919206149
83,478.630092,0.01197112806774948
84,480.45,0.011972323970124661
85,490.51,0.01171744498744453
86,499.63,0.011779843245690777
87,506.58000000000004,0.011585344177139396
88,512.45,0.011996157683269379
89,519.5799999999999,0.011930003185604436
90,530.46,0.01172585724807364
91,540.3199999999999,0.011346688742186358
92,549.5408739999999,0.011284361571490445
93,550.36,0.01127979303271884
94,560.59,0.011452648237075279
95,569.7,0.011602722246037853
96,580.3,0.011364226416729763
97,589.7199999999999,0.01146172361370314
98,600.6899999999999,0.011125156750730525
99,610.45,0.01011791402487704
100,620.37,0.011366732041222675
101,630.45,0.011208332799767438
102,630.957344,0.011209310304047261
103,640.69,0.01124109602281106
104,649.6,0.011248046146592626
105,658.6400000000001,0.011154076216063487
106,664.74,0.01133555597533033
107,675.5400000000001,0.011267729155671624
108,684.93,0.010877588309690581
109,694.4599999999999,0.011564545097528777
110,705.75,0.011065694996237408
111,715.5699999999999,0.011684884739844028
112,724.43596,0.011691790110226944
113,725.5200000000001,0.01169227519741931
114,735.61,0.011722828872642149
115,745.85,0.011992838162461958
116,754.48,0.012132083188940957
117,764.98,0.011605186210728846
118,775.62,0.012527710472807242
119,784.6,0.012588278600012505
120,795.52,0.012849015342671908
121,804.73,0.013056334078925858
122,815.92,0.013149558927859809
123,825.37,0.01366431264746891
124,831.763771,0.012536575731677144
125,834.93,0.011973710102152084
126,844.5999999999999,0.013746938604693589
127,854.38,0.013799482209125427
128,864.27,0.014295270915447607
129,874.2800000000001,0.014809855187468335
130,884.4000000000001,0.015517954561379402
131,894.64,0.01593443950098902
132,905.0,0.015675020006297186
133,915.48,0.0227746360773039
134,923.95,0.1324144689228599
135,934.6500000000001,0.2867028651976473
136,945.47,0.5574978470381332
137,954.22,0.8225792028703192
138,954.992586,0.8255662694272116
139,965.27,0.8653103170246341
140,974.2,0.12789857102463614
141,985.48,0.6385740708141123
142,994.6,0.7450461961758165
143,1006.1199999999999,1.2137400597906005
144,1015.43,1.208172656514007
145,1024.82,0.5275301411791825
146,1034.31,0.7729869107715699
147,1043.8799999999999,1.6600053683057265
148,1055.96,1.633407547512896
149,1065.73,1.1998610749014762
150,1075.6000000000001,1.4965965872172675
151,1085.55,1.1018620874748286
152,1095.5900000000001,1.6037165741668802
153,1096.4782,1.5986238308426433
154,1105.73,1.5455730757445867
155,1115.96,1.445788249731983
156,1126.29,1.2767663765442807
157,1134.09,1.7541996968865767
158,1144.5900000000001,1.5635087435012065
159,1155.18,1.7103387476582474
160,1165.87,1.7623817046401893
161,1173.95,1.140537892892209
162,1184.81,1.710339769676483
163,1195.77,1.0474145992856585
164,1204.06,0.6904948884699708
165,1215.2,0.5384934331639684
166,1223.63,1.1484404563031423
167,1234.95,1.8752561160819623
168,1246.3799999999999,2.0847967239681733
169,1255.02,1.94570664803964
170,1258.92541,1.793780316579303
171,1263.72,1.607265966542711
172,1275.4099999999999,2.2339313588046306
173,1284.25,2.3718216554338323
174,1296.13,1.7300850540712658
175,1305.12,1.6946303557337685
176,1314.16,2.2859836590740383
177,1326.32,2.1680460671069675
178,1335.52,1.8283753758160912
179,1344.7700000000002,2.3392706862029824
180,1354.1000000000001,2.2546309992743
181,1363.48,1.9501263140233853
182,1376.1000000000001,2.0896597374917705
183,1385.6399999999999,2.11387005760971
184,1395.24,1.8283963797409697
185,1404.91,1.901443704221103
186,1414.65,1.9189420310501104
187,1424.4599999999998,2.0140443602279916
188,1434.3300000000002,1.981949691419193
189,1440.95,2.123623913555541
190,1445.43977,2.1604023696218237
191,1447.6,2.1780981250491034
192,1454.28,2.0944213131756197
193,1464.3600000000001,1.8926325970551523
194,1474.51,1.8970388829060711
195,1484.74,1.959266171010002
196,1495.03,2.009466460803692
197,1505.39,1.875275752568767
198,1512.3400000000001,1.6184009482991992
199,1515.83,1.7745100465868549
200,1526.33,1.6908293422947016
201,1533.38,1.4291875408413988
202,1544.0100000000002,1.6447208402103903
203,1554.71,1.5385051415507678
204,1565.49,1.552655445144157
205,1576.34,1.667542750708932
206,1583.6100000000001,1.7827619554514127
207,1594.59,1.8200312646773324
208,1605.64,1.790967575874638
209,1616.77,1.8075538893249554
210,1624.2400000000002,1.6791060996999667
211,1635.5,1.8159014168114291
212,1646.83,1.849560735894277
213,1654.43,1.675319949930433
214,1659.58691,1.7613901369822245
215,1665.8999999999999,1.866758393554295
216,1673.5900000000001,1.6036429751302594
217,1677.45,1.8710147690032404
218,1685.19,1.9910753608625333
219,1696.8700000000001,1.8495617630481334
220,1704.7,1.758265373417418
221,1716.52,1.6409378043963387
222,1724.4399999999998,1.6371374332756152
223,1736.3999999999999,1.7704368930478565
224,1744.41,1.7261535404371249
225,1756.5,1.8752910269460208
226,1764.6100000000001,1.6791486949019467
227,1776.8400000000001,1.734234210204163
228,1785.04,1.770460896670081
229,1793.28,1.932383591362662
230,1805.72,1.914542149854859
231,1814.0500000000002,1.7342358630574315
232,1826.62,1.7827964482862837
233,1835.06,1.6946631841121793
234,1843.53,1.5313899261080723
235,1856.3,1.5348955524702395
236,1864.8700000000001,1.5962293150327902
237,1873.4799999999998,1.766367085822004
238,1886.47,1.6073367574308175
239,1895.1699999999998,1.542053546730023
240,1903.92,1.6409663463125572
241,1905.46072,1.632760344926557
242,1917.12,1.570656572236205
243,1925.9699999999998,1.5455532260436455
244,1934.86,1.5852578692468262
245,1943.79,1.671390501845747
246,1952.76,1.559846123840407
247,1966.3,1.7421475342983448
248,1975.37,1.7910081297823548
249,1984.4899999999998,1.6869117120110395
250,1993.6499999999999,1.6296842836354641
251,2002.85,1.6831028446556286
252,2016.74,1.60729916232629
253,2026.0500000000002,1.694647694184739
254,2035.4,1.603645215438928
255,2044.79,1.6868967260888568
256,2054.23,1.6036502234834602
257,2063.71,1.5998377102738037
258,2073.2400000000002,1.7341991838088218
259,2078.02,1.6830699165997332
260,2082.81,1.7745286467395798
261,2097.25,1.663730818601664
262,2106.93,1.6599252523707066
263,2116.65,1.686872675535489
264,2126.42,1.7025420854449462
265,2136.2400000000002,1.5562934820990784
266,2146.1,1.6332998681489503
267,2156.0,1.7025442435945621
268,2165.9500000000003,1.6296526057848486
269,2175.9500000000003,1.61472495471981
270,2186.0,1.607251290399446
271,2187.7616199999998,1.6211484164073018
272,2196.09,1.6868535837308225
273,2206.2200000000003,1.6296347248829117
274,2216.41,1.5138408787170468
275,2226.64,1.4692160410058792
276,2236.91,1.618234211749409
277,2247.2400000000002,1.5342373951749846
278,2252.42,1.4282974900582839
279,2262.82,1.4643646882795798
280,2273.26,1.522219894955573
281,2283.75,1.5970901121999377
282,2294.29,1.486467340012674
283,2304.88,1.5030805783937822
284,2315.52,1.4022238273432617
285,2326.21,1.0439130868611128
286,2336.9500000000003,1.2487653569473358
287,2342.34,1.1814024962177958
288,2353.15,1.3434397810997392
289,2364.01,1.1750410765500539
290,2374.92,1.23559938256874
291,2385.88,1.105890699155798
292,2396.9,1.206504028424902
293,2402.42,1.1493341951731282
294,2413.51,1.1974695392379522
295,2424.65,1.330710893871148
296,2435.84,1.2820592590727156
297,2447.09,1.382675636956329
298,2452.73,1.372873829068647
299,2464.05,1.3379862217479805
300,2475.42,1.2713676249956858
301,2486.85,1.2650090409254369
302,2492.58,1.2106032520608239
303,2504.09,1.4054186848999697
304,2511.88643,1.2364794573905795
305,2515.64,1.1551430257514623
306,2527.26,1.123180075180137
307,2533.08,1.178558599076427
308,2544.77,1.1645746427787682
309,2556.52,1.342666681572824
310,2562.41,1.2499001997427805
311,2574.24,1.3667232319924554
312,2586.12,1.322786260151892
313,2592.09,1.2834917717774676
314,2604.05,1.2167667933925237
315,2616.0699999999997,1.185800810099294
316,2622.1,1.2939173168165838
317,2634.2,1.4511313269789732
318,2646.3599999999997,1.6730623322330769
319,2652.46,1.8467008332240336
320,2664.71,1.4935138311157088
321,2677.01,1.6143148249171457
322,2683.18,1.6516003201817693
323,2695.5600000000004,1.4952413074388253
324,2708.0,1.6124932897875959
325,2714.2500000000005,1.4302367785078383
326,2726.77,1.377864754312228
327,2733.06,1.50003023976028
328,2745.68,1.1692562073841934
329,2752.0,1.2497026903781026
330,2764.71,1.3601596506395874
331,2777.4700000000003,1.4433856068108346
332,2783.87,1.2510850832603628
333,2796.72,0.9185478320691812
334,2803.1699999999996,1.0045835044284714
335,2816.11,1.3955794458748614
336,2822.6,1.605629914961961
337,2835.63,1.5538928490459225
338,2842.1600000000003,1.4432013148608318
339,2855.28,1.265094241582365
340,2861.8700000000003,1.6444277024889886
341,2875.07,1.7570476226661405
342,2881.7,1.6814140803005735
343,2884.0315,1.6923260107757814
344,2895.0,1.743661871209827
345,2908.3700000000003,2.0569848488264033
346,2928.5299999999997,1.9051118150754813
347,2948.83,1.847429781090178
348,2969.27,1.9329527468704932
349,2989.85,1.9449827124164272
350,3010.57,1.9932256777279795
351,3031.44,2.0146796427884093
352,3052.45,2.036446607614457
353,3066.54,2.0924515840256435
354,3087.8,2.119825548433153
355,3109.2,2.192583512606282
356,3130.76,2.130935476511546
357,3152.46,2.1292674401824283
358,3167.01,2.192724415823504
359,3188.96,1.9935223790758487
360,3211.0699999999997,2.1490483420603286
361,3233.32,1.9226203048104271
362,3248.2499999999995,2.2732212798153246
363,3270.7599999999998,2.4789782421301436
364,3293.44,2.4316302041603564
365,3308.64,2.4024151787132326
366,3311.31121,2.400232199153465
367,3323.91,2.389935771037685
368,3331.5699999999997,2.456144525891995
369,3339.2500000000005,2.224073280106238
370,3346.9500000000003,2.6182070336804135
371,3354.67,2.392677786614522
372,3362.3999999999996,2.1417355392285975
373,3370.15,2.2368542912026057
374,3377.9199999999996,2.4462420425365465
375,3385.71,2.3299737932304203
376,3393.51,2.518981543604261
377,3401.3300000000004,2.754860293338034
378,3409.17,2.3986220424317404
379,3417.0299999999997,2.30593679088538
380,3424.91,2.6405755386989513
381,3432.81,2.7578912858724567
382,3440.72,2.555348032725928
383,3448.6499999999996,2.2351717789393324
384,3456.6000000000004,2.3998265245126698
385,3464.57,2.19301926944594
386,3472.56,2.5640230137391433
387,3480.56,2.237604757712313
388,3488.58,2.4246395010454154
389,3496.63,2.3470142434184176
390,3504.6899999999996,2.6143969854713855
391,3512.77,2.484585726884287
392,3520.86,2.667510467977155
393,3528.98,2.167606208109922
394,3537.1200000000003,2.617126947602622
395,3545.27,2.6958086867752886
396,3553.44,2.7705334253078884
397,3561.63,2.6449791632004205
398,3569.84,2.255715900452886
399,3575.2400000000002,1.6392547276347753
400,3577.92,2.620325641865787
401,3580.59,1.5201275564168326
402,3583.2599999999998,2.014519470967878
403,3585.94,2.3330153851988897
404,3588.6099999999997,2.138690299749935
405,3591.28,2.9243792143009806
406,3593.96,2.081467128531992
407,3596.63,1.6967700430830375
408,3599.3,2.809179957634083
409,3601.97,2.7983798721851283
410,3604.6499999999996,2.7222807864161402
411,3607.32,2.4253897009671856
412,3609.9900000000002,1.9611036155182309
413,3612.67,1.6961585297492427
414,3615.34,2.326929444300288
415,3618.0099999999998,2.3009113588513332
416,3620.68,2.5768112734023787
417,3623.36,2.2173611876333905
418,3626.03,2.531152102184436
419,3628.7000000000003,3.0152280167354815
420,3631.38,3.029064930966493
421,3634.0499999999997,2.3359078455175384
422,3636.72,2.843114760068584
423,3639.3900000000003,2.5583976746196293
424,3642.07,2.389319588850641
425,3644.7400000000002,3.0063975034016863
426,3647.41,2.4861114179527317
427,3650.0899999999997,2.837779332183744
428,3652.7599999999998,3.1579622467347894
429,3655.4300000000003,2.973834161285834
430,3658.1000000000004,2.4357420758368797
431,3660.78,2.5440819900678915
432,3663.45,2.782850904618937
433,3666.12,3.189316819169982
434,3668.7999999999997,3.428524733400994
435,3671.47,2.9709376479520397
436,3674.1400000000003,2.722742562503085
437,3676.81,3.25627747705413
438,3679.4900000000002,2.954957391285142
439,3682.16,2.3211483058361875
440,3684.83,2.335760220387233
441,3687.5099999999998,2.030791134618245
442,3690.1800000000003,2.30486304916929
443,3692.85,2.4947829637203354
444,3695.53,2.5162298779513472
445,3698.2,2.9064127925023926
446,3700.87,3.268443707053438
447,3703.54,3.1625336216044833
448,3706.2200000000003,2.8604535358354948
449,3708.8900000000003,2.6320414503865406
450,3711.56,2.8020263649375856
451,3714.24,2.8615162791685975
452,3716.91,2.597648193719643
453,3719.58,3.0703101082706885
454,3722.2499999999995,3.1678600228217335
455,3724.9300000000003,3.971031937052745
456,3727.6,4.812722851603791
457,3730.27,5.093647766154836
458,3732.95,4.971431680385848
459,3735.62,4.063404594936893
460,3738.2900000000004,3.8553865094879387
461,3740.96,3.155990424038984
462,3743.64,3.0021283382699964
463,3746.31,2.578627252821041
464,3748.98,2.3891721673720867
465,3751.66,2.7349060816030986
466,3754.3300000000004,2.8773469961541442
467,3757.0,3.214268910705189
468,3759.67,3.6599988252562343
469,3762.35,2.9266487394872467
470,3765.02,2.874152654038292
471,3767.69,3.302533568589337
472,3770.37,2.915385482820349
473,3773.0399999999995,3.1492843973713947
474,3775.71,3.08887531192244
475,3778.38,2.927725226473485
476,3781.06,2.898496140704497
477,3783.73,3.8144480552555424
478,3786.3999999999996,4.083958969806587
479,3789.0800000000004,3.6589158840375995
480,3791.75,3.194632798588645
481,3794.42,3.0261787131396902
482,3797.1,2.657902627370702
483,3799.77,3.3830245419217473
484,3801.8939600000003,3.203625425558366
485,3802.44,3.15750446011394
486,3805.1099999999997,2.861525392469293
487,3807.79,3.4012823245712944
488,3810.46,3.2885252569266474
489,3813.13,2.948417189282
490,3815.81,3.111386121384002
491,3818.48,3.129347053739355
492,3821.1499999999996,3.029067986094707
493,3823.82,3.03531091845006
494,3826.5,2.7301878505520616
495,3829.17,2.5487977829074144
496,3831.84,2.4380177152627667
497,3834.52,2.146591647364769
498,3837.1899999999996,2.135638579720121
499,3839.86,2.6658235120754736
500,3842.53,2.8406774444308267
501,3845.21,2.515467376532828
502,3847.88,2.434361308888181
503,3850.5499999999997,2.7483042412435332
504,3853.2300000000005,3.0893201733455355
505,3855.9,3.2961321057008877
506,3858.57,3.3201800380562405
507,3861.2400000000002,3.076093970411593
508,3863.92,3.322303902513595
509,3866.5899999999997,3.670943834868948
510,3869.2599999999998,3.4884897672243
511,3871.9399999999996,2.9753406993263023
512,3874.61,3.2151746316816547
513,3877.28,3.2087875640370074
514,3879.95,2.9861584963923598
515,3882.63,3.368260428494362
516,3885.2999999999997,3.151262360849714
517,3887.9700000000003,2.723652293205067
518,3890.65,3.3396492253070686
519,3893.32,3.5110041576624216
520,3895.99,3.5644230900177742
521,3898.67,3.784912022119776
522,3901.3399999999997,3.8263099544751284
523,3904.0099999999998,3.791314886830481
524,3906.6800000000003,3.8279948191858337
525,3909.36,3.7738057512878354
526,3912.03,4.369123683643188
527,3914.7,3.971342615998541
528,3917.3799999999997,3.8914355481005427
529,3920.0499999999997,4.040117480455895
530,3922.7200000000003,3.5542254128112476
531,3925.3900000000003,3.5601643451666005
532,3928.07,3.3810402772686023
533,3930.74,2.832603209623955
534,3933.41,2.8195201419793072
535,3936.0899999999997,2.6265510740813096
536,3938.76,2.3731830064366624
537,3941.4300000000003,2.8082579387920146
538,3944.1,3.4114878711473673
539,3946.7799999999997,3.808806803249369
540,3949.45,3.830573735604722
541,3952.12,4.1054086679600745
542,3954.8,3.9866976000620764
543,3957.4700000000003,3.9720945324174286
544,3960.14,4.101450464772782
545,3962.81,3.357009397128134
546,3965.49,2.5891183292301356
547,3968.16,2.6002302615854886
548,3970.8300000000004,2.438166193940841
549,3973.51,2.625334126042843
550,3976.1800000000003,2.985538058398195
551,3978.85,3.0132379907535483
552,3981.52,3.655426923108901
553,3984.2,3.8263078552109024
554,3986.8700000000003,3.5355037875662556
555,3989.54,3.8938847199216076
556,3992.2200000000003,3.9483496520236097
557,3994.89,4.303838584378963
558,3997.56,4.456781516734314
559,4000.24,4.6080284488363175
560,4002.91,4.508512381191669
561,4005.5800000000004,4.534691313547022
562,4008.25,4.846051245902374
563,4010.93,4.7856211780043765
564,4013.6,4.881650110359729
565,4016.27,4.709394042715082
566,4018.95,4.465134974817084
567,4021.6200000000003,4.743775907172436
568,4024.29,4.842696839527789
569,4026.96,4.8226167718831405
570,4029.64,4.509878703985144
571,4032.31,4.842693636340496
572,4034.98,4.767982568695849
573,4037.6600000000003,4.50987550079785
574,4040.33,4.699796433153202
575,4043.0,4.7462173655085556
576,4045.67,4.444763297863908
577,4048.35,4.45266022996591
578,4051.02,4.697518162321263
579,4053.6899999999996,4.565588094676615
580,4056.3700000000003,4.513832026778617
581,4059.04,4.48888095913397
582,4061.71,4.656737891489323
583,4064.38,4.498177823844674
584,4067.06,4.754728755946677
585,4069.7299999999996,4.618081688302029
586,4072.4,4.8090696206573815
587,4075.08,4.663877552759383
588,4077.75,4.944800485114736
589,4080.42,4.805262417470089
590,4083.0899999999997,5.045555349825442
