,lambda (Angstroms),Total Flux (erg/s/cm^2/Angstrom)
0,100.07000000000001,28.421893052005487
1,101.93,28.342825931915897
2,104.07,28.2518562326053
3,104.712855,28.2245289782674
4,106.0,27.937116389640973
5,107.97,27.49722593681862
6,109.98,27.048403712986065
7,114.11,26.126196834697048
8,118.11999999999999,25.230785318398166
9,120.22644299999999,24.76042807849536
10,120.87,24.639948402619414
11,125.12,23.844309762683814
12,126.86,23.518565959801517
13,128.03,23.299531330200544
14,131.01,22.74164826163971
15,131.92000000000002,22.571288078401846
16,134.06,22.170660653444795
17,136.87,21.644603291787217
18,138.038426,21.425863360131427
19,140.06,21.155348545191647
20,142.98999999999998,20.76327488765775
21,147.0,20.22668332854008
22,151.12,19.675370565359362
23,154.99,19.157511523833847
24,158.489319,18.689254829913835
25,158.97000000000003,18.640626498144293
26,161.92000000000002,18.34218839983009
27,166.08,17.921340261205014
28,169.95,17.529830274589173
29,173.11,17.21014778358349
30,177.14000000000001,16.802451670030138
31,180.02,16.51109583121509
32,181.970086,16.31381499565103
33,182.1,16.303788332889766
34,185.91,16.009735754167735
35,191.12,15.607632394235221
36,193.78,15.4023364976343
37,197.84,15.088989698132893
38,201.98000000000002,14.769468921812887
39,204.79000000000002,14.552596521078343
40,208.929613,14.233104766390145
41,210.04,14.168675455801111
42,215.93,13.826917353093213
43,219.94,13.59424263786619
44,223.0,13.416689948767212
45,227.14999999999998,13.175892625823636
46,229.77999999999997,13.023325043026935
47,234.04999999999998,12.775636090462024
48,239.88329199999998,12.437213893900324
49,240.06,12.429314121197924
50,246.21,12.154324217626813
51,251.95,11.897688868787112
52,257.21999999999997,11.662011608619995
53,260.2,11.528806078674643
54,263.82,11.366961094690021
55,268.73,11.147424875869994
56,273.72,10.92431049189506
57,275.42287,10.848171307561563
58,278.81,10.731944831603913
59,284.0,10.55385455245152
60,289.94,10.350013472447623
61,296.01,10.141732744709467
62,300.82,9.976673365341833
63,307.83000000000004,9.736135555509792
64,316.227766,9.44797851425812
65,317.92,9.404609739506455
66,328.33,9.137809938073199
67,338.31,8.882028078953612
68,347.78999999999996,8.639060060240618
69,356.71000000000004,8.410444763771007
70,363.078055,8.247235384116339
71,365.86,8.19384069183544
72,375.24,8.013802975448096
73,384.87,7.828951432967592
74,394.74,7.639521498081656
75,404.87,7.445088200714832
76,414.3,7.264086544288857
77,416.86938299999997,7.2147683349475225
78,422.0,7.139563272346161
79,429.84000000000003,7.024643804762966
80,440.87,6.862970359512758
81,451.14,6.712430972611431
82,459.53000000000003,6.58944811069944
83,470.23,6.43260694686651
84,478.630092,6.309479316489428
85,480.08000000000004,6.293134298079799
86,490.13,6.179833926094861
87,500.39,6.064175362668445
88,506.19,5.998863427122907
89,512.05,5.93330480366552
90,520.37,5.839545875622265
91,530.0400000000001,5.730580249812377
92,539.9,5.619393422664965
93,549.5408739999999,5.511040298125712
94,549.93,5.50770728974676
95,560.1600000000001,5.419973260367706
96,570.5699999999999,5.330658213363217
97,579.84,5.250875344653166
98,590.62,5.158564118307497
99,600.22,5.076103073617477
100,609.97,4.992643461572927
101,619.88,4.907832027083541
102,629.9599999999999,4.821417412059021
103,630.957344,4.812849028006948
104,640.19,4.749986143942998
105,650.6,4.679505230919934
106,658.13,4.62845341902717
107,665.75,4.576796812661584
108,675.0100000000001,4.5137973215690215
109,684.4,4.449812902571273
110,695.52,4.375262434373726
111,705.2,4.309100167741328
112,716.66,4.232143850868676
113,724.43596,4.179405994467021
114,726.6300000000001,4.1683804949003616
115,735.04,4.126155199419106
116,745.27,4.075400661430609
117,755.63,4.023582915620168
118,764.3800000000001,3.9799550816045914
119,775.02,3.9270335481776524
120,785.8,3.8734056169424633
121,794.9000000000001,3.827945719406264
122,804.0999999999999,3.7820095220070313
123,815.2900000000001,3.7259378243333967
124,824.73,3.679524479262879
125,831.763771,3.642449750785664
126,834.28,3.6324024351091886
127,845.88,3.5915730405390516
128,855.6800000000001,3.5551843442642808
129,865.5899999999999,3.518983676204794
130,875.61,3.4824651063605887
131,885.75,3.445792587296693
132,896.01,3.408185269013106
133,904.3,3.3771904954194483
134,914.77,3.3502276510014015
135,925.3599999999999,3.522414247363665
136,936.0799999999999,3.798922737071262
137,944.74,4.336005278383556
138,954.992586,4.735902790213825
139,955.68,4.762771233358905
140,964.52,5.032127100318302
141,975.69,3.432688860039622
142,984.72,4.854924230700636
143,996.12,4.829411452797595
144,1005.34,5.4356929271602255
145,1014.64,5.247712318870904
146,1024.03,3.8400293175981366
147,1035.8799999999999,4.556951374777872
148,1045.47,5.888456466875226
149,1055.1399999999999,5.789969476320631
150,1064.91,5.226551382451095
151,1074.76,5.6022022059296095
152,1084.7,5.047560936424678
153,1094.74,5.643405563604809
154,1096.4782,5.607063719709515
155,1104.8700000000001,5.437239373343941
156,1115.09,5.3230014588818575
157,1125.41,5.0163915217733726
158,1135.82,5.538572864283129
159,1143.7,5.255330679746805
160,1154.28,5.360046883757682
161,1164.96,5.415640065122156
162,1175.74,4.545799223840232
163,1183.8899999999999,5.30383587815863
164,1194.8400000000001,4.558268898377825
165,1205.9,3.9398915936859806
166,1214.26,3.230158900446937
167,1225.49,4.3031284572562125
168,1233.99,5.1384785323122095
169,1245.41,5.305296346093325
170,1254.04,5.159494491709001
171,1258.92541,5.01782323383606
172,1265.64,4.828949749120445
173,1274.42,5.310828210640899
174,1286.21,5.352407476167794
175,1295.12,4.746637111947663
176,1304.1,4.764484533867217
177,1316.17,5.22809094395285
178,1325.2900000000002,5.049981938151772
179,1334.48,4.755762718490379
180,1343.73,5.095476886948716
181,1356.1599999999999,4.9973946257527295
182,1365.5600000000002,4.72061876451039
183,1375.03,4.765520689407736
184,1384.56,4.771542002424811
185,1394.16,4.342421101581571
186,1403.8200000000002,4.43890658885806
187,1413.5500000000002,4.5218228622742345
188,1426.63,4.5123304723753215
189,1436.52,4.509855114110775
190,1443.15,4.592041001340912
191,1445.43977,4.587091894281665
192,1446.48,4.585522140490969
193,1456.5,4.505776546490607
194,1466.6000000000001,4.317083324993236
195,1473.37,4.30685922305886
196,1483.58,4.291469138753101
197,1493.86,4.287995505387459
198,1504.22,4.125912244524809
199,1511.16,3.877374809159288
200,1518.14,3.982908060045263
201,1525.14,3.967003154056986
202,1535.7199999999998,3.681761167577562
203,1546.36,3.7634957104753806
204,1553.4999999999998,3.659790706367338
205,1564.2700000000002,3.716612229582516
206,1575.1100000000001,3.817333203737813
207,1586.03,3.8536785503961006
208,1593.3500000000001,3.874904134419788
209,1604.3899999999999,3.8206145398325626
210,1615.52,3.8038222393112013
211,1626.71,3.7031364681670844
212,1634.22,3.8025105618853754
213,1645.5500000000002,3.790805692621492
214,1653.1499999999999,3.6632390804056487
215,1659.58691,3.734005273148341
216,1664.61,3.791497490345815
217,1672.29,3.6350368710159877
218,1676.14,3.784850000648822
219,1683.88,3.8154150171054795
220,1695.5500000000002,3.688798677576953
221,1703.3799999999999,3.59710764771334
222,1715.19,3.4797094583532804
223,1723.1,3.4567509428716483
224,1735.05,3.548347903680055
225,1743.06,3.4797797811758993
226,1755.14,3.5629834528550246
227,1763.24,3.4193112840305977
228,1775.46,3.41607310587819
229,1783.6599999999999,3.436886330031239
230,1796.0200000000002,3.5094823020472976
231,1804.3100000000002,3.5007124798800753
232,1816.8200000000002,3.3147440413623483
233,1825.1999999999998,3.363528172874855
234,1833.6299999999999,3.2827945008760997
235,1846.34,3.119648848313325
236,1854.8600000000001,3.0932751299942978
237,1863.42,3.132503168866261
238,1876.34,3.247075741556187
239,1885.0,3.0658521734056263
240,1893.7,2.9594703624460568
241,1905.46072,3.0613907486075043
242,1906.83,3.073643522097467
243,1915.63,2.9765461485163067
244,1924.47,2.924204818691595
245,1933.3500000000001,2.9924875326233327
246,1946.7499999999998,3.038359191033838
247,1955.74,2.895863775295811
248,1964.7700000000002,3.0288224033142335
249,1973.8400000000001,3.0799700750891046
250,1982.95,2.962625790620426
251,1996.69,2.90553832096075
252,2005.9099999999999,2.9491369068223063
253,2015.17,2.899501536440312
254,2024.4699999999998,2.969524209814767
255,2033.8100000000002,2.843596926945671
256,2043.2,2.8778189487721373
257,2057.36,2.796964438555179
258,2066.86,2.81400133071188
259,2071.63,2.902683798668455
260,2076.4,2.7862122666250304
261,2085.9900000000002,2.8446905072337425
262,2095.61,2.7432295306597916
263,2105.29,2.771992119720515
264,2115.0,2.772620491598575
265,2124.77,2.785591429111309
266,2134.57,2.7052311494413797
267,2144.43,2.6817304354061244
268,2154.32,2.729915504188206
269,2164.27,2.686090138604962
270,2174.26,2.6626378167781666
271,2184.29,2.623587538707821
272,2187.7616199999998,2.6384498871552005
273,2194.38,2.6684405458844314
274,2204.51,2.6238336291070965
275,2214.68,2.5686177689268903
276,2224.9,2.515013729493093
277,2235.17,2.569334510805707
278,2245.49,2.5268411128647306
279,2255.86,2.470794535670164
280,2266.27,2.4915480150727256
281,2276.73,2.501519315221697
282,2287.2400000000002,2.515447436117078
283,2292.51,2.4399001427886917
284,2303.09,2.4422206127290473
285,2313.72,2.384401903415813
286,2324.4,2.128722014848988
287,2335.13,2.3001149470285736
288,2345.91,2.2689706999545693
289,2356.74,2.316926273626975
290,2367.62,2.24600766804579
291,2373.0699999999997,2.2597121294044795
292,2384.03,2.1941276370175506
293,2395.0299999999997,2.2366342012277505
294,2406.0899999999997,2.187028350333642
295,2417.19,2.194473556036661
296,2422.7599999999998,2.227083187186735
297,2433.95,2.1741342702332926
298,2445.1800000000003,2.2135494098769772
299,2456.4700000000003,2.192188134416355
300,2467.81,2.171057679702143
301,2473.5,2.1340184806436002
302,2484.91,2.1505403749743617
303,2496.38,2.068922854200815
304,2502.14,2.158353004187247
305,2511.88643,2.076075914117721
306,2513.69,2.061091318684034
307,2519.48,2.095273551096241
308,2525.29,2.0483519812024444
309,2536.9399999999996,2.044471137955848
310,2542.79,2.022031963450046
311,2554.5299999999997,2.068465009826437
312,2566.32,2.040590550437821
313,2572.2400000000002,2.07778006786101
314,2584.11,2.0647043992483827
315,2596.04,2.048642323717748
316,2602.02,2.010993434222928
317,2614.0299999999997,1.9952981494682822
318,2626.1,2.008831457795628
319,2632.1499999999996,2.0246192602297985
320,2644.3,2.075551359333133
321,2656.51,2.0809050515184597
322,2662.63,2.005530545881621
323,2674.92,2.0284710288429366
324,2687.27,2.021340104886244
325,2693.4599999999996,1.9745722911783956
326,2705.9,1.9821882568446907
327,2712.1299999999997,1.9422248385248366
328,2724.65,1.9265845949671205
329,2737.23,1.9540879444913966
330,2743.54,1.8563963169475317
331,2756.2,1.8629874572477967
332,2762.56,1.882866323938925
333,2775.3100000000004,1.9067093538621775
334,2788.12,1.8659339768674217
335,2794.55,1.7356285354875403
336,2807.44,1.7740629492687738
337,2813.9199999999996,1.8711290021238858
338,2826.9,1.8808503055281065
339,2833.4199999999996,1.8368637537712131
340,2846.5,1.8161210456454204
341,2853.06,1.7898208892765213
342,2866.23,1.839557070773716
343,2872.8399999999997,1.8317934086398102
344,2884.0315,1.8233534234166973
345,2886.1,1.8220305302359365
346,2892.75,1.8178063546986425
347,2912.7999999999997,1.8524202765749207
348,2932.99,1.8143186263346252
349,2953.33,1.7851406488265704
350,2966.96,1.7847893777629134
351,2987.52,1.7720587869288131
352,3008.23,1.7620138688269544
353,3029.08,1.7546433786085207
354,3050.08,1.7392045611223288
355,3071.2200000000003,1.729122171519562
356,3092.5099999999998,1.7137354546490373
357,3106.78,1.7052478539096105
358,3128.32,1.6821422582594878
359,3150.0,1.6695020904927906
360,3171.84,1.6593998403071508
361,3186.48,1.6158662989739199
362,3208.57,1.6257161700086826
363,3230.81,1.588521713775687
364,3253.2,1.6104989302749328
365,3268.22,1.6221476931967136
366,3290.8700000000003,1.6043822757651778
367,3311.31121,1.5907405404613866
368,3313.69,1.5893441874819807
369,3321.3199999999997,1.5907021768754201
370,3328.9800000000005,1.6147773117055308
371,3336.65,1.6111094950145322
372,3344.35,1.567493823760205
373,3352.0499999999997,1.571264152505878
374,3359.78,1.565191626688222
375,3367.53,1.564030197828347
376,3375.2900000000004,1.4894902174473628
377,3383.07,1.5114085340241594
378,3390.8700000000003,1.562993347558737
379,3398.6899999999996,1.5717092580510958
380,3406.52,1.5219852170223447
381,3414.38,1.539957321430265
382,3422.25,1.5731764743170764
383,3430.13,1.5522076756827778
384,3438.04,1.5534730224851507
385,3445.97,1.4809726662453047
386,3453.91,1.553558958484349
387,3461.8700000000003,1.4785488476811743
388,3469.85,1.4912212338357806
389,3477.85,1.460142516948168
390,3485.87,1.4864498970183364
391,3493.91,1.4782638740462855
392,3501.96,1.4839998995531254
393,3510.03,1.473497022017746
394,3518.1200000000003,1.4539666414401475
395,3526.23,1.4527278578203302
396,3534.3599999999997,1.479072971158294
397,3542.5099999999998,1.5134104814540383
398,3550.68,1.507362088707564
399,3558.8599999999997,1.48001474443998
400,3567.07,1.5000785456090673
401,3575.29,1.4095083952570453
402,3583.5299999999997,1.3887250418628043
403,3591.7900000000004,1.362050185426344
404,3600.07,1.4505309259476649
405,3608.3700000000003,1.4154100634267666
406,3616.69,1.4208004978636495
407,3625.03,1.4444184292583133
408,3633.38,1.4523450091318677
409,3641.76,1.4650626344420932
410,3650.1499999999996,1.4291647082312096
411,3650.23,1.2536914960623333
412,3652.91,1.267988488404983
413,3655.59,1.517425680747633
414,3658.2599999999998,1.4353436246113922
415,3660.9399999999996,1.219214316954042
416,3663.6200000000003,1.3660199092966914
417,3666.29,1.149607853160451
418,3668.97,0.9994508455031006
419,3671.65,1.0867928378457503
420,3674.3199999999997,1.1650959817095097
421,3677.0000000000005,1.4537594740521593
422,3679.6800000000003,1.389234266394809
423,3682.36,1.1056033587374587
424,3685.03,1.448208402601218
425,3687.71,1.4224803949438678
426,3690.39,1.4204804872865175
427,3693.0600000000004,1.5549403311502767
428,3695.7400000000002,1.4093187234929265
429,3698.42,1.4137024158355764
430,3701.09,1.3000053596993357
431,3703.77,1.5031462520419854
432,3706.45,1.559686244384635
433,3709.13,1.357689536727285
434,3711.8,1.257641780591044
435,3714.48,1.3328506729336937
436,3717.16,1.5848251652763437
437,3719.83,1.8605361091401027
438,3722.5099999999998,2.7594891014827523
439,3725.19,4.073434093825402
440,3727.86,4.508466037689161
441,3730.54,4.368548030031811
442,3733.22,2.591536022374461
443,3735.89,1.8309319662382202
444,3738.57,1.4662849585808702
445,3741.25,1.15958765092352
446,3743.93,1.4078396432661697
447,3746.6,1.347195987129929
448,3749.2799999999997,1.4665378794725787
449,3751.9599999999996,1.2338088718152285
450,3754.63,1.1604391156789875
451,3757.31,1.6359468080216373
452,3759.9900000000002,1.405078700364287
453,3762.66,1.4809427442280463
454,3765.3399999999997,1.4272817365706962
455,3768.0200000000004,1.618978728913346
456,3770.7000000000003,1.0299060212559956
457,3773.37,1.341557965119755
458,3776.05,1.4887226574624046
459,3778.73,1.6574496498050544
460,3781.3999999999996,1.6121385936688137
461,3784.0800000000004,1.4029846860114632
462,3786.76,1.956664578354113
463,3789.43,1.5404085222178725
464,3792.11,1.590689514560522
465,3794.79,1.624977506903172
466,3797.47,1.5495874992458218
467,3800.1400000000003,1.3747588431095807
468,3801.8939600000003,1.6423238653877004
469,3802.82,1.783642849247326
470,3805.5,1.6093855293905628
471,3808.17,1.7931895950556531
472,3810.85,1.6045932751988898
473,3813.53,1.4265299553421267
474,3816.2000000000003,1.367513221007217
475,3818.88,1.8472667011504538
476,3821.56,1.7344723812936904
477,3824.23,1.5535764469587807
478,3826.91,1.3914244271020175
479,3829.59,1.4729608072452545
480,3832.27,1.3338752873884911
481,3834.94,1.5797625530535817
482,3837.62,1.0404055331968185
483,3840.2999999999997,1.7898369133400553
484,3842.97,1.4832709790051455
485,3845.65,1.6150066591483823
486,3848.33,1.3722406392916189
487,3851.0,1.5769184049567093
488,3853.68,1.4923460850999462
489,3856.3599999999997,1.761513765243183
490,3859.0400000000004,1.6921904453864196
491,3861.71,1.7798155110515101
492,3864.39,1.693754191194747
493,3867.07,1.8357608713379836
494,3869.74,1.578691937003074
495,3872.4199999999996,1.8518436171463108
496,3875.1000000000004,1.2979270972895474
497,3877.77,1.6237673629546379
498,3880.45,1.5530930430978747
499,3883.13,1.4499907232411116
500,3885.81,1.589489403384348
501,3888.4800000000005,1.6304994690494383
502,3891.1600000000003,1.4752261491926753
503,3893.84,1.434015829335912
504,3896.51,1.6870728950010023
505,3899.19,1.4753415751442391
506,3901.87,1.6851822552874758
507,3904.5400000000004,1.9054403209525663
508,3907.2200000000003,1.866324001095803
509,3909.9,1.3621383812390397
510,3912.58,1.6882603613822764
511,3915.25,1.546672427047367
512,3917.93,1.3926404071906038
513,3920.61,1.7882217873338404
514,3923.28,1.7065678529989308
515,3925.96,1.6691615331421676
516,3928.64,1.6084002132854045
517,3931.31,1.5706432789504947
518,3933.99,1.6754809590937316
519,3936.67,1.6290306392369684
520,3939.34,1.7024687049020586
521,3942.02,1.7129593850452953
522,3944.7,1.7417870651885323
523,3947.3799999999997,1.472839745331769
524,3950.0499999999997,1.6877748109968593
525,3952.73,1.9394324911400962
526,3955.41,1.6913571712833328
527,3958.08,1.7830362369484232
528,3960.7599999999998,1.51768591709166
529,3963.4399999999996,1.4598615972348967
530,3966.11,1.344716062899987
531,3968.79,1.4978923430432238
532,3971.47,1.4866410231864606
533,3974.15,1.6955297033296974
534,3976.8199999999997,1.5846187689947877
535,3979.5000000000005,1.5357834491380244
536,3982.1800000000003,1.6633281292812614
537,3984.85,1.7841521949463517
538,3987.53,1.7480418750895885
539,3990.21,1.8177355552328252
540,3992.8799999999997,1.8257806208979157
541,3995.5600000000004,1.8480183010411524
542,3998.2400000000002,1.6279179811843891
543,4000.92,1.5413336613276258
544,4003.59,1.7226147269927161
545,4006.27,1.762927407135953
546,4008.95,1.7940440872791898
547,4011.6200000000003,1.9540241529442801
548,4014.3,1.9754348330875169
549,4016.98,1.8759305132307538
550,4019.65,1.6495795788958438
551,4022.33,1.6880582590390807
552,4025.0099999999998,1.7586199391823176
553,4027.6800000000003,1.6208380048474078
554,4030.36,1.6328036849906447
555,4033.04,1.6962243651338815
556,4035.72,1.7406180452771183
557,4038.39,1.6878611109422086
558,4041.07,1.6602577910854452
559,4043.75,1.681751471228682
560,4046.42,1.5999725368937723
561,4049.1,1.6378172170370093
562,4051.7799999999997,1.6599998971802459
563,4054.45,1.7322799628453365
564,4057.13,1.7171816429885731
565,4059.81,1.5692713231318098
566,4062.4900000000002,1.7285400032750466
567,4065.16,1.7395760689401372
568,4067.8399999999997,1.6770917490833739
569,4070.5200000000004,1.6138074292266105
570,4073.19,1.652969494891701
571,4075.87,1.6863611750349379
572,4078.55,1.6896968551781744
573,4081.22,1.734898920843265
574,4083.8999999999996,1.7290376009865016
575,4086.5800000000004,1.6996282811297383
576,4089.26,1.5633139612729752
577,4091.93,1.5760460269380656
578,4094.61,1.5957607070813022
579,4097.29,1.514525387224539
580,4099.96,1.6280834528896295
581,4102.64,1.650046133032866
582,4105.32,1.6935848131761029
583,4107.990000000001,1.5894838788411931
584,4110.67,1.51212255898443
585,4113.35,1.5796652391276669
586,4116.02,1.671343304792757
587,4118.7,1.559279984935994
588,4121.38,1.6917606650792307
589,4124.06,1.6615793452224674
590,4126.7300000000005,1.621492410887558
591,4129.41,1.6628120910307946
592,4132.09,1.5737597711740312
593,4134.76,1.7013398368391217
594,4137.44,1.7318085169823585
595,4140.12,1.6610921971255954
596,4142.79,1.7676472627906856
597,4145.47,1.6700319429339223
598,4148.15,1.7227956230771593
599,4150.83,1.6285033032203962
600,4153.5,1.6580283688854864
601,4156.18,1.7187190490287232
