,lambda (Angstroms),Total Flux (erg/s/cm^2/Angstrom)
0,100.09,62.80713378152115
1,101.94999999999999,62.632404811173814
2,104.09,62.43137255496769
3,104.712855,62.372861365277046
4,106.02000000000001,61.7278445296202
5,107.99,60.75573878294249
6,110.0,59.7638948485229
7,114.13,57.7259269633725
8,117.87,55.880406408801235
9,120.22644299999999,54.717608550198946
10,120.89000000000001,54.44308841272687
11,125.14000000000001,52.68482109820014
12,126.88,51.96496577418422
13,128.05,51.48092512527679
14,131.04,50.24393235588802
15,131.95,49.867456295863455
16,134.09,48.98211698941085
17,136.9,47.819592012768474
18,138.038426,47.34861384219051
19,140.09,46.74193650839319
20,143.02,45.87549709385574
21,147.03,44.689687528688985
22,151.15,43.471349511048935
23,155.02,42.32693977419992
24,158.489319,41.301016664581226
25,159.0,41.18684650561263
26,161.95999999999998,40.525095491340096
27,166.11,39.59730268757713
28,169.98,38.73210795612539
29,173.14,38.02564404309803
30,177.17,37.12467899384386
31,180.05,36.48081315617395
32,181.970086,36.051550038712264
33,182.14000000000001,36.0225697808342
34,185.95000000000002,35.37274233069134
35,191.16,34.484133144667446
36,193.82,34.03044785402945
37,197.88,33.33798082569093
38,202.02,32.631869136716155
39,204.83,32.15260010365489
40,208.929613,31.45337674822495
41,210.09,31.304582376261564
42,215.97000000000003,30.55060047195117
43,219.99,30.03512304562908
44,223.04999999999998,29.642744700725544
45,227.19,29.11187991206106
46,229.82,28.774640373820045
47,234.1,28.225824860267867
48,239.88329199999998,27.484244794698597
49,240.1,27.462831099094952
50,246.26,26.854138256546655
51,252.0,26.286947885514316
52,257.27,25.766198551934064
53,260.25,25.471734595786685
54,263.87,25.114029400602956
55,268.78,24.628854193359093
56,273.78,24.134785716596383
57,275.42287,23.97244766587888
58,278.87,23.711034314729126
59,284.05,23.318208749670948
60,290.0,22.86698969399223
61,296.07,22.406671082100598
62,300.88,22.041904236074576
63,307.89,21.510300809478444
64,316.227766,20.8780063053137
65,317.98,20.77875755898537
66,327.64,20.231602779145682
67,338.37,19.623841568765947
68,347.85,19.086882104721777
69,356.78000000000003,18.58107562883726
70,363.078055,18.22434603188512
71,365.93,18.103371596460775
72,375.31,17.705488095512568
73,384.94,17.296999271761294
74,394.82000000000005,16.877907968536952
75,404.94,16.448635673646073
76,414.38000000000005,16.048207173928727
77,416.86938299999997,15.942611763552549
78,422.08000000000004,15.773823078396358
79,429.93,15.519536533155255
80,440.96000000000004,15.162240367924662
81,451.23,14.82956240802602
82,459.62,14.55778339045274
83,470.32,14.211176753331808
84,478.630092,13.94198748310582
85,480.16999999999996,13.90362350618322
86,490.22999999999996,13.652995859077073
87,500.49,13.397387898819211
88,506.29,13.252914811389541
89,512.15,13.107120324779363
90,520.47,12.899864185728111
91,530.15,12.65873311802522
92,540.0,12.41333312254087
93,549.5408739999999,12.175814745323564
94,550.04,12.16633805422101
95,560.27,11.972050178507663
96,569.37,11.799225798845153
97,579.96,11.597944565597023
98,589.38,11.419157409036933
99,600.3399999999999,11.210936809644727
100,610.09,11.025912189577749
101,620.01,10.837624748952686
102,630.0799999999999,10.64644564518813
103,630.957344,10.629776957716635
104,640.32,10.488775042976007
105,650.72,10.332443375558746
106,658.26,10.219064203406235
107,664.3499999999999,10.127503852821514
108,675.1400000000001,9.9650257939136
109,684.53,9.82359178648494
110,695.6600000000001,9.65686816617493
111,705.34,9.510908960432712
112,716.8,9.339142132938305
113,724.43596,9.224318057873278
114,726.7700000000001,9.198282768707891
115,735.18,9.104512853833391
116,745.41,8.990937369347522
117,755.7800000000001,8.875503789737703
118,764.53,8.778188567990746
119,775.1700000000001,8.659975678570449
120,784.14,8.560447740200143
121,795.0500000000001,8.438941840969369
122,804.26,8.33650032210086
123,815.45,8.211832825622182
124,824.8900000000001,8.107465862692896
125,831.763771,8.029177936266825
126,834.44,8.006255388604806
127,844.1,7.928389252803072
128,855.8499999999999,7.83071232275438
129,865.76,7.749069355334586
130,875.7800000000001,7.666550922322849
131,885.9200000000001,7.583407399574444
132,894.12,7.516022700902165
133,904.47,7.429710691114591
134,914.95,7.352615377445629
135,925.54,7.449688198184722
136,934.1099999999999,7.634761016157717
137,944.9200000000001,7.936438745712917
138,954.992586,8.112402408940701
139,955.86,8.127712380486935
140,964.71,8.183311608481244
141,975.88,7.026803017712475
142,984.91,7.7468889537337855
143,994.0200000000001,7.7465496822115405
144,1005.5300000000001,8.146334184382667
145,1014.84,8.070183144001536
146,1024.23,7.2227952960768524
147,1036.0900000000001,7.522732702744928
148,1045.6699999999998,8.337070374404304
149,1055.3500000000001,8.168493161634233
150,1065.11,7.688224641320611
151,1074.97,7.904784236577543
152,1084.91,7.486246524290923
153,1094.95,7.87706092757486
154,1096.4782,7.844763689380919
155,1105.09,7.675526606417635
156,1115.31,7.5510729785637345
157,1125.6299999999999,7.2291047066016745
158,1136.05,7.632624790531455
159,1143.9199999999998,7.420007799219302
160,1154.5,7.443588452576028
161,1165.19,7.404394497413777
162,1175.97,6.588033862554183
163,1184.1200000000001,7.254457867739184
164,1195.08,6.801204873484904
165,1206.1299999999999,6.26465619953328
166,1214.49,5.939246252091145
167,1225.73,6.588387954334018
168,1234.23,7.04775020514046
169,1245.6499999999999,7.071935847988646
170,1254.2800000000002,6.928296561454481
171,1258.92541,6.8489830153945395
172,1265.89,6.74346341704964
173,1274.6599999999999,7.029759354373921
174,1286.46,7.028372734126085
175,1295.3799999999999,6.497796604243825
176,1304.36,6.527389047478946
177,1316.42,6.885344244073108
178,1325.55,6.7119116201016915
179,1334.74,6.4862655692476565
180,1343.99,6.709620091511006
181,1356.42,6.607052988995703
182,1365.8300000000002,6.352358706238743
183,1375.2900000000002,6.3467167344129365
184,1384.83,6.306032860076977
185,1394.43,5.811452558858399
186,1404.0900000000001,5.875241830757205
187,1413.8300000000002,6.023240200145857
188,1423.6299999999999,5.990443142651895
189,1433.49,5.995473658275313
190,1443.43,6.031318271388577
191,1445.43977,6.0217234652561205
192,1446.76,6.01732385678482
193,1453.44,5.940772056273565
194,1463.51,5.748112247718425
195,1473.6499999999999,5.7553071882597235
196,1483.87,5.735071556339809
197,1494.1599999999999,5.710011673516334
198,1504.51,5.536475861346949
199,1511.46,5.3011543787791
200,1518.43,5.376826253095949
201,1525.44,5.369746841182192
202,1536.02,5.083242633186821
203,1546.66,5.09434249584554
204,1553.8,5.027540903682312
205,1564.5700000000002,5.09000158609156
206,1575.4199999999998,5.1747096960395975
207,1586.34,5.195850555084073
208,1593.66,5.192354174883116
209,1604.71,5.16405985367812
210,1615.8300000000002,5.127026281569563
211,1623.29,5.039625399561485
212,1634.54,5.129374647203458
213,1645.8700000000001,5.113605322384219
214,1653.47,5.009993938569018
215,1659.58691,5.052980173943377
216,1664.93,5.09586279195048
217,1672.61,4.942286285201836
218,1676.4699999999998,5.114777856028688
219,1684.2099999999998,5.12004732188357
220,1695.8799999999999,4.9832109932694175
221,1703.71,4.912433418029588
222,1715.5200000000002,4.784077358823662
223,1723.44,4.761515742489123
224,1735.3799999999999,4.8428672905908385
225,1743.3899999999999,4.781312633161588
226,1755.48,4.835290112772119
227,1763.58,4.725768414248158
228,1775.81,4.668057163266917
229,1784.0,4.699269423648245
230,1796.37,4.762114442075232
231,1804.6599999999999,4.7606643234624375
232,1812.9899999999998,4.552533853251993
233,1825.56,4.598061113690734
234,1833.99,4.515717264486166
235,1846.7,4.336707794333135
236,1855.22,4.324418904033856
237,1863.78,4.35044366213693
238,1876.7,4.453372096096239
239,1885.3700000000001,4.257843137305777
240,1894.07,4.145571164817078
241,1902.81,4.26707584073073
242,1905.46072,4.241834376748386
243,1916.0,4.148045911810651
244,1924.84,4.085854384322623
245,1933.7299999999998,4.162625344801293
246,1947.1299999999999,4.197493119876001
247,1956.1200000000001,4.039401056288062
248,1965.1499999999999,4.1824145830734825
249,1974.2199999999998,4.23539970023226
250,1983.3300000000002,4.108315407764394
251,1997.08,4.050473598605979
252,2006.3,4.104162179664846
253,2015.5600000000002,4.04939035109707
254,2024.86,4.112180112902652
255,2034.2099999999998,3.9681233626749304
256,2043.6000000000001,4.009169202820566
257,2053.03,3.9286116333395578
258,2067.2599999999998,3.922851908661433
259,2072.03,4.0314950606842945
260,2076.81,3.8767971103004975
261,2086.39,3.9437230047195806
262,2096.02,3.83649738710536
263,2105.7000000000003,3.8647052574578358
264,2115.42,3.86327071818367
265,2125.1800000000003,3.8734477692828606
266,2134.99,3.7921043083487493
267,2144.84,3.7493514377879933
268,2154.74,3.8036290551939356
269,2164.69,3.7676211605665735
270,2174.68,3.7354768563125695
271,2184.72,3.677470040025262
272,2187.7616199999998,3.6902824943581587
273,2194.8,3.7238243034554284
274,2204.93,3.6856432764552833
275,2215.11,3.629782396409727
276,2225.34,3.574932663318761
277,2235.61,3.6095826477914663
278,2245.93,3.5756657792187623
279,2256.29,3.5134846282097287
280,2266.71,3.532491053546203
281,2277.17,3.533963196446349
282,2282.42,3.5455206266782575
283,2292.96,3.444870204705747
284,2303.54,3.4596285002969083
285,2314.17,3.395374942842659
286,2324.85,3.1344675323429994
287,2335.5899999999997,3.2974596981888475
288,2346.3700000000003,3.2780775815983665
289,2357.2000000000003,3.3100386119624754
290,2362.63,3.252073771230907
291,2373.54,3.2451412367223598
292,2384.49,3.188238419777484
293,2395.5,3.2153981791781154
294,2406.55,3.1615626561424186
295,2417.6600000000003,3.16044170945223
296,2423.2400000000002,3.1881833095844296
297,2434.42,3.1278703686306666
298,2445.66,3.1546480040224107
299,2456.95,3.1346597863687444
300,2462.61,3.1122738216282873
301,2473.98,3.070893039101964
302,2485.4,3.072358403530231
303,2496.87,2.941227914913087
304,2502.63,3.05767524408181
305,2511.88643,2.979535704986173
306,2514.18,2.9608506844878573
307,2519.9700000000003,3.0026370760228227
308,2525.78,2.9589682253869247
309,2537.44,2.948341039773401
310,2543.2900000000004,2.917130704795775
311,2555.0299999999997,2.949852550498797
312,2566.82,2.924468290774659
313,2572.7400000000002,2.954444608199011
314,2584.61,2.9346833797914185
315,2596.54,2.9149264248712354
316,2602.53,2.883225394697564
317,2614.5400000000004,2.860793471093926
318,2626.6099999999997,2.867049820977697
319,2632.6699999999996,2.870232443206003
320,2644.82,2.900603824406319
321,2657.03,2.892464479094044
322,2663.15,2.819364374809759
323,2675.44,2.8399950608140294
324,2687.79,2.822882020305709
325,2693.99,2.777076947337969
326,2706.42,2.7714109381461935
327,2712.66,2.7405013808367267
328,2725.18,2.731892781876065
329,2737.76,2.7457084564028116
330,2744.07,2.6577615514953217
331,2756.74,2.654215636253183
332,2763.09,2.6618522470039645
333,2775.8500000000004,2.6802447419929387
334,2782.25,2.6471312473165622
335,2795.09,2.520199773622082
336,2807.9900000000002,2.55067157341501
337,2814.4599999999996,2.628702731140611
338,2827.46,2.6250553200792206
339,2833.9700000000003,2.5735339934630934
340,2847.0499999999997,2.559038613718249
341,2853.62,2.540033560589531
342,2866.79,2.5649565910757994
343,2873.3999999999996,2.548312053605355
344,2884.0315,2.5365367779633363
345,2886.66,2.5342911693321426
346,2893.3199999999997,2.5194101901448835
347,2906.67,2.53715096609835
348,2926.82,2.5027325230618223
349,2947.11,2.46863984022256
350,2967.5299999999997,2.457881006137901
351,2988.1000000000004,2.436730843693167
352,3008.8199999999997,2.4155413528883614
353,3029.67,2.401927710838158
354,3050.6699999999996,2.3781137404278816
355,3071.82,2.356796441657531
356,3093.11,2.332990903084446
357,3107.39,2.3162954432054574
358,3128.93,2.287672690698917
359,3150.62,2.2711446098323025
360,3172.4599999999996,2.247346200605615
361,3187.1,2.2073145526624502
362,3209.19,2.2045839295023066
363,3231.44,2.1670446894247517
364,3246.35,2.168836850433455
365,3268.86,2.156528507865106
366,3291.51,2.132635625494022
367,3306.71,2.115940218339917
368,3311.31121,2.12339018685512
369,3321.9700000000003,2.142541103295249
370,3329.63,2.14362862857017
371,3337.3,2.1190168412149015
372,3345.0,2.0948135159690646
373,3352.71,2.1117430780930384
374,3360.44,2.080789614956634
375,3368.18,2.0793917391900396
376,3375.95,2.0382603255328773
377,3383.73,2.049854099245525
378,3391.5299999999997,2.0774192476977946
379,3399.35,2.098978970889685
380,3407.1800000000003,2.038848381451386
381,3415.04,2.046173854122519
382,3422.9100000000003,2.076312514163462
383,3430.8,2.063458048944027
384,3438.71,2.0642770584642127
385,3446.6400000000003,2.01592494272402
386,3454.58,2.0253636143536378
387,3462.5499999999997,1.9890402480926874
388,3470.53,2.0047012692015476
389,3478.53,1.9772958650500287
390,3486.5499999999997,1.9735350356381316
391,3494.59,1.9868902809658548
392,3502.6400000000003,1.9874487136633894
393,3510.72,1.9579729084703557
394,3518.81,1.9584183906471324
395,3526.92,1.9567253475635304
396,3535.05,1.9722246792195492
397,3543.2000000000003,1.9792906856151897
398,3551.37,1.9820338667504513
399,3559.55,1.9628830352555235
400,3567.7599999999998,1.9568534658700276
401,3575.99,1.9024723712241527
402,3584.23,1.8844202639480887
403,3592.49,1.8765472314116458
404,3600.77,1.9136713736148236
405,3609.0699999999997,1.897288490557623
406,3617.39,1.9037907822400437
407,3625.7299999999996,1.9317904486620856
408,3634.0899999999997,1.9256993898237487
409,3642.47,1.9260889057250328
410,3650.86,1.8923017089961274
411,3650.9599999999996,1.6480070826942337
412,3653.6400000000003,2.0051600978034747
413,3656.32,2.0256543129127156
414,3658.99,1.8744159406521468
415,3661.67,1.8251278557613877
416,3664.35,1.9210874708706291
417,3667.03,1.75836338597987
418,3669.7000000000003,1.7846993137193008
419,3672.38,1.9213698288285421
420,3675.06,1.6415602439377834
421,3677.74,2.052473659047025
422,3680.41,2.1113961867864552
423,3683.09,1.7387555018956964
424,3685.77,2.0930466170049375
425,3688.45,1.9434267321141792
426,3691.12,1.8204454598536097
427,3693.7999999999997,1.847817174962851
428,3696.4799999999996,1.8876828900720923
429,3699.1600000000003,1.8437262051813332
430,3701.83,1.791679632920764
431,3704.5099999999998,1.8693259480300055
432,3707.19,1.8655236631392467
433,3709.87,1.6958810782484879
434,3712.5399999999995,1.8402927059879186
435,3715.2200000000003,1.8700791210971597
436,3717.9,2.1134031362064007
437,3720.58,2.6069033513156423
438,3723.25,3.788417879055073
439,3725.9300000000003,5.418668094164314
440,3728.61,5.965830309273556
441,3731.29,5.283401524382797
442,3733.96,3.2818670521222275
443,3736.64,2.3587842672314685
444,3739.3199999999997,2.20699248234071
445,3741.9999999999995,1.9308593974499513
446,3744.67,1.9611302251893816
447,3747.35,1.865718440298623
448,3750.0299999999997,1.9656526554078644
449,3752.71,2.0309128705171053
450,3755.3799999999997,1.8136372982565363
451,3758.06,2.0583036133657773
452,3760.7400000000002,1.9289512284750183
453,3763.42,1.9989600435842596
454,3766.09,1.9769615713236903
455,3768.77,2.0566427864329317
456,3771.4500000000003,1.8947864015421727
457,3774.13,1.8160746166514141
458,3776.8,2.043929744390845
459,3779.48,2.038579959500086
460,3782.16,2.1762811746093274
461,3784.8399999999997,2.0340953897185687
462,3787.51,2.022854917457999
463,3790.19,2.1011791325672404
464,3792.87,2.068319347676482
465,3795.5499999999997,2.056906562785723
466,3798.22,2.0182630905251537
467,3800.8999999999996,1.988930305634395
468,3801.8939600000003,2.0298529796082927
469,3803.58,2.0994804091472563
470,3806.26,2.0427138363046713
471,3808.93,2.184978325301051
472,3811.61,2.088110752458466
473,3814.29,2.060374179615881
474,3816.9700000000003,2.136645606773296
475,3819.6400000000003,2.041348095769676
476,3822.32,2.0153475229270907
477,3825.0,2.0274129500845057
478,3827.68,1.9056805772419207
479,3830.3500000000004,1.9169538662383003
480,3833.03,1.9550252933957153
481,3835.71,2.0034057205531304
482,3838.39,1.6814031477105453
483,3841.06,1.9627416367069253
484,3843.74,1.8890313638643401
485,3846.4199999999996,2.059354491021755
486,3849.1,2.11048791817917
487,3851.77,2.0769144071755496
488,3854.45,2.1479908343329646
489,3857.1299999999997,2.2272332614903796
490,3859.8100000000004,2.1955756886477946
491,3862.48,2.2208091776441745
492,3865.1600000000003,2.2544306048015894
493,3867.84,2.247965031959004
494,3870.52,2.213988459116419
495,3873.19,2.205334948112799
496,3875.8700000000003,2.078595375270214
497,3878.55,1.993042802427629
498,3881.23,1.985085229585044
499,3883.9,1.9417567185814237
500,3886.58,2.096899145738839
501,3889.2599999999998,2.130683572896254
502,3891.94,2.0578010000536686
503,3894.61,2.0196544890500485
504,3897.29,2.1118389162074633
505,3899.97,2.1021993433648785
506,3902.6499999999996,2.0714377705222935
507,3905.3199999999997,2.2558372595186733
508,3908.0,2.222646686676088
509,3910.6800000000003,2.020347113833503
510,3913.36,2.2974585409909176
511,3916.0299999999997,2.1919330299872977
512,3918.71,2.2214024571447126
513,3921.3900000000003,2.2473858843021275
514,3924.07,2.0935023114595426
515,3926.7400000000002,2.0585988004559224
516,3929.42,2.184508227613337
517,3932.1,2.0881556547707523
518,3934.7799999999997,2.0215950819281674
519,3937.4500000000003,1.955232570924547
520,3940.13,2.045232998081962
521,3942.81,2.1656334252393767
522,3945.49,2.143892852396792
523,3948.16,2.0466283413931716
524,3950.8399999999997,2.0716757685505867
525,3953.52,2.1809251957080016
526,3956.2000000000003,2.2374046228654163
527,3958.87,2.061594111861796
528,3961.5499999999997,2.0235075390192114
529,3964.2300000000005,1.9466089661766262
530,3966.9100000000003,1.9918293933340414
531,3969.58,1.9660818823304211
532,3972.26,1.967037309487836
533,3974.94,2.0826767366452508
534,3977.62,1.947514163802666
535,3980.2900000000004,2.0113946527990456
536,3982.9700000000003,2.0195940799564607
537,3985.65,2.0853125071138754
538,3988.33,2.1182819342712906
539,3991.0,2.14588942326767
540,3993.68,2.1619698504250855
541,3996.36,2.1980602775825
542,3999.04,2.1280667047399153
543,4001.71,2.028929193736295
544,4004.39,2.1166506208937097
545,4007.0699999999997,2.031667048051125
546,4009.7500000000005,2.14147247520854
547,4012.42,2.1971479642049196
548,4015.1,2.1736303913623347
549,4017.78,2.1410368185197495
550,4020.46,2.1655422456771642
551,4023.1299999999997,2.1014997346735447
552,4025.8100000000004,2.080424161830959
553,4028.4900000000002,2.043517588988374
554,4031.17,2.179410016145789
555,4033.84,2.083311505142169
556,4036.52,2.155838932299584
557,4039.2,2.108609359456999
558,4041.88,2.0351967866144136
559,4044.55,2.1131322756107935
560,4047.23,2.0820047027682085
561,4049.91,2.0136531299256237
562,4052.5899999999997,2.1373765570830385
563,4055.2599999999998,2.1688370460794184
564,4057.94,2.1819194732368334
565,4060.62,2.1172439003942483
566,4063.3,2.1258363275516627
567,4065.97,2.298216816548043
568,4068.6499999999996,2.235264243705458
569,4071.3300000000004,2.2991496708628727
570,4074.01,2.1716380980202876
571,4076.68,2.2447445870166676
572,4079.36,2.0711360141740824
573,4082.04,2.0599094413314973
574,4084.72,2.1374968684889124
575,4087.3900000000003,2.0915503574852923
576,4090.07,1.956631784642707
577,4092.75,2.024452211800122
578,4095.43,2.1064886389575372
579,4098.1,2.0366541279539168
580,4100.78,2.1213635551113317
581,4103.46,2.157520982268747
582,4106.139999999999,2.054875409426162
583,4108.81,1.9859628984225415
584,4111.49,2.0317113255799564
585,4114.17,2.0233737527373714
586,4116.85,2.0070461798947865
587,4119.5199999999995,2.0570236688911665
588,4122.2,2.041401096048581
589,4124.88,2.110740523205996
590,4127.56,2.1427069503634106
591,4130.23,2.070864439359791
592,4132.91,2.061264866517206
593,4135.59,2.0991452936746207
594,4138.27,2.1427647208320355
595,4140.9400000000005,1.9930412098284154
596,4143.62,2.159755636985831
597,4146.3,2.0441000641432456
598,4148.98,2.1226234913006605
