,lambda (Angstroms),Total Flux (erg/s/cm^2/Angstrom)
0,102.01,127.85108847455179
1,103.91,127.48671232609881
2,104.712855,127.33274327142892
3,106.08,125.95551390084896
4,108.06,123.96090901057472
5,110.06,121.94615669022403
6,113.93,118.04761092730773
7,117.94000000000001,114.00803260979427
8,120.22644299999999,111.70472743799694
9,120.96000000000001,111.08518146170667
10,124.92,107.74064988491835
11,126.95,106.02615512021734
12,128.13,105.02955239571388
13,131.10999999999999,102.51270813503857
14,132.02,101.74414347027154
15,133.86,100.19011924313637
16,136.98,97.55503756881807
17,138.038426,96.66111422602397
18,139.85,95.56748471767183
19,143.1,93.60553744931389
20,147.11,91.18487123697187
21,150.89,88.90294941204215
22,155.11,86.35541077751847
23,158.489319,84.31538412487431
24,159.09,84.04123922047404
25,162.05,82.6903257198341
26,165.82,80.96974979312752
27,170.07999999999998,79.02553406899912
28,172.84,77.76591379114971
29,176.87,75.92668023152544
30,180.16,74.42516955883613
31,181.82,73.66758083828468
32,181.970086,73.59908407983548
33,186.06,72.17508809202943
34,190.82999999999998,70.51431973624938
35,193.93,69.43500226267889
36,197.99,68.02143721631369
37,202.14,66.57654898986773
38,204.95,65.59821328920192
39,208.929613,64.21260676056244
40,210.21,63.87745242372555
41,216.1,62.33583414222011
42,220.10999999999999,61.28625243338195
43,223.18,60.482681491877415
44,226.79999999999998,59.535211231464906
45,229.95999999999998,58.70909775293908
46,234.23,57.59351487881713
47,239.88329199999998,56.1150165682818
48,240.24,56.04314708691163
49,245.84,54.913404540706615
50,252.14000000000001,53.64323339622596
51,256.83,52.696240241779265
52,259.81,52.09616346554873
53,264.03,51.24543140465853
54,268.94,50.2551997256109
55,273.94,49.24676201349928
56,275.42287,48.9476916443373
57,279.03000000000003,48.389404760753294
58,284.21999999999997,47.58613314134392
59,290.17,46.6648168508534
60,296.24,45.72547560813953
61,301.06,44.97936855333544
62,308.07,43.894478724705436
63,316.227766,42.63194954454488
64,318.15999999999997,42.408620950450555
65,327.83,41.29078887018304
66,337.79,40.139310935729654
67,348.05999999999995,38.95194097266377
68,356.98,37.920703198394264
69,363.078055,37.215725269203126
70,366.14,36.950649417075134
71,374.67,36.212087808461014
72,385.17,35.302593295125945
73,395.05,34.447466763225904
74,405.18,33.570435162198834
75,413.67,32.83523250464504
76,416.86938299999997,32.55814789152687
77,422.33,32.19698449002559
78,430.18,31.677834992903396
79,441.21,30.94852571471769
80,451.49,30.26859845555639
81,459.88,29.713684733536624
82,469.51,29.076796732863155
83,478.630092,28.473704238858225
84,480.45,28.381147599595884
85,490.51,27.869255966581107
86,499.63,27.405488623609454
87,506.58000000000004,27.051827380950144
88,512.45,26.753698657063786
89,519.5799999999999,26.39101122460898
90,530.46,25.837466334748065
91,540.3199999999999,25.33562211706161
92,549.5408739999999,24.866599745885058
93,550.36,24.834814607781244
94,560.59,24.438082436591245
95,569.7,24.084781406939154
96,580.3,23.673282570955383
97,589.7199999999999,23.307901539449052
98,600.6899999999999,22.881949318671506
99,610.45,22.502272177841157
100,620.37,22.1186433945054
101,630.45,21.727399690664225
102,630.957344,21.707716661940644
103,640.69,21.408390348906934
104,649.6,21.134342543588367
105,658.6400000000001,20.85619526398344
106,664.74,20.66875227593145
107,675.5400000000001,20.336496866757425
108,684.93,20.047288077920015
109,694.4599999999999,19.754850251389602
110,705.75,19.40709234529009
111,715.5699999999999,19.10566689996704
112,724.43596,18.832973637036453
113,725.5200000000001,18.808223991456618
114,735.61,18.577885907046287
115,745.85,18.34436257104413
116,754.48,18.147466994794264
117,764.98,17.907210593366273
118,775.62,17.665207219785906
119,784.6,17.460241983155104
120,795.52,17.211184035269994
121,804.73,17.00111433153172
122,815.92,16.74572439878132
123,825.37,16.530482598496125
124,831.763771,16.38337623744744
125,834.93,16.328782952359894
126,844.5999999999999,16.165541535314357
127,854.38,15.998702327785363
128,864.27,15.830429259772915
129,874.2800000000001,15.660127235778514
130,884.4000000000001,15.488141621300663
131,894.64,15.31381664084086
132,905.0,15.136768004399103
133,915.48,14.9650306519754
134,923.95,14.930133354749369
135,934.6500000000001,14.901830571358753
136,945.47,14.98798662198619
137,954.22,15.103752760802275
138,954.992586,15.093555959215896
139,965.27,14.96170039613687
140,974.2,14.07518650018546
141,985.48,14.397522442141579
142,994.6,14.351720031382694
143,1006.1199999999999,14.628067112529369
144,1015.43,14.467052786963007
145,1024.82,13.629627607793498
146,1034.31,13.716632036620052
147,1043.8799999999999,14.443862411843464
148,1055.96,14.215567617768095
149,1065.73,13.618893708983633
150,1075.6000000000001,13.750832108195233
151,1085.55,13.18996475380369
152,1095.5900000000001,13.5241836766086
153,1096.4782,13.504260862781921
154,1105.73,13.324736552175661
155,1115.96,13.085106023397223
156,1126.29,12.77487143177638
157,1134.09,13.14567753006848
158,1144.5900000000001,12.811449931615538
159,1155.18,12.81351297660443
160,1165.87,12.719421958750917
161,1173.95,11.987123281084271
162,1184.81,12.408467256398659
163,1195.77,11.595717168870637
164,1204.06,11.125471859234935
165,1215.2,10.821184858590577
166,1223.63,11.315892460975501
167,1234.95,11.887961947214809
168,1246.3799999999999,11.941252664327468
169,1255.02,11.68405243474333
170,1258.92541,11.478738536710296
171,1263.72,11.245498044776523
172,1275.4099999999999,11.75823740816465
173,1284.25,11.809976627356354
174,1296.13,11.052462333690903
175,1305.12,10.92939471836663
176,1314.16,11.432647824870362
177,1326.32,11.196203773441756
178,1335.52,10.766873589795111
179,1344.7700000000002,11.187622127976473
180,1354.1000000000001,11.012056021082648
181,1363.48,10.616137636016834
182,1376.1000000000001,10.632681625405894
183,1385.6399999999999,10.563918950189702
184,1395.24,10.184887541167114
185,1404.91,10.163694942703739
186,1414.65,10.086271154799578
187,1424.4599999999998,10.085769177454626
188,1434.3300000000002,9.957485466303277
189,1440.95,10.034643836331453
190,1445.43977,10.027666803376635
191,1447.6,10.030667493757528
192,1454.28,9.901549671200058
193,1464.3600000000001,9.63119128626304
194,1474.51,9.566551725041734
195,1484.74,9.559188962352676
196,1495.03,9.539391048562802
197,1505.39,9.334725958488642
198,1512.3400000000001,9.030573455977503
199,1515.83,9.162941666946729
200,1526.33,9.007834224304002
201,1533.38,8.698234469958168
202,1544.0100000000002,8.841456699930339
203,1554.71,8.662453753618227
204,1565.49,8.603272605838358
205,1576.34,8.644352281774207
206,1583.6100000000001,8.710116973392049
207,1594.59,8.672694321942798
208,1605.64,8.568462494209259
209,1616.77,8.509336465007967
210,1624.2400000000002,8.330073652956424
211,1635.5,8.390272296370032
212,1646.83,8.346858763499355
213,1654.43,8.120918624062712
214,1659.58691,8.171908690993794
215,1665.8999999999999,8.247197703443621
216,1673.5900000000001,7.9474426383014105
217,1677.45,8.19642314006358
218,1685.19,8.279605856032276
219,1696.8700000000001,8.082441923540596
220,1704.7,7.9538388455089315
221,1716.52,7.780193900127797
222,1724.4399999999998,7.738658028095767
223,1736.3999999999999,7.814973069825177
224,1744.41,7.732525403792781
225,1756.5,7.824059076410555
226,1764.6100000000001,7.589275972599978
227,1776.8400000000001,7.586090632328296
228,1785.04,7.583247734517357
229,1793.28,7.705910261595145
230,1805.72,7.62879740198928
231,1814.0500000000002,7.4088021350667015
232,1826.62,7.397471906349201
233,1835.06,7.269125557870623
234,1843.53,7.065496278058592
235,1856.3,7.008158173784725
236,1864.8700000000001,7.02865945619451
237,1873.4799999999998,7.157774163493026
238,1886.47,6.936851896107158
239,1895.1699999999998,6.8301168094053075
240,1903.92,6.887339503814364
241,1905.46072,6.8717926134177505
242,1917.12,6.768984529494758
243,1925.9699999999998,6.712984493763147
244,1934.86,6.721652801372862
245,1943.79,6.776609452323903
246,1952.76,6.633749446616271
247,1966.3,6.7687806676551405
248,1975.37,6.785976520300823
249,1984.4899999999998,6.650040802123163
250,1993.6499999999999,6.56083442728683
251,2002.85,6.582134395791822
252,2016.74,6.457838621067294
253,2026.0500000000002,6.5126845337609325
254,2035.4,6.3890397897958975
255,2044.79,6.439509389172189
256,2054.23,6.323306417725137
257,2063.71,6.286397789619412
258,2073.2400000000002,6.387488590690344
259,2078.02,6.319671619978808
260,2082.81,6.394407735102603
261,2097.25,6.2331976813213075
262,2106.93,6.195597769922214
263,2116.65,6.188611201864443
264,2126.42,6.170172062983332
265,2136.2400000000002,5.989640353278878
266,2146.1,6.032223986915751
267,2156.0,6.066905963893949
268,2165.9500000000003,5.959277370048805
269,2175.9500000000003,5.909438205380317
270,2186.0,5.866878469888489
271,2187.7616199999998,5.874625513836935
272,2196.09,5.9206563471307545
273,2206.2200000000003,5.839507143639484
274,2216.41,5.6996412133753145
275,2226.64,5.630849798595877
276,2236.91,5.755606899301174
277,2247.2400000000002,5.647207273233569
278,2252.42,5.529030528506542
279,2262.82,5.540529554537223
280,2273.26,5.573722096052634
281,2283.75,5.623811531923964
282,2294.29,5.488289862151212
283,2304.88,5.479886086734375
284,2315.52,5.3538942056734555
285,2326.21,4.970330218968452
286,2336.9500000000003,5.149811126619365
287,2342.34,5.069715338187189
288,2353.15,5.206215897936385
289,2364.01,5.012162352041499
290,2374.92,5.04694770050253
291,2385.88,4.891347943319477
292,2396.9,4.965928459363524
293,2402.42,4.895718596256731
294,2413.51,4.917655764399061
295,2424.65,5.024580826897308
296,2435.84,4.949494783751472
297,2447.09,5.023535013832737
298,2452.73,5.000409697180144
299,2464.05,4.938780579359691
300,2475.42,4.845302355895156
301,2486.85,4.811942405657721
302,2492.58,4.744000498845778
303,2504.09,4.911625579577809
304,2511.88643,4.724268656423026
305,2515.64,4.636326344353822
306,2527.26,4.583913440645183
307,2533.08,4.62904938904585
308,2544.77,4.594492287122102
309,2556.52,4.751905586728256
310,2562.41,4.648773336913809
311,2574.24,4.744776838559837
312,2586.12,4.679932341480782
313,2592.09,4.6301312937062065
314,2604.05,4.542357998667025
315,2616.0699999999997,4.490238105157748
316,2622.1,4.587742458913076
317,2634.2,4.723661767443669
318,2646.3599999999997,4.924192477504167
319,2652.46,5.087095633044384
320,2664.71,4.712349945399737
321,2677.01,4.811504259030009
322,2683.18,4.8379312163551145
323,2695.5600000000004,4.659784732025257
324,2708.0,4.755143649225307
325,2714.2500000000005,4.561887808590281
326,2726.77,4.487481927830202
327,2733.06,4.598577688215114
328,2745.68,4.245593810004873
329,2752.0,4.314917771154737
330,2764.71,4.403006495239351
331,2777.4700000000003,4.463776220598886
332,2783.87,4.260212383788623
333,2796.72,3.9050605114430135
334,2803.1699999999996,3.9797448759076692
335,2816.11,4.347967805856914
336,2822.6,4.546596571341506
337,2835.63,4.471928103585608
338,2842.1600000000003,4.349744470090134
339,2855.28,4.148547604629092
340,2861.8700000000003,4.516283372663523
341,2875.07,4.605672709242352
342,2881.7,4.5183710782967195
343,2884.0315,4.525179818949238
344,2895.0,4.562882238417247
345,2908.3700000000003,4.85958679913854
346,2928.5299999999997,4.682655628917246
347,2948.83,4.599741443624968
348,2969.27,4.65985824326171
349,2989.85,4.646308027827471
350,3010.57,4.6687967973222495
351,3031.44,4.6643101220981205
352,3052.45,4.65996243180301
353,3066.54,4.698454057873544
354,3087.8,4.699402626380253
355,3109.2,4.745561179815979
356,3130.76,4.6571148588848725
357,3152.46,4.628474522882783
358,3167.01,4.6738463851486625
359,3188.96,4.447361307948393
360,3211.0699999999997,4.575405356381288
361,3233.32,4.321321389743201
362,3248.2499999999995,4.653364925387847
363,3270.7599999999998,4.8311427879036515
364,3293.44,4.755604346404693
365,3308.64,4.707496281555304
366,3311.31121,4.701993086483581
367,3323.91,4.680604917985583
368,3331.5699999999997,4.740069951313638
369,3339.2500000000005,4.501237376373618
370,3346.9500000000003,4.888592193165526
371,3354.67,4.656266401689361
372,3362.3999999999996,4.39851880607916
373,3370.15,4.4868146022008855
374,3377.9199999999996,4.689361790054538
375,3385.71,4.566235369640117
376,3393.51,4.74837614509166
377,3401.3300000000004,4.977370312275129
378,3409.17,4.614229871190527
379,3417.0299999999997,4.5146248218378515
380,3424.91,4.842326164217102
381,3432.81,4.95268689832828
382,3440.72,4.743179828305422
383,3448.6499999999996,4.416022150014491
384,3456.6000000000004,4.573677863455487
385,3464.57,4.359853968628409
386,3472.56,4.723823465533259
387,3480.56,4.390362158304073
388,3488.58,4.570336242806813
389,3496.63,4.4856239149074435
390,3504.6899999999996,4.745910782874038
391,3512.77,4.60898604257256
392,3520.86,4.784788498137045
393,3528.98,4.27773554129942
394,3537.1200000000003,4.720089976193723
395,3545.27,4.791596606953989
396,3553.44,4.859128629446182
397,3561.63,4.726364043670301
398,3569.84,4.32987284962635
399,3575.2400000000002,3.708657617246648
400,3577.92,4.68736910932487
401,3580.59,3.5848204055371293
402,3583.2599999999998,4.0768617017493884
403,3585.94,4.392998193827611
404,3588.6099999999997,4.19632249003987
405,3591.28,4.979660786252129
406,3593.96,4.134389278330351
407,3596.63,3.74734157454261
408,3599.3,4.857400870754869
409,3601.97,4.844250166967129
410,3604.6499999999996,4.765791659045352
411,3607.32,4.4665499552576104
412,3609.9900000000002,3.9999132514698683
413,3612.67,3.7326087435480915
414,3615.34,4.36102903976035
415,3618.0099999999998,4.332660335972609
416,3620.68,4.606209632184868
417,3623.36,4.24440012426309
418,3626.03,4.5558404204753495
419,3628.7000000000003,5.037565716687608
420,3631.38,5.049043208765831
421,3634.0499999999997,4.35353550497809
422,3636.72,4.858391801190349
423,3639.3900000000003,4.5713240974026075
424,3642.07,4.39988658948083
425,3644.7400000000002,5.014613885693089
426,3647.41,4.491977181905348
427,3650.0899999999997,4.84128567398357
428,3652.7599999999998,5.15911797019583
429,3655.4300000000003,4.972639266408088
430,3658.1000000000004,4.432196562620347
431,3660.78,4.538177054698569
432,3663.45,4.774595350910829
433,3666.12,5.178710647123087
434,3668.7999999999997,5.41555913920131
435,3671.47,4.955621435413569
436,3674.1400000000003,4.705075731625828
437,3676.81,5.236260027838087
438,3679.4900000000002,4.932580519916309
439,3682.16,4.296420816128569
440,3684.83,4.308682112340827
441,3687.5099999999998,4.00135360441905
442,3690.1800000000003,4.2730749006313085
443,3692.85,4.4606441968435675
444,3695.53,4.47973168892179
445,3698.2,4.8675639851340495
446,3700.87,5.227244281346309
447,3703.54,5.118983577558567
448,3706.2200000000003,4.8145440696367885
449,3708.8900000000003,4.583781365849049
450,3711.56,4.751415662061308
451,3714.24,4.80854615413953
452,3716.91,4.542327450351789
453,3719.58,5.012638746564048
454,3722.2499999999995,5.107838042776307
455,3724.9300000000003,5.908650534854528
456,3727.6,6.747990831066788
457,3730.27,7.0265651272790475
458,3732.95,6.90198961935727
459,3735.62,5.991611915569528
460,3738.2900000000004,5.781243211781788
461,3740.96,5.079496507994046
462,3743.64,4.92327500007227
463,3746.31,4.497423296284528
464,3748.98,4.305617592496787
465,3751.66,4.648992084575009
466,3754.3300000000004,4.789082380787268
467,3757.0,5.123653676999528
468,3759.67,5.567032973211786
469,3762.35,4.831323465290009
470,3765.02,4.776476761502267
471,3767.69,5.202507057714526
472,3770.37,4.81299954979275
473,3773.0399999999995,5.044547846005008
474,3775.71,4.981788142217267
475,3778.38,4.818287438429525
476,3781.06,4.7866989305077485
477,3783.73,5.700300226720007
478,3786.3999999999996,5.9674605229322655
479,3789.0800000000004,5.540058015010488
480,3791.75,5.073424311222748
481,3794.42,4.902619607435007
482,3797.1,4.531984099513229
483,3799.77,5.254755395725487
484,3801.8939600000003,5.073486384483137
485,3802.44,5.027024121129742
486,3805.1099999999997,4.729376191465922
487,3807.79,5.267458011129204
488,3810.46,5.153032081465383
489,3813.13,4.811255151801563
490,3815.81,4.972548971464846
491,3818.48,4.988841041801026
492,3821.1499999999996,4.886893112137207
493,3823.82,4.891467182473386
494,3826.5,4.584669002136668
495,3829.17,4.401610072472848
496,3831.84,4.289161142809029
497,3834.52,3.9960599624723097
498,3837.1899999999996,3.98343803280849
499,3839.86,4.51195410314467
500,3842.53,4.6851391734808505
501,3845.21,4.358253993144132
502,3847.88,4.2754790634803115
503,3850.5499999999997,4.587753133816492
504,3853.2300000000005,4.927093953479774
505,3855.9,5.1322370238159545
506,3858.57,5.154616094152134
507,3861.2400000000002,4.908861164488314
508,3863.92,5.153395984151596
509,3866.5899999999997,5.500367054487777
510,3869.2599999999998,5.316244124823957
511,3871.9399999999996,4.801419944487239
512,3874.61,5.039585014823419
513,3877.28,5.031529085159599
514,3879.95,4.807231155495779
515,3882.63,5.187657975159061
516,3885.2999999999997,4.968991045495241
517,3887.9700000000003,4.539712115831421
518,3890.65,5.154033935494703
519,3893.32,5.323720005830883
520,3895.99,5.375470076167064
521,3898.67,5.594283895830345
522,3901.3399999999997,5.634012966166525
523,3904.0099999999998,5.597349036502705
524,3906.6800000000003,5.632360106838885
525,3909.36,5.576495926502167
526,3912.03,6.1701449968383475
527,3914.7,5.770695067174527
528,3917.3799999999997,5.689112886837809
529,3920.0499999999997,5.836125957173989
530,3922.7200000000003,5.348565027510169
531,3925.3900000000003,5.3528350978463495
532,3928.07,5.172035917509632
533,3930.74,4.621929987845811
534,3933.41,4.607178058181992
535,3936.0899999999997,4.412533877845274
536,3938.76,4.157496948181453
537,3941.4300000000003,4.590903018517634
538,3944.1,5.192464088853814
539,3946.7799999999997,5.588107908517095
540,3949.45,5.608205978853276
541,3952.12,5.881372049189456
542,3954.8,5.760985868852737
543,3957.4700000000003,5.744713939188918
544,3960.14,5.872401009525098
545,3962.81,5.126291079861278
546,3965.49,4.3567248995245595
547,3968.16,4.36616796986074
548,3970.8300000000004,4.20243504019692
549,3973.51,4.387927859860202
550,3976.1800000000003,4.746462930196381
551,3978.85,4.7724940005325625
552,3981.52,5.413014070868742
553,3984.2,5.582219890532024
554,3986.8700000000003,5.289746960868205
555,3989.54,5.646459031204384
556,3992.2200000000003,5.699248850867666
557,3994.89,6.053068921203847
558,3997.56,6.204342991540026
559,4000.24,6.353914811203309
560,4002.91,6.252729881539489
561,4005.5800000000004,6.277239951875668
562,4008.25,6.586931022211848
563,4010.93,6.524825841875131
564,4013.6,6.619185912211311
565,4016.27,6.445260982547491
566,4018.95,6.1993268022107735
567,4021.6200000000003,6.476298872546953
568,4024.29,6.5735509428831325
569,4026.96,6.551802013219312
570,4029.64,6.237388832882595
571,4032.31,6.568534903218775
572,4034.98,6.492154973554955
573,4037.6600000000003,6.232372793218237
574,4040.33,6.420624863554417
575,4043.0,6.465376933890598
576,4045.67,6.162254004226776
577,4048.35,6.168475823890059
578,4051.02,6.41166489422624
579,4053.6899999999996,6.278065964562419
580,4056.3700000000003,6.224634784225701
581,4059.04,6.198014854561881
582,4061.71,6.364202924898062
583,4064.38,6.203973995234241
584,4067.06,6.4588498148975235
585,4069.7299999999996,6.320533885233703
586,4072.4,6.509852955569883
587,4075.08,6.362985775233166
588,4077.75,6.642239845569345
589,4080.42,6.501032915905525
590,4083.0899999999997,6.739656986241706
591,4085.7700000000004,6.8522488059049875
592,4088.44,6.693540876241167
593,4091.11,6.394525946577348
594,4093.79,6.49098876624063
595,4096.46,6.383716836576809
596,4099.13,6.469402906912991
597,4101.81,6.077989726576272
598,4104.48,6.038282796912452
599,4107.15,6.292428867248632
600,4109.82,6.320592937584813
601,4112.5,6.352074757248094
602,4115.17,6.659938827584274
603,4117.84,6.537905897920454
604,4120.5199999999995,6.612757717583737
605,4123.19,6.479919787919917
606,4125.86,6.091122858256096
607,4128.530000000001,6.420747928592276
