,lambda (Angstroms),Total Flux (erg/s/cm^2/Angstrom)
0,100.07000000000001,0.00861479321893775
1,101.93,0.010354114220710144
2,104.07,0.01235526648835052
3,104.712855,0.012956412520229776
4,106.0,0.011952132335028181
5,107.97,0.010415064429852749
6,109.98,0.008846801857974151
7,114.11,0.005624431034918294
8,118.11999999999999,0.0024956931715119078
9,120.22644299999999,0.0008523716367711701
10,120.87,0.000829202614628437
11,125.12,0.0006758951804909411
12,126.86,0.0006131460752640608
13,128.03,0.0005709491864615031
14,131.01,0.00046347847370627096
15,131.92000000000002,0.0004307429008709475
16,134.06,0.0003535794857252442
17,136.87,0.0002524023761755116
18,138.038426,0.0002102930999974238
19,140.06,0.00020784424500193928
20,142.98999999999998,0.00020552945117232875
21,147.0,0.00020307763305057512
22,151.12,0.00019882369775091802
23,154.99,0.00019510517703740513
24,158.489319,0.00019189214638836867
25,158.97000000000003,0.00019112198337922204
26,161.92000000000002,0.0001865102002744472
27,166.08,0.0001801695309266969
28,169.95,0.00017445168638924655
29,173.11,0.00016986489707701308
30,177.14000000000001,0.00016424311333387997
31,180.02,0.0001604182676315913
32,181.970086,0.0001578755901786834
33,182.1,0.00015804261864421087
34,185.91,0.00016323672217242392
35,191.12,0.00017037453799446847
36,193.78,0.00017465529035274842
37,197.84,0.0001807580650048599
38,201.98000000000002,0.00018732544521661898
39,204.79000000000002,0.00019217973424923802
40,208.929613,0.0001978998858726115
41,210.04,0.0002029853760009265
42,215.93,0.00023436048643795526
43,219.94,0.00025502829023294415
44,223.0,0.000270387090086477
45,227.14999999999998,0.00029247551256757524
46,229.77999999999997,0.0003405678707423435
47,234.04999999999998,0.0004344795306686785
48,239.88329199999998,0.000511065081342581
49,240.06,0.0005121512463564392
50,246.21,0.0004972461732521186
51,251.95,0.0005052292650214194
52,257.21999999999997,0.0004569515506702373
53,260.2,0.0004913395767107453
54,263.82,0.0005015579600216979
55,268.73,0.0004982241197058907
56,273.72,0.000493635674048889
57,275.42287,0.0004921221848272018
58,278.81,0.0005111990706687102
59,284.0,0.0005405726206280292
60,289.94,0.0005589795246277124
61,296.01,0.0005993099566610587
62,300.82,0.0006180672939065933
63,307.83000000000004,0.0006619078363371961
64,316.227766,0.0007143393005842256
65,317.92,0.0007150331607269889
66,328.33,0.0007082214965707788
67,338.31,0.0006990845571587732
68,347.78999999999996,0.0006895233860539824
69,356.71000000000004,0.0006807080634532719
70,363.078055,0.0006752124110940714
71,365.86,0.0006850276921280859
72,375.24,0.0007135171179494285
73,384.87,0.0007273863624760305
74,394.74,0.0007701008769596821
75,404.87,0.0008006270588968036
76,414.3,0.000825017628459198
77,416.86938299999997,0.0008308006209047883
78,422.0,0.0008383978323676161
79,429.84000000000003,0.0008499907692913485
80,440.87,0.0008716472457286914
81,451.14,0.0008860857961377134
82,459.53000000000003,0.0008970501295293097
83,470.23,0.0009133285880859343
84,478.630092,0.000927468877656625
85,480.08000000000004,0.0009260395531952167
86,490.13,0.0009108348381233079
87,500.39,0.0009045914304976576
88,506.19,0.0009711603790133721
89,512.05,0.0014673707725137318
90,520.37,0.0014927802103845494
91,530.0400000000001,0.0015289024104098868
92,539.9,0.0014855329028866013
93,549.5408739999999,0.001805843559427304
94,549.93,0.0018191694246080454
95,560.1600000000001,0.002059213526840881
96,570.5699999999999,0.002266170915330013
97,579.84,0.002201744157529269
98,590.62,0.002594380189989676
99,600.22,0.0026896507903254752
100,609.97,0.0030762964625415208
101,619.88,0.0034870582780964967
102,629.9599999999999,0.0037565743084490852
103,630.957344,0.003764965851891638
104,640.19,0.0038533323676426265
105,650.6,0.0043511841263161296
106,658.13,0.004641360591523764
107,665.75,0.004940391847152206
108,675.0100000000001,0.005078591617115379
109,684.4,0.005118245751019719
110,695.52,0.006387553189679598
111,705.2,0.006226673981606545
112,716.66,0.007408363295189477
113,724.43596,0.007689530504696968
114,726.6300000000001,0.007768235480962122
115,735.04,0.008106594356963372
116,745.27,0.009126870170458353
117,755.63,0.009741878122345742
118,764.3800000000001,0.010398464514142523
119,775.02,0.011326786302567412
120,785.8,0.012257261009261047
121,794.9000000000001,0.012853160696729702
122,804.0999999999999,0.013478868182961746
123,815.2900000000001,0.014040617864585287
124,824.73,0.015403836067849473
125,831.763771,0.013927561534998377
126,834.28,0.013396421296505565
127,845.88,0.016437292541042554
128,855.6800000000001,0.017111407040737592
129,865.5899999999999,0.018389560897061865
130,875.61,0.019765824110015366
131,885.75,0.02144196843929166
132,896.01,0.022637143884890756
133,904.3,0.022994482670857276
134,914.77,0.035628335070021264
135,925.3599999999999,0.24786545858550804
136,936.0799999999999,0.5649161249770112
137,944.74,1.1347500888716395
138,954.992586,1.5734220552801672
139,955.68,1.6028345508941748
140,964.52,1.9049063995259208
141,975.69,0.34680724468616986
142,984.72,1.8024617685713131
143,996.12,1.8191392837751486
144,1005.34,2.459543082913689
145,1014.64,2.3059808716326073
146,1024.03,0.9330493486294505
147,1035.8799999999999,1.693827105222911
148,1045.47,3.060823856170699
149,1055.1399999999999,2.9981245966988643
150,1064.91,2.470864324202502
151,1074.76,2.882969041286518
152,1084.7,2.3651147466484583
153,1094.74,2.998116438985871
154,1096.4782,2.9682075045185052
155,1104.8700000000001,2.823808791725437
156,1115.09,2.7405356256023277
157,1125.41,2.4651934187148044
158,1135.82,3.0189151751393086
159,1143.7,2.7595479629034867
160,1154.28,2.896319650028487
161,1164.96,2.9842712963890734
162,1175.74,2.147091901985246
163,1183.8899999999999,2.9298215796855063
164,1194.8400000000001,2.217431115982175
165,1205.9,1.6325636074379883
166,1214.26,0.9481601995329791
167,1225.49,2.055154621689289
168,1233.99,2.9162581567141
169,1245.41,3.1176765014180225
170,1254.04,2.998021983449096
171,1258.92541,2.87115263273689
172,1265.64,2.696784186632974
173,1274.42,3.1976294412131243
174,1286.21,3.264677783069614
175,1295.12,2.678155041419174
176,1304.1,2.7154013017984173
177,1316.17,3.205081651773636
178,1325.2900000000002,3.0466739162122436
179,1334.48,2.7723071826805334
180,1343.73,3.1320034508885506
181,1356.1599999999999,3.0607728113021353
182,1365.5600000000002,2.8043030838594722
183,1375.03,2.8696623584464915
184,1384.56,2.896270634773238
185,1394.16,2.4878879131296667
186,1403.8200000000002,2.6052411932258237
187,1413.5500000000002,2.7091764753516627
188,1426.63,2.7279398546122975
189,1436.52,2.7468291413774097
190,1443.15,2.8433373336173187
191,1445.43977,2.8433346495357816
192,1446.48,2.8433334253248703
193,1456.5,2.778696669167513
194,1466.6000000000001,2.6052329149570035
195,1473.37,2.605217079708969
196,1483.58,2.605222328175375
197,1493.86,2.6172495783452714
198,1504.22,2.470787830462016
199,1511.16,2.2327149993510322
200,1518.14,2.348773169213472
201,1525.14,2.343423339562624
202,1535.7199999999998,2.074134597033199
203,1546.36,2.1719128559639094
204,1553.4999999999998,2.0789740297200443
205,1564.2700000000002,2.152035291814382
206,1575.1100000000001,2.2691015556122114
207,1586.03,2.321912821356888
208,1593.3500000000001,2.3541759994934295
209,1604.3899999999999,2.3165332681583775
210,1615.52,2.3165235390135286
211,1626.71,2.2327108113288157
212,1634.22,2.3434089940891196
213,1645.5500000000002,2.3487882698113896
214,1653.1499999999999,2.2326814547618974
215,1659.58691,2.313153658422755
216,1664.61,2.375951504102836
217,1672.29,2.2276028689792273
218,1676.14,2.3814825531946067
219,1683.88,2.420222928734095
220,1695.5500000000002,2.3059330027064244
221,1703.3799999999999,2.2225123942405585
222,1715.19,2.1175884930934474
223,1723.1,2.1029848988450435
224,1735.05,2.2072040225784915
225,1743.06,2.147096446101916
226,1755.14,2.2430595929387405
227,1763.24,2.1079430324568103
228,1775.46,2.117612204174194
229,1783.6599999999999,2.1470866614640913
230,1796.0200000000002,2.2327378580620345
231,1804.3100000000002,2.2327243313465774
232,1816.8200000000002,2.059969554602262
233,1825.1999999999998,2.11760504388145
234,1833.6299999999999,2.045775542046552
235,1846.34,1.896054800845893
236,1854.8600000000001,1.8786803150056401
237,1863.42,1.9269498362741184
238,1876.34,2.055169132394299
239,1885.0,1.8830926714346048
240,1893.7,1.7859002175836425
241,1905.46072,1.9002428400593827
242,1906.83,1.9135549940027614
243,1915.63,1.8232659780913654
244,1924.47,1.7777639530167357
245,1933.3500000000001,1.8529169187788725
246,1946.7499999999998,1.9091558490956104
247,1955.74,1.773615789658855
248,1964.7700000000002,1.9135607210588657
249,1973.8400000000001,1.9717256432956427
250,1982.95,1.8614295563691863
251,1996.69,1.8149724087984385
252,2005.9099999999999,1.8657042966730895
253,2015.17,1.8232331753845068
254,2024.4699999999998,1.9004510449326908
255,2033.8100000000002,1.7817499053176409
256,2043.2,1.823236754248549
257,2057.36,1.7533375104638482
258,2066.86,1.777724334195864
259,2071.63,1.870097241480255
260,2076.4,1.757316148764646
261,2085.9900000000002,1.8232139518793862
262,2095.61,1.7291957481217008
263,2105.29,1.7654475306191653
264,2115.0,1.7735883062442046
265,2124.77,1.7941180681243933
266,2134.57,1.721339823132157
267,2144.43,1.70546756439507
268,2154.32,1.7613042987855583
269,2164.27,1.7251770194311955
270,2174.26,1.7094537309135995
271,2184.29,1.67816343323277
272,2187.7616199999998,1.6957116942544117
273,2194.38,1.7291688467614537
274,2204.51,1.6898676969496345
275,2214.68,1.639978554443593
276,2224.9,1.5917274210697734
277,2235.17,1.651427296828176
278,2245.49,1.6143391817188004
279,2255.86,1.563724075741647
280,2266.27,1.5899299770702713
281,2276.73,1.6053798875311174
282,2287.2400000000002,1.6248128071241856
283,2292.51,1.5520257696603863
284,2303.09,1.5598877020385655
285,2313.72,1.5076366435489665
286,2324.4,1.2575505941915894
287,2335.13,1.4345635539664345
288,2345.91,1.4090655228735018
289,2356.74,1.4626935009127908
290,2367.62,1.3974734880843018
291,2373.0699999999997,1.414032483496502
292,2384.03,1.3541884852795683
293,2395.0299999999997,1.4024564943684124
294,2406.0899999999997,1.3586435144159226
295,2417.19,1.3719025417692106
296,2422.7599999999998,1.4074295590987433
297,2433.95,1.3603416028900313
298,2445.1800000000003,1.4056386539870962
299,2456.4700000000003,1.390190716042828
300,2467.81,1.3749997872307818
301,2473.5,1.3409408264776475
302,2484.91,1.363438910450712
303,2496.38,1.2878290053824428
304,2502.14,1.3802760574144195
305,2511.88643,1.3031038327274906
306,2513.69,1.2888227100545426
307,2519.48,1.3252633007698233
308,2525.29,1.2806078900713402
309,2536.9399999999996,1.2812710665537272
310,2542.79,1.2611136530277158
311,2554.5299999999997,1.3121258231481643
312,2566.32,1.2888499897342023
313,2572.2400000000002,1.3283485712600163
314,2584.11,1.319902732190998
315,2596.04,1.308493888880687
316,2602.02,1.2731774661652087
317,2614.0299999999997,1.2621666171998414
318,2626.1,1.2804077639931815
319,2632.1499999999996,1.2985553363295284
320,2644.3,1.3542264774678119
321,2656.51,1.3643426143648032
322,2662.63,1.2913551817529756
323,2674.92,1.3190893129949104
324,2687.27,1.3167754399955527
325,2693.4599999999996,1.2724220024355506
326,2705.9,1.2848901230742542
327,2712.1299999999997,1.2473566826867237
328,2724.65,1.2365997976703709
329,2737.23,1.2690099084127253
330,2743.54,1.1737794623701385
331,2756.2,1.1853085674574366
332,2762.56,1.2076681178804394
333,2775.3100000000004,1.2364842166057988
334,2788.12,1.2007053110898656
335,2794.55,1.072907856564694
336,2807.44,1.1163699453937044
337,2813.9199999999996,1.2159634873341223
338,2826.9,1.230747569801194
339,2833.4199999999996,1.1893041089140837
340,2846.5,1.1736631843123346
341,2853.06,1.1499217205976962
342,2866.23,1.2047947896340083
343,2872.8399999999997,1.1996093223849593
344,2884.0315,1.1955345214362605
345,2886.1,1.1947815282854939
346,2892.75,1.1923895186652709
347,2912.7999999999997,1.2325274896599363
348,2932.99,1.1999884604520712
349,2953.33,1.1764144310272084
350,2966.96,1.1798184113093677
351,2987.52,1.1727523815662417
352,3008.23,1.1684133516061186
353,3029.08,1.166787321443464
354,3050.08,1.1571342910638125
355,3071.2200000000003,1.1528762604816294
356,3092.5099999999998,1.1433552296824492
357,3106.78,1.1387992090387524
358,3128.32,1.1216281778779094
359,3150.0,1.1149611465145355
360,3171.84,1.1108761149196975
361,3186.48,1.0713760937407404
362,3208.57,1.0873120617842398
363,3230.81,1.056245029610742
364,3253.2,1.0843909972202466
365,3268.22,1.1001779754915622
366,3290.8700000000003,1.0886529427249376
367,3311.31121,1.080643040243055
368,3313.69,1.0797108473697041
369,3321.3199999999997,1.0825576363668081
370,3328.9800000000005,1.1081274245342807
371,3336.65,1.1059562124252098
372,3344.35,1.0638429994865073
373,3352.0499999999997,1.069115786547805
374,3359.78,1.0645515727794712
375,3367.53,1.0649023584580501
376,3375.2900000000004,0.9918765438600851
377,3383.07,1.0153129287090323
378,3390.8700000000003,1.0684197130048925
379,3398.6899999999996,1.0786614967476649
380,3406.52,1.0304652802138934
381,3414.38,1.0499710628504908
382,3422.25,1.0847258452105444
383,3430.13,1.0652946272940542
384,3438.04,1.0681034085479326
385,3445.97,0.9971503892487235
386,3453.91,1.0712859696729706
387,3461.8700000000003,0.9978290495441302
388,3469.85,1.0120585288622022
389,3477.85,0.9825408076271869
390,3485.87,1.0104130858390838
391,3493.91,1.0037958634978932
392,3501.96,1.011102640880159
393,3510.03,1.0021744177093372
394,3518.1200000000003,0.9842225939854278
395,3526.23,0.984566269708431
396,3534.3599999999997,1.0124977448783465
397,3542.5099999999998,1.0484255194951744
398,3550.68,1.043971293558915
399,3558.8599999999997,1.0182200673461115
400,3567.07,1.039885840303677
401,3575.29,0.9509196129846986
402,3583.5299999999997,0.9317440851126327
403,3591.7900000000004,0.9066809566874793
404,3600.07,0.9967773277092382
405,3608.3700000000003,0.9632759981779097
406,3616.69,0.9702898680934936
407,3625.03,0.99553513745599
408,3633.38,1.0050910065419427
409,3641.76,1.0194437747982639
410,3650.1499999999996,0.9851829427780415
411,3650.23,0.8097253405656913
412,3652.91,0.8245452664519611
413,3655.59,1.074505392338231
414,3658.2599999999998,0.9929443185010446
415,3660.9399999999996,0.7773379443873144
416,3663.6200000000003,0.9246664702735842
417,3666.29,0.7087753964363979
418,3668.97,0.5591413223226677
419,3671.65,0.6470062482089374
420,3674.3199999999997,0.725830374371751
421,3677.0000000000005,1.0150168002580209
422,3679.6800000000003,0.9510145261442906
423,3682.36,0.6679065520305605
424,3685.03,1.0110325781933742
425,3687.71,0.9858275040796439
426,3690.39,0.9843505299659137
427,3693.0600000000004,1.1193313561287273
428,3695.7400000000002,0.9742326820149971
429,3698.42,0.979139307901267
430,3701.09,0.8659632340640806
431,3703.77,1.0696270599503503
432,3706.45,1.1266899858366202
433,3709.13,0.92521621172289
434,3711.8,0.8256894378857036
435,3714.48,0.9014212637719735
436,3717.16,1.1539186896582434
437,3719.83,1.4301506158210568
438,3722.5099999999998,2.3296265417073267
439,3725.19,3.6440944675935967
440,3727.86,4.07964739375641
441,3730.54,3.94025231964268
442,3733.22,2.1637632455289495
443,3735.89,1.4036801716917633
444,3738.57,1.0395560975780331
445,3741.25,0.733381723464303
446,3743.93,0.9821566493505728
447,3746.6,0.9220339755133864
448,3749.2799999999997,1.0418988013996562
449,3751.9599999999996,0.809692727285926
450,3754.63,0.7368439534487397
451,3757.31,1.2128745793350095
452,3759.9900000000002,0.9825294052212793
453,3762.66,1.0589144313840928
454,3765.3399999999997,1.0057763572703626
455,3768.0200000000004,1.1979962831566326
456,3770.7000000000003,0.6094465090429023
457,3773.37,0.921619435205716
458,3776.05,1.0693070610919857
459,3778.73,1.2385569869782556
460,3781.3999999999996,1.193766913141069
461,3784.0800000000004,0.985135939027339
462,3786.76,1.5393387649136088
463,3789.43,1.1236036910764224
464,3792.11,1.174407616962692
465,3794.79,1.2092185428489621
466,3797.47,1.1343514687352318
467,3800.1400000000003,0.9600437948980455
468,3801.8939600000003,1.2279510576680188
469,3802.82,1.3693983261202678
470,3805.5,1.1955122674490157
471,3808.17,1.3796862089966864
472,3810.85,1.1914611503254344
473,3813.53,1.0137690916541826
474,3816.2000000000003,0.9551222332018532
475,3818.88,1.4352469745306013
476,3821.56,1.3228239158593493
477,3824.23,1.14229785740702
478,3826.91,0.980517098735768
479,3829.59,1.0624247400645161
480,3832.27,0.9237104813932642
481,3834.94,1.1699676229409348
482,3837.62,0.630981864269683
483,3840.2999999999997,1.3807845055984311
484,3842.97,1.0745884471461016
485,3845.65,1.2066953884748497
486,3848.33,0.9643006298035977
487,3851.0,1.1693482713512682
488,3853.68,1.0851472126800163
489,3856.3599999999997,1.3546861540087645
490,3859.0400000000004,1.2857340953375125
491,3861.71,1.3737290368851833
492,3864.39,1.2880389782139312
493,3867.07,1.4304169195426795
494,3869.74,1.17371786109035
495,3872.4199999999996,1.4472408024190981
496,3875.1000000000004,0.8936955437478461
497,3877.77,1.2199056852955168
498,3880.45,1.149602626624265
499,3883.13,1.046871567953013
500,3885.81,1.186741509281761
501,3888.4800000000005,1.2281214508294316
502,3891.1600000000003,1.0732193921581796
503,3893.84,1.032380333486928
504,3896.51,1.2858072750345984
505,3899.19,1.0744472163633463
506,3901.87,1.2846591576920945
507,3904.5400000000004,1.5052870992397651
508,3907.2200000000003,1.4665420405685132
509,3909.9,0.9627276818972613
510,3912.58,1.2892209232260092
511,3915.25,1.1480028647736802
512,3917.93,0.9943421061024281
513,3920.61,1.3902947474311762
514,3923.28,1.3090106889788466
515,3925.96,1.2719756303075949
516,3928.64,1.211585571636343
517,3931.31,1.1741985131840136
518,3933.99,1.2794074545127618
519,3936.67,1.2333283958415098
520,3939.34,1.3071363373891804
521,3942.02,1.3179982787179283
522,3944.7,1.3471972200466766
523,3947.3799999999997,1.0786211613754244
524,3950.0499999999997,1.2939261029230953
525,3952.73,1.5459550442518433
526,3955.41,1.2982509855805913
527,3958.08,1.390299927128262
528,3960.7599999999998,1.12532086845701
529,3963.4399999999996,1.0678678097857581
530,3966.11,0.9530921513334287
531,3968.79,1.1066396926621769
532,3971.47,1.0957596339909248
533,3974.15,1.305019575319673
534,3976.8199999999997,1.1944785168673435
535,3979.5000000000005,1.1460144581960916
536,3982.1800000000003,1.2739303995248399
537,3984.85,1.3951243410725105
538,3987.53,1.3593852824012587
539,3990.21,1.4294502237300064
540,3992.8799999999997,1.437865165277677
541,3995.5600000000004,1.4604741066064253
542,3998.2400000000002,1.2407450479351734
543,4000.92,1.1545319892639212
544,4003.59,1.336182930811592
545,4006.27,1.37686687214034
546,4008.95,1.4083548134690882
547,4011.6200000000003,1.5687047550167588
548,4014.3,1.5904866963455069
549,4016.98,1.491353637674255
550,4019.65,1.2653725792219255
551,4022.33,1.3042225205506737
552,4025.0099999999998,1.3751554618794217
553,4027.6800000000003,1.2377434034270924
554,4030.36,1.2500803447558404
555,4033.04,1.3138722860845886
556,4035.72,1.3586372274133367
557,4038.39,1.3062501689610073
558,4041.07,1.279018110289755
559,4043.75,1.3008830516185033
560,4046.42,1.2194739931661738
561,4049.1,1.257689934494922
562,4051.7799999999997,1.28024387582367
563,4054.45,1.3528938173713407
564,4057.13,1.338166758700089
565,4059.81,1.1906277000288368
566,4062.4900000000002,1.350267641357585
567,4065.16,1.3616735829052555
568,4067.8399999999997,1.2995605242340036
569,4070.5200000000004,1.2366474655627517
570,4073.19,1.2761794071104224
571,4075.87,1.3099423484391706
572,4078.55,1.3136492897679184
573,4081.22,1.3592212313155894
574,4083.8999999999996,1.353731172644337
575,4086.5800000000004,1.3246931139730853
576,4089.26,1.1887500553018333
577,4091.93,1.201851996849504
578,4094.61,1.221937938178252
579,4097.29,1.1410738795070001
580,4099.96,1.2550018210546707
581,4102.64,1.2773357623834187
582,4105.32,1.321245703712167
583,4107.990000000001,1.2175146452598375
584,4110.67,1.1405245865885858
