,lambda (Angstroms),Total Flux (erg/s/cm^2/Angstrom)
0,100.07000000000001,0.015506612344639951
1,101.93,0.018637385511190263
2,104.07,0.022239455860886933
3,104.712855,0.023321516936523356
4,106.0,0.021513809035690726
5,107.97,0.01874707967062295
6,109.98,0.01592418789347347
7,114.11,0.010123897360084929
8,118.11999999999999,0.004492143022481435
9,120.22644299999999,0.0015339931757812955
10,120.87,0.0014922366665711866
11,125.12,0.001216178924323694
12,126.86,0.0011031743988353093
13,128.03,0.0010271850722707056
14,131.01,0.0008336447317112878
15,131.92000000000002,0.0007746261517277055
16,134.06,0.0006356543461454395
17,136.87,0.00045331762111592097
18,138.038426,0.00037746136811342635
19,140.06,0.0003729503874034907
20,142.98999999999998,0.0003676468193101918
21,147.0,0.00036110456269103526
22,151.12,0.00035264798235165243
23,154.99,0.00034498183146732924
24,158.489319,0.00033819928731398024
25,158.97000000000003,0.0003366757548825997
26,161.92000000000002,0.0003274404484940049
27,166.08,0.0003145798276680544
28,169.95,0.0003027965475006438
29,173.11,0.00029325710273862355
30,177.14000000000001,0.000281319116000984
31,180.02,0.00027298045773686434
32,181.970086,0.0002673814182410917
33,182.1,0.0002676139695595796
34,185.91,0.00027472966791036306
35,191.12,0.0002844951763900432
36,193.78,0.0002901175146349472
37,197.84,0.0002982679730087479
38,201.98000000000002,0.00030692338538991417
39,204.79000000000002,0.00031319491364862847
40,208.929613,0.00032100290225579327
41,210.04,0.00032948934080166773
42,215.93,0.0003789046355883195
43,219.94,0.0004118544664192995
44,223.0,0.0004365855861556585
45,227.14999999999998,0.0004713848346216354
46,229.77999999999997,0.0005275324873362184
47,234.04999999999998,0.0006345225152036213
48,239.88329199999998,0.0007289745621500503
49,240.06,0.0007296148834415907
50,246.21,0.0006991930318538134
51,251.95,0.0006926937970385548
52,257.21999999999997,0.0006311195912064271
53,260.2,0.0006579889180793415
54,263.82,0.0006590738480390563
55,268.73,0.0006433518154706033
56,273.72,0.0006261733332880002
57,275.42287,0.0006203634121027157
58,278.81,0.0006485642472036782
59,284.0,0.0006919181571304527
60,289.94,0.0007263257043298823
61,296.01,0.0007830069619899055
62,300.82,0.000814721049031868
63,307.83000000000004,0.0008774445054069528
64,316.227766,0.0009524971241053229
65,317.92,0.0009498520893085801
66,328.33,0.0009225007738274019
67,338.31,0.0008936726028857917
68,347.78999999999996,0.0008654067348971683
69,356.71000000000004,0.0008389916342158893
70,363.078055,0.0008209313680893288
71,365.86,0.0008350305658305548
72,375.24,0.0008779642523089713
73,384.87,0.0009066627324568551
74,394.74,0.0009645760585274277
75,404.87,0.0010107014260142464
76,414.3,0.0010496132512265565
77,416.86938299999997,0.0010593528361859904
78,422.0,0.0010716903382617092
79,429.84000000000003,0.0010905268247244273
80,440.87,0.0011223741623116448
81,451.14,0.0011463013930478841
82,459.53000000000003,0.0011650174331527575
83,470.23,0.0011911818585546817
84,478.630092,0.0012130831790608367
85,480.08000000000004,0.00120989743575139
86,490.13,0.0011825181486219542
87,500.39,0.001163845774895784
88,506.19,0.0012233886022240698
89,512.05,0.0017125001905247171
90,520.37,0.001727830778692189
91,530.0400000000001,0.0017522387387377963
92,539.9,0.0016969248251958824
93,549.5408739999999,0.002005556524999218
94,549.93,0.002018728964294482
95,560.1600000000001,0.002254739548313586
96,570.5699999999999,0.0024575924475940232
97,579.84,0.002389510683552684
98,590.62,0.0027778963419814173
99,600.22,0.002869381822585855
100,609.97,0.0032521832325747378
101,619.88,0.0036590377005736936
102,629.9599999999999,0.003924579355208353
103,630.957344,0.003932577662562015
104,640.19,0.004025851061756728
105,650.6,0.004529235427369032
106,658.13,0.004823413864742774
107,665.75,0.0051264949248739705
108,675.0100000000001,0.005269616110807682
109,684.4,0.005314260751835494
110,695.52,0.006589478141423277
111,705.2,0.00643374356689178
112,716.66,0.007621523531341059
113,724.43596,0.007906823433476009
114,726.6300000000001,0.00798619186573182
115,735.04,0.00832709384253407
116,745.27,0.009350463106825036
117,755.63,0.009968603820222337
118,764.3800000000001,0.010627836125456544
119,775.02,0.011559375344621342
120,785.8,0.012493109816669885
121,794.9000000000001,0.013091761254113463
122,804.0999999999999,0.013720250729331144
123,815.2900000000001,0.014285384156253519
124,824.73,0.01565145692212905
125,831.763771,0.014177309332044204
126,834.28,0.013644510333710018
127,845.88,0.016677734573876595
128,855.6800000000001,0.017345388673327668
129,865.5899999999999,0.018617009614711355
130,875.61,0.01998666739802766
131,885.75,0.021656127190724992
132,896.01,0.02284453899280336
133,904.3,0.023196412807543098
134,914.77,0.035823363126038274
135,925.3599999999999,0.2480535054539145
136,936.0799999999999,0.5650971049586201
137,944.74,1.1349253599689513
138,954.992586,1.5735905676214488
139,955.68,1.6030029916095145
140,964.52,1.9050739191466572
141,975.69,0.3469736004351058
142,984.72,1.8026271834283636
143,996.12,1.8193035107952673
144,1005.34,2.45970634924464
145,1014.64,2.3061431689386933
146,1024.03,0.933210667533011
147,1035.8799999999999,1.6939871894012397
148,1045.47,3.0609829411072575
149,1055.1399999999999,2.998282674057956
150,1064.91,2.4710213835645036
151,1074.76,2.883125074315732
152,1084.7,2.3652697439672252
153,1094.74,2.998270390174568
154,1096.4782,2.968361274593329
155,1104.8700000000001,2.8239598251057867
156,1115.09,2.74068332608419
157,1125.41,2.465337753686648
158,1135.82,3.019056115250756
159,1143.7,2.759686333226276
160,1154.28,2.896454570051277
161,1164.96,2.9844027335003322
162,1175.74,2.147219823573443
163,1183.8899999999999,2.9299468434339113
164,1194.8400000000001,2.217552808767915
165,1205.9,1.632681693388379
166,1214.26,0.9482755591593625
167,1225.49,2.0552663190407197
168,1233.99,2.91636708208538
169,1245.41,3.117781702552441
170,1254.04,2.998124370208373
171,1258.92541,2.8712534262891607
172,1265.64,2.6968851359393526
173,1274.42,3.197730594183624
174,1286.21,3.2647792095253045
175,1295.12,2.6782566745545138
176,1304.1,2.715503143237151
177,1316.17,3.2051837731925445
178,1325.2900000000002,3.0467762491820385
179,1334.48,2.77240972882496
180,1343.73,3.1321062115993916
181,1356.1599999999999,3.060875860343844
182,1365.5600000000002,2.8044063509470503
183,1375.03,2.8697658452036845
184,1384.56,2.8963743425918285
185,1394.16,2.4879918436334005
186,1403.8200000000002,2.6053453478064825
187,1413.5500000000002,2.7092808556329926
188,1426.63,2.728044538302135
189,1436.52,2.746934054479338
190,1443.15,2.8434424005111736
191,1445.43977,2.843439769543987
192,1446.48,2.8434385655847665
193,1456.5,2.778802004501524
194,1466.6000000000001,2.605338446922606
195,1473.37,2.605322743476144
196,1483.58,2.6053281907156745
197,1493.86,2.6173556410214887
198,1504.22,2.470894094831629
199,1511.16,2.232821398831858
200,1518.14,2.34887970458425
201,1525.14,2.343530011212723
202,1535.7199999999998,2.074241474659758
203,1546.36,2.172019940735037
204,1553.4999999999998,2.07908125349608
205,1564.2700000000002,2.152142725265888
206,1575.1100000000001,2.2692092001019804
207,1586.03,2.3220206784423985
208,1593.3500000000001,2.354283999088173
209,1604.3899999999999,2.316641482685079
210,1615.52,2.3166319702243516
211,1626.71,2.2328194603918683
212,1634.22,2.3435177893604155
213,1645.5500000000002,2.348897285660501
214,1653.1499999999999,2.232790618571415
215,1659.58691,2.313262947549091
216,1664.61,2.3760615073851046
217,1672.29,2.2277139641626094
218,1676.14,2.3815941957502917
219,1683.88,2.4203356717213707
220,1695.5500000000002,2.3060474048715642
221,1703.3799999999999,2.222627909633005
222,1715.19,2.1177056875682054
223,1723.1,2.1031032179210785
224,1735.05,2.207324040641285
225,1743.06,2.147217602983449
226,1755.14,2.243182467289733
227,1763.24,2.1080670584222583
228,1775.46,2.117737967513549
229,1783.6599999999999,2.1472135906353644
230,1796.0200000000002,2.232866544511662
231,1804.3100000000002,2.232854196423839
232,1816.8200000000002,2.060101198284072
233,1825.1999999999998,2.11773787898661
234,1833.6299999999999,2.0459095756837935
235,1846.34,1.8961906415226075
236,1854.8600000000001,1.8788173670101525
237,1863.42,1.9270881052934135
238,1876.34,2.0553092383097376
239,1885.0,1.8832340085822887
240,1893.7,1.7860427916505563
241,1905.46072,1.9003870862022423
242,1906.83,1.9136989892049705
243,1915.63,1.8234083605644578
244,1924.47,1.7779047154301244
245,1933.3500000000001,1.8530560538019707
246,1946.7499999999998,1.909292528372099
247,1955.74,1.7737508213859388
248,1964.7700000000002,1.913694097905958
249,1973.8400000000001,1.9718573579321568
250,1982.95,1.8615596014645353
251,1996.69,1.815099935837189
252,2005.9099999999999,1.865830134011561
253,2015.17,1.8233573156921123
254,2024.4699999999998,1.9005734808788433
255,2033.8100000000002,1.7818706295717535
256,2043.2,1.8233557576473882
257,2057.36,1.753453918834927
258,2066.86,1.7778390015525551
259,2071.63,1.8702110346644591
260,2076.4,1.7574290677763629
261,2085.9900000000002,1.8233251133828952
262,2095.61,1.7293051466190617
263,2105.29,1.7655551551144977
264,2115.0,1.7736941512395683
265,2124.77,1.7942221226239081
266,2134.57,1.7214420816378826
267,2144.43,1.7055680159111262
268,2154.32,1.7614029378140048
269,2164.27,1.725273834976152
270,2174.26,1.7095487156444793
271,2184.29,1.6782565798189857
272,2187.7616199999998,1.6958042046153257
273,2194.38,1.7292623241706166
274,2204.51,1.6899626545093422
275,2214.68,1.6400749979984675
276,2224.9,1.5918253579255923
277,2235.17,1.651526734290717
278,2245.49,1.6144401270938409
279,2255.86,1.5638265363349648
280,2266.27,1.5900339587264884
281,2276.73,1.6054853975560115
282,2287.2400000000002,1.6249198528235342
283,2292.51,1.5521335853886953
284,2303.09,1.5599970636694178
285,2313.72,1.5077475583881397
286,2324.4,1.257663069544861
287,2335.13,1.4346775971395822
288,2345.91,1.4091811411723032
289,2356.74,1.4628107016430234
290,2367.62,1.3975922785517434
291,2373.0699999999997,1.4141520702937034
292,2384.03,1.3543096735032227
293,2395.0299999999997,1.4025792898631422
294,2406.0899999999997,1.3587679259486607
295,2417.19,1.372028575184579
296,2422.7599999999998,1.4075564063777382
297,2433.95,1.3604700852020561
298,2445.1800000000003,1.4057687771767733
299,2456.4700000000003,1.3903224888770904
300,2467.81,1.3751332170154071
301,2473.5,1.3410750876597652
302,2484.91,1.3635748388112816
303,2496.38,1.2879666096883973
304,2502.14,1.380414503345955
305,2511.88643,1.3032437027640285
306,2513.69,1.2889624780981765
307,2519.48,1.325402741385682
308,2525.29,1.2807470021284122
309,2536.9399999999996,1.281409519796709
310,2542.79,1.2612517754498882
311,2554.5299999999997,1.3122632816666957
312,2566.32,1.288986781521564
313,2572.2400000000002,1.3284850282680294
314,2584.11,1.3200385179437963
315,2596.04,1.3086289999852367
316,2602.02,1.2733122390973755
317,2614.0299999999997,1.2623007109597142
318,2626.1,1.2805411751877265
319,2632.1499999999996,1.2986884053931511
320,2644.3,1.3543588594420617
321,2656.51,1.3644743058566458
322,2662.63,1.2914865271553562
323,2674.92,1.3192199633908386
324,2687.27,1.3169053919919946
325,2693.4599999999996,1.2725516043839908
326,2705.9,1.2850190215336574
327,2712.1299999999997,1.247485228836103
328,2724.65,1.2367276358066674
329,2737.23,1.2691370351429057
330,2743.54,1.1739062322662495
331,2756.2,1.1854346214233857
332,2762.56,1.2077938121847909
333,2775.3100000000004,1.2366091898904377
334,2788.12,1.2008295599617582
335,2794.55,1.073031741816449
336,2807.44,1.116493101708668
337,2813.9199999999996,1.21608627720142
338,2826.9,1.2308696256421492
339,2833.4199999999996,1.1894257960453505
340,2846.5,1.1737841317622024
341,2853.06,1.1500422970758528
342,2866.23,1.204914621341215
343,2872.8399999999997,1.1997287802929268
344,2884.0315,1.1956533464585721
345,2886.1,1.194900350913889
346,2892.75,1.1925083335974873
347,2912.7999999999997,1.2326462813878856
348,2932.99,1.200107228813728
349,2953.33,1.176533175848975
350,2966.96,1.1799371403568617
351,2987.52,1.1728710868192354
352,3008.23,1.1685320328910134
353,3029.08,1.1669059785982354
354,3050.08,1.1572529239148623
355,3071.2200000000003,1.152994868866933
356,3092.5099999999998,1.1434738134284084
357,3106.78,1.1389177762697542
358,3128.32,1.121746720180237
359,3150.0,1.115079663726164
360,3171.84,1.1109946068554557
361,3186.48,1.0714945687333326
362,3208.57,1.0874305112116318
363,3230.81,1.0563634532993356
364,3253.2,1.0845093949964437
365,3268.22,1.1002963558848118
366,3290.8700000000003,1.0887712969048877
367,3311.31121,1.0807613707659822
368,3313.69,1.0798291252654673
369,3321.3199999999997,1.0826757454602547
370,3328.9800000000005,1.1082453641617054
371,3336.65,1.1060739823653776
372,3344.35,1.063960599075713
373,3352.0499999999997,1.069233215786049
374,3359.78,1.0646688310030483
375,3367.53,1.06501944522449
376,3375.2900000000004,0.991993458948153
377,3383.07,1.0154296716762585
378,3390.8700000000003,1.0685362834088064
379,3398.6899999999996,1.0787778941457968
380,3406.52,1.0305815043850082
381,3414.38,1.0500871131308833
382,3422.25,1.0848417213789798
383,3430.13,1.0654103291292973
384,3438.04,1.0682189353862788
385,3445.97,0.9972657406477022
386,3453.91,1.0714011454113472
387,3461.8700000000003,0.9979440491794345
388,3469.85,1.0121733519519642
389,3477.85,0.9826554537289365
390,3485.87,1.010527554510351
391,3493.91,1.003910154296208
392,3501.96,1.0112167535842864
393,3510.03,1.002288351876807
394,3518.1200000000003,0.9843363491737701
395,3526.23,0.9846798454751757
396,3534.3599999999997,1.0126111407810237
397,3542.5099999999998,1.048538735091314
398,3550.68,1.0440843284060468
399,3558.8599999999997,1.0183329212230008
400,3567.07,1.0399985125466185
401,3575.29,0.9510321033724576
402,3583.5299999999997,0.9318563932027389
403,3591.7900000000004,0.9067930820374627
404,3600.07,0.9968892698766288
405,3608.3700000000003,0.9633877567202375
406,3616.69,0.9704014425682885
407,3625.03,0.9956465274207821
408,3633.38,1.0052022117754968
409,3641.76,1.019554794636875
410,3650.1499999999996,0.9852937770004747
411,3650.23,0.8098361730182445
412,3652.91,0.8246560396135301
413,3655.59,1.0746161062088158
414,3658.2599999999998,0.9930549733018802
415,3660.9399999999996,0.777448539897166
416,3663.6200000000003,0.9247770064924515
417,3666.29,0.7088858735855161
418,3668.97,0.5592517401808017
419,3671.65,0.6471166067760874
420,3674.3199999999997,0.7259406738691518
421,3677.0000000000005,1.0151270404644377
422,3679.6800000000003,0.9511247070597232
423,3682.36,0.6680166736550089
424,3685.03,1.0111426407480735
425,3687.71,0.985937507343359
426,3690.39,0.9844604739386447
427,3693.0600000000004,1.1194412410317092
428,3695.7400000000002,0.9743425076269948
429,3698.42,0.9792490742222806
430,3701.09,0.8660729413153451
431,3703.77,1.0697367079106308
432,3706.45,1.1267995745059163
433,3709.13,0.9253257411012021
434,3711.8,0.8257989081942665
435,3714.48,0.9015306747895523
436,3717.16,1.154028041384838
437,3719.83,1.4302599084779022
438,3722.5099999999998,2.3297357750731877
439,3725.19,3.6442036416684735
440,3727.86,4.079756508761538
441,3730.54,3.940361375356824
442,3733.22,2.1638722419521095
443,3735.89,1.403789109045174
444,3738.57,1.0396649756404597
445,3741.25,0.7334905422357454
446,3743.93,0.982265408831031
447,3746.6,0.9221426759240956
448,3749.2799999999997,1.0420074425193813
449,3751.9599999999996,0.8098013091146669
450,3754.63,0.7369524762077313
451,3757.31,1.212983042803017
452,3759.9900000000002,0.9826378093983027
453,3762.66,1.0590227764913671
454,3765.3399999999997,1.0058846430866528
455,3768.0200000000004,1.1981045096819385
456,3770.7000000000003,0.6095546762772242
457,3773.37,0.9217275433702887
458,3776.05,1.0694151099655744
459,3778.73,1.23866497656086
460,3781.3999999999996,1.1938748436539246
461,3784.0800000000004,0.9852438102492102
462,3786.76,1.5394465768444958
463,3789.43,1.1237114439375604
464,3792.11,1.1745153105328459
465,3794.79,1.2093261771281316
466,3797.47,1.1344590437234174
467,3800.1400000000003,0.9601513108164819
468,3801.8939600000003,1.2280585347827184
469,3802.82,1.369505787016482
470,3805.5,1.1956196814082285
471,3808.17,1.3797935761940354
472,3810.85,1.191568470585782
473,3813.53,1.0138763649775286
474,3816.2000000000003,0.9552294597633357
475,3818.88,1.4353541541550823
476,3821.56,1.3229310485468286
477,3824.23,1.142404943332636
478,3826.91,0.9806241377243825
479,3829.59,1.0625317321161292
480,3832.27,0.9238174265078755
481,3834.94,1.1700745212936827
482,3837.62,0.6310887156854292
483,3840.2999999999997,1.3808913100771758
484,3842.97,1.0746952048629828
485,3845.65,1.2068020992547293
486,3848.33,0.9644072936464759
487,3851.0,1.169454888432283
488,3853.68,1.0852537828240296
489,3856.3599999999997,1.3547926772157761
490,3859.0400000000004,1.2858405716075227
491,3861.71,1.3738354663933299
492,3864.39,1.2881453607850764
493,3867.07,1.430523255176823
494,3869.74,1.17382414996263
495,3872.4199999999996,1.4473470443543766
496,3875.1000000000004,0.893801738746123
497,3877.77,1.2200118335319303
498,3880.45,1.1497087279236766
499,3883.13,1.0469776223154232
500,3885.81,1.1868475167071697
501,3888.4800000000005,1.228227411492977
502,3891.1600000000003,1.0733253058847234
503,3893.84,1.03248620027647
504,3896.51,1.285913095062277
505,3899.19,1.0745529894540236
506,3901.87,1.2847648838457701
507,3904.5400000000004,1.5053927786315773
508,3907.2200000000003,1.4666476730233238
509,3909.9,0.9628332674150705
510,3912.58,1.2893264618068168
511,3915.25,1.1481083565926242
512,3917.93,0.9944475509843705
513,3920.61,1.3904001453761172
514,3923.28,1.3091160401619242
515,3925.96,1.2720809345536708
516,3928.64,1.2116908289454174
517,3931.31,1.1743037237312244
518,3933.99,1.279512618122971
519,3936.67,1.2334335125147176
520,3939.34,1.3072414073005247
521,3942.02,1.3181033016922712
522,3944.7,1.3473021960840177
523,3947.3799999999997,1.078726090475764
524,3950.0499999999997,1.2940309852615715
525,3952.73,1.546059879653318
526,3955.41,1.2983557740450644
527,3958.08,1.3904046688308715
528,3960.7599999999998,1.125425563222618
529,3963.4399999999996,1.0679724576143645
530,3966.11,0.9531967524001718
531,3968.79,1.1067442467919182
532,3971.47,1.0958641411836647
533,3974.15,1.3051240355754112
534,3976.8199999999997,1.1945829303612185
535,3979.5000000000005,1.146118824752965
536,3982.1800000000003,1.2740347191447117
537,3984.85,1.3952286139305188
538,3987.53,1.3594895083222653
539,3990.21,1.4295544027140117
540,3992.8799999999997,1.4379692974998188
541,3995.5600000000004,1.4605781918915655
542,3998.2400000000002,1.240849086283312
543,4000.92,1.1546359806750583
544,4003.59,1.3362868754608657
545,4006.27,1.3769707698526124
546,4008.95,1.4084586642443586
547,4011.6200000000003,1.568808559030166
548,4014.3,1.5905904534219124
549,4016.98,1.491457347813659
550,4019.65,1.265476242599466
551,4022.33,1.3043261369912125
552,4025.0099999999998,1.3752590313829591
553,4027.6800000000003,1.2378469261687661
554,4030.36,1.2501838205605127
555,4033.04,1.3139757149522593
556,4035.72,1.3587406093440058
557,4038.39,1.306353504129813
558,4041.07,1.2791213985215595
559,4043.75,1.300986292913306
560,4046.42,1.219577187699113
561,4049.1,1.2577930820908596
562,4051.7799999999997,1.280346976482606
563,4054.45,1.3529968712684133
564,4057.13,1.3382697656601599
565,4059.81,1.1907306600519063
566,4062.4900000000002,1.3503705544436528
567,4065.16,1.3617764492294602
568,4067.8399999999997,1.2996633436212066
569,4070.5200000000004,1.2367502380129531
570,4073.19,1.2762821327987603
571,4075.87,1.3100450271905069
572,4078.55,1.3137519215822533
573,4081.22,1.3593238163680605
574,4083.8999999999996,1.3538337107598069
575,4086.5800000000004,1.3247956051515535
576,4089.26,1.1888524995433
577,4091.93,1.2019543943291071
578,4094.61,1.2220402887208537
579,4097.29,1.1411761831126002
580,4099.96,1.2551040778984075
581,4102.64,1.2774379722901539
582,4105.32,1.3213478666819005
583,4107.990000000001,1.2176167614677076
584,4110.67,1.1406266558594542
