,lambda (Angstroms),Total Flux (erg/s/cm^2/Angstrom)
0,102.01,36.52888253741572
1,103.91,36.424775102692735
2,104.712855,36.38078396284479
3,106.08,35.987289888687556
4,108.06,35.417402849787564
5,110.06,34.84175947021893
6,113.93,33.72788950771592
7,117.94000000000001,32.57372461647051
8,120.22644299999999,31.915639726617425
9,120.96000000000001,31.73862732911119
10,124.92,30.783048447184527
11,126.95,30.29319357404138
12,128.13,30.008450490936106
13,131.10999999999999,29.289353460232448
14,132.02,29.06976529857758
15,133.86,28.62575949531753
16,136.98,27.872882974526583
17,138.038426,27.61747721885666
18,139.85,27.305013208906235
19,143.1,26.744492473389684
20,147.11,26.05297099849196
21,150.89,25.401016033297754
22,155.11,24.673175850648136
23,158.489319,24.09033913939935
24,159.09,24.01201700920687
25,162.05,23.626067294095456
26,165.82,23.134516188822147
27,170.07999999999998,22.579065912785463
28,172.84,22.219209164685633
29,176.87,21.693760759007265
30,180.16,21.264794293881756
31,181.82,21.048367696295625
32,181.970086,21.02879916579062
33,186.06,20.621996904722693
34,190.82999999999998,20.14756500407125
35,193.93,19.839241872408255
36,197.99,19.435430706089623
37,202.14,19.02268006639078
38,204.95,18.74321343048626
39,208.929613,18.347367903776288
40,210.21,18.251623051778726
41,216.1,17.811329499205744
42,220.10999999999999,17.511546120251985
43,223.18,17.282010309107832
44,226.79999999999998,17.01141534898997
45,229.95999999999998,16.776165392268307
46,234.23,16.45899620109061
47,239.88329199999998,16.037562454133543
48,240.24,16.017091056974753
49,245.84,15.694252958059032
50,252.14000000000001,15.331849316778845
51,256.83,15.060638636936932
52,259.81,14.889950298728209
53,264.03,14.647278374902436
54,268.94,14.364528988031687
55,273.94,14.076541675285506
56,275.42287,13.991138162864939
57,279.03000000000003,13.831737488786656
58,284.21999999999997,13.602390132526835
59,290.17,13.339040964529543
60,296.24,13.070936769468439
61,301.06,12.857838375238698
62,308.07,12.54813334134441
63,316.227766,12.18771203025833
64,318.15999999999997,12.123975228700157
65,327.83,11.804831420052297
66,337.79,11.475994145922758
67,348.05999999999995,11.136869120761078
68,356.98,10.842373785255505
69,363.078055,10.641061317097611
70,366.14,10.565380490592894
71,374.67,10.354437623846005
72,385.17,10.0944151843217
73,395.05,9.850410946635971
74,405.18,9.599965260628238
75,413.67,9.389907165612868
76,416.86938299999997,9.31071873458278
77,422.33,9.20749266857874
78,430.18,9.05914524082954
79,441.21,8.850848297062196
80,451.49,8.656506423016111
81,459.88,8.497902173867608
82,469.51,8.315896202246616
83,478.630092,8.1435997574738
84,480.45,8.117158135598824
85,490.51,7.970733919023173
86,499.63,7.838284949602701
87,506.58000000000004,7.73710865170004
88,512.45,7.6522298020182244
89,519.5799999999999,7.548566492745422
90,530.46,7.390278609928018
91,540.3199999999999,7.246636054874745
92,549.5408739999999,7.112596685496472
93,550.36,7.103512287937499
94,560.59,6.990287874740355
95,569.7,6.8894556305540435
96,580.3,6.771718498844394
97,589.7199999999999,6.667397396985442
98,600.6899999999999,6.5454608267632866
99,610.45,6.436266160811758
100,620.37,6.327553991287258
101,630.45,6.2156610401897785
102,630.957344,6.21003822260707
103,640.69,6.124533778259124
104,649.6,6.046234476739533
105,658.6400000000001,5.966691739709554
106,664.74,5.913262878837557
107,675.5400000000001,5.818278383359264
108,684.93,5.735363472262861
109,694.4599999999999,5.652295257539887
110,705.75,5.552573334368597
111,715.5699999999999,5.466888664276297
112,724.43596,5.388976367085504
113,725.5200000000001,5.381905047559034
114,735.61,5.316112837727511
115,745.85,5.2495815488697515
116,754.48,5.1934224342269335
117,764.98,5.124398112390364
118,775.62,5.055909912795972
119,784.6,4.997388873758601
120,795.52,4.926412288648569
121,804.73,4.866537580437634
122,815.92,4.793632121080377
123,825.37,4.732499192427464
124,831.763771,4.689661279451287
125,834.93,4.673663307817113
126,844.5999999999999,4.628296081518387
127,854.38,4.580671929367246
128,864.27,4.5329547813636895
129,874.2800000000001,4.484671438793861
130,884.4000000000001,4.436045370371618
131,894.64,4.386542697383103
132,905.0,4.335779129828315
133,915.48,4.291789607707257
134,923.95,4.3601388870712485
135,934.6500000000001,4.462265663245358
136,945.47,4.680314034853197
137,954.22,4.902739860229221
138,954.992586,4.901960633568627
139,965.27,4.892677327467677
140,974.2,4.112665928624417
141,985.48,4.56953134061188
142,994.6,4.632497437537912
143,1006.1199999999999,5.046236317865533
144,1015.43,4.996256510560859
145,1024.82,4.270819959369571
146,1034.31,4.471005653320015
147,1043.8799999999999,5.312371403383846
148,1055.96,5.2281471765051695
149,1065.73,4.747993916852467
150,1075.6000000000001,4.997645602341494
151,1085.55,4.55544564394391
152,1095.5900000000001,5.009405336173885
153,1096.4782,5.000075525475026
154,1105.73,4.910892586335903
155,1115.96,4.771155292399206
156,1126.29,4.561790409078965
157,1134.09,5.008761437162423
158,1144.5900000000001,4.777063551890153
159,1155.18,4.882535136172694
160,1165.87,4.89282913107169
161,1173.95,4.23942950888122
162,1184.81,4.766818501828189
163,1195.77,4.0610899053916105
164,1204.06,3.6717942454956956
165,1215.2,3.4762863881687363
166,1223.63,4.053310703135857
167,1234.95,4.735916984918516
168,1246.3799999999999,4.900818618379276
169,1255.02,4.727985695640952
170,1258.92541,4.560807089717718
171,1263.72,4.360942298507578
172,1275.4099999999999,4.955057116618471
173,1284.25,5.068332607816101
174,1296.13,4.3935163810545435
175,1305.12,4.333029205247609
176,1314.16,4.899210807105818
177,1326.32,4.747413935269073
178,1335.52,4.3821260256557455
179,1344.7700000000002,4.8672648937075635
180,1354.1000000000001,4.7566460060236135
181,1363.48,4.42602289600481
182,1376.1000000000001,4.530416178687398
183,1385.6399999999999,4.528062557197057
184,1395.24,4.21585786890489
185,1404.91,4.261979269343925
186,1414.65,4.252356758514165
187,1424.4599999999998,4.320143336415607
188,1434.3300000000002,4.260565847515222
189,1440.95,4.383806810380415
190,1445.43977,4.4080835905437
191,1447.6,4.42158071250215
192,1454.28,4.324920620342874
193,1464.3600000000001,4.103540367503725
194,1474.51,4.088219064297638
195,1484.74,4.1305632749579075
196,1495.03,4.160763871017943
197,1505.39,4.006437416711041
198,1512.3400000000001,3.7360545588507152
199,1515.83,3.885380476270494
200,1526.33,3.781291921229715
201,1533.38,3.505947705702334
202,1544.0100000000002,3.7008204856943827
203,1554.71,3.5738082153194934
204,1565.49,3.567006458810959
205,1576.34,3.6608056519354877
206,1583.6100000000001,3.7618948495405853
207,1594.59,3.777823377697942
208,1605.64,3.7272828554883595
209,1616.77,3.7222368471451333
210,1624.2400000000002,3.579270329416121
211,1635.5,3.6941806561057233
212,1646.83,3.705818932428387
213,1654.43,3.5168067497322038
214,1659.58691,3.5928539415836047
215,1665.8999999999999,3.689627200983892
216,1673.5900000000001,3.416042182371832
217,1677.45,3.6781587543038796
218,1685.19,3.787681673152079
219,1696.8700000000001,3.6302662638687417
220,1704.7,3.5283096701454086
221,1716.52,3.3948896857507993
222,1724.4399999999998,3.380306579455933
223,1736.3999999999999,3.4973230199500502
224,1744.41,3.442134401083652
225,1756.5,3.5748118789744443
226,1764.6100000000001,3.367628135028565
227,1776.8400000000001,3.4060630378080843
228,1785.04,3.4311257812906737
229,1793.28,3.58183007474147
230,1805.72,3.5470521148540795
231,1814.0500000000002,3.3554048957333436
232,1826.62,3.3868519732426288
233,1835.06,3.287228016534464
234,1843.53,3.1124232223024544
235,1856.3,3.0985430496527786
236,1864.8700000000001,3.1482091303412885
237,1873.4799999999998,3.306624760998007
238,1886.47,3.1299091131734738
239,1895.1699999999998,3.0527812312586593
240,1903.92,3.139781286804104
241,1905.46072,3.129477662218924
242,1917.12,3.0557462941413593
243,1925.9699999999998,3.021816998218042
244,1934.86,3.0526558003922464
245,1943.79,3.1298827006639725
246,1952.76,3.00939269903322
247,1966.3,3.1781909050443256
248,1975.37,3.218006148657378
249,1984.4899999999998,3.1048145148923325
250,1993.6499999999999,3.038451979224808
251,2002.85,3.0826955416548065
252,2016.74,2.9930396060192273
253,2026.0500000000002,3.071103438217409
254,2035.4,2.970776368513113
255,2044.79,3.0446633969063397
256,2054.23,2.9520025479214675
257,2063.71,2.9387357970341172
258,2073.2400000000002,3.0635931687686697
259,2078.02,3.0076968914225164
260,2082.81,3.0943786386007437
261,2097.25,2.969180051806088
262,2106.93,2.955720791406347
263,2116.65,2.972974629104127
264,2126.42,2.978900589423809
265,2136.2400000000002,2.8228586723653937
266,2146.1,2.8900318534045004
267,2156.0,2.9494031325411285
268,2165.9500000000003,2.8665885342996584
269,2175.9500000000003,2.8416880586800906
270,2186.0,2.8241917056824253
271,2187.7616199999998,2.836331998971106
272,2196.09,2.896414670608787
273,2206.2200000000003,2.8323570410398524
274,2216.41,2.7096839181072325
275,2226.64,2.658152799598822
276,2236.91,2.800237685514621
277,2247.2400000000002,2.709267078066734
278,2252.42,2.5998301510018695
279,2262.82,2.628876301296349
280,2273.26,2.6796834560150384
281,2283.75,2.74747186626399
282,2294.29,2.629733532043203
283,2304.88,2.6391974533526783
284,2315.52,2.531157630192416
285,2326.21,2.165630062562415
286,2336.9500000000003,2.363231750462676
287,2342.34,2.2922300966249107
288,2353.15,2.4469695422675386
289,2364.01,2.2712392434404283
290,2374.92,2.3244322001435798
291,2385.88,2.1873244123769933
292,2396.9,2.2804981312467207
293,2402.42,2.2196017417876375
294,2413.51,2.2602502183997313
295,2424.65,2.385970950542088
296,2435.84,2.3297649382147068
297,2447.09,2.422786432523639
298,2452.73,2.4091770563371844
299,2464.05,2.366647308388483
300,2475.42,2.2923528159700446
301,2486.85,2.2782778301879203
302,2492.58,2.2200037139559363
303,2504.09,2.4070487370222313
304,2511.88643,2.23284613367745
305,2515.64,2.1496225269582347
306,2527.26,2.1118174116129094
307,2533.08,2.1642698254416715
308,2544.77,2.144408510606315
309,2556.52,2.3165930247795017
310,2562.41,2.2208652391182313
311,2574.24,2.33174052530281
312,2586.12,2.281830668994509
313,2592.09,2.2395346553446305
314,2604.05,2.1667965710477213
315,2616.0699999999997,2.1297873157593568
316,2622.1,2.2348721311180215
317,2634.2,2.3860026478410483
318,2646.3599999999997,2.601819993572619
319,2652.46,2.7723916094412524
320,2664.71,2.413045698685639
321,2677.01,2.5276626454371454
322,2683.18,2.561846061815747
323,2695.5600000000004,2.399262780578645
324,2708.0,2.5102603283500873
325,2714.2500000000005,2.3248615167400803
326,2726.77,2.2661948365229145
327,2733.06,2.385197910918604
328,2745.68,2.048078945715678
329,2752.0,2.125347934615639
330,2764.71,2.229414712925529
331,2777.4700000000003,2.3062253487425393
332,2783.87,2.1107071096538923
333,2796.72,1.7717092889837183
334,2803.1699999999996,1.854502107402191
335,2816.11,2.2389922302448326
336,2822.6,2.445779734669002
337,2835.63,2.3874916010244593
338,2842.1600000000003,2.273516991454324
339,2855.28,2.088813601322598
340,2861.8700000000003,2.4648338207610063
341,2875.07,2.570817202640672
342,2881.7,2.4918503080847767
343,2884.0315,2.501590034844788
344,2895.0,2.5490306395477846
345,2908.3700000000003,2.857605514039583
346,2928.5299999999997,2.6985730368334986
347,2948.83,2.6336818410357052
348,2969.27,2.711945926646203
349,2989.85,2.7166672936649916
350,3010.57,2.7575519420920713
351,3031.44,2.7715943205994633
352,3052.45,2.7858999805151456
353,3066.54,2.836901159392441
354,3087.8,2.8567250361086436
355,3109.2,2.9218831942331374
356,3130.76,2.8525785311099634
357,3152.46,2.843204149395081
358,3167.01,2.901493967185332
359,3188.96,2.6944968022709697
360,3211.0699999999997,2.8421708161089394
361,3233.32,2.6078411113552002
362,3248.2499999999995,2.953139978682242
363,3270.7599999999998,3.1509029394010435
364,3293.44,3.095500527544198
365,3308.64,3.060887509015801
366,3311.31121,3.0577558996469136
367,3323.91,3.044290690853024
368,3331.5699999999997,3.108572843232468
369,3339.2500000000005,2.8745699646781766
370,3346.9500000000003,3.2667670551901504
371,3354.67,3.039296114768389
372,3362.3999999999996,2.78640965887976
373,3370.15,2.8795791720573956
374,3377.9199999999996,3.087012654301297
375,3385.71,2.968785105611462
376,3393.51,3.15583104145476
377,3401.3300000000004,3.3897429463643225
378,3409.17,3.031532820340151
379,3417.0299999999997,2.9368706633822432
380,3424.91,3.2695274754906007
381,3432.81,3.384856256665223
382,3440.72,3.1803235223729778
383,3448.6499999999996,2.8581527571469976
384,3456.6000000000004,3.0208079609872818
385,3464.57,2.8119961338938313
386,3472.56,3.1809902758666455
387,3480.56,2.852559902372592
388,3488.58,3.037577497944804
389,3496.63,2.9579275471164124
390,3504.6899999999996,3.2232830808211537
391,3512.77,3.09143958359216
392,3520.86,3.2723295708962987
393,3528.98,2.7703830117998343
394,3537.1200000000003,3.217856421769635
395,3545.27,3.294488316272568
396,3553.44,3.3671581798417662
397,3561.63,3.239544012477229
398,3569.84,2.848215814178957
399,3575.2400000000002,2.2303964620704706
400,3577.92,3.210793316949963
401,3580.59,2.1099236872963227
402,3583.2599999999998,2.6036440576426823
403,3585.94,2.9214659125221747
404,3588.6099999999997,2.726469282868534
405,3591.28,3.5114866532148943
406,3593.96,2.667900508094386
407,3596.63,2.2825318784407456
408,3599.3,3.3942702487871053
409,3601.97,3.382798619133465
410,3604.6499999999996,3.3060254740129578
411,3607.32,3.0084628443593173
412,3609.9900000000002,2.5435052147056765
413,3612.67,2.277886069585169
414,3615.34,2.9079854399315286
415,3618.0099999999998,2.881295810277888
416,3620.68,3.156524180624248
417,3623.36,2.79640003550374
418,3626.03,3.1095194058501
419,3628.7000000000003,3.59292377619646
420,3631.38,3.6060866310759514
421,3634.0499999999997,2.9122580014223116
422,3636.72,3.4187933717686714
423,3639.3900000000003,3.133404742115031
424,3642.07,2.963652596994523
425,3644.7400000000002,3.5800589673408827
426,3647.41,3.0591013376872422
427,3650.0899999999997,3.4100951925667347
428,3652.7599999999998,3.7296065629130943
429,3655.4300000000003,3.5448069332594536
430,3658.1000000000004,3.0060433036058134
431,3660.78,3.1137091584853054
432,3663.45,3.3518065288316654
433,3666.12,3.757600899178025
434,3668.7999999999997,3.996134754057517
435,3671.47,3.537876124403877
436,3674.1400000000003,3.289009494750237
437,3676.81,3.821872865096596
438,3679.4900000000002,3.519878719976088
439,3682.16,2.885398090322448
440,3684.83,2.8993384606688077
441,3687.5099999999998,2.5936953155483002
442,3690.1800000000003,2.8670956858946597
443,3692.85,3.056344056241019
444,3695.53,3.0771169111205117
445,3698.2,3.466628281466871
446,3700.87,3.827987651813231
447,3703.54,3.7214060221595906
448,3706.2200000000003,3.4186518770390824
449,3708.8900000000003,3.1895682473854423
450,3711.56,3.358881617731802
451,3714.24,3.4176974726112945
452,3716.91,3.153157842957654
453,3719.58,3.625148213304014
454,3722.2499999999995,3.7220265836503734
455,3724.9300000000003,4.524524438529865
456,3727.6,5.365543808876225
457,3730.27,5.645797179222585
458,3732.95,5.522907034102078
459,3735.62,4.614208404448436
460,3738.2900000000004,4.405518774794796
461,3740.96,3.705451145141156
462,3743.64,3.550915000020648
463,3746.31,3.126742370367008
464,3748.98,2.9366157407133677
465,3751.66,3.28167559559286
466,3754.3300000000004,3.4234449659392197
467,3757.0,3.759695336285579
468,3759.67,4.204753706631939
469,3762.35,3.470729561511431
470,3765.02,3.4175619318577906
471,3767.69,3.8452713022041505
472,3770.37,3.4574491570836425
473,3773.0399999999995,3.6906765274300026
474,3775.71,3.6295958977763623
475,3778.38,3.4677742681227217
476,3781.06,3.437871123002214
477,3783.73,4.353151493348573
478,3786.3999999999996,4.621990863694933
479,3789.0800000000004,4.196273718574425
480,3791.75,3.731319088920785
481,3794.42,3.5621934592671445
482,3797.1,3.193243314146637
483,3799.77,3.9176936844929964
484,3801.8939600000003,3.737760361002655
485,3802.44,3.6915418917513545
486,3805.1099999999997,3.395086054704549
487,3807.79,3.934364431751201
488,3810.46,3.821130594704395
489,3813.13,3.48054575765759
490,3815.81,3.643036134704242
491,3818.48,3.660520297657436
492,3821.1499999999996,3.5597644606106305
493,3823.82,3.5655306235638244
494,3826.5,3.2599290006104766
495,3829.17,3.078062163563671
496,3831.84,2.966805326516865
497,3834.52,2.6749007035635173
498,3837.1899999999996,2.6634708665167115
499,3839.86,3.1931790294699054
500,3842.53,3.3675561924231
501,3845.21,3.041867569469752
502,3847.88,2.960284732422946
503,3850.5499999999997,3.2737508953761405
504,3853.2300000000005,3.6142882724227925
505,3855.9,3.8206234353759867
506,3858.57,3.844194598329181
507,3861.2400000000002,3.5996317612823754
508,3863.92,3.8453631383290277
509,3866.5899999999997,4.193526301282222
510,3869.2599999999998,4.010595464235416
511,3871.9399999999996,3.496967841282068
512,3874.61,3.7363250042352627
513,3877.28,3.7294611671884565
514,3879.95,3.506355330141651
515,3882.63,3.887978707188303
516,3885.2999999999997,3.6705038701414976
517,3887.9700000000003,3.2424170330946915
518,3890.65,3.8579354101413434
519,3893.32,4.0288135730945385
520,3895.99,4.081755736047732
521,3898.67,4.301766113094384
522,3901.3399999999997,4.342687276047578
523,3904.0099999999998,4.307215439000773
524,3906.6800000000003,4.343418601953967
525,3909.36,4.288750979000619
526,3912.03,4.883592141953813
527,3914.7,4.485334304907008
528,3917.3799999999997,4.40494868195366
529,3920.0499999999997,4.553153844906854
530,3922.7200000000003,4.066785007860048
531,3925.3900000000003,4.072247170813243
532,3928.07,3.892644547859895
533,3930.74,3.3437307108130887
534,3933.41,3.330170873766283
535,3936.0899999999997,3.1367232508129357
536,3938.76,2.8828784137661296
537,3941.4300000000003,3.317476576719324
538,3944.1,3.9202297396725183
539,3946.7799999999997,4.3170701167191705
540,3949.45,4.338360279672364
541,3952.12,4.6127184426255585
542,3954.8,4.4935288196722105
543,3957.4700000000003,4.478448982625405
544,3960.14,4.6073281455786
545,3962.81,3.8624103085317936
546,3965.49,3.0940406855784452
547,3968.16,3.10467584853164
548,3970.8300000000004,2.9421350114848344
549,3973.51,3.128824388531486
550,3976.1800000000003,3.4885515514846803
551,3978.85,3.515774714437875
552,3981.52,4.15748687739107
553,3984.2,4.327889254437721
554,3986.8700000000003,4.036608417390916
555,3989.54,4.394512580344109
556,3992.2200000000003,4.448498957390761
557,3994.89,4.803511120343956
558,3997.56,4.95597728329715
559,4000.24,5.106745660343803
560,4002.91,5.0067528232969964
561,4005.5800000000004,5.03245498625019
562,4008.25,5.343338149203385
563,4010.93,5.282429526250038
564,4013.6,5.3779816892032315
565,4016.27,5.2052488521564255
566,4018.95,4.960511229203078
567,4021.6200000000003,5.2386753921562725
568,4024.29,5.337119555109466
569,4026.96,5.31656271806266
570,4029.64,5.003346095109313
571,4032.31,5.335684258062507
572,4034.98,5.260496421015702
573,4037.6600000000003,5.001910798062353
574,4040.33,5.191354961015548
575,4043.0,5.237299123968742
576,4045.67,4.9353682869219355
577,4048.35,4.9427866639685885
578,4051.02,5.187167826921783
579,4053.6899999999996,5.054760989874977
580,4056.3700000000003,5.0025263669216296
581,4059.04,4.977098529874823
582,4061.71,5.1444786928280175
583,4064.38,4.985441855781212
584,4067.06,5.241514232827864
585,4069.7299999999996,5.104390395781058
586,4072.4,5.294901558734252
587,4075.08,5.1492309357809045
588,4077.75,5.429677098734098
589,4080.42,5.289662261687293
590,4083.0899999999997,5.529478424640487
591,4085.7700000000004,5.6432668016871395
592,4088.44,5.485750964640333
593,4091.11,5.187928127593527
594,4093.79,5.28558750464018
595,4096.46,5.1795076675933736
596,4099.13,5.266385830546569
597,4101.81,4.87616920759322
598,4104.48,4.837654370546415
599,4107.15,5.092992533499609
600,4109.82,5.1223486964528036
601,4112.5,5.155027073499455
602,4115.17,5.46408323645265
603,4117.84,5.343242399405844
604,4120.5199999999995,5.419290776452496
