,lambda (Angstroms),Total Flux (erg/s/cm^2/Angstrom)
0,102.01,42.9011886553647
1,103.91,42.778920067191265
2,104.712855,42.72725483173969
3,106.08,42.2651173581024
4,108.05,41.59919616973873
5,110.06,40.91975373897177
6,113.93,39.61157353645036
7,117.94000000000001,38.256068985517445
8,120.22644299999999,37.483180234409765
9,120.96000000000001,37.27528757177785
10,124.92,36.153009488380185
11,126.95,35.57770026886102
12,128.13,35.24328407229341
13,131.10999999999999,34.398741474182664
14,132.02,34.14084423784918
15,133.86,33.619381694050794
16,136.98,32.73516259805027
17,138.038426,32.43520090545319
18,139.84,32.070252045015266
19,143.1,31.4098665793794
20,147.11,30.597551942365666
21,150.88,29.833854640145525
22,155.11,28.976974112768804
23,158.489319,28.292417931565687
24,159.09,28.20042464594285
25,162.05,27.74710562069414
26,165.82,27.16973645694487
27,170.07999999999998,26.51732461679534
28,172.84,26.09463525580028
29,176.87,25.477447529505607
30,180.15,24.97512104269732
31,181.82,24.71936334996605
32,181.970086,24.696377931355947
33,186.06,24.218522415651904
34,190.82999999999998,23.661207321353864
35,193.93,23.299010929140195
36,197.99,22.824650493257764
37,202.14,22.33977467895373
38,204.95,22.011461176556278
39,208.929613,21.546492961378235
40,210.21,21.434023587127278
41,216.1,20.916645163643597
42,220.10999999999999,20.564406203608886
43,223.17,20.295615376279617
44,226.79999999999998,19.976755672659007
45,229.95999999999998,19.699180860493918
46,234.23,19.324103523851644
47,239.88329199999998,18.827517632625543
48,240.24,18.803371934129867
49,245.84,18.42430578463402
50,252.14000000000001,17.99785640755001
51,256.83,17.680388468862684
52,259.8,17.47934810146512
53,264.02,17.19369473021287
54,268.93,16.861334986944666
55,273.93,16.522883111961793
56,275.42287,16.42183018306987
57,279.03000000000003,16.234442162104962
58,284.21,15.965344595557713
59,290.16,15.65624600733919
60,296.24,15.34039406519591
61,301.05,15.090517755548328
62,308.07,14.725833467890403
63,316.227766,14.302043022023028
64,318.15999999999997,14.227070320311752
65,327.83,13.851864217908771
66,337.79,13.465405817902495
67,348.05,13.06730711108301
68,356.98,12.720813865147145
69,363.078055,12.484203075261219
70,366.14,12.395229558452254
71,374.67,12.147366113290579
72,385.16,11.842549115497677
73,395.03999999999996,11.555457843663051
74,405.18,11.260811478630616
75,413.66,11.014401022561866
76,416.86938299999997,10.921143241861177
77,422.32,10.800192002484428
78,430.17,10.625997667568898
79,441.21,10.381016295620945
80,451.49,10.152899419527039
81,459.88,9.966722244687869
82,469.51,9.753029219628306
83,478.630092,9.550651325920173
84,480.45,9.519592073067274
85,490.51,9.347903773534155
86,499.63,9.192258763131925
87,506.58000000000004,9.073648010233711
88,512.4399999999999,8.973652842795305
89,519.57,8.85197179456639
90,530.45,8.666292281229518
91,540.3100000000001,8.49801779152329
92,549.5408739999999,8.340496178982102
93,550.36,8.329833354073518
94,560.59,8.196661679642087
95,569.7,8.078072379167718
96,580.29,7.940199887593306
97,589.7199999999999,7.817459108484062
98,600.6800000000001,7.674783824442138
99,610.44,7.547750856143493
100,620.36,7.418632949492411
101,630.44,7.28743054298889
102,630.957344,7.2806956993078575
103,640.69,7.180256791038741
104,649.6,7.088350902187858
105,658.6400000000001,6.995090995158678
106,664.73,6.932265280429287
107,675.53,6.820813733355489
108,684.93,6.723813786617183
109,694.4599999999999,6.62560945730058
110,705.74,6.5091929492146114
111,715.56,6.407975684515658
112,724.43596,6.316420345538239
113,725.51,6.308198322862685
114,735.61,6.230877305955951
115,745.84,6.152661049678242
116,754.48,6.086580080799416
117,764.9699999999999,6.006330037879751
118,775.61,5.924970245224342
119,784.59,5.856332176244495
120,795.51,5.772789229282366
121,804.72,5.702357168907714
122,815.91,5.616747510221245
123,825.36,5.544613198869402
124,831.763771,5.495300870016149
125,834.92,5.477102362859343
126,844.59,5.422339667500554
127,854.37,5.366467479064262
128,864.26,5.310114662550466
129,874.2700000000001,5.253092234497572
130,884.39,5.195535408367176
131,894.63,5.137184254697685
132,904.99,5.077891082489097
133,915.47,5.020591714741412
134,923.94,5.01865418477358
135,934.6400000000001,5.025771490870889
136,945.46,5.086731543429101
137,954.21,5.160513239536712
138,954.992586,5.158131569708652
139,965.26,5.1281544466220845
140,974.19,4.736058196919691
141,985.4699999999999,4.92562886413772
142,994.59,4.927680681888466
143,1006.11,5.094155999047303
144,1015.42,5.044667294251191
145,1024.81,4.656497169435347
146,1034.3,4.736706069594841
147,1043.87,5.142076249734605
148,1055.95,5.0710977267553305
149,1065.72,4.803773256845767
150,1075.59,4.912855211911543
151,1085.54,4.657885846957587
152,1095.58,4.877093934481435
153,1096.4782,4.870067336476185
154,1105.72,4.807153902884953
155,1115.95,4.717411431029433
156,1126.28,4.58449753315382
157,1134.08,4.820838703586562
158,1144.5800000000002,4.675633071476789
159,1155.1699999999998,4.719843685948936
160,1165.86,4.711731174400986
161,1173.94,4.322140011977468
162,1184.8,4.616787466195362
163,1195.76,4.180800394393162
164,1204.05,3.9301736073274482
165,1215.19,3.7796598286890806
166,1223.62,4.123708225195236
167,1234.94,4.525932239720701
168,1246.36,4.610668728226075
169,1255.0,4.497944800090034
170,1258.92541,4.389675601655733
171,1263.7,4.2642731474378675
172,1275.3999999999999,4.621660024626083
173,1284.24,4.690719620723845
174,1296.1200000000001,4.252853865253416
175,1305.1,4.215250635950012
176,1314.15,4.567566493946024
177,1326.31,4.4604010876732625
178,1335.5,4.2222321202681075
179,1344.7600000000002,4.528917240162369
180,1354.08,4.451332149170418
181,1363.47,4.227427145477883
182,1376.0800000000002,4.283300157558513
183,1385.62,4.277101626650442
184,1395.23,4.058423183041787
185,1404.9,4.084542528546918
186,1414.64,4.072529961351465
187,1424.4399999999998,4.108070183269801
188,1434.32,4.064403790673182
189,1440.94,4.143053189560872
190,1445.43977,4.152442682636531
191,1447.59,4.159052955936611
192,1454.27,4.093008019239852
193,1464.3500000000001,3.9384381566794726
194,1474.5,3.922560510351314
195,1484.72,3.941242080255375
196,1495.01,3.9576778663916556
197,1505.38,3.8423570425076154
198,1512.3200000000002,3.651453623244815
199,1515.81,3.7560022611083355
200,1526.32,3.675095869688734
201,1533.36,3.4777291879005334
202,1543.99,3.5994778814504516
203,1554.69,3.5039467912325897
204,1565.47,3.4975990909944072
205,1576.32,3.5538716069884444
206,1583.6,3.621008095139283
207,1594.58,3.6230188698502985
208,1605.63,3.5794648607935344
209,1616.7599999999998,3.568885241716451
210,1624.22,3.4691988573215666
211,1635.48,3.540700496961462
212,1646.82,3.5358755265810364
213,1654.42,3.407383574650592
214,1659.58691,3.4550472439029063
215,1665.88,3.5174035971639643
216,1673.5700000000002,3.3297354777678283
217,1677.43,3.4916524373427205
218,1685.17,3.562987382189782
219,1696.8600000000001,3.4461684022494925
220,1704.69,3.3718614627343113
221,1716.5,3.262698636977697
222,1724.43,3.2463678259489117
223,1736.3799999999999,3.317409180073252
224,1744.4,3.2741564846822238
225,1756.49,3.3523240186875185
226,1764.5900000000001,3.213179426085606
227,1776.8300000000002,3.220296152820495
228,1785.03,3.2380206887049807
229,1793.2699999999998,3.3248922759840234
230,1805.7,3.299334246843065
231,1814.0300000000002,3.1512889497598646
232,1826.61,3.1694311133485007
233,1835.04,3.0963739447516962
234,1843.5099999999998,2.9733598275494506
235,1856.29,2.940153248110879
236,1864.8500000000001,2.9634192465463887
237,1873.46,3.0778883092250977
238,1886.45,2.931895999607958
239,1895.1599999999999,2.862018190773063
240,1903.9,2.9290374204840868
241,1905.46072,2.919033200578787
242,1917.1,2.84939709560376
243,1925.9499999999998,2.8241747414607286
244,1934.84,2.865359524700102
245,1943.77,2.8843634453218794
246,1957.24,2.7792644588465536
247,1966.28,2.889517507269943
248,1975.35,2.918197408730136
249,1984.47,2.824434731918334
250,1993.63,2.7741111924889363
251,2002.83,2.807658790441944
252,2016.7199999999998,2.7319847464818645
253,2026.03,2.7913474722364837
254,2035.3799999999999,2.693845335373507
255,2044.77,2.7307813358929347
256,2054.21,2.662831758140368
257,2063.69,2.6533623177702057
258,2073.2200000000003,2.7184722991280488
259,2078.0,2.631422216325372
260,2082.79,2.6746564178682966
261,2097.22,2.582248728570676
262,2106.9,2.5818159751125354
263,2116.63,2.5764066433824
264,2126.4,2.5808284490346702
265,2136.21,2.4841552920693437
266,2146.08,2.4895510411776245
267,2155.98,2.519127543322708
268,2165.9300000000003,2.472262467195797
269,2175.9300000000003,2.4447348127968915
270,2185.9700000000003,2.3992784957803903
271,2187.7616199999998,2.4053452699622744
272,2196.06,2.4365898259143077
273,2206.2000000000003,2.396506349537998
274,2216.38,2.337763568323912
275,2226.61,2.287628756062606
276,2236.89,2.3319502127540797
277,2247.2200000000003,2.2787473383983325
278,2257.5899999999997,2.2387169592048095
279,2262.79,2.2654119302938813
280,2273.24,2.2829823414248054
281,2283.73,2.299092347717952
282,2294.27,2.2425573229638793
283,2304.86,2.228689867162586
284,2315.5,2.180686880314072
285,2326.19,1.9723988624183375
286,2336.9300000000003,2.1134567134753826
287,2342.31,2.098480712794461
288,2353.12,2.1434429803853976
289,2363.99,2.0789235907196693
290,2374.9,2.091216896216165
291,2385.86,2.03772707066544
292,2396.87,2.0864563140674948
293,2402.4,2.0452672202449116
294,2413.4900000000002,2.0592152539714137
295,2424.63,2.087352756650695
296,2435.8199999999997,2.0447296282827563
297,2447.06,2.0867646688675965
298,2452.7,2.0688206867411285
299,2464.02,2.0605456176504164
300,2475.4,2.0251794913030396
301,2486.8199999999997,2.0537775601178865
302,2492.56,1.9993961158969775
303,2504.0600000000004,2.0695430750362713
304,2511.88643,2.011876098557922
305,2515.62,1.9851206488212592
306,2527.2299999999996,1.9733277328559313
307,2533.06,1.9796452106270026
308,2544.75,1.952879949073628
309,2556.4900000000002,1.9941839590277233
310,2562.39,1.9813298969092537
311,2574.22,2.0228660555767966
312,2586.1,2.00845608575181
313,2592.06,2.001278089442305
314,2604.0200000000004,1.967080474029271
315,2616.04,1.9568264244252025
316,2622.07,1.981421488226156
317,2634.18,1.9831469873355343
318,2646.3399999999997,2.031378557952383
319,2652.4399999999996,2.028188481863796
320,2664.68,1.9589422068925972
321,2676.98,1.9896886977303636
322,2683.15,1.9759582817522348
323,2695.5299999999997,1.9467566270019545
324,2707.98,1.9545795323621324
325,2714.22,1.924752576494463
326,2726.75,1.924188636266594
327,2733.03,1.9602833576049008
328,2745.65,1.8610593660904788
329,2751.98,1.8634595589362564
330,2764.68,1.8781409218337877
331,2777.44,1.9076975505402833
332,2783.84,1.8900109034965196
333,2796.69,1.7452168809164625
334,2803.14,1.7948997053801694
335,2816.0800000000004,1.8935410315135592
336,2822.5699999999997,1.9026867331832429
337,2835.6,1.8545940080300798
338,2842.1400000000003,1.841111081207233
339,2855.26,1.8321606047675174
340,2861.84,1.8673605551506478
341,2875.05,1.8459557274243792
342,2884.0315,1.8453904669300112
343,2888.3199999999997,1.8458645587807763
344,2894.9700000000003,1.8291672489456046
345,2908.3399999999997,1.8703498333822604
346,2928.5,1.842059216197741
347,2948.7999999999997,1.826543807227218
348,2969.2400000000002,1.8276679064706909
349,2989.82,1.8204165139281607
350,3010.54,1.819438729599627
351,3031.41,1.8120789826432322
352,3052.42,1.7961943439008337
353,3066.51,1.7869977277237563
354,3087.7700000000004,1.7815734179349227
355,3109.17,1.761415616360086
356,3130.73,1.7495984813155303
357,3152.43,1.7439944544849713
358,3166.98,1.7305178795824534
359,3188.93,1.6962070817054595
360,3211.03,1.7045572212006044
361,3233.29,1.6823679272260308
362,3248.22,1.685168960332932
363,3270.73,1.6812340953119231
364,3293.4,1.6690522968211963
365,3308.6,1.6636303171979476
366,3311.31121,1.6637565718674132
367,3323.88,1.665870942853358
368,3331.54,1.659947664960103
369,3339.22,1.6278010785083796
370,3346.92,1.6563368834981884
371,3354.63,1.6201793342087631
372,3362.3599999999997,1.62631607636087
373,3370.12,1.6046730556752744
374,3377.89,1.604781080710445
375,3385.67,1.6328840514663816
376,3393.48,1.643333359384616
377,3401.2999999999997,1.6581453130236168
378,3409.14,1.6032670581041493
379,3417.0,1.6254952946262136
380,3424.88,1.63387732258981
381,3432.77,1.6423866962741724
382,3440.68,1.634291061400067
383,3448.62,1.6038581636882592
384,3456.5699999999997,1.5798693116972178
385,3464.53,1.573377905426942
386,3472.52,1.590500736318964
387,3480.53,1.5819433586525182
388,3488.55,1.5892998267068386
389,3496.59,1.5907152862026908
390,3504.65,1.568217437140075
391,3512.73,1.5616839795189912
392,3520.83,1.5728557133394392
393,3528.9500000000003,1.5642821386014192
394,3537.0800000000004,1.5775668095841653
395,3545.2299999999996,1.5829855720084436
396,3553.4100000000003,1.5843837715950193
397,3561.6,1.5817329169023615
398,3569.81,1.5549942536512353
399,3578.04,1.5193667818416414
400,3586.29,1.5091381014735794
401,3594.55,1.5140426668262832
402,3602.84,1.5344869693412848
403,3611.15,1.5278868632978186
404,3619.4700000000003,1.5389053029751185
405,3627.8100000000004,1.5622682340939504
406,3636.17,1.537456856654314
407,3636.96,1.5048851685948268
408,3639.6299999999997,1.6544704760393452
409,3642.2900000000004,1.468014937763097
410,3644.96,1.3740743452076152
411,3647.63,1.3853610526521334
412,3650.29,1.3240505143758854
413,3652.96,1.6519340218204035
414,3655.63,1.4622230292649214
415,3658.2999999999997,1.7465537367094397
416,3660.9599999999996,1.779076898433192
417,3663.63,1.36565050587771
418,3666.3,1.565588113322228
419,3668.96,1.45925547504598
420,3671.63,1.496651282490498
421,3674.2999999999997,1.3293893899350162
422,3676.96,1.4056063516587682
423,3679.6299999999997,1.4651279591032864
424,3682.3,1.5792187665478044
425,3684.96,1.6802896282715565
426,3687.63,1.3583989357160746
427,3690.3,1.3114195431605926
428,3692.96,1.2183111048843447
429,3695.6299999999997,1.425409312328863
430,3698.2999999999997,1.5184153197733812
431,3700.9599999999996,1.4114902814971333
432,3703.63,1.2765104889416512
433,3706.3,1.486838296386169
434,3708.96,1.4114058581099211
435,3711.63,1.7170915655544392
436,3714.2999999999997,1.3884894729989576
437,3716.96,1.4673983347227095
438,3719.6299999999997,1.6612531421672276
439,3722.3,2.0482443496117457
440,3724.96,2.376263511335498
441,3727.63,3.333586718780016
442,3730.2999999999997,3.8652079262245342
443,3732.96,3.739898087948286
444,3735.6299999999997,2.8086772953928043
445,3738.3,2.0998815028373223
446,3740.96,1.8069626645610746
447,3743.63,1.6703668720055926
448,3746.3,1.5792614794501105
449,3748.96,1.6688662411738626
450,3751.63,1.5430735486183806
451,3754.2999999999997,1.3545829560628988
452,3756.9599999999996,1.579381617786651
453,3759.63,1.514277825231169
454,3762.3,1.5818741326756869
455,3764.96,1.566933394399439
456,3767.63,1.5204202018439572
457,3770.2999999999997,1.6854738092884756
458,3772.96,1.5630986710122277
459,3775.6299999999997,1.6769381784567456
460,3778.3,1.8917873859012637
461,3780.96,1.8044415476250157
462,3783.63,1.7564387550695337
463,3786.3,2.015699962514052
464,3788.96,1.910679124237804
465,3791.6299999999997,1.9513043316823224
466,3794.2999999999997,1.8837595391268405
467,3796.9599999999996,1.7752917008505924
468,3799.63,1.6258302082951102
469,3801.8939600000003,1.6258293666824102
470,3802.3,1.625864006423668
471,3804.96,1.6298679846569892
472,3807.63,1.7782819654400597
473,3810.2999999999997,1.69427794622313
474,3812.96,1.8049620244564513
475,3815.6299999999997,1.7839970052395218
476,3818.3,1.711530986022592
477,3820.9700000000003,1.7834119668056625
478,3823.63,1.8896100450389837
479,3826.3,1.8495700258220538
480,3828.97,1.8270440066051246
481,3831.6299999999997,1.5959735848384455
482,3834.2999999999997,1.6184705656215161
483,3836.9700000000003,1.5703737464045866
484,3839.63,1.4153161246379076
485,3842.3,1.439284905420978
486,3844.97,1.7062230862040486
487,3847.63,1.7996271644373696
488,3850.2999999999997,1.7154431452204402
489,3852.97,1.7230281260035105
490,3855.63,1.8482482042368318
491,3858.3,1.907584185019902
492,3860.9700000000003,1.8325161658029725
493,3863.63,1.9879192440362936
494,3866.2999999999997,1.9801792248193641
495,3868.97,2.0073052056024348
496,3871.6299999999997,1.9309722838357557
497,3874.3,1.892313264618826
498,3876.9700000000003,1.8291432454018965
499,3879.63,1.7314013236352177
500,3882.3,1.941849304418288
501,3884.97,1.8274112852013586
502,3887.63,1.8271983634346798
503,3890.2999999999997,1.5545963442177504
504,3892.9700000000003,1.5947510250008206
505,3895.63,1.6411214032341417
506,3898.3,1.696277384017212
507,3900.9700000000003,1.6969903648002826
508,3903.63,1.8411954430336037
509,3906.2999999999997,1.9566094238166745
510,3908.97,2.034967404599745
511,3911.6299999999997,1.8129234828330658
512,3914.3,1.8961984636161362
513,3916.9700000000003,2.1991504443992067
514,3919.63,1.9234175226325276
515,3922.3,2.000232503415598
516,3924.97,1.9286454841986687
517,3927.6299999999997,2.1258415624319897
518,3930.2999999999997,1.9342235432150603
519,3932.9700000000003,1.7201925239981306
520,3935.63,1.830159602231452
521,3938.3,1.8565675830145225
522,3940.97,1.834777563797593
523,3943.63,1.890462642030914
524,3946.2999999999997,1.8746826228139843
525,3948.97,2.0104816035970545
526,3951.6299999999997,1.960975681830376
527,3954.3,1.8543606626134461
528,3956.9700000000003,1.7631606433965166
529,3959.63,1.805852721629838
530,3962.3,1.7070977024129084
531,3964.97,1.7755506831959789
532,3967.6299999999997,1.6022977614293001
533,3970.2999999999997,1.6801367422123703
534,3972.9700000000003,1.4038919229954407
535,3975.63,1.539769901228762
536,3978.3,1.5852181820118325
537,3980.97,1.722345762794903
538,3983.64,1.8171227435779733
539,3986.2999999999997,1.7996118218112946
540,3988.97,1.7739628025943648
541,3991.6400000000003,1.9348477833774353
542,3994.3,1.9529568616107564
543,3996.9700000000003,2.023939842393827
544,3999.64,1.8463368231768973
545,4002.2999999999997,2.0457039014102185
546,4004.97,1.9975338821932889
547,4007.64,1.7967468629763594
548,4010.3,1.8461689412096804
549,4012.9700000000003,1.875734921992751
550,4015.64,1.8558829027758215
551,4018.3,2.0396199810091424
552,4020.97,2.025742961792213
553,4023.64,1.9664479425752832
554,4026.2999999999997,2.0658290208086045
555,4028.9700000000003,2.1055520015916747
556,4031.6400000000003,1.9677849823747455
557,4034.3,1.9546530606080665
558,4036.97,1.991792041391137
559,4039.64,1.9646900221742074
560,4042.2999999999997,2.0290781004075287
561,4044.97,1.9194300811905989
562,4047.6400000000003,2.019160061973669
563,4050.3,1.8898371402069905
564,4052.9700000000003,1.821910120990061
565,4055.64,1.8860391017731315
566,4058.3,1.9238141800064525
567,4060.97,2.105677160789523
568,4063.64,1.9054811415725936
569,4066.2999999999997,1.9162872198059144
570,4068.9700000000003,1.977185200588985
571,4071.6400000000003,2.0569061813720553
572,4074.3,1.9604212596053765
573,4076.97,2.0450422403884474
574,4079.64,1.8901742211715176
575,4082.2999999999997,1.9148692994048386
576,4084.97,1.956656280187909
577,4087.6400000000003,1.9603112609709794
578,4090.3,1.9677963392043005
579,4092.9700000000003,1.786443319987371
580,4095.64,1.9540393007704415
581,4098.3,1.7813613790037626
582,4100.97,1.787151359786833
583,4103.64,1.7232993405699035
584,4106.3,1.6190074188032246
585,4108.97,1.729701399586295
586,4111.639999999999,1.5892803803693658
587,4114.3,1.8215214586026867
588,4116.969999999999,1.871778439385757
589,4119.64,1.8544914201688276
590,4122.3,1.9382244984021488
591,4124.97,1.979293479185219
592,4127.64,1.9639804599682895
593,4130.3,1.8521705382016107
594,4132.97,1.7594445189846812
595,4135.639999999999,1.877801499767752
596,4138.3,2.0288625780010725
597,4140.97,1.9947435587841431
598,4143.64,1.8646215395672134
599,4146.31,1.919382520350284
600,4148.97,1.8227895985836051
601,4151.639999999999,1.7858895793666756
602,4154.31,1.797404560149746
603,4156.97,1.849158638383067
