,lambda (Angstroms),Total Flux (erg/s/cm^2/Angstrom)
0,100.09,0.007037860149860995
1,101.94999999999999,0.008455754544359774
2,104.09,0.010087077661669146
3,104.712855,0.010561890591499958
4,106.02000000000001,0.009730580830266103
5,107.99,0.008477747935767953
6,110.0,0.007199606372392671
7,114.13,0.004573237404430037
8,117.87,0.0021950022288193143
9,120.22644299999999,0.0007001806539739152
10,120.89000000000001,0.0006817583866069927
11,125.14000000000001,0.0005586682308978672
12,126.88,0.000508302652873426
13,128.05,0.0004745318108052662
14,131.04,0.00038789112263108206
15,131.94,0.00036368680796326715
16,134.09,0.0003014379201457094
17,136.9,0.00022321402490508755
18,138.038426,0.00019050407868110382
19,140.07999999999998,0.0001898053352524309
20,143.02,0.0002268492707424525
21,147.02,0.0003192276035860193
22,151.14000000000001,0.0003310036197148931
23,155.02,0.0003468884892731529
24,158.489319,0.00036347116344184196
25,159.0,0.00036562736084870247
26,161.95000000000002,0.00037757272322015543
27,166.11,0.00039886602066600103
28,169.98,0.0004159826468956698
29,173.14,0.0004320345401478025
30,177.17,0.0004513011470484653
31,180.05,0.00046720059912635836
32,181.970086,0.00047713782764799396
33,182.13,0.00047830301171692573
34,185.95000000000002,0.0005082609593003896
35,191.16,0.0005490141459260039
36,193.82,0.0005770914544527091
37,197.88,0.0006086465411513644
38,202.02,0.0006445125408884168
39,204.83,0.0006718787363621168
40,208.929613,0.0006869967372153806
41,210.07999999999998,0.0006942380116278515
42,215.97000000000003,0.000790436251924449
43,219.98,0.0008426181195966655
44,223.04000000000002,0.0008729343420597538
45,227.19,0.000929240734289105
46,229.82,0.0013553833741838505
47,234.09,0.0021639525731764605
48,239.88329199999998,0.0027489705228219644
49,240.1,0.0027696206715688313
50,246.26,0.0026335131462587595
51,251.98999999999998,0.002840894092682995
52,257.27,0.0023865759281315045
53,260.25,0.0027952077519263078
54,263.87,0.0029543812224421422
55,268.78,0.002967501277755056
56,273.77,0.0029678136639080983
57,275.42287,0.0029699719093679087
58,278.86,0.0029927304421959724
59,284.05,0.003026561725686552
60,290.0,0.002932519023715252
61,296.07,0.0030072006924604967
62,300.88,0.0029816639686820164
63,307.89,0.0030722657080401988
64,316.227766,0.003172560546522512
65,317.96999999999997,0.0031852331521657834
66,327.64,0.0031791200199406374
67,338.37,0.003144123801866613
68,347.85,0.0030979956567275865
69,356.77,0.0030734263682634395
70,363.078055,0.0030839999825290555
71,365.92,0.00309893652686992
72,375.31,0.0030799191926304172
73,384.94,0.002963868437707477
74,394.81,0.003070498262101099
75,404.94,0.003112974047420997
76,414.37,0.0030880704764009214
77,416.86938299999997,0.003066688793141609
78,422.08000000000004,0.0030188426415690933
79,429.92,0.0029818784541448154
80,440.95000000000005,0.002985929428980302
81,451.22,0.0029396709168824278
82,459.61,0.0028687125160546606
83,470.32,0.0028372052332339952
84,478.630092,0.0028400864199402127
85,480.16999999999996,0.0028372698101306135
86,490.22,0.002710178533675666
87,500.48,0.0027314200424888237
88,506.28,0.002624043778465073
89,512.14,0.002780293453089352
90,520.46,0.002723863612282868
91,530.14,0.0026219760474984013
92,540.0,0.0024706762986580247
93,549.5408739999999,0.002400517678506838
94,550.04,0.0023972629385751528
95,560.26,0.0024597870039799034
96,569.37,0.002492859017271222
97,579.9499999999999,0.0024157654509289767
98,589.37,0.0023916419202159385
99,600.33,0.0022305686870296433
100,610.09,0.001962482559666665
101,620.0,0.002260771169075772
102,630.0699999999999,0.002176662497708437
103,630.957344,0.0021779112810363034
104,640.3100000000001,0.0021998958553196887
105,650.72,0.0021413163034589818
106,658.25,0.0020572241117672316
107,664.34,0.002112995100159959
108,675.1400000000001,0.002114343749526373
109,684.53,0.001974940825225505
110,695.65,0.0020475507679064793
111,705.33,0.0018830358906719315
112,716.7900000000001,0.002004707957499626
113,724.43596,0.001986933723157293
114,726.76,0.0019809886468903103
115,735.18,0.0019594020198726806
116,745.4,0.0019075680094071013
117,755.7700000000001,0.0018725452169875262
118,764.5200000000001,0.0016866542696711056
119,775.16,0.0018227526697343383
120,784.14,0.0017299335900884574
121,795.0400000000001,0.0017575421014314305
122,804.25,0.0017533948894560896
123,815.44,0.0017327227556880043
124,824.8800000000001,0.001718681411383203
125,831.763771,0.0015929243210601764
126,834.4300000000001,0.0015416034906920709
127,844.09,0.0016465607081760484
128,855.8399999999999,0.0016035940379314042
129,865.75,0.0015937753262612402
130,875.77,0.0015714907257632542
131,885.9100000000001,0.00154621151927128
132,894.11,0.0015194254430154434
133,904.46,0.0014768801760339906
134,914.94,0.0015576115858923843
135,925.53,0.002675918106922956
136,934.1,0.00398960349551899
137,944.9100000000001,0.005563750238893917
138,954.992586,0.006799301496915627
139,955.85,0.006904856566087947
140,964.7,0.007092579955318119
141,975.8699999999999,0.0027293830285046745
142,984.9,0.005455533307007324
143,994.01,0.005819715091853297
144,1005.52,0.008113735066998978
145,1014.82,0.008204995679410344
146,1024.21,0.004654153736457951
147,1036.07,0.006177953551855672
148,1045.66,0.010329839374761587
149,1055.34,0.01005156964230374
150,1065.1,0.007802388416189218
151,1074.96,0.00915854557300385
152,1084.9,0.007079913236161806
153,1094.94,0.009580941282248914
154,1096.4782,0.009516337715993304
155,1105.07,0.00915354395745271
156,1115.3,0.008646801578612712
157,1125.62,0.007598079293214007
158,1136.03,0.009831544101256591
159,1143.91,0.008976495615894012
160,1154.49,0.009496458933770146
161,1165.1699999999998,0.009536102022136603
162,1175.96,0.006356387558042412
163,1184.1100000000001,0.009148132353003706
164,1195.06,0.006393335721694033
165,1206.12,0.004746518537923715
166,1214.48,0.0038691945509146852
167,1225.72,0.006769985554026948
168,1234.22,0.00970999904570437
169,1245.6399999999999,0.010440188235699213
170,1254.2700000000002,0.009792140529014054
171,1258.92541,0.009281447687396475
172,1265.88,0.008521012937321885
173,1274.6499999999999,0.01097320522445558
174,1286.44,0.01148553389210738
175,1295.3600000000001,0.008658723724631046
176,1304.34,0.008561116975310704
177,1316.41,0.010998822261023783
178,1325.53,0.01043752782073408
179,1334.72,0.008980769034959696
180,1343.9699999999998,0.011024993667341302
181,1356.41,0.010630107698349647
182,1365.8100000000002,0.009314641876121224
183,1375.2800000000002,0.009770833708408122
184,1384.81,0.009771004958851009
185,1394.41,0.008182470863809218
186,1404.0800000000002,0.008370957423282744
187,1413.8100000000002,0.008860949400912262
188,1423.61,0.009147813033057098
189,1433.48,0.009085854319717254
190,1443.41,0.0095960990245334
191,1445.43977,0.009690109502987366
192,1446.74,0.00975032579321894
193,1453.42,0.009358921307024816
194,1463.49,0.008525753069603436
195,1473.6399999999999,0.008564881419173742
196,1483.85,0.008781861958987815
197,1494.1399999999999,0.008902911085793573
198,1504.5,0.008296981601217057
199,1511.44,0.007273777272745918
200,1518.42,0.007857281737770621
201,1525.43,0.007542856797917207
202,1535.9999999999998,0.006392683479193871
203,1546.6499999999999,0.0069516247474622215
204,1553.79,0.0065989483864703
205,1564.5600000000002,0.006780905035226181
206,1575.4,0.007225690072599789
207,1586.32,0.007647354696965085
208,1593.64,0.007752397906704458
209,1604.69,0.007613191109931245
210,1615.81,0.007647999701775758
211,1623.27,0.007177687688750584
212,1634.5199999999998,0.007700562859456588
213,1645.8500000000001,0.0077888066171542805
214,1653.4499999999998,0.007178266381364559
215,1659.58691,0.007533784291079518
216,1664.91,0.007842822271284015
217,1672.6,0.006831187312275737
218,1676.4499999999998,0.007970316057115547
219,1684.19,0.008360412341546745
220,1695.86,0.007794331960320918
221,1703.6899999999998,0.007466911282943178
222,1715.5,0.007041369183347889
223,1723.4199999999998,0.00701083154416121
224,1735.37,0.00757337472619646
225,1743.3799999999999,0.00738831712520084
226,1755.46,0.007981789140178733
227,1763.5600000000002,0.007209557577374175
228,1775.79,0.007376143322670501
229,1783.98,0.007546357798057003
230,1796.35,0.008245101824983869
231,1804.64,0.008116386787249326
232,1812.97,0.007381584544266366
233,1825.54,0.007586503544951144
234,1833.96,0.007252612340159245
235,1846.68,0.006538953071162456
236,1855.1999999999998,0.006629479353249513
237,1863.7599999999998,0.006967883430088152
238,1876.68,0.007577094134849276
239,1885.3500000000001,0.006955309147254766
240,1894.05,0.006801602505723945
241,1905.46072,0.007132006835972434
242,1907.18,0.007181219508901068
243,1915.98,0.0068782172190633645
244,1924.82,0.006663126459726399
245,1933.7099999999998,0.0066013963635153565
246,1947.11,0.00733742308126249
247,1956.1000000000001,0.00688634031130329
248,1965.1299999999999,0.0077254750718448294
249,1974.2,0.007811790362887106
250,1983.3100000000002,0.007583537184430118
251,1997.06,0.007394712544058707
252,2006.28,0.00756240082447875
253,2015.5400000000002,0.00729175263539953
254,2024.84,0.007439680976821049
255,2034.1899999999998,0.00733759598136849
256,2043.5800000000002,0.007781140516416667
257,2053.01,0.007317670581965583
258,2067.24,0.007265638307603024
259,2072.0099999999998,0.007990473569815996
260,2076.78,0.009324357832028968
261,2086.37,0.010565947019580834
262,2096.0,0.009821504737633439
263,2105.67,0.00962072598618678
264,2115.39,0.010044109897866046
265,2125.1600000000003,0.00968284647267123
266,2134.97,0.008898960577977155
267,2144.82,0.010107672213783815
268,2154.72,0.0104335535127164
269,2164.67,0.009587531474774907
270,2174.66,0.00962966296733415
271,2184.7,0.010547515123019316
272,2187.7616199999998,0.01060591603666817
273,2194.78,0.010742148331085822
274,2204.91,0.010406066530028261
275,2215.09,0.008852863173190553
276,2225.31,0.009224921771728732
277,2235.58,0.011147892814486762
278,2245.9,0.010579579301464647
279,2256.27,0.008960185232662385
280,2266.6800000000003,0.008860618119236007
281,2277.15,0.009644618938873454
282,2282.4,0.011291393581958135
283,2292.93,0.009969378334659407
284,2303.51,0.011079946531580532
285,2314.15,0.009738934661565482
286,2324.83,0.0073548337469263175
287,2335.56,0.007650431276507006
288,2346.34,0.006388873250307548
289,2357.17,0.009024949668327944
290,2362.6,0.006633529110604099
291,2373.51,0.007640025439376262
292,2384.46,0.005856737723524308
293,2395.4700000000003,0.00672761194073618
294,2406.53,0.006568875602167905
295,2417.64,0.007262528707819484
296,2423.21,0.009980520993911229
297,2434.39,0.009989214521470606
298,2445.63,0.011355565982093805
299,2456.92,0.01184041688693686
300,2462.58,0.010668609572624343
301,2473.95,0.009861845388219163
302,2485.37,0.007958526648033839
303,2496.8399999999997,0.008391576352068367
304,2502.6,0.01164076792619556
305,2511.88643,0.007844532117889937
306,2514.15,0.006918731098885728
307,2519.94,0.0063674314664547245
308,2525.75,0.00652912668158009
309,2537.41,0.008318758806943561
310,2543.2599999999998,0.008667892717181668
311,2555.0,0.013265486232770617
312,2566.79,0.01050127686725049
313,2572.7100000000005,0.01265919574393589
314,2584.59,0.011565131192419429
315,2596.52,0.010639323759793888
316,2602.5,0.009587180179148396
317,2614.5099999999998,0.008962333136748336
318,2626.58,0.011332481637017383
319,2632.64,0.01720634244659737
320,2644.7900000000004,0.022864002337091894
321,2657.0,0.030328008770255533
322,2663.12,0.019412706122504626
323,2675.41,0.02223438794589374
324,2687.76,0.024835656311951962
325,2693.96,0.019672019054426535
326,2706.3900000000003,0.023804942810710238
327,2712.6299999999997,0.01805494324829755
328,2725.15,0.015503721818584913
329,2737.73,0.018542036931541387
330,2744.04,0.011076153335575992
331,2756.71,0.013857053262536128
332,2763.06,0.017260157361683473
333,2775.82,0.018668892102647272
334,2782.2200000000003,0.01272563332068554
335,2795.06,0.0068819764518748185
336,2807.96,0.008014474125733204
337,2814.43,0.017272437310218765
338,2827.42,0.024309588798080817
339,2833.9399999999996,0.024096963101457303
340,2847.02,0.019941989403323018
341,2853.5899999999997,0.013435360825590426
342,2866.7599999999998,0.026522191941459803
343,2873.37,0.032764501058839955
344,2884.0315,0.03019998893827747
345,2886.63,0.02957509365566813
346,2893.2799999999997,0.03387492581364944
347,2913.3399999999997,0.04508422215787579
348,2926.7900000000004,0.03986079629695078
349,2947.07,0.03768493238174192
350,2967.5,0.04098316828964542
351,2988.0699999999997,0.04150678403245379
352,3008.7799999999997,0.04291714961016703
353,3029.6400000000003,0.044890785010992626
354,3050.64,0.046309570246723095
355,3071.79,0.04990726530556593
356,3093.0800000000004,0.050783170199313624
357,3107.36,0.056231183359610346
358,3128.89,0.05340665797033782
359,3150.58,0.05359981239238515
360,3172.42,0.05763339663754484
361,3187.07,0.05002610936151872
362,3209.16,0.05606237331186567
363,3231.3999999999996,0.04703714708532499
364,3246.3199999999997,0.06375996949090111
365,3268.82,0.07362419295775519
366,3291.48,0.07188465623592911
367,3306.67,0.06983334832310747
368,3311.31121,0.06990214589885535
369,3321.9300000000003,0.07005932347338625
370,3329.59,0.07844695079603538
371,3337.27,0.07275184766782984
372,3344.96,0.07362339431419693
373,3352.6699999999996,0.06718816050970933
374,3360.4,0.07645609625436701
375,3368.1499999999996,0.07613927154817
376,3375.91,0.06108967661654564
377,3383.6899999999996,0.06125840123406658
378,3391.49,0.07659545540073281
379,3399.31,0.07968731911654435
380,3407.15,0.07631533238150118
381,3415.0000000000005,0.07393429542103067
382,3422.87,0.08549704800970544
383,3430.7599999999998,0.07910690014752551
384,3438.6699999999996,0.08042651183449089
385,3446.6000000000004,0.05608810307060156
386,3454.55,0.07885512385585752
387,3462.5099999999998,0.06518740441568616
388,3470.49,0.07572988452466006
389,3478.4900000000002,0.06076275418277928
390,3486.5099999999998,0.0712394533900438
391,3494.55,0.0663706521464536
392,3502.6000000000004,0.08261251067743607
393,3510.68,0.08170750853213649
394,3518.77,0.07354138616140952
395,3526.88,0.06820007333982789
396,3535.01,0.08126304006739155
397,3543.1600000000003,0.09120553634410049
398,3551.33,0.08958907216995474
399,3559.52,0.0857979375449543
400,3567.72,0.08048949269452647
401,3575.95,0.06887300716781662
402,3584.19,0.05590413141567942
403,3592.45,0.06675523521268752
404,3600.7299999999996,0.09279149855884089
405,3609.0299999999997,0.07565312145413958
406,3617.35,0.08374884389858356
407,3625.6899999999996,0.08693131589217284
408,3630.58,0.08795488565819821
409,3633.29,0.1218697145673861
410,3636.01,0.12472705325114664
411,3638.72,0.06239556216033451
412,3641.44,0.09471447084409505
413,3644.15,0.09201315975328293
414,3646.86,0.06705015866247081
415,3649.58,0.06753098734623135
416,3652.2900000000004,0.059887136255419235
417,3655.01,0.050610554939179764
418,3657.72,0.09612079384836765
419,3660.4399999999996,0.09167965253212818
420,3663.15,0.13167594144131606
421,3665.87,0.1033694801250766
422,3668.5800000000004,0.10354651903426448
423,3671.3,0.10077885771802503
424,3674.0099999999998,0.1000553866272129
425,3676.7300000000005,0.10794153531097343
426,3679.44,0.04442171422016132
427,3682.16,0.07065103290392186
428,3684.87,0.06975065181310974
429,3687.59,0.06797407049687028
430,3690.3,0.07966008940605816
431,3693.0099999999998,0.10047456831524604
432,3695.73,0.09698731699900658
433,3698.44,0.14167944590819445
434,3701.16,0.114409084591955
435,3703.8700000000003,0.08704073350114287
436,3706.59,0.054766462184903414
437,3709.2999999999997,0.09709411109409129
438,3712.02,0.09324095977785184
439,3714.73,0.10856607868703971
440,3717.45,0.10574491737080025
441,3720.1600000000003,0.12030115627998812
442,3722.88,0.05981952496374866
443,3725.5899999999997,0.08829425387293655
444,3728.3100000000004,0.11458097255669708
445,3731.02,0.15107401146588498
446,3733.74,0.10089255014964549
447,3736.4500000000003,0.06200271905883338
448,3739.1600000000003,0.08785826796802126
449,3741.88,0.1033678666517818
450,3744.5899999999997,0.05995907556096969
451,3747.31,0.030050834244730214
452,3750.02,0.0259015631539181
453,3752.74,0.08249579183767863
454,3755.4500000000003,0.05402948074686652
455,3758.17,0.04410735943062705
456,3760.8799999999997,0.10282073833981493
457,3763.6,0.10906627702357546
458,3766.31,0.07640185593276336
459,3769.0299999999997,0.051508424616523885
460,3771.7400000000002,0.07248310352571177
461,3774.46,0.0759368022094723
462,3777.17,0.11757777111866018
463,3779.8900000000003,0.1369031098024207
464,3782.6,0.1617225487116086
465,3785.31,0.10894698762079649
466,3788.03,0.07467840630455702
467,3790.7400000000002,0.07533231521374491
468,3793.46,0.08147517389750543
469,3796.1699999999996,0.09847377280669332
470,3798.89,0.09370369149045385
471,3801.6,0.06509347039964174
472,3801.8939600000003,0.06855918732886694
473,3804.3199999999997,0.0971616204786269
474,3807.03,0.09258941211681297
475,3809.75,0.10295507357654217
476,3812.4599999999996,0.09839112521472825
477,3815.1800000000003,0.11302897667445742
478,3817.89,0.1157965283126435
479,3820.6099999999997,0.1012278797723727
480,3823.32,0.09912278141055876
481,3826.04,0.08415121287028796
482,3828.75,0.08226813450847402
483,3831.46,0.07061114614666009
484,3834.18,0.07473920760638929
485,3836.89,0.07653623924457537
486,3839.61,0.07421277070430454
487,3842.32,0.06907306234249061
488,3845.04,0.10598494380221982
489,3847.75,0.12406509544040588
490,3850.47,0.10484174690013506
491,3853.18,0.11422939853832113
492,3855.9,0.12983344999805033
493,3858.61,0.0988385016362364
494,3861.33,0.11070085309596558
495,3864.0400000000004,0.13299970473415165
496,3866.76,0.12043765619388086
497,3869.47,0.14183190783206692
498,3872.1899999999996,0.12518665929179612
499,3874.9,0.11111201092998219
500,3877.61,0.11115746256816826
501,3880.3300000000004,0.10233311402789745
502,3883.04,0.09151083566608352
503,3885.7599999999998,0.10081981712581271
504,3888.47,0.08903536876399878
505,3891.19,0.08373489022372797
506,3893.9,0.10641197186191405
507,3896.62,0.09732444332164324
508,3899.33,0.0987144449598293
509,3902.05,0.1384223264195585
510,3904.7599999999998,0.11556067805774457
511,3907.48,0.14193372951747377
512,3910.19,0.13935178115565985
513,3912.91,0.16097143261538904
514,3915.6200000000003,0.12359088425357509
515,3918.34,0.1152063357133043
516,3921.0499999999997,0.13756688735149036
517,3923.76,0.10840173898967642
518,3926.48,0.09686760044940562
519,3929.19,0.12287944208759169
520,3931.9100000000003,0.08656726354732087
521,3934.62,0.039727475185506955
522,3937.3399999999997,0.08108603664523614
523,3940.0499999999997,0.06588049828342221
524,3942.77,0.0954527397431514
525,3945.48,0.12811755138133749
526,3948.2,0.12841740284106665
527,3950.9100000000003,0.10915355447925273
528,3953.63,0.12109400593898194
529,3956.3399999999997,0.128655957577168
530,3959.06,0.1251728090368972
531,3961.77,0.11521006067508326
532,3964.49,0.10586341213481246
533,3967.2000000000003,0.06994243377299851
534,3969.92,0.055657625232727714
535,3972.6299999999997,0.042898606870913784
536,3975.34,0.05888560850909986
537,3978.06,0.11069486996882905
538,3980.77,0.1152140216070151
539,3983.4900000000002,0.13812487306674429
540,3986.2,0.14294842470493038
541,3988.92,0.10650047616465956
542,3991.63,0.13555512780284565
543,3994.35,0.13319447926257483
544,3997.06,0.1537212309007609
545,3999.78,0.15613858236049008
546,4002.4900000000002,0.14695293399867618
547,4005.21,0.15604798545840537
548,4007.9199999999996,0.14282863709659144
549,4010.64,0.16763908855632062
550,4013.35,0.17610984019450668
551,4016.0699999999997,0.20269659165423587
552,4018.78,0.17147564329242193
553,4021.49,0.16181309493060803
554,4024.2099999999996,0.17780784639033723
555,4026.92,0.16848249802852328
556,4029.64,0.1613972494882525
557,4032.35,0.15086290112643852
558,4035.07,0.15678355258616772
559,4037.78,0.15315310422435383
560,4040.5,0.125282455684083
561,4043.21,0.16715390732226906
562,4045.93,0.16022905878199828
563,4048.64,0.17719081042018434
