,lambda (Angstroms),Total Flux (erg/s/cm^2/Angstrom)
0,102.01,0.045360609750160416
1,103.91,0.05308847248066771
2,104.712855,0.056353921550407145
3,106.08,0.051714280572833546
4,108.05,0.045028747783112076
5,110.06,0.038207468134746306
6,113.93,0.025073959558085338
7,117.94000000000001,0.011465336976192701
8,120.22644299999999,0.003705900608340225
9,120.96000000000001,0.0035907097575646435
10,124.92,0.0029688688240765908
11,126.95,0.0026500968307300683
12,128.13,0.0024648007953652308
13,131.10999999999999,0.001996849791497121
14,132.02,0.0018539520040760527
15,133.86,0.0015650158153065954
16,136.98,0.0010750805441269776
17,138.038426,0.0009088753425957491
18,139.84,0.0008988839101906758
19,143.1,0.0008808042146093565
20,147.11,0.0008585652439985164
21,150.88,0.0008376571940598085
22,155.11,0.0008141980772898385
23,158.489319,0.0007954568399157896
24,159.09,0.0007903383611153369
25,162.05,0.0007651158901608808
26,165.82,0.0007329914895864623
27,170.07999999999998,0.0006966918242571033
28,172.84,0.0006731739598187858
29,176.87,0.0006388345551287865
30,180.15,0.000610885960034308
31,181.82,0.0005966562824253482
32,181.970086,0.0005953774303322695
33,186.06,0.0006065942012325287
34,190.82999999999998,0.0006196769517753483
35,193.93,0.0006281796753427997
36,197.99,0.0006393158719993967
37,202.14,0.0006506996290987263
38,204.95,0.0006584084489507061
39,208.929613,0.0006693250631163293
40,210.21,0.0006906478376397331
41,216.1,0.0007887415944939726
42,220.10999999999999,0.0008555258950219011
43,223.17,0.0009064885073536624
44,226.79999999999998,0.000966947464527124
45,229.95999999999998,0.0010196046508990082
46,234.23,0.0010907788094952568
47,239.88329199999998,0.0011849988064441658
48,240.24,0.0011801106442440802
49,245.84,0.0011033246261947444
50,252.14000000000001,0.0010169814547142412
51,256.83,0.0009526346800454231
52,259.8,0.0009119832698189
53,264.02,0.0008541680669081508
54,268.93,0.0007868845622781078
55,273.93,0.0007183698274412009
56,275.42287,0.0006979143382130159
57,279.03000000000003,0.0007507979121088267
58,284.21,0.0008267531151021003
59,290.16,0.0009139669070024841
60,296.24,0.0010031468180664044
61,301.05,0.0010736787957173022
62,308.07,0.0011766735097483419
63,316.227766,0.0012963828227655777
64,318.15999999999997,0.0012757108373587203
65,327.83,0.0011722758386322806
66,337.79,0.0010657442239099084
67,348.05,0.0009560102656055372
68,356.98,0.0008605740422480289
69,363.078055,0.0007954611447200387
70,366.14,0.0008212487628795816
71,374.67,0.0008930430530513765
72,385.16,0.0009811638826401372
73,395.03999999999996,0.0010645890918848416
74,405.18,0.0011501499728991441
75,413.66,0.0012216201118460165
76,416.86938299999997,0.0012486158000969386
77,422.32,0.0012762094726504157
78,430.17,0.0013160648216368877
79,441.21,0.001372331156519773
80,451.49,0.0014245602752549235
81,459.88,0.0014671123557411017
82,469.51,0.0015161576461525312
83,478.630092,0.0015627027606795261
84,480.45,0.0015508625649604606
85,490.51,0.001484958961322626
86,499.63,0.0014260569961559214
87,506.58000000000004,0.001381472259959803
88,512.4399999999999,0.0013572034444908462
89,519.57,0.00131310183358749
90,530.45,0.0012450862812833508
91,540.3100000000001,0.0011810164423202247
92,549.5408739999999,0.0011370095078032394
93,550.36,0.001136743463898783
94,560.59,0.001128925613338129
95,569.7,0.0011244475682640762
96,580.29,0.0011019306948684435
97,589.7199999999999,0.0011114123439410761
98,600.6800000000001,0.0011023910709650477
99,610.44,0.0011152918074389497
100,620.36,0.001125973355986194
101,630.44,0.0011348742166067812
102,630.957344,0.001134294682101508
103,640.69,0.0011723786525529166
104,649.6,0.0012506307036539896
105,658.6400000000001,0.001316945195680219
106,664.73,0.0013625456282509857
107,675.53,0.0014069269204947106
108,684.93,0.0014497326489290637
109,694.4599999999999,0.0016302364182885724
110,705.74,0.0016650312924097964
111,715.56,0.001826471829986961
112,724.43596,0.0019038551062586658
113,725.51,0.0019118812086934135
114,735.61,0.001984157529123072
115,745.84,0.0021573457775384587
116,754.48,0.002282124768282246
117,764.9699999999999,0.002413828972669089
118,775.61,0.0025851887862702347
119,784.59,0.002758186457899772
120,795.51,0.0028919486087009482
121,804.72,0.0030333764144590816
122,815.91,0.0031693564618460006
123,825.36,0.0034475818423470176
124,831.763771,0.003205443757666921
125,834.92,0.0030695996987103805
126,844.59,0.003646980157045157
127,854.37,0.0037443823610280027
128,864.26,0.003990671310658917
129,874.2700000000001,0.00425409216463318
130,884.39,0.0046126297642555105
131,894.63,0.0048635832682211895
132,904.99,0.0048592616765302165
133,915.47,0.0075354879891825904
134,923.94,0.05407059940408389
135,934.6400000000001,0.1224225292080324
136,945.46,0.24530394891632426
137,954.21,0.36916068777469335
138,954.992586,0.3712576496501916
139,965.26,0.3988004663605807
140,974.19,0.05673171748622506
141,985.4699999999999,0.3094950173291443
142,994.59,0.36263875081916414
143,1006.11,0.5936512247012944
144,1015.42,0.5963188505556897
145,1024.81,0.2607532310898219
146,1034.3,0.3941268549736254
147,1043.87,0.8531099335371659
148,1055.95,0.8498057901774554
149,1065.72,0.6372146554403384
150,1075.59,0.8015901640528927
151,1085.54,0.6023625273451841
152,1095.58,0.8778165396521797
153,1096.4782,0.8758218230851991
154,1105.72,0.8552865446201892
155,1115.95,0.8124536062907416
156,1126.28,0.7269077906560208
157,1134.08,0.9990157608447119
158,1144.5800000000002,0.9019577437910267
159,1155.1699999999998,0.9947286671625957
160,1165.86,1.0356350132288914
161,1173.94,0.6830945869628177
162,1184.8,1.027540431610149
163,1195.76,0.6418102989522071
164,1204.05,0.4291972003450595
165,1215.19,0.3297657485376259
166,1223.62,0.7124698017030958
167,1234.94,1.1666015307461703
168,1246.36,1.303704282483972
169,1255.0,1.230598963308368
170,1258.92541,1.1403296819804773
171,1263.7,1.03054160550203
172,1275.3999999999999,1.4261910810601952
173,1284.24,1.5241601959263644
174,1296.1200000000001,1.1251456941854245
175,1305.1,1.1169098267078452
176,1314.15,1.4988219680583919
177,1326.31,1.4314235016299552
178,1335.5,1.2233086606367531
179,1344.7600000000002,1.560276828471677
180,1354.08,1.5131710038735657
181,1363.47,1.3199741881035805
182,1376.0800000000002,1.4170857784273807
183,1385.62,1.4420859815748077
184,1395.23,1.2548351935503606
185,1404.9,1.3125784130928781
186,1414.64,1.3324186414635217
187,1424.4399999999998,1.4000078774011302
188,1434.32,1.3886521234280254
189,1440.94,1.4889509583164913
190,1445.43977,1.5130560832098556
191,1447.59,1.524574753407258
192,1454.27,1.4737784604714543
193,1464.3500000000001,1.3422185274186247
194,1474.5,1.3495106017751504
195,1484.72,1.3915216835410318
196,1495.01,1.4314467727162683
197,1505.38,1.3397978703593394
198,1512.3200000000002,1.1647366049439984
199,1515.81,1.2772519743532864
200,1526.32,1.2203370868150683
201,1533.36,1.0390408319845206
202,1543.99,1.1850549571480546
203,1554.69,1.1139490897209439
204,1565.47,1.1322092307616678
205,1576.32,1.213249379211747
206,1583.6,1.2970041497847036
207,1594.58,1.324079311995014
208,1605.63,1.3057494816146802
209,1616.7599999999998,1.3205766597021809
210,1624.22,1.2379194493277652
211,1635.48,1.3351246411754973
212,1646.82,1.3561858414910641
213,1654.42,1.2450426459353592
214,1659.58691,1.3045009813455948
215,1665.88,1.3769230573229019
216,1673.5700000000002,1.201555001597864
217,1677.43,1.36964598533016
218,1685.17,1.4533609682545041
219,1696.8600000000001,1.355240004480032
220,1704.69,1.2934570569732642
221,1716.5,1.2031841859573087
222,1724.43,1.1995373157493052
223,1736.3799999999999,1.2896925529516197
224,1744.4,1.2592677523125035
225,1756.49,1.356773097733088
226,1764.5900000000001,1.2305843589329832
227,1776.8300000000002,1.257278820301714
228,1785.03,1.2881191588003733
229,1793.2699999999998,1.3881705282185384
230,1805.7,1.382494136454921
231,1814.0300000000002,1.2477725754419735
232,1826.61,1.2860362996265022
233,1835.04,1.2264628159123192
234,1843.5099999999998,1.1169963631176418
235,1856.29,1.1042312418996987
236,1864.8500000000001,1.141188858673909
237,1873.46,1.2694295140975014
238,1886.45,1.1442145552069631
239,1895.1599999999999,1.0882682879293193
240,1903.9,1.1692670438413053
241,1905.46072,1.1617591770403952
242,1917.1,1.1057476530002184
243,1925.9499999999998,1.0908848349516385
244,1934.84,1.142475977047472
245,1943.77,1.1719330792877187
246,1957.24,1.0826016579188633
247,1966.28,1.2034366505562462
248,1975.35,1.242733613301939
249,1984.47,1.1596465262281486
250,1993.63,1.120045399298771
251,2002.83,1.1643622325138068
252,2016.7199999999998,1.10494739266129
253,2026.03,1.175208116273462
254,2035.3799999999999,1.0886508000300472
255,2044.77,1.1365784439310458
256,2054.21,1.0796790380125607
257,2063.69,1.0813065922384888
258,2073.2200000000003,1.1575720966449334
259,2078.0,1.0761173339023107
260,2082.79,1.1249585611957913
261,2097.22,1.0494421832928527
262,2106.9,1.0603405382408468
263,2116.63,1.0663208433693574
264,2126.4,1.0821791086422812
265,2136.21,0.9969892340596183
266,2146.08,1.013938499693575
267,2155.98,1.0551036354358418
268,2165.9300000000003,1.019885721358625
269,2175.9300000000003,1.0040637574619247
270,2185.9700000000003,0.9703599537096377
271,2187.7616199999998,0.9785239428132774
272,2196.06,1.0163525609074755
273,2206.2000000000003,0.98431431626574
274,2216.38,0.9336485034005657
275,2226.61,0.8916303302560927
276,2236.89,0.9441080968323214
277,2247.2200000000003,0.8991012031292517
278,2257.5899999999997,0.8672985412027431
279,2262.79,0.8981192721556992
280,2273.24,0.9239808737823129
281,2283.73,0.948413807185488
282,2294.27,0.9002413803093644
283,2304.86,0.8947761931539424
284,2315.5,0.8552151457192219
285,2326.19,0.6554087380052029
286,2336.9300000000003,0.8049878700118854
287,2342.31,0.7942804439593669
288,2353.12,0.8478195315750314
289,2363.99,0.7919245668555379
290,2374.9,0.8128740339126055
291,2385.86,0.7680800406903746
292,2396.87,0.8255447871888452
293,2402.4,0.7887432802984312
294,2413.4900000000002,0.8114902903500242
295,2424.63,0.8484664401223186
296,2435.8199999999997,0.8147216296153147
297,2447.06,0.8656746588290121
298,2452.7,0.8522055393241414
299,2464.02,0.8529119320909615
300,2475.4,0.8265748725226231
301,2486.8199999999997,0.864233744730846
302,2492.56,0.8144065046673784
303,2504.0600000000004,0.8936777404287236
304,2511.88643,0.8422203737141231
305,2515.62,0.8176687099342804
306,2527.2299999999996,0.8127287403336062
307,2533.06,0.8224874478467905
308,2544.75,0.8026223536493847
309,2556.4900000000002,0.8508560440790215
310,2562.39,0.8414845300700657
311,2574.22,0.8900034928283795
312,2586.1,0.8826058402137361
313,2592.06,0.8789458077572316
314,2604.0200000000004,0.8518077305458566
315,2616.04,0.8486486348869329
316,2622.07,0.876802980908288
317,2634.18,0.8856765575780413
318,2646.3399999999997,0.9410857188748374
319,2652.4399999999996,0.9414962433740525
320,2664.68,0.8794747800741167
321,2676.98,0.9174814983266325
322,2683.15,0.9073930013037074
323,2695.5299999999997,0.8854987949594915
324,2707.98,0.9006704670931354
325,2714.22,0.8745267485480702
326,2726.75,0.8813587960849825
327,2733.03,0.9211603652415514
328,2745.65,0.8293854851071407
329,2751.98,0.8355220388907525
330,2764.68,0.8576997341596101
331,2777.44,0.894788110980919
332,2783.84,0.8808791432423906
333,2796.69,0.7436699923923765
334,2803.14,0.7971600092808908
335,2816.0800000000004,0.9034393307595537
336,2822.5699999999997,0.9164158353497022
337,2835.6,0.876014229157042
338,2842.1400000000003,0.8663916183742333
339,2855.26,0.86518538451025
340,2861.84,0.9042692614290754
341,2875.05,0.8906617998937691
342,2884.0315,0.8953979810681466
343,2888.3199999999997,0.8976607114652693
344,2894.9700000000003,0.8837369696220017
345,2908.3399999999997,0.9304958854950109
346,2928.5,0.9106135586438419
347,2948.7999999999997,0.903564830911762
348,2969.2400000000002,0.913214002298771
349,2989.82,0.9145460728048692
350,3010.54,0.9222101424300565
351,3031.41,0.9235548111114108
352,3052.42,0.916432978911854
353,3066.51,0.9131129902544645
354,3087.7700000000004,0.9165557564818526
355,3109.17,0.9053234218283298
356,3130.73,0.9024984861680518
357,3152.43,0.9059450496268627
358,3166.98,0.8985369580750517
359,3188.93,0.8733810199608076
360,3211.03,0.8909485809027303
361,3233.29,0.8780434408378978
362,3248.22,0.8870714468950429
363,3270.73,0.8925250052571552
364,3293.4,0.8897983626125121
365,3308.6,0.8907159669707576
366,3311.31121,0.8919730073959118
367,3323.88,0.8977990380991965
368,3331.54,0.8941378167312569
369,3339.22,0.8642591929576569
370,3346.92,0.8950688667783964
371,3354.63,0.8611881393963057
372,3362.3599999999997,0.8696076096085545
373,3370.12,0.8502561762123128
374,3377.89,0.8526587416132408
375,3385.67,0.8830592058113387
376,3393.48,0.895814866400946
377,3401.2999999999997,0.912936125787723
378,3409.14,0.8603730827688396
379,3417.0,0.8849224373442958
380,3424.88,0.8956314895140914
381,3432.77,0.9064708404810571
382,3440.68,0.9007110890423623
383,3448.62,0.8726229339951768
384,3456.5699999999997,0.8509817777451611
385,3464.53,0.8468410202923152
386,3472.52,0.8663233592309787
387,3480.53,0.8601313957639817
388,3488.55,0.8698562310941546
389,3496.59,0.873645964018667
390,3504.65,0.8535282945375191
391,3512.73,0.8493809226507106
392,3520.83,0.8629446483582418
393,3528.9500000000003,0.8567689716601127
394,3537.0800000000004,0.8724544937591532
395,3545.2299999999996,0.8802800134525334
396,3553.4100000000003,0.8840938295374229
397,3561.6,0.8838615444194822
398,3569.81,0.859547356895881
399,3578.04,0.8263502669666195
400,3586.29,0.8185578746316976
401,3594.55,0.8259016810939455
402,3602.84,0.8487940839477026
403,3611.15,0.8446479843957995
404,3619.4700000000003,0.8581233836410661
405,3627.8100000000004,0.8839491804806723
406,3636.17,0.861606574914618
407,3636.96,0.8292681798910315
408,3639.6299999999997,0.979641958735366
409,3642.2900000000004,0.7939719387825305
410,3644.96,0.7008198176268648
411,3647.63,0.7128949964711991
412,3650.29,0.6523699765183638
413,3652.96,0.9810419553626981
414,3655.63,0.7921194342070325
415,3658.2999999999997,1.077238613051367
416,3660.9599999999996,1.1105472930985314
417,3663.63,0.6979093719428658
418,3666.3,0.8986354507872001
419,3668.96,0.7930883308343646
420,3671.63,0.831272609678699
421,3674.2999999999997,0.6647991885230334
422,3676.96,0.7418016685701979
423,3679.6299999999997,0.8021117474145323
424,3682.3,0.9169910262588667
425,3684.96,1.018847406306031
426,3687.63,0.6977451851503655
427,3690.3,0.6515542639947
428,3692.96,0.5592313440418645
429,3695.6299999999997,0.7671180228861988
430,3698.2999999999997,0.8609125017305332
431,3700.9599999999996,0.7547729817776978
432,3703.63,0.6205816606220321
433,3706.3,0.8316979394663664
434,3708.96,0.7570510195135309
435,3711.63,1.0635251983578653
436,3714.2999999999997,0.7357115772021997
437,3716.96,0.8154059572493643
438,3719.6299999999997,1.0100492360936986
439,3722.3,1.397828914938033
440,3724.96,1.7266335949851976
441,3727.63,2.684745273829532
442,3730.2999999999997,3.2171549526738663
443,3732.96,3.092630632721031
444,3735.6299999999997,2.162198311565365
445,3738.3,1.4541909904096997
446,3740.96,1.1620576704568641
447,3743.63,1.0262503493011985
448,3746.3,0.9359334281455328
449,3748.96,1.0263237081926975
450,3751.63,0.9013194870370317
451,3754.2999999999997,0.7136173658813662
452,3756.9599999999996,0.9392015459285307
453,3759.63,0.874886224772865
454,3762.3,0.9432710036171993
455,3764.96,0.929115783664364
456,3767.63,0.8833910625086983
457,3770.2999999999997,1.0492331413530327
458,3772.96,0.9276435214001972
459,3775.6299999999997,1.0422715002445315
460,3778.3,1.257909179088866
461,3780.96,1.1713488591360306
462,3783.63,1.124134537980365
463,3786.3,1.3841842168246994
464,3788.96,1.2799488968718638
465,3791.6299999999997,1.3213625757161982
466,3794.2999999999997,1.2546062545605325
467,3796.9599999999996,1.146923934607697
468,3799.63,0.9982509134520314
469,3801.8939600000003,0.9989186365248476
470,3802.3,0.9990384024727026
471,3804.96,1.0036000491858503
472,3807.63,1.1525737949467922
473,3810.2999999999997,1.0691295407077337
474,3812.96,1.1803712874208818
475,3815.6299999999997,1.1599660331818233
476,3818.3,1.088059778942765
477,3820.9700000000003,1.1605005247037068
478,3823.63,1.2672562714168547
479,3826.3,1.227776017177796
480,3828.97,1.2058097629387379
481,3831.6299999999997,0.9752970096518858
482,3834.2999999999997,0.9983537554128274
483,3836.9700000000003,0.9508167011737692
484,3839.63,0.7963167478869171
485,3842.3,0.8208452936478587
486,3844.97,1.0883432394088004
487,3847.63,1.1823049861219481
488,3850.2999999999997,1.09868073188289
489,3852.97,1.1068254776438318
490,3855.63,1.2326032243569796
491,3858.3,1.2924989701179213
492,3860.9700000000003,1.2179907158788628
493,3863.63,1.3739514625920108
494,3866.2999999999997,1.3667712083529524
495,3868.97,1.3944569541138943
496,3871.6299999999997,1.318681700827042
497,3874.3,1.2805824465879838
498,3876.9700000000003,1.2179721923489253
499,3879.63,1.1207879390620734
500,3882.3,1.3317956848230148
501,3884.97,1.2179174305839566
502,3887.63,1.2182621772971045
503,3890.2999999999997,0.9462199230580463
504,3892.9700000000003,0.9869343688189879
505,3895.63,1.0338624155321359
506,3898.3,1.0895781612930773
507,3900.9700000000003,1.090850907054019
508,3903.63,1.235613653767167
509,3906.2999999999997,1.3515873995281087
510,3908.97,1.4305051452890505
511,3911.6299999999997,1.2090188920021983
512,3914.3,1.29285363776314
513,3916.9700000000003,1.5963653835240816
514,3919.63,1.3211901302372293
515,3922.3,1.398564875998171
516,3924.97,1.3275376217591128
517,3927.6299999999997,1.5252913684722607
518,3930.2999999999997,1.3342331142332025
519,3932.9700000000003,1.120761859994144
520,3935.63,1.231286606707292
521,3938.3,1.2582543524682337
522,3940.97,1.2370240982291754
523,3943.63,1.2932668449423232
524,3946.2999999999997,1.278046590703265
525,3948.97,1.4144053364642064
526,3951.6299999999997,1.3654570831773545
527,3954.3,1.259401828938296
528,3956.9700000000003,1.1687615746992377
529,3959.63,1.2120113214123855
530,3962.3,1.1138160671733275
531,3964.97,1.1828288129342692
532,3967.6299999999997,1.010133559647417
533,3970.2999999999997,1.0885323054083584
534,3972.9700000000003,0.8128472511693002
535,3975.63,0.9492828978824482
536,3978.3,0.9952909436433899
537,3980.97,1.1329782894043317
538,3983.64,1.2283150351652732
539,3986.2999999999997,1.2113617818784213
540,3988.97,1.1862725276393626
541,3991.6400000000003,1.3477172734003044
542,3994.3,1.3663840201134523
543,3996.9700000000003,1.4379267658743942
544,3999.64,1.2608835116353356
545,4002.2999999999997,1.4608082583484836
546,4004.97,1.4131980041094252
547,4007.64,1.212970749870367
548,4010.3,1.2629504965835148
549,4012.9700000000003,1.2930762423444566
550,4015.64,1.2737839881053983
551,4018.3,1.458078734818546
552,4020.97,1.4447614805794877
553,4023.64,1.3860262263404293
554,4026.2999999999997,1.485964973053577
555,4028.9700000000003,1.526247718814519
556,4031.6400000000003,1.3890404645754608
557,4034.3,1.3764662112886086
558,4036.97,1.4141649570495503
559,4039.64,1.387622702810492
560,4042.2999999999997,1.4525684495236397
561,4044.97,1.3434801952845814
562,4047.6400000000003,1.4437699410455231
563,4050.3,1.315004687758671
564,4052.9700000000003,1.2476374335196128
565,4055.64,1.3123261792805543
566,4058.3,1.3506589259937023
567,4060.97,1.5330816717546438
568,4063.64,1.3334454175155857
569,4066.2999999999997,1.3448091642287334
570,4068.9700000000003,1.4062669099896752
571,4071.6400000000003,1.4865476557506168
572,4074.3,1.3906204024637647
573,4076.97,1.4758011482247064
574,4079.64,1.321492893985648
575,4082.2999999999997,1.3467456406987959
576,4084.97,1.3890923864597378
577,4087.6400000000003,1.3933071322206794
578,4090.3,1.4013498789338272
579,4092.9700000000003,1.2205566246947688
580,4095.64,1.3887123704557105
581,4098.3,1.2165921171688583
582,4100.97,1.2229418629298001
583,4103.64,1.159649608690742
584,4106.3,1.0559153554038898
585,4108.97,1.1671691011648315
586,4111.639999999999,1.027307846925773
