,lambda (Angstroms),Total Flux (erg/s/cm^2/Angstrom)
0,100.05,0.008545511197940829
1,101.91000000000001,0.010274596397317228
2,104.05,0.012263973880724026
3,104.712855,0.012880174369964508
4,105.98,0.011897310522606591
5,107.95,0.01036927592923885
6,109.96000000000001,0.008810216806031083
7,114.09,0.005606775683786254
8,118.1,0.002496414344579487
9,120.22644299999999,0.0008470635187479111
10,121.13000000000001,0.0008146471550645067
11,125.08999999999999,0.0006725464943532037
12,127.13000000000001,0.000599344586359804
13,128.01,0.0005677704286328482
14,130.99,0.00046084335223474534
15,131.9,0.0004282087139739155
16,134.04,0.0003514266999242721
17,136.85,0.0002506405393847863
18,138.038426,0.00020800782150979133
19,140.03,0.000205518030513919
20,142.97,0.00020219302413098945
21,146.97,0.00019799873610319417
22,151.09,0.00019315113064956497
23,154.97,0.00018870723904760358
24,158.489319,0.0001847504046067671
25,158.94,0.00018393722268984582
26,161.9,0.00017865755896291744
27,166.05,0.00017135965836604148
28,169.92,0.00016467525479738854
29,173.08,0.00015926731876458658
30,177.11,0.00015249402075123475
31,179.98,0.00014782543171194948
32,181.970086,0.00014459716205395933
33,182.07000000000002,0.00014469229584921687
34,185.88,0.00014850729989796413
35,191.09,0.0001538179166732852
36,194.19,0.00015722884899641292
37,197.79999999999998,0.0001614903467985068
38,201.95000000000002,0.00016638431216656487
39,205.23,0.00017029270701168065
40,208.929613,0.00017454418864750945
41,210.01,0.00017922061738332289
42,215.89000000000001,0.00020701317737600376
43,219.89999999999998,0.00022577967786420938
44,222.96,0.00023987830796244137
45,227.10999999999999,0.00025976103440285373
46,229.74,0.00029189237621930796
47,234.01000000000002,0.00035292247776161194
48,239.88329199999998,0.00041034130260769665
49,240.01000000000002,0.0004107005135271731
50,246.17,0.0003979941745006745
51,251.9,0.0004014203998867398
52,257.18,0.00036898159500688377
53,260.16,0.0003896351021012074
54,263.78,0.00039634943890706385
55,269.3,0.0003919031701690325
56,274.31,0.00038831238712962364
57,275.42287,0.00038789458971372345
58,278.76,0.00040827502986616135
59,283.95,0.000439716289566887
60,289.89,0.000463703649224365
61,295.96,0.0005048580622076799
62,300.77,0.0005287148352636512
63,307.78,0.0005746256415260957
64,316.227766,0.0006309979020243358
65,317.86,0.0006324242700130978
66,328.27000000000004,0.000633783423146573
67,338.25,0.0006337777630382237
68,347.71999999999997,0.0006337775360616638
69,356.64,0.0006354890154037002
70,363.078055,0.000637989977090414
71,365.79,0.0006508821509343758
72,375.18,0.000688495211205968
73,384.8,0.0007136670886088133
74,394.67,0.0007688792541978034
75,404.79,0.000813088407972938
76,414.22,0.0008479203103543135
77,416.86938299999997,0.0008566271312108315
78,421.92,0.0008693593060951181
79,429.77000000000004,0.0008891332660915625
80,440.79,0.0009253889333731953
81,451.06,0.0009500053184895627
82,460.51,0.0009695612537719066
83,470.15000000000003,0.0009939575298694512
84,478.630092,0.0010180379731401063
85,479.99,0.0010182911758897248
86,490.03999999999996,0.0010062262740644684
87,500.31,0.0010094837966768682
88,506.1,0.0010055386580133622
89,511.96,0.0010530816453072924
90,520.28,0.0010491867876768314
91,529.95,0.001039905216368351
92,539.8,0.0010163595832361346
93,549.5408739999999,0.001023903183459782
94,549.84,0.001024438563883757
95,560.06,0.0010579094220134547
96,570.47,0.0010795017886602405
97,579.74,0.0010691548042044963
98,590.52,0.0010972388874371907
99,600.12,0.0010865464177742842
100,609.87,0.0010486258548353948
101,619.78,0.0011493530990687902
102,629.85,0.0011552388504744706
103,630.957344,0.0011566048300448674
104,640.0799999999999,0.0011783527807735054
105,650.4799999999999,0.0012145122567844208
106,658.01,0.0012286857975884777
107,665.63,0.0012641782771272445
108,674.89,0.0012822468624985018
109,684.28,0.0012717533038198955
110,695.4000000000001,0.0013782752897084894
111,705.07,0.0013514346515378691
112,716.53,0.0014618091837575891
113,724.43596,0.0014846321843746562
114,726.5000000000001,0.0014900031125522984
115,734.91,0.0015158622904664053
116,745.13,0.0015812316017960334
117,755.5000000000001,0.0016247652777733569
118,764.2500000000001,0.0016249842155555726
119,774.88,0.0017347835902555675
120,785.66,0.0017896043296032572
121,794.7600000000001,0.0018419917848967618
122,805.81,0.0018895249806103029
123,815.1500000000001,0.0019299356193401196
124,824.58,0.0020298800768585533
125,831.763771,0.0018917136307457663
126,834.13,0.0018433761054153655
127,845.74,0.002085788382529959
128,855.5300000000001,0.0021193475739986816
129,865.4399999999999,0.002206283463422077
130,875.46,0.002293353242637256
131,885.59,0.0024046899116442182
132,895.85,0.0024816160867687427
133,904.14,0.0024953790538040557
134,914.61,0.003494058200349257
135,925.2,0.01864488704484913
136,935.91,0.040320283587303676
137,944.5699999999999,0.0778596494563659
138,954.992586,0.10836508020519939
139,955.51,0.10987983444934848
140,964.35,0.12906028985342027
141,975.52,0.02414467357100873
142,984.54,0.12046287566882859
143,995.94,0.12439409960620623
144,1005.16,0.17242490580819061
145,1014.4599999999999,0.1627878016518408
146,1023.85,0.06797821584236502
147,1035.7,0.11907615151411285
148,1045.29,0.2215470098088016
149,1054.96,0.22002165774515614
150,1064.72,0.18012569402838471
151,1074.57,0.21256001865848737
152,1084.51,0.173216931635464
153,1094.55,0.22359663166452293
154,1096.4782,0.22224761276486582
155,1104.68,0.21650715825297334
156,1114.9,0.21108481663491965
157,1125.21,0.1925318385446913
158,1135.6299999999999,0.23791421587736064
159,1146.13,0.21799356079031915
160,1154.08,0.23142333908155918
161,1164.76,0.2406530110501684
162,1175.53,0.173976046546603
163,1183.68,0.23409434378856606
164,1194.63,0.16615190634065136
165,1205.69,0.12320232431563434
166,1214.05,0.07394841645585656
167,1225.28,0.1579309855389541
168,1233.77,0.23732214499714627
169,1245.19,0.26320831708343073
170,1253.82,0.254870319807129
171,1258.92541,0.2404005752099067
172,1265.4199999999998,0.22199643806415925
173,1274.19,0.2820249908586253
174,1285.9799999999998,0.29531033070432144
175,1294.8999999999999,0.2417235878225241
176,1303.8700000000001,0.2395095463819723
177,1315.9399999999998,0.29260209429864337
178,1325.0600000000002,0.28202365718182815
179,1334.2399999999998,0.2542805217945076
180,1343.49,0.29668008842493077
181,1355.9199999999998,0.2885915467185697
182,1365.32,0.26260561767272944
183,1374.79,0.27497699064463293
184,1384.32,0.27880316534603106
185,1393.9099999999999,0.24678194177692384
186,1403.5700000000002,0.25722252022556036
187,1416.56,0.2626047946611492
188,1426.3799999999999,0.26872257772177144
189,1436.27,0.2674801628001374
190,1442.9,0.28137875390929473
191,1445.43977,0.28437055377938364
192,1446.22,0.2852896459936145
193,1456.25,0.2794407886439042
194,1466.34,0.260799932745741
195,1476.51,0.26019617878297396
196,1483.32,0.2638243435335695
197,1493.6,0.26811129223197205
198,1503.96,0.25604114286577084
199,1510.9,0.23138961076138503
200,1517.8700000000001,0.2462213793827728
201,1524.88,0.24006804897185863
202,1535.4499999999998,0.21347690468607222
203,1546.09,0.23299536209375743
204,1553.2299999999998,0.22097593482786196
205,1563.99,0.22456839513864135
206,1574.8300000000002,0.23951625738481688
207,1585.75,0.24964602156638854
208,1596.74,0.2560470874414318
209,1604.11,0.2502246657398002
210,1615.23,0.2508038347598622
211,1626.43,0.2389610057153203
212,1633.94,0.2531155874006319
213,1645.26,0.25722656125918425
214,1656.67,0.23787293729505718
215,1659.58691,0.2466283575757428
216,1664.31,0.26080594230447957
217,1671.9999999999998,0.23460610091942427
218,1675.8500000000001,0.2674910811102613
219,1683.5800000000002,0.2775305467921238
220,1695.26,0.26080941033211785
221,1703.08,0.2525467919145454
222,1714.88,0.24566637665529278
223,1726.77,0.2456688772966052
224,1734.7399999999998,0.26262568537997444
225,1746.77,0.2560623107554991
226,1754.83,0.27500193473943335
227,1766.99,0.24966708308244082
228,1775.15,0.26082502473366953
229,1783.34,0.26445257168508657
230,1795.71,0.2859762571294125
231,1803.99,0.2807626199813945
232,1816.5,0.2656857301599327
233,1824.88,0.2687570106792092
234,1833.31,0.258450300032133
235,1846.0099999999998,0.23735334377853062
236,1854.54,0.24344635079874885
237,1863.09,0.254323761352426
238,1876.01,0.2687651439668715
239,1884.6699999999998,0.2531581739545725
240,1893.3700000000001,0.24854351100919136
241,1905.46072,0.25768584438180925
242,1906.4900000000002,0.25846371271087215
243,1915.29,0.253738608657028
244,1924.13,0.24682889549384826
245,1933.01,0.2412201732213328
246,1946.41,0.26876192159388834
247,1955.3999999999999,0.2560773742706998
248,1968.9499999999998,0.2801283884832466
249,1978.04,0.284008618386719
250,1982.6,0.2737485799224543
251,1996.3400000000001,0.26751255086565673
252,2005.5600000000002,0.2693611511637883
253,2014.81,0.263233144629918
254,2024.1100000000001,0.2675044267093782
255,2033.46,0.2662731974021688
256,2042.84,0.27882336126295765
257,2057.0,0.26749803655813575
258,2066.5,0.26626587309091765
259,2076.04,0.2886031005143639
260,2085.62,0.3021909188284745
261,2095.25,0.2866146257559155
262,2104.92,0.2826799235740209
263,2114.63,0.28859481228279055
264,2124.39,0.2905892896048907
265,2134.2,0.2668646555403213
266,2144.05,0.2846330123664162
267,2153.95,0.2919281578058415
268,2163.89,0.2787962941359312
269,2173.88,0.2775068190793514
270,2183.91,0.2833132349134358
271,2187.7616199999998,0.2886718793588474
272,2193.9900000000002,0.2973397886587128
273,2204.12,0.2879208279641226
274,2214.29,0.2668572745323376
275,2224.51,0.26381373017905896
276,2234.78,0.2932752949042869
277,2245.1,0.27885826870802116
278,2255.46,0.26012434977456067
279,2265.87,0.26360903991960666
280,2276.33,0.2758781391431591
281,2286.84,0.29273994744521803
282,2297.39,0.2724464630100821
283,2302.69,0.28291972533176735
284,2313.32,0.2688222554222418
285,2323.99,0.2134506927755214
286,2334.7200000000003,0.23992474102300873
287,2345.5,0.21921479834900257
288,2356.32,0.26159456293780153
289,2367.2000000000003,0.2230806384208083
290,2372.66,0.24201912979371423
291,2383.6099999999997,0.20734421798663005
292,2394.61,0.22774981525805232
293,2405.66,0.22093952160798105
294,2416.77,0.23070453885211753
295,2422.34,0.2663398501977377
296,2433.52,0.25897608015178325
297,2444.75,0.27992391918433523
298,2456.04,0.279807169111095
299,2467.3700000000003,0.2745798263006599
300,2473.06,0.2594786594346956
301,2484.48,0.25404813296557216
302,2495.9500000000003,0.2458918155749552
303,2507.47,0.29209590726284473
304,2511.88643,0.2472125616281396
305,2513.25,0.2333545133332465
306,2519.04,0.22721520645593213
307,2524.8500000000004,0.22225469817316937
308,2536.5,0.23694347949947123
309,2542.35,0.23880736840581165
310,2554.0800000000004,0.27786604411031984
311,2565.87,0.25983631559848286
312,2577.72,0.2854320828703006
313,2583.66,0.2785600654521232
314,2595.58,0.2708729278048715
315,2607.56,0.2568113859412746
316,2613.58,0.24776456290130355
317,2625.6400000000003,0.278523115415913
318,2637.76,0.31453346371417723
319,2643.84,0.36902283645786094
320,2656.04,0.40540127913433155
321,2662.1699999999996,0.33600854836439425
322,2674.45,0.3632356854190712
323,2686.7999999999997,0.37673051755467873
324,2692.9900000000002,0.3353349825683963
325,2705.42,0.36335230908221017
326,2717.91,0.32226133137967883
327,2724.18,0.3145136907716026
328,2736.75,0.3439374074472777
329,2743.06,0.2648287640283047
330,2755.72,0.2902847743794619
331,2762.0699999999997,0.3193185281495921
332,2774.82,0.34204663217623144
333,2787.6299999999997,0.2877320319865256
334,2794.06,0.19613068013486215
335,2806.95,0.21745467432336266
336,2813.4199999999996,0.3347355196608024
337,2826.41,0.3895425068220608
338,2832.9300000000003,0.3775684486458796
339,2846.0,0.34985893018534436
340,2852.56,0.30504876919826623
341,2865.73,0.39192554371048904
342,2872.3399999999997,0.41844247920978994
343,2884.0315,0.4091189878763901
344,2885.59,0.4078762553784437
345,2892.24,0.4226363458148066
346,2912.29,0.5003626169800811
347,2932.48,0.46842498794401594
348,2952.81,0.45602405870661106
349,2973.27,0.47570882928224784
350,2987.0,0.483323009536573
351,3007.7,0.49500367976705595
352,3028.5499999999997,0.5046256497818177
353,3049.54,0.5180161195952397
354,3070.6800000000003,0.5366832891929407
355,3091.97,0.5433764585749206
356,3113.4,0.5668737277555607
357,3127.7700000000004,0.5500598070894757
358,3149.45,0.5582289759105805
359,3171.28,0.5810413445159641
360,3193.2700000000004,0.5365627128912454
361,3207.9999999999995,0.5748571917074297
362,3230.24,0.5272120597231754
363,3252.63,0.6199928275232004
364,3267.65,0.6781566059223237
365,3290.2999999999997,0.6741504733484319
366,3311.31121,0.6676683005374914
367,3313.1,0.6671163939544472
368,3320.74,0.646665383917749
369,3328.4,0.6857344733312165
370,3336.0699999999997,0.7122522624697668
371,3343.76,0.657847051058483
372,3351.47,0.6600888390973647
373,3359.19,0.7097053268613294
374,3366.94,0.6769617138005426
375,3374.7,0.5676364004648388
376,3382.48,0.6173699865793005
377,3390.2799999999997,0.699864872143928
378,3398.09,0.6894522574336385
379,3405.92,0.6870565421735145
380,3413.78,0.6862387260886391
381,3421.65,0.7293832097288466
382,3429.53,0.7086739930941369
383,3437.44,0.719336275634676
384,3445.36,0.5720643579002976
385,3453.31,0.754931239341168
386,3461.27,0.6552545205071212
387,3469.25,0.6884798011232401
388,3477.24,0.6373694814644418
389,3485.26,0.6932290609808922
390,3493.29,0.6582315402224255
391,3501.35,0.6900273186392072
392,3509.4199999999996,0.7216931967810718
393,3517.5099999999998,0.6619981743731022
394,3525.62,0.6844540514152981
395,3533.7400000000002,0.758287128182577
396,3541.89,0.7967532041251044
397,3550.06,0.8050392795177977
398,3558.24,0.7591345546355738
399,3566.44,0.7867179292035155
400,3574.66,0.6476375032216228
401,3579.64,0.7128624663128851
402,3582.32,0.7516621926350905
403,3585.01,0.7081140186823786
404,3587.69,0.690380445004584
405,3590.37,0.5802902713267893
406,3593.06,0.7162244973740776
407,3595.7400000000002,0.868208523696283
408,3598.42,0.8545605500184883
409,3601.1,0.9103038763406935
410,3603.79,0.8316639023879818
411,3606.47,0.9053660287101871
412,3609.1499999999996,0.6860589550323926
413,3611.83,0.7298884813545978
414,3614.52,0.7993239074018861
415,3617.2,0.7925240337240914
416,3619.8799999999997,0.7473033600462967
417,3622.5600000000004,0.6986817863685021
418,3625.25,0.7032247124157903
419,3627.93,0.5230231387379957
420,3630.61,0.611602065060201
421,3633.2999999999997,0.6262286911074892
422,3635.9799999999996,0.6416026174296946
423,3638.6600000000003,0.6885846437519
424,3641.34,0.7180210700741052
425,3644.0299999999997,0.7097884961213935
426,3646.71,0.7883668224435988
427,3649.3900000000003,0.7955231487658042
428,3652.07,0.7241017750880095
429,3654.76,0.7417979011352978
430,3657.44,0.7877410274575031
431,3660.12,0.9470813537797084
432,3662.7999999999997,0.6742513801019138
433,3665.4900000000002,0.6301604061492019
434,3668.17,0.8832972324714072
435,3670.85,1.0374191587936128
436,3673.54,1.0916330848409008
437,3676.2200000000003,0.9699259111631062
438,3678.9,0.8231156374853115
439,3681.58,1.046002863807517
440,3684.27,0.9452828898548051
441,3686.95,0.7287863161770105
442,3689.6299999999997,0.9164168424992158
443,3692.31,0.6422644688214212
444,3695.0,0.5860946948687094
445,3697.68,0.6874963211909147
446,3700.3599999999997,0.6088606475131201
447,3703.0400000000004,0.6338220738353254
448,3705.73,0.8112825998826136
449,3708.41,0.682655326204819
450,3711.09,0.6584866525270243
451,3713.7799999999997,0.7940310785743125
452,3716.4599999999996,0.9455429048965179
453,3719.1400000000003,1.0040728312187233
454,3721.82,1.4658927575409286
455,3724.5099999999998,1.9155066835882166
456,3727.19,2.065697609910422
457,3729.8700000000003,1.6287135362326275
458,3732.55,1.297166462554833
459,3735.2400000000002,1.160410388602121
460,3737.92,0.9418474149243264
461,3740.6,0.8721147412465318
462,3743.2799999999997,0.8664484675687371
463,3745.9700000000003,0.8756782936160252
464,3748.65,0.7511010199382306
465,3751.33,0.811354446260436
466,3754.02,0.8081160723077242
467,3756.7,1.0484067986299297
468,3759.38,0.9196026249521349
469,3762.06,0.7885310512743402
470,3764.75,0.9428485773216285
471,3767.43,0.7901347036438339
472,3770.1099999999997,0.7615384299660392
473,3772.79,0.8886685562882446
474,3775.48,0.8533259823355327
475,3778.16,0.9920626086577381
476,3780.8399999999997,1.0315001349799433
477,3783.5200000000004,1.1603900613021487
478,3786.21,0.9523889873494369
479,3788.89,0.8966717136716423
480,3791.57,0.7366133399938476
481,3794.2599999999998,0.7461505660411359
482,3796.9399999999996,0.8738353923633412
483,3799.6200000000003,0.8389341186855465
484,3801.8939600000003,0.8991256076719836
485,3802.3,0.9098734473336408
486,3804.99,0.8978618887898572
487,3807.67,1.0372954304637083
488,3810.35,0.9964078721375595
489,3813.03,1.1647813138114107
490,3815.7200000000003,1.0762932552676272
491,3818.4,1.0163251969414784
492,3821.08,0.8788310386153297
493,3823.7599999999998,0.9908008802891809
494,3826.4500000000003,0.8326742217453973
495,3829.13,0.8947935634192485
496,3831.81,0.5925045050930997
497,3834.5,0.7412969465493161
498,3837.18,0.7879838882231673
499,3839.86,0.9116778298970185
500,3842.54,0.8582746715708698
501,3845.23,1.1040156130270862
502,3847.91,1.0901315547009374
503,3850.5899999999997,0.9581867963747887
504,3853.2699999999995,1.02711943804864
505,3855.96,0.8796425795048562
506,3858.64,1.2139193211787074
507,3861.3199999999997,1.1431712628525585
508,3864.0099999999998,1.1975042043087751
509,3866.69,1.1188581459826263
510,3869.37,1.1022110876564775
511,3872.05,1.0939000293303287
512,3874.74,1.156343970786545
513,3877.4199999999996,1.0364309124603963
514,3880.1000000000004,1.0443318541342477
515,3882.78,0.9127645958080988
516,3885.47,1.0052237372643151
517,3888.15,0.9817402789381664
518,3890.83,0.8210798206120176
519,3893.51,0.9139217622858689
520,3896.2000000000003,1.0272795037420852
521,3898.88,0.7915371454159364
522,3901.56,1.0912893870897877
523,3904.25,1.0652973285460041
524,3906.9300000000003,1.1836902702198553
525,3909.61,1.1164382118937064
526,3912.29,1.4116921535675577
527,3914.98,1.201400095023774
528,3917.66,1.1404410366976252
529,3920.34,1.0656669783714765
530,3923.02,1.1158959200453276
531,3925.71,1.0524518615015441
532,3928.39,0.9383123031753954
533,3931.0699999999997,0.9206380448492466
534,3933.7499999999995,0.9102488865230978
535,3936.44,0.7301729279793142
536,3939.12,0.9332351696531653
537,3941.7999999999997,1.0395375113270167
538,3944.49,1.1350304527832331
539,3947.17,1.1971503944570843
540,3949.85,1.1565343361309355
541,3952.53,1.2530012778047868
542,3955.22,1.227375219261003
543,3957.8999999999996,1.0956431609348543
544,3960.5800000000004,0.8558860026087055
545,3963.26,0.8735271442825567
546,3965.95,0.8435570857387731
547,3968.63,0.6892373274126243
548,3971.31,0.8698422690864757
549,3973.9900000000002,0.8004047107603268
550,3976.6800000000003,1.040537752216543
551,3979.36,1.0282236938903944
552,3982.04,1.1604906355642457
553,3984.73,1.241896577020462
554,3987.4100000000003,1.219937518694313
555,3990.09,1.2036444603681644
556,3992.77,1.3282134020420158
557,3995.46,1.2017523434982322
558,3998.14,1.3102632851720832
559,4000.8199999999997,1.2899562268459346
560,4003.5,1.2711841685197858
561,4006.19,1.3265551099760022
562,4008.87,1.3988170516498533
563,4011.5499999999997,1.2603199933237046
564,4014.2299999999996,1.2361169349975558
565,4016.92,1.3724858764537722
566,4019.6,1.4562008181276234
567,4022.2799999999997,1.3256147598014745
568,4024.97,1.361503701257691
569,4027.6499999999996,1.2950306429315421
570,4030.33,1.1684585846053934
571,4033.01,1.1560855262792447
572,4035.7,1.1954944677354609
573,4038.3799999999997,1.280626409409312
574,4041.0600000000004,1.4315243510831634
575,4043.7400000000002,1.3437982927570147
576,4046.43,1.1813252342132312
577,4049.11,1.2382381758870824
578,4051.79,1.2975121175609337
579,4054.47,1.3669410592347848
