,lambda (Angstroms),Total Flux (erg/s/cm^2/Angstrom)
0,102.01,68.64190184858352
1,103.91,68.446272107506
2,104.712855,68.36360773078349
3,106.08,67.62418777296382
4,108.05,66.55871387158193
5,110.06,65.47160598235476
6,113.93,63.37851765832041
7,117.94000000000001,61.20971037682757
8,120.22644299999999,59.973088375054154
9,120.96000000000001,59.64046011484273
10,124.92,57.844815181404975
11,126.95,56.924320430173346
12,128.13,56.389254515664504
13,131.10999999999999,55.0379863586852
14,132.02,54.625350780549574
15,133.86,53.79101071046993
16,136.98,52.376260156862074
17,138.038426,51.896321448704256
18,139.84,51.31240327199934
19,143.1,50.255786526920936
20,147.11,48.95608310752544
21,150.88,47.73416742386409
22,155.11,46.363158579910106
23,158.489319,45.267868689806846
24,159.09,45.12067943277862
25,162.05,44.39536899218641
26,165.82,43.47157832984087
27,170.07999999999998,42.427719385176694
28,172.84,41.75141640717216
29,176.87,40.76391604444698
30,180.15,39.960193664960755
31,181.82,39.55098135614041
32,181.970086,39.514204686326515
33,186.06,38.74963586017166
34,190.82999999999998,37.85793170760725
35,193.93,37.27841747878442
36,197.99,36.519440779471914
37,202.14,35.74363947422336
38,204.95,35.21833786831889
39,208.929613,34.47438872162417
40,210.21,34.294437722047306
41,216.1,33.46663223770655
42,220.10999999999999,32.90304989668086
43,223.17,32.472984569144
44,226.79999999999998,31.962809036845776
45,229.95999999999998,31.518689315969592
46,234.23,30.91856553622719
47,239.88329199999998,30.124028062704518
48,240.24,30.08539494211047
49,245.84,29.47888908352235
50,252.14000000000001,28.79657003370954
51,256.83,28.28862133865744
52,259.8,27.966956696973437
53,264.02,27.50991125922665
54,268.93,26.978135628165045
55,273.93,26.43661258434979
56,275.42287,26.274927884294907
57,279.03000000000003,25.97510701733978
58,284.21,25.54455085566862
59,290.16,25.049993070348304
60,296.24,24.544629881418658
61,301.05,24.14482773344173
62,308.07,23.561332762816644
63,316.227766,22.883267908125017
64,318.15999999999997,22.763311551918004
65,327.83,22.162981608937834
66,337.79,21.544647981201592
67,348.05,20.90768985304582
68,356.98,20.353300444095034
69,363.078055,19.974722998402395
70,366.14,19.832365280185208
71,374.67,19.435783540602127
72,385.16,18.948076166668482
73,395.03999999999996,18.48872970739148
74,405.18,18.017295123668188
75,413.66,17.62303810995659
76,416.86938299999997,17.473825585304542
77,422.32,17.280303474024688
78,430.17,17.001592284514636
79,441.21,16.60962160368471
80,451.49,16.24463424794346
81,459.88,15.946750524053591
82,469.51,15.60484128119209
83,478.630092,15.281036211757508
84,480.45,15.231341319490639
85,490.51,14.956639827804649
86,499.63,14.70760711238908
87,506.58000000000004,14.517829193937938
88,512.4399999999999,14.357828330076488
89,519.57,14.163136937906225
90,530.45,13.86604753086923
91,540.3100000000001,13.596807824997265
92,549.5408739999999,13.344763170994753
93,550.36,13.327701757203629
94,560.59,13.114618610949341
95,569.7,12.92486669969235
96,580.29,12.704270602389292
97,589.7199999999999,12.5078675379145
98,600.6800000000001,12.279578399407422
99,610.44,12.076305356329588
100,620.36,11.869697537607857
101,630.44,11.659755381742224
102,630.957344,11.648979314162979
103,640.69,11.488271084321987
104,649.6,11.341190158440574
105,658.6400000000001,11.191950191393886
106,664.73,11.09141224596686
107,675.53,10.913081866128783
108,684.93,10.757872564947494
109,694.4599999999999,10.60065385820093
110,705.74,10.41438612478338
111,715.56,10.252358662145054
112,724.43596,10.105839078310003
113,725.51,10.092680085840296
114,735.61,9.968933056009522
115,745.84,9.84369322426519
116,754.48,9.737897329479065
117,764.9699999999999,9.609428586007603
118,775.61,9.479160597558948
119,784.59,9.369244746791193
120,795.51,9.235506546251784
121,804.72,9.122739478052342
122,815.91,8.985693474353992
123,825.36,8.870120962791045
124,831.763771,8.791372836392386
125,834.92,8.76232994397495
126,844.59,8.674342408000888
127,854.37,8.58486743350282
128,864.26,8.494533885480747
129,874.2700000000001,8.403118421796117
130,884.39,8.310790614587482
131,894.63,8.217256175716296
132,904.99,8.122367414182555
133,915.47,8.029060152986261
134,923.94,7.998020823637729
135,934.6400000000001,7.968374345393422
136,945.46,7.9921583094865625
137,954.21,8.03587616325874
138,954.992586,8.030805631474347
139,965.26,7.966313054595336
140,974.19,7.544197269071506
141,985.4699999999999,7.695848522620353
142,994.59,7.667242091021547
143,1006.11,7.794991198475686
144,1015.42,7.714205530801906
145,1024.81,7.2944695110965565
146,1034.3,7.342776351351746
147,1043.87,7.715975539575368
148,1055.95,7.604388282808529
149,1065.72,7.304220490953228
150,1075.59,7.38012295905847
151,1085.54,7.09170517513214
152,1095.58,7.277162295170296
153,1096.4782,7.267116263002133
154,1105.72,7.178766104615925
155,1115.95,7.060867029647092
156,1126.28,6.899521293046112
157,1134.08,7.1143940857385
158,1144.5800000000002,6.940288714362863
159,1155.1699999999998,6.955351877518297
160,1165.86,6.91781667904158
161,1173.94,6.505986479163949
162,1184.8,6.77074334591258
163,1195.76,6.3045904510290605
164,1204.05,6.031146631723917
165,1215.19,5.84997160590253
166,1223.62,6.17081764031238
167,1234.94,6.541884983553122
168,1246.36,6.5951895651617205
169,1255.0,6.458685280144055
170,1258.92541,6.339611955470552
171,1263.7,6.204841235900589
172,1275.3999999999999,6.539271439401732
173,1284.24,6.590985993158153
174,1296.1200000000001,6.129810384405466
175,1305.1,6.074587417520019
176,1314.15,6.409146190313638
177,1326.31,6.27812154027722
178,1335.5,6.021920792428972
179,1344.7600000000002,6.3104367842597915
180,1354.08,6.214564838672668
181,1363.47,5.972235632764612
182,1376.0800000000002,6.00336645209362
183,1385.62,5.978449402640708
184,1395.23,5.74091509286686
185,1404.9,5.74806084567507
186,1414.64,5.716937338162346
187,1424.4399999999998,5.733248893231681
188,1434.32,5.67019686507709
189,1440.94,5.735857103297395
190,1445.43977,5.73641755777845
191,1447.59,5.740082929498577
192,1454.27,5.664889230783762
193,1464.3500000000001,5.496514050687156
194,1474.5,5.466735216562103
195,1484.72,5.4714197284086
196,1495.01,5.473762586226648
197,1505.38,5.344239268012185
198,1512.3200000000002,5.143830997191705
199,1515.81,5.243599817773337
200,1526.32,5.148299191501975
201,1533.36,4.941290700640854
202,1543.99,5.048480810320722
203,1554.69,4.938295265972144
204,1565.47,4.917183545591051
205,1576.32,4.958596171181512
206,1583.6,5.015762152222853
207,1594.58,5.002734991760478
208,1605.63,4.944047177269655
209,1616.7599999999998,4.918224186746322
210,1624.22,4.808320771714507
211,1635.48,4.86440099513834
212,1646.82,4.844045042529658
213,1654.42,4.705144319440947
214,1659.58691,4.745731517142557
215,1665.88,4.802051355462344
216,1673.5700000000002,4.607006764428525
217,1677.43,4.765221099748352
218,1685.17,4.8291316115036516
219,1696.8600000000001,4.701099243599188
220,1704.69,4.619281540374898
221,1716.5,4.498790219164316
222,1724.43,4.474852721518259
223,1736.3799999999999,4.5344312881172035
224,1744.4,4.4834855754915575
225,1756.49,4.55005602990003
226,1764.5900000000001,4.403141681736971
227,1776.8300000000002,4.398517444512793
228,1785.03,4.408376301927969
229,1793.2699999999998,4.487343841574438
230,1805.7,4.449862594948905
231,1814.0300000000002,4.293826919615784
232,1826.61,4.299901981357602
233,1835.04,4.218758511602713
234,1843.5099999999998,4.087619724079121
235,1856.29,4.042154196977406
236,1864.8500000000001,4.057209194474223
237,1873.46,4.163419294760157
238,1886.45,4.004966599372733
239,1895.1599999999999,3.926733905236901
240,1903.9,3.985369472774539
241,1905.46072,3.9738681648569685
242,1917.1,3.896050352966016
243,1925.9499999999998,3.864606986337166
244,1934.84,3.899542639520163
245,1943.77,3.912269312515007
246,1957.24,3.7977017341544856
247,1966.28,3.9016002116319086
248,1975.35,3.9239044539682175
249,1984.47,3.823730971069335
250,1993.63,3.7669685079822983
251,2002.83,3.7940490647071106
252,2016.7199999999998,3.7086111943709836
253,2026.03,3.7614295555783737
254,2035.3799999999999,3.6573549365976112
255,2044.77,3.6876903374286956
256,2054.21,3.613105013024589
257,2063.69,3.596971708432329
258,2073.2200000000003,3.655382678604878
259,2078.0,3.564972546120595
260,2082.79,3.6048396685892747
261,2097.22,3.502288565713082
262,2106.9,3.4950513601800575
263,2116.63,3.4828024294118407
264,2126.4,3.480356518455472
265,2136.21,3.37678752731095
266,2146.08,3.375245265884199
267,2155.98,3.397862669316333
268,2165.9300000000003,3.3440033475132753
269,2175.9300000000003,3.3094463004750265
270,2185.9700000000003,3.2569324732486247
271,2187.7616199999998,3.261739847386459
272,2196.06,3.289037921462892
273,2206.2000000000003,3.244132139260797
274,2216.38,3.1805480293182598
275,2226.61,3.12554810970017
276,2236.89,3.1649806804065275
277,2247.2200000000003,3.106865141437332
278,2257.5899999999997,3.061903074727695
279,2262.79,3.0861250684702104
280,2273.24,3.0987257462796887
281,2283.73,3.1098469963487236
282,2294.27,3.048299436742207
283,2304.86,3.0293956674601374
284,2315.5,2.976332588502515
285,2326.19,2.76296069986934
286,2336.9300000000003,2.8989109015606123
287,2342.31,2.881376320471138
288,2353.12,2.9211976486166362
289,2363.99,2.8515087851514713
290,2374.9,2.858613593945864
291,2385.86,2.799911493064704
292,2396.87,2.843404682507992
293,2402.4,2.799585672391859
294,2413.4900000000002,2.8082596063542615
295,2424.63,2.831099230641112
296,2435.8199999999997,2.78315444525241
297,2447.06,2.8198440501881548
298,2452.7,2.7992178387858058
299,2464.02,2.7855592882406666
300,2475.4,2.7447811460848635
301,2486.8199999999997,2.767948176188619
302,2492.56,2.7108369454351644
303,2504.0600000000004,2.775514820058034
304,2511.88643,2.714125808176913
305,2515.62,2.6860473981140145
306,2527.2299999999996,2.6701405725694904
307,2533.06,2.6743922370032043
308,2544.75,2.6434847185178048
309,2556.4900000000002,2.680628754444357
310,2562.39,2.6656840750548056
311,2574.22,2.7030283689228747
312,2586.1,2.684408817202896
313,2592.06,2.675118943107688
314,2604.0200000000004,2.636683398446834
315,2616.04,2.6221701590803237
316,2622.07,2.6446285411618495
317,2634.18,2.642062959736855
318,2646.3399999999997,2.6859857327238132
319,2652.4399999999996,2.6806341709820733
320,2664.68,2.6070507510281553
321,2676.98,2.633438836368582
322,2683.15,2.617522130803576
323,2695.5299999999997,2.5839337232031276
324,2707.98,2.587345071779412
325,2714.22,2.555307022391141
326,2726.75,2.550303178026551
327,2733.03,2.5841726321678413
328,2745.65,2.480476845744766
329,2751.98,2.4806340542980103
330,2764.68,2.49081527493406
331,2777.44,2.5158505008644534
332,2783.84,2.4958960655944313
333,2796.69,2.34654874946634
334,2803.14,2.393946068608271
335,2816.0800000000004,2.4880022104216946
336,2822.5699999999997,2.4948482330931885
337,2835.6,2.442138432848128
338,2842.1400000000003,2.426338109931573
339,2855.26,2.412738667628028
340,2861.84,2.445607048241037
341,2875.05,2.419521363879007
342,2884.0315,2.4157735815168047
343,2888.3199999999997,2.415174474049242
344,2894.9700000000003,2.3968129983129676
345,2908.3399999999997,2.4346497334116166
346,2928.5,2.4013140659163854
347,2948.7999999999997,2.380718571563549
348,2969.2400000000002,2.3767275503531056
349,2989.82,2.364326002285057
350,3010.54,2.3581630273594034
351,3031.41,2.3455805522291717
352,3052.42,2.324438150241334
353,3066.51,2.31171550435801
354,3087.7700000000004,2.3009708686958765
355,3109.17,2.2754577061761374
356,3130.73,2.2582451701048485
357,3152.43,2.247210707175954
358,3166.98,2.2300929873319255
359,3188.93,2.190289190728735
360,3211.03,2.193108793920967
361,3233.29,2.165348923561649
362,3248.22,2.1644137165326915
363,3270.73,2.1548457124990774
364,3293.4,2.136990734913914
365,3308.6,2.127764947516716
366,3311.31121,2.1272127204970497
367,3323.88,2.127099188565373
368,3331.54,2.119818123936165
369,3339.22,2.0863102056134077
370,3346.92,2.1134811335971015
371,3354.63,2.075956934734021
372,3362.3599999999997,2.080723482177392
373,3370.12,2.0577049490804393
374,3377.89,2.056435689136712
375,3385.67,2.0831596023462104
376,3393.48,2.0922245350153856
377,3401.2999999999997,2.105650340837787
378,3409.14,2.049382392966639
379,3417.0,2.0702173914019415
380,3424.88,2.077202636143696
381,3432.77,2.084313454038676
382,3440.68,2.074815718240107
383,3448.62,2.0429754019012147
384,3456.5699999999997,2.017577358715548
385,3464.53,2.009674988683107
386,3472.52,2.0253815381103424
387,3480.53,2.015404333844029
388,3488.55,2.0213392027309416
389,3496.59,2.0213295179243054
390,3504.65,1.9974029794241202
391,3512.73,1.9894372872303858
392,3520.83,1.999173241343103
393,3528.9500000000003,1.989160341762271
394,3537.0800000000004,2.0010039153346644
395,3545.2299999999996,2.00497803521351
396,3553.4100000000003,2.004926274552031
397,3561.6,2.0008236870437788
398,3569.81,1.9726297458419766
399,3578.04,1.9355434509466263
400,3586.29,1.9238524023577268
401,3594.55,1.927292826922053
402,3602.84,1.946267670946056
403,3611.15,1.93819456127651
404,3619.4700000000003,1.9477382247601898
405,3627.8100000000004,1.9696228345503206
406,3636.17,1.9433295906469026
407,3636.96,1.9106178697517233
408,3639.6299999999997,2.0597299016629522
409,3642.2900000000004,1.8728028604209555
410,3644.96,1.7783889923321845
411,3647.63,1.7892024242434132
412,3650.29,1.7274203830014168
413,3652.96,2.0548306149126456
414,3655.63,1.8646463468238745
415,3658.2999999999997,2.148503778735104
416,3660.9599999999996,2.180555437493107
417,3663.63,1.7666557694043359
418,3666.3,1.9661201013155647
419,3668.96,1.8593159600735683
420,3671.63,1.896238491984797
421,3674.2999999999997,1.7285033238960261
422,3676.96,1.8042487826540294
423,3679.6299999999997,1.8632971145652586
424,3682.3,1.976914646476487
425,3684.96,2.0775140052344905
426,3687.63,1.7551500371457194
427,3690.3,1.7076973690569481
428,3692.96,1.6141174278149517
429,3695.6299999999997,1.8207423597261807
430,3698.2999999999997,1.9132750916374097
431,3700.9599999999996,1.8058785503954131
432,3703.63,1.670425482306642
433,3706.3,1.8802800142178708
434,3708.96,1.804376072975874
435,3711.63,2.1095885048871033
436,3714.2999999999997,1.7805131367983322
437,3716.96,1.8589504955563354
438,3719.6299999999997,2.0523320274675645
439,3722.3,2.438849959378793
440,3724.96,2.766397618136797
441,3727.63,3.7232475500480255
442,3730.2999999999997,4.254395481959254
443,3732.96,4.128614140717258
444,3735.6299999999997,3.1969200726284868
445,3738.3,2.4876510045397158
446,3740.96,2.194260663297719
447,3743.63,2.0571915952089483
448,3746.3,1.9656129271201768
449,3748.96,2.05474618587818
450,3751.63,1.9284802177894094
451,3754.2999999999997,1.7395163497006383
452,3756.9599999999996,1.9638435084586416
453,3759.63,1.8982664403698704
454,3762.3,1.9653894722810992
455,3764.96,1.9499772310391026
456,3767.63,1.9029907629503315
457,3770.2999999999997,2.067571094861561
458,3772.96,1.944724453619564
459,3775.6299999999997,2.058090685530793
460,3778.3,2.272466617442022
461,3780.96,2.1846492762000254
462,3783.63,2.136173208111254
463,3786.3,2.394961140022483
464,3788.96,2.2894687987804865
465,3791.6299999999997,2.3296207306917154
466,3794.2999999999997,2.261602662602945
467,3796.9599999999996,2.152663321360948
468,3799.63,2.0027285532721764
469,3801.8939600000003,2.002326409458598
470,3802.3,2.002309950277869
471,3804.96,2.0059791754511824
472,3807.63,2.1540571447040953
473,3810.2999999999997,2.069717113957008
474,3812.96,2.180066439130322
475,3815.6299999999997,2.1587654083832346
476,3818.3,2.0859633776361473
477,3820.9700000000003,2.15750834688906
478,3823.63,2.263371672062374
479,3826.3,2.2229956413152863
480,3828.97,2.2001336105681992
481,3831.6299999999997,1.9687284357415131
482,3834.2999999999997,1.9908894049944257
483,3836.9700000000003,1.9424565742473385
484,3839.63,1.7870641994206522
485,3842.3,1.810696968673565
486,3844.97,2.077299137926478
487,3847.63,2.1703684630997913
488,3850.2999999999997,2.0858484323527042
489,3852.97,2.093097401605617
490,3855.63,2.2179827267789305
491,3858.3,2.276982696031843
492,3860.9700000000003,2.201578665284756
493,3863.63,2.35664699045807
494,3866.2999999999997,2.3485709597109827
495,3868.97,2.3753609289638957
496,3871.6299999999997,2.298693254137209
497,3874.3,2.2596982233901217
498,3876.9700000000003,2.196192192643035
499,3879.63,2.0981155178163484
500,3882.3,2.308227487069261
501,3884.97,2.1934534563221737
502,3887.63,2.1929057814954875
503,3890.2999999999997,1.9199677507484005
504,3892.9700000000003,1.959786420001313
505,3895.63,2.005822045174627
506,3898.3,2.0606420144275397
507,3900.9700000000003,2.0610189836804524
508,3903.63,2.204889308853766
509,3906.2999999999997,2.319967278106679
510,3908.97,2.3979892473595914
511,3911.6299999999997,2.1756105725329054
512,3914.3,2.2585495417858183
513,3916.9700000000003,2.561165511038731
514,3919.63,2.2850978362120444
515,3922.3,2.3615768054649573
516,3924.97,2.2896537747178702
517,3927.6299999999997,2.486515099891184
518,3930.2999999999997,2.2945610691440965
519,3932.9700000000003,2.0801940383970092
520,3935.63,2.189826363570323
521,3938.3,2.215898332823236
522,3940.97,2.1937723020761486
523,3943.63,2.2491226272494624
524,3946.2999999999997,2.233006596502375
525,3948.97,2.3684695657552877
526,3951.6299999999997,2.3186288909286015
527,3954.3,2.211677860181514
528,3956.9700000000003,2.1201418294344268
529,3959.63,2.1624991546077403
530,3962.3,2.0634081238606536
531,3964.97,2.1315250931135665
532,3967.6299999999997,1.95793741828688
533,3970.2999999999997,2.0354403875397926
534,3972.9700000000003,1.7588595567927052
535,3975.63,1.8944027819660192
536,3978.3,1.9395150512189319
537,3980.97,2.0763066204718448
538,3983.64,2.1707475897247575
539,3986.2999999999997,2.152901914898071
540,3988.97,2.126916884150984
541,3991.6400000000003,2.2874658534038965
542,3994.3,2.3052401785772103
543,3996.9700000000003,2.375887147830123
544,3999.64,2.197948117083036
545,4002.2999999999997,2.39698044225635
546,4004.97,2.348474411509262
547,4007.64,2.147351380762175
548,4010.3,2.1964387059354884
549,4012.9700000000003,2.2256686751884014
550,4015.64,2.205480644441314
551,4018.3,2.388882969614628
552,4020.97,2.374669938867541
553,4023.64,2.315038908120453
554,4026.2999999999997,2.4140852332937675
555,4028.9700000000003,2.4534722025466795
556,4031.6400000000003,2.315369171799593
557,4034.3,2.3019024969729065
558,4036.97,2.338705466225819
559,4039.64,2.311267435478732
560,4042.2999999999997,2.3753207606520457
561,4044.97,2.2653367299049583
562,4047.6400000000003,2.364730699157871
563,4050.3,2.235073024331185
564,4052.9700000000003,2.1668099935840974
565,4055.64,2.2306029628370103
566,4058.3,2.268043288010324
567,4060.97,2.449570257263237
568,4063.64,2.2490382265161495
569,4066.2999999999997,2.2595095516894634
570,4068.9700000000003,2.320071520942376
571,4071.6400000000003,2.3994564901952886
572,4074.3,2.3026368153686025
573,4076.97,2.3869217846215154
574,4079.64,2.231717753874428
575,4082.2999999999997,2.2560780790477417
576,4084.97,2.2975290483006545
577,4087.6400000000003,2.3008480175535673
578,4090.3,2.307998342726881
579,4092.9700000000003,2.1263093119797936
580,4095.64,2.2935692812327066
581,4098.3,2.12055660640602
582,4100.97,2.126010575658933
583,4103.64,2.0618225449118457
584,4106.3,1.9571958700851595
585,4108.97,2.067553839338072
586,4111.639999999999,1.9267968085909852
587,4114.3,2.158703133764299
588,4116.969999999999,2.2086241030172116
589,4119.64,2.191001072270124
590,4122.3,2.274399397443438
591,4124.97,2.3151323666963504
592,4127.64,2.2994833359492635
593,4130.3,2.187338661122577
594,4132.97,2.09427663037549
595,4135.639999999999,2.212297599628403
596,4138.3,2.363023924801716
597,4140.97,2.328568894054629
598,4143.64,2.1981108633075417
599,4146.31,2.2525358325604543
600,4148.97,2.1556081577337682
601,4151.639999999999,2.118372126986681
602,4154.31,2.1295510962395934
603,4156.97,2.1809704214129075
604,4159.64,2.2019833906658204
605,4162.31,2.305163359918733
606,4164.97,2.3370236850920465
607,4167.64,2.2734096543449596
