,lambda (Angstroms),Total Flux (erg/s/cm^2/Angstrom)
0,100.09,0.0049265614439726975
1,101.94999999999999,0.0059191099118218425
2,104.09,0.0070610565328784024
3,104.712855,0.007393434604029989
4,106.02000000000001,0.006811536701416272
5,107.99,0.005934592756867568
6,110.0,0.00503997240638487
7,114.13,0.003201634587301027
8,117.87,0.00153701599687352
9,120.22644299999999,0.0004918192366909235
10,120.89000000000001,0.0004792554620248949
11,125.14000000000001,0.00039368822292850704
12,126.88,0.0003586849684113982
13,128.05,0.00033524396456368634
14,131.04,0.00027500175184175745
15,131.94,0.00025874346657428704
16,134.09,0.00021547676010199662
17,136.9,0.0001620621344335613
18,138.038426,0.00013940326206081797
19,140.07999999999998,0.00013934111567670164
20,143.02,0.00017730179251971678
21,147.02,0.00027092739251021353
22,151.14000000000001,0.0002839880938004252
23,155.02,0.00030108281249120706
24,158.489319,0.00031874727856262607
25,159.0,0.00032114814259409175
26,161.95000000000002,0.0003345068462541088
27,166.11,0.0003577931944662007
28,169.98,0.0003767639328269689
29,173.14,0.0003943297781034618
30,177.17,0.00041552715293392573
31,180.05,0.00043280640938845086
32,181.970086,0.0004436635486969997
33,182.13,0.000444804078201848
34,185.95000000000002,0.00047417308151027275
35,191.16,0.0005141230221482028
36,193.82,0.0005417902281168964
37,197.88,0.0005727193688059551
38,202.02,0.0006079470886218918
39,204.83,0.0006348800554534818
40,208.929613,0.0006493660030066864
41,210.07999999999998,0.000655530208139496
42,215.97000000000003,0.0007462138363471143
43,219.98,0.000794641273717666
44,223.04000000000002,0.0008220925194418277
45,227.19,0.0008745134040023736
46,229.82,0.0012981936619286955
47,234.09,0.0021027650012235225
48,239.88329199999998,0.0026823588832802
49,240.1,0.002703176170098182
50,246.26,0.002571819602381132
51,251.98999999999998,0.0027836198648780964
52,257.27,0.002333373949692053
53,260.25,0.0027443041263484156
54,263.87,0.0029062695557094996
55,268.78,0.0029231764944285393
56,273.77,0.0029273374647356687
57,275.42287,0.0029307705016365145
58,278.86,0.002950698809537181
59,284.05,0.0029802565079805866
60,290.0,0.0028813144166006765
61,296.07,0.002950997884722348
62,300.88,0.0029215004780774115
63,307.89,0.0030063299956281393
64,316.227766,0.003099759294205937
65,317.96999999999997,0.0031134827065160487
66,327.64,0.003113201913958446
67,338.37,0.0030846773613066292
68,347.85,0.0030442669597093106
69,356.77,0.003025077657784408
70,363.078055,0.0030394558966003386
71,365.92,0.0030530546688089443
72,375.31,0.0030296172348412923
73,384.94,0.002909033406395234
74,394.81,0.0030110171834707698
75,404.94,0.003048724533194698
76,414.37,0.003019382033480645
77,416.86938299999997,0.0029968238302938736
78,422.08000000000004,0.0029475060490983655
79,429.92,0.0029083276179013707
80,440.95000000000005,0.0029092634002862113
81,451.22,0.0028601043418176996
82,459.61,0.0027867763612382623
83,470.32,0.0027522442632637967
84,478.630092,0.002752778438559083
85,480.16999999999996,0.0027505320670914296
86,490.22,0.002627162373572966
87,500.48,0.002652203229742177
88,506.28,0.002546974744925551
89,512.14,0.0027053944171625465
90,520.46,0.002652045528598008
91,530.14,0.002553742533248881
92,540.0,0.0024060940090606174
93,549.5408739999999,0.0023394684390464996
94,550.04,0.002336273857002607
95,560.26,0.0024000297027859325
96,569.37,0.002434199712089855
97,579.9499999999999,0.002358381315650284
98,589.37,0.002335393144151157
99,600.33,0.00217564088092075
100,610.09,0.0019087310917666655
101,620.0,0.0022082141183530405
102,630.0699999999999,0.002125319148395906
103,630.957344,0.0021266748801511935
104,640.3100000000001,0.0021471399987237822
105,650.72,0.0020868692124212875
106,658.25,0.002001553678237062
107,664.34,0.0020563352701119713
108,675.1400000000001,0.002055929324668461
109,684.53,0.0019150008776578535
110,695.65,0.0019858042375345353
111,705.33,0.001819716723470352
112,716.7900000000001,0.0019395269702497382
113,724.43596,0.001920510554265471
114,726.76,0.0019143506528232171
115,735.18,0.0018919857139108765
116,745.4,0.0018392070065849709
117,755.7700000000001,0.0018032256518912685
118,764.5200000000001,0.001616525888769774
119,775.16,0.0017516407688140368
120,784.14,0.0016579916130619202
121,795.0400000000001,0.0016845925710020013
122,804.25,0.0016795940226192628
123,815.44,0.0016578875289816031
124,824.8800000000001,0.001642973587968242
125,831.763771,0.0015165801887556945
126,834.4300000000001,0.0014657966434844496
127,844.09,0.001572700495723234
128,855.8399999999999,0.001532101626551983
129,865.75,0.001524279928382868
130,875.77,0.001504014508034278
131,885.9100000000001,0.0014807786634898961
132,894.11,0.0014556450101108104
133,904.46,0.0014151854232237935
134,914.94,0.001498028710124669
135,925.53,0.002618469274846069
136,934.1,0.003933881646863293
137,944.9100000000001,0.005510206767225741
138,954.992586,0.006747789817413697
139,955.85,0.006853372196261563
140,964.7,0.007041377468722683
141,975.8699999999999,0.0026785363199532722
142,984.9,0.005404974214905127
143,994.01,0.005769446164297308
144,1005.52,0.008063832746899285
145,1014.82,0.008155389575587242
146,1024.21,0.004604846715520566
147,1036.07,0.00612902428629897
148,1045.66,0.01028121556233311
149,1055.34,0.010003254149612617
150,1065.1,0.007754383791332453
151,1074.96,0.009110855001102695
152,1084.9,0.007032539265313264
153,1094.94,0.00953388709757424
154,1096.4782,0.009469332524853753
155,1105.07,0.009107395270216897
156,1115.3,0.0086016727050289
157,1125.62,0.007553979205249805
158,1136.03,0.009788481770879615
159,1143.91,0.00893421883112581
160,1154.49,0.009455236853639103
161,1165.1699999999998,0.009495944615495622
162,1175.96,0.006317305790629689
163,1184.1100000000001,0.009109863047102594
164,1195.06,0.006356158005185823
165,1206.12,0.0047104433765466
166,1214.48,0.0038339527856402797
167,1225.72,0.006735864287818864
168,1234.22,0.00967672513199306
169,1245.6399999999999,0.01040805276498945
170,1254.2700000000002,0.009760865370309837
171,1258.92541,0.009250636619667199
172,1265.88,0.00849015255612532
173,1274.6499999999999,0.010942282657118907
174,1286.44,0.011454527724475166
175,1295.3600000000001,0.008627654307241732
176,1304.34,0.008529983882717493
177,1316.41,0.010967603582716647
178,1325.53,0.010406244474513856
179,1334.72,0.008949420524471789
180,1343.9699999999998,0.01099357956713891
181,1356.41,0.010598605388844754
182,1365.8100000000002,0.009283072913284857
183,1375.2800000000002,0.009739197595885684
184,1384.81,0.009739301271195707
185,1394.41,0.008150699104666452
186,1404.0800000000002,0.008339117096297921
187,1413.8100000000002,0.008829040080638582
188,1423.61,0.009115834223139968
189,1433.48,0.009053805523802078
190,1443.41,0.00956397981717338
191,1445.43977,0.009657975902974939
192,1446.74,0.009718184455253258
193,1453.42,0.00932674021491737
194,1463.49,0.008493512048722405
195,1473.6399999999999,0.00853257999342162
196,1483.85,0.00874949977129147
197,1494.1399999999999,0.008870487660055501
198,1504.5,0.00826449652085194
199,1511.44,0.007241250890922143
200,1518.42,0.007824713816439436
201,1525.43,0.007510247158542044
202,1535.9999999999998,0.00636001093543571
203,1546.6499999999999,0.006918888823223555
204,1553.79,0.006566169970529209
205,1564.5600000000002,0.006748062524658326
206,1575.4,0.007192783050819852
207,1586.32,0.00761438268787556
208,1593.64,0.007719382334693121
209,1604.69,0.007580109776951871
210,1615.81,0.00761485219124303
211,1623.27,0.0071444957821254085
212,1634.5199999999998,0.007667304001619611
213,1645.8500000000001,0.007755480332007996
214,1653.4499999999998,0.007144894866955191
215,1659.58691,0.00750037625457582
216,1664.91,0.0078091828898988105
217,1672.6,0.0067972137185930166
218,1676.4499999999998,0.007936175139980883
219,1684.19,0.008325935039082723
220,1695.86,0.007759347472224642
221,1703.6899999999998,0.007431586498060225
222,1715.5,0.007005531128343523
223,1723.4199999999998,0.006974649280912847
224,1735.37,0.007536673108337522
225,1743.3799999999999,0.007351267387640589
226,1755.46,0.007944214398125114
227,1763.5600000000002,0.007171630804161922
228,1775.79,0.007337685025869351
229,1783.98,0.007507543558639902
230,1796.35,0.008205749977488708
231,1804.64,0.008076674651074528
232,1812.97,0.007341510380986457
233,1825.54,0.007545883081465801
234,1833.96,0.0072116259381114715
235,1846.68,0.006497413849813719
236,1855.1999999999998,0.006587569847274659
237,1863.7599999999998,0.006925601901061706
238,1876.68,0.007534251094394494
239,1885.3500000000001,0.0069120893030783365
240,1894.05,0.006758004554006761
241,1905.46072,0.007087912967096927
242,1907.18,0.007137221956230748
243,1915.98,0.006834712653344355
244,1924.82,0.00662011712180848
245,1933.7099999999998,0.00655888505446075
246,1947.11,0.007295662456883743
247,1956.1000000000001,0.006845083317912303
248,1965.1299999999999,0.00768472395029138
249,1974.2,0.007771547354020973
250,1983.3100000000002,0.007543804529101083
251,1997.06,0.007355750180841095
252,2006.28,0.007523954977135126
253,2015.5400000000002,0.007253825544779671
254,2024.84,0.007402274883774734
255,2034.1899999999998,0.007300713686957942
256,2043.5800000000002,0.007744784261491666
257,2053.01,0.007281842607375908
258,2067.24,0.007230607515322117
259,2072.0099999999998,0.007955709998871198
260,2076.78,0.009289861482420277
261,2086.37,0.010531987913706584
262,2096.0,0.009788085116343407
263,2105.67,0.009587848090330746
264,2115.39,0.010011776528506232
265,2125.1600000000003,0.009651060430869862
266,2134.97,0.008867724104584009
267,2144.82,0.010076987549648671
268,2154.72,0.01040342345890148
269,2164.67,0.009557958832342435
270,2174.66,0.009600649977133904
271,2184.7,0.010519064586113522
272,2187.7616199999998,0.010577637015524862
273,2194.78,0.010713555831760075
274,2204.91,0.010377021571019784
275,2215.09,0.008823363521233387
276,2225.31,0.009194965640210112
277,2235.58,0.011117477970140734
278,2245.9,0.010548703511025253
279,2256.27,0.008928846262863669
280,2266.6800000000003,0.008828814183465206
281,2277.15,0.009612347357211419
282,2282.4,0.011258887507370694
283,2292.93,0.009936401934261584
284,2303.51,0.011046497572106372
285,2314.15,0.009705010463095838
286,2324.83,0.007320432522848422
287,2335.56,0.007615550793554904
288,2346.34,0.006353511275215283
289,2357.17,0.008989103967829561
290,2362.6,0.006597440877422869
291,2373.51,0.007603449907563383
292,2384.46,0.005819673106467016
293,2395.4700000000003,0.0066900555585153254
294,2406.53,0.006530825221517533
295,2417.64,0.00722398209547364
296,2423.21,0.00994172559573786
297,2434.39,0.009949919765029423
298,2445.63,0.011315769187465663
299,2456.92,0.011800115820855802
300,2462.58,0.01062805570083704
301,2473.95,0.009820783671753415
302,2485.37,0.007916954853623688
303,2496.8399999999997,0.008349492246447857
304,2502.6,0.011598426548336892
305,2511.88643,0.007801775958671792
306,2514.15,0.00687601406922001
307,2519.94,0.006324814526518307
308,2525.75,0.006486610177106063
309,2537.41,0.008276443864860494
310,2543.2599999999998,0.008625678902027168
311,2555.0,0.013223475362939432
312,2566.79,0.010459469807075345
313,2572.7100000000005,0.012617491020755123
314,2584.59,0.0115236318346936
315,2596.52,0.010598030631855722
316,2602.5,0.009545990425403878
317,2614.5099999999998,0.008921350995723835
318,2626.58,0.011291708145912169
319,2632.64,0.01716567371261816
320,2644.7900000000004,0.022823543635964325
321,2657.0,0.030287761139178873
322,2663.12,0.01937256428575324
323,2675.41,0.022194458562125617
324,2687.76,0.024795940418366372
325,2693.96,0.019632410338098576
326,2706.3900000000003,0.023765548967497167
327,2712.6299999999997,0.018015657273808286
328,2725.15,0.015464652273009439
329,2737.73,0.01850318485207897
330,2744.04,0.011037410334903195
331,2756.71,0.01381852928377529
332,2763.06,0.01722174315317843
333,2775.82,0.01863069847185309
334,2782.2200000000003,0.012687550324479878
335,2795.06,0.006844115416312373
336,2807.96,0.007976836088013244
337,2814.43,0.017234911117153136
338,2827.42,0.02427228715865657
339,2833.9399999999996,0.024059774171020114
340,2847.02,0.019905026582326114
341,2853.5899999999997,0.013398511577913299
342,2866.7599999999998,0.02648557035902186
343,2873.37,0.03272799374118797
344,2884.0315,0.030163665922291968
345,2886.63,0.029538771558967693
346,2893.2799999999997,0.033838606069554605
347,2913.3399999999997,0.04504790951051305
348,2926.7900000000004,0.039824488407865545
349,2947.07,0.037648631667219344
350,2967.5,0.04094687480275179
351,2988.0699999999997,0.04147049782271765
352,3008.7799999999997,0.042880870727116924
353,3029.6400000000003,0.044854513507694836
354,3050.64,0.04627330617270616
355,3071.79,0.04987100871389615
356,3093.0800000000004,0.050746921139519535
357,3107.36,0.056194939351727244
358,3128.89,0.05337042157923647
359,3150.58,0.0535635836746696
360,3172.42,0.05759717564628139
361,3187.07,0.0499898935530631
362,3209.16,0.05602616531830597
363,3231.3999999999996,0.047000946959727494
364,3246.3199999999997,0.06372377464363077
365,3268.82,0.07358800607042863
366,3291.48,0.07184847736515038
367,3306.67,0.06979717482617523
368,3311.31121,0.06986597404386848
369,3321.9300000000003,0.07002322343137038
370,3329.59,0.07841090255722477
371,3337.27,0.07271585136748089
372,3344.96,0.07358745001993786
373,3352.6699999999996,0.06715226835679654
374,3360.4,0.07642025637805691
375,3368.1499999999996,0.076103484083719
376,3375.91,0.061053941631581954
377,3383.6899999999996,0.06122271886384661
378,3391.49,0.07655982578051297
379,3399.31,0.07965174238158106
380,3407.15,0.07627980866705082
381,3415.0000000000005,0.07389882479472147
382,3422.87,0.0854616306067938
383,3430.7599999999998,0.07907153610326785
384,3438.6699999999996,0.08039120128414362
385,3446.6000000000004,0.05605284614942109
386,3454.55,0.07881992069910027
387,3462.5099999999998,0.06515225509098031
388,3470.49,0.07569478916726205
389,3478.4900000000002,0.060727712927945494
390,3486.5099999999998,0.07120446637303066
391,3494.55,0.06633571950251752
392,3502.6000000000004,0.08257763247420524
393,3510.68,0.08167268497249554
394,3518.77,0.07350661731298667
395,3526.88,0.06816535933787951
396,3535.01,0.08122838104717409
397,3543.1600000000003,0.09117093244087035
398,3551.33,0.08955452351896832
399,3559.52,0.085763444281468
400,3567.72,0.08045505488616853
401,3575.95,0.06883862501747164
402,3584.19,0.05586980499097559
403,3592.45,0.06672096464888126
404,3600.7299999999996,0.09275728399118861
405,3609.0299999999997,0.07561896301789771
406,3617.35,0.08371474172900849
407,3625.6899999999996,0.08689727012452099
408,3630.58,0.08792087296073875
409,3633.29,0.12183572019717027
410,3636.01,0.12469307727580264
411,3638.72,0.06236160451223416
412,3641.44,0.09468053159086653
413,3644.15,0.09197923882729805
414,3646.86,0.06701625606372957
415,3649.58,0.06749710314236194
416,3652.2900000000004,0.05985327037879347
417,3655.01,0.05057670745742584
418,3657.72,0.09608696469385736
419,3660.4399999999996,0.09164584177248973
420,3663.15,0.13164214900892124
421,3665.87,0.10333570608755362
422,3668.5800000000004,0.10351276332398514
423,3671.3,0.10074512040261752
424,3674.0099999999998,0.10002166763904903
425,3676.7300000000005,0.10790783471768141
426,3679.44,0.04438803195411292
427,3682.16,0.0706173690327453
428,3684.87,0.06971700626917682
429,3687.59,0.06794044334780919
430,3690.3,0.07962648058424071
431,3693.0099999999998,0.10044097782067223
432,3695.73,0.0969537448993046
433,3698.44,0.1416458921357361
434,3701.16,0.1143755492143685
435,3703.8700000000003,0.08700721645080002
436,3706.59,0.05473296352943239
437,3709.2999999999997,0.0970606307658639
438,3712.02,0.09320749784449628
439,3714.73,0.1085326350809278
440,3717.45,0.10571149215956017
441,3720.1600000000003,0.12026774939599169
442,3722.88,0.059786136474624066
443,3725.5899999999997,0.08826088371105559
444,3728.3100000000004,0.11454762078968796
445,3731.02,0.15104067802611948
446,3733.74,0.10085923510475184
447,3736.4500000000003,0.06196942234118336
448,3739.1600000000003,0.08782498957761488
449,3741.88,0.10333460665624726
450,3744.5899999999997,0.05992583389267878
451,3747.31,0.03001761097131115
452,3750.02,0.025868358207742668
453,3752.74,0.08246260528637504
454,3755.4500000000003,0.05399631252280657
455,3758.17,0.044074209601438936
456,3760.8799999999997,0.10278760683787046
457,3763.6,0.10903316391650282
458,3766.31,0.07636876115293435
459,3769.0299999999997,0.05147534823156672
460,3771.7400000000002,0.07245004546799824
461,3774.46,0.07590376254663062
462,3777.17,0.11754474978306212
463,3779.8900000000003,0.1368701068616945
464,3782.6,0.16168956409812602
465,3785.31,0.10891402133455755
466,3788.03,0.07464545841318991
467,3790.7400000000002,0.07529938564962144
468,3793.46,0.0814422627282538
469,3796.1699999999996,0.09844087996468533
470,3798.89,0.0936708170433177
471,3801.6,0.06506061427974921
472,3801.8939600000003,0.06852633319697315
473,3804.3199999999997,0.09712877933503884
474,3807.03,0.09255658548176908
475,3809.75,0.10292226150357951
476,3812.4599999999996,0.09835832765030977
477,3815.1800000000003,0.1129961936721202
478,3817.89,0.11576375981885045
479,3820.6099999999997,0.10119512584066089
480,3823.32,0.09909004198739113
481,3826.04,0.08411848800920158
482,3828.75,0.08223542415593181
483,3831.46,0.07057845030266206
484,3834.18,0.0747065263244725
485,3836.89,0.07650357247120275
486,3839.61,0.07418011849301319
487,3842.32,0.06904042463974343
488,3845.04,0.10595232066155387
489,3847.75,0.12403248680828412
490,3850.47,0.10480915283009455
491,3853.18,0.1141968189768248
492,3855.9,0.12980088499863524
493,3858.61,0.09880595114536549
494,3861.33,0.11066831716717591
495,3864.0400000000004,0.13296718331390617
496,3866.76,0.1204051493357166
497,3869.47,0.14179941548244684
498,3872.1899999999996,0.12515418150425728
499,3874.9,0.11107954765098753
500,3877.61,0.11112501379771779
501,3880.3300000000004,0.10230067981952821
502,3883.04,0.09147841596625846
503,3885.7599999999998,0.10078741198806891
504,3888.47,0.08900297813479915
505,3891.19,0.08370251415660958
506,3893.9,0.10637961030333982
507,3896.62,0.09729209632515028
508,3899.33,0.09868211247188051
509,3902.05,0.13839000849369096
510,3904.7599999999998,0.1155283746404212
511,3907.48,0.14190144066223165
512,3910.19,0.1393195068089619
513,3912.91,0.16093917283077233
514,3915.6200000000003,0.12355863897750256
515,3918.34,0.115174104999313
516,3921.0499999999997,0.13753467114604326
517,3923.76,0.1083695372927735
518,3926.48,0.09683541331458394
519,3929.19,0.12284726946131418
520,3931.9100000000003,0.08653510548312461
521,3934.62,0.03969533162985487
522,3937.3399999999997,0.0810539076516653
523,3940.0499999999997,0.06584838379839554
524,3942.77,0.09542063982020599
525,3945.48,0.12808546596693623
526,3948.2,0.12838533198874666
527,3950.9100000000003,0.10912149813547692
528,3953.63,0.12106196415728736
529,3956.3399999999997,0.12862393030401761
530,3959.06,0.12514079632582806
531,3961.77,0.11517806247255828
532,3964.49,0.10583142849436872
533,3967.2000000000003,0.06991046464109896
534,3969.92,0.0556256706629094
535,3972.6299999999997,0.04286666680963965
536,3975.34,0.0588536829563699
537,3978.06,0.11066295897818033
538,3980.77,0.11518212512491058
539,3983.4900000000002,0.138092991146721
540,3986.2,0.14291655729345126
541,3988.92,0.10646862331526169
542,3991.63,0.13552328946199196
543,3994.35,0.13316265548380238
544,3997.06,0.15368942163053265
545,3999.78,0.15610678765234307
546,4002.4900000000002,0.1469211537990733
547,4005.21,0.15601621982088376
548,4007.9199999999996,0.142796885967614
549,4010.64,0.16760735198942442
550,4013.35,0.17607811813615468
551,4016.0699999999997,0.2026648841579651
552,4018.78,0.17144395030469536
553,4021.49,0.16178141645142563
554,4024.2099999999996,0.17777618247323607
555,4026.92,0.1684508486199663
556,4029.64,0.16136561464177673
557,4032.35,0.15083128078850697
558,4035.07,0.1567519468103174
559,4037.78,0.15312151295704768
560,4040.5,0.1252508789788581
561,4043.21,0.16712234512558835
562,4045.93,0.1601975111473988
563,4048.64,0.17715927729412903
