,lambda (Angstroms),Total Flux (erg/s/cm^2/Angstrom)
0,100.09,0.002111496502788299
1,101.94999999999999,0.002536917068437933
2,104.09,0.0030263616944907444
3,104.712855,0.003168826620736696
4,106.02000000000001,0.0029194778629498316
5,107.99,0.0025437191850003864
6,110.0,0.0021604604517078017
7,114.13,0.0013728308311290113
8,117.87,0.0006597010209457943
9,120.22644299999999,0.00021400401364693447
10,120.89000000000001,0.00020925156258209783
11,125.14000000000001,0.00017371487896936018
12,126.88,0.0001591947224620278
13,128.05,0.0001495268362415799
14,131.04,0.00012448259078932464
15,131.94,0.00011881901138898017
16,134.09,0.00010086188004371284
17,136.9,8.052628047152627e-05
18,138.038426,7.126883990043681e-05
19,140.07999999999998,7.205548957572928e-05
20,143.02,0.00011123848822273575
21,147.02,0.0002065271110758058
22,151.14000000000001,0.00022130072591446793
23,155.02,0.00024000857678194588
24,158.489319,0.00025911543205700484
25,159.0,0.00026184251825461075
26,161.95000000000002,0.00027708567696604664
27,166.11,0.0003030294261998003
28,169.98,0.00032447231406870097
29,173.14,0.00034405676204434074
30,177.17,0.0003678284941145396
31,180.05,0.0003869474897379075
32,181.970086,0.0003990311767623406
33,182.13,0.00040013883351507773
34,185.95000000000002,0.0004287225777901169
35,191.16,0.0004676015237778012
36,193.82,0.0004947219263358128
37,197.88,0.0005248164723454094
38,202.02,0.0005591931522665251
39,204.83,0.000585548480908635
40,208.929613,0.0005991916907284276
41,210.07999999999998,0.0006039198034883555
42,215.97000000000003,0.0006872506155773347
43,219.98,0.0007306721458789997
44,223.04000000000002,0.0007543034226179262
45,227.19,0.0008015436302867315
46,229.82,0.0012219407122551552
47,234.09,0.002021181571952938
48,239.88329199999998,0.002593543363891181
49,240.1,0.0026145835014706495
50,246.26,0.002489561543877628
51,251.98999999999998,0.0027072542278048987
52,257.27,0.0022624379784394514
53,260.25,0.0026764326255778923
54,263.87,0.0028421206667326427
55,268.78,0.0028640767833265166
56,273.77,0.0028733691991724296
57,275.42287,0.0028785019579946557
58,278.86,0.002894656632658792
59,284.05,0.0029185162177059656
60,290.0,0.0028130416071145757
61,296.07,0.002876060807738149
62,300.88,0.0028412824906046048
63,307.89,0.0029184157124120596
64,316.227766,0.0030026909577838367
65,317.96999999999997,0.003017815445649735
66,327.64,0.003025311105982191
67,338.37,0.003005415440559984
68,347.85,0.0029726286970182757
69,356.77,0.002960612710479032
70,363.078055,0.0029800637820287163
71,365.92,0.0029918788580609763
72,375.31,0.002962547957789125
73,384.94,0.002835920031312243
74,394.81,0.00293170907863033
75,404.94,0.0029630585142262993
76,414.37,0.002927797442920276
77,416.86938299999997,0.0029036705464968926
78,422.08000000000004,0.002852390592470728
79,429.92,0.0028102598362434446
80,440.95000000000005,0.0028070420286940906
81,451.22,0.0027540155750647283
82,459.61,0.002677528154816398
83,470.32,0.0026389629699701987
84,478.630092,0.0026363677967175766
85,480.16999999999996,0.002634881743039184
86,490.22,0.0025164741601026996
87,500.48,0.0025465808127466474
88,506.28,0.0024442160335395218
89,512.14,0.0026055290359268055
90,520.46,0.0025562880836848606
91,530.14,0.0024627645142495207
92,540.0,0.0023199842895974074
93,549.5408739999999,0.0022580694530993824
94,550.04,0.002254955081572546
95,560.26,0.002320353301193971
96,569.37,0.0023559873051813666
97,579.9499999999999,0.002281869135278693
98,589.37,0.0022603947760647817
99,600.33,0.002102403806108893
100,610.09,0.0018370624678999995
101,620.0,0.0021381380507227315
102,630.0699999999999,0.0020568613493125313
103,630.957344,0.0020583596789710474
104,640.3100000000001,0.0020767988565959065
105,650.72,0.0020142730910376948
106,658.25,0.0019273264335301695
107,664.34,0.0019807888300479876
108,675.1400000000001,0.001978043424857912
109,684.53,0.0018350809475676515
110,695.65,0.0019034755303719438
111,705.33,0.0017352911672015795
112,716.7900000000001,0.0018526189872498876
113,724.43596,0.0018319463290763754
114,726.76,0.0018254999940670931
115,735.18,0.0018020973059618042
116,745.4,0.0017480590028221305
117,755.7700000000001,0.001710799565096258
118,764.5200000000001,0.0015230213809013318
119,775.16,0.0016568249009203016
120,784.14,0.0015620689770265372
121,795.0400000000001,0.0015873265304294291
122,804.25,0.0015811928668368269
123,815.44,0.0015581072267064015
124,824.8800000000001,0.0015420298234149609
125,831.763771,0.0014147880123497186
126,834.4300000000001,0.0013647208472076212
127,844.09,0.0014742202124528145
128,855.8399999999999,0.0014367784113794213
129,865.75,0.001431619397878372
130,875.77,0.0014140462177289763
131,885.9100000000001,0.001393534855781384
132,894.11,0.001370604432904633
133,904.46,0.0013329257528101972
134,914.94,0.0014185848757677154
135,925.53,0.002541870832076887
136,934.1,0.003859585848655697
137,944.9100000000001,0.005438815471668175
138,954.992586,0.006679107578077791
139,955.85,0.006784726369826384
140,964.7,0.006973107486595436
141,975.8699999999999,0.0026107407085514023
142,984.9,0.005337562092102197
143,994.01,0.005702420927555989
144,1005.52,0.007997296320099694
145,1014.82,0.008089248103823103
146,1024.21,0.004539104020937385
147,1036.07,0.006063785265556701
148,1045.66,0.010216383812428476
149,1055.34,0.009938833492691122
150,1065.1,0.007690377624856765
151,1074.96,0.009047267571901154
152,1084.9,0.006969373970848542
153,1094.94,0.009471148184674674
154,1096.4782,0.009406658936667686
155,1105.07,0.009045863687235813
156,1115.3,0.008541500873583813
157,1125.62,0.007495179087964202
158,1136.03,0.009731065330376978
159,1143.91,0.008877849784768204
160,1154.49,0.009400274080131044
161,1165.1699999999998,0.009442401406640981
162,1175.96,0.006265196767412723
163,1184.1100000000001,0.009058837305901112
164,1195.06,0.006306587716508209
165,1206.12,0.004662343161377114
166,1214.48,0.0037869637652744054
167,1225.72,0.006690369266208084
168,1234.22,0.009632359913711312
169,1245.6399999999999,0.010365205470709763
170,1254.2700000000002,0.009719165158704217
171,1258.92541,0.009209555196028167
172,1265.88,0.008449005381196566
173,1274.6499999999999,0.010901052567336676
174,1286.44,0.011413186167632214
175,1295.3600000000001,0.008586228417389314
176,1304.34,0.008488473092593212
177,1316.41,0.010925978678307134
178,1325.53,0.010364533346220225
179,1334.72,0.00890762251048791
180,1343.9699999999998,0.01095169410020239
181,1356.41,0.010556602309504894
182,1365.8100000000002,0.009240980962836367
183,1375.2800000000002,0.009697016112522437
184,1384.81,0.009697029687655304
185,1394.41,0.008108336759142765
186,1404.0800000000002,0.008296663326984822
187,1413.8100000000002,0.008786494320273678
188,1423.61,0.009073195809917129
189,1433.48,0.009011073795915175
190,1443.41,0.00952115420736002
191,1445.43977,0.00961513110295837
192,1446.74,0.009675329337965683
193,1453.42,0.009283832092107444
194,1463.49,0.00845052402088103
195,1473.6399999999999,0.008489511425752123
196,1483.85,0.008706350187696344
197,1494.1399999999999,0.008827256425738072
198,1504.5,0.008221183080365117
199,1511.44,0.007197882381823776
200,1518.42,0.007781289921331187
201,1525.43,0.007466767639375161
202,1535.9999999999998,0.006316447543758161
203,1546.6499999999999,0.006875240924238666
204,1553.79,0.00652246541594109
205,1564.5600000000002,0.006704272510567854
206,1575.4,0.007148907021779937
207,1586.32,0.007570420009089526
208,1593.64,0.007675361572011338
209,1604.69,0.007536001332979373
210,1615.81,0.007570655510532727
211,1623.27,0.0071002399066251755
212,1634.5199999999998,0.007622958857836976
213,1645.8500000000001,0.007711045285146285
214,1653.4499999999998,0.007100399514409368
215,1659.58691,0.007455832205904223
216,1664.91,0.0077643303813852045
217,1672.6,0.006751915593682722
218,1676.4499999999998,0.007890653917134664
219,1684.19,0.008279965302464025
220,1695.86,0.007712701488096275
221,1703.6899999999998,0.007384486784882954
222,1715.5,0.006957747055004367
223,1723.4199999999998,0.006926406263248364
224,1735.37,0.007487737617858938
225,1743.3799999999999,0.0073018677375602525
226,1755.46,0.00789411474205362
227,1763.5600000000002,0.007121061773212253
228,1775.79,0.0072864072968011505
229,1783.98,0.0074557912394171005
230,1796.35,0.008153280847495161
231,1804.64,0.008023725136174798
232,1812.97,0.0072880781632799095
233,1825.54,0.007491722463485343
234,1833.96,0.007156977402047774
235,1846.68,0.006442028221348737
236,1855.1999999999998,0.006531690505974854
237,1863.7599999999998,0.006869226529026446
238,1876.68,0.007477127040454783
239,1885.3500000000001,0.00685446284417643
240,1894.05,0.006699873951717184
241,1905.46072,0.007029121141929583
242,1907.18,0.0070785585526703205
243,1915.98,0.006776706565719009
244,1924.82,0.00656277133791792
245,1933.7099999999998,0.006502203309054607
246,1947.11,0.007239981624378747
247,1956.1000000000001,0.006790073993390987
248,1965.1299999999999,0.007630389121553449
249,1974.2,0.007717890008866132
250,1983.3100000000002,0.007490827655329035
251,1997.06,0.007303800363217612
252,2006.28,0.007472693847343625
253,2015.5400000000002,0.007203256090619859
254,2024.84,0.007352400093046315
255,2034.1899999999998,0.007251537294410547
256,2043.5800000000002,0.007696309254925
257,2053.01,0.007234071974589675
258,2067.24,0.007183899792280907
259,2072.0099999999998,0.007909358570944798
260,2076.78,0.00924386634960869
261,2086.37,0.01048670910587425
262,2096.0,0.009743525621290031
263,2105.67,0.009544010895856034
264,2115.39,0.009968665369359815
265,2125.1600000000003,0.009608679041801368
266,2134.97,0.008826075473393147
267,2144.82,0.010036074664135145
268,2154.72,0.010363250053814919
269,2164.67,0.009518528642432472
270,2174.66,0.009561965990200245
271,2184.7,0.010481130536905796
272,2187.7616199999998,0.010539931654000448
273,2194.78,0.010675432499325746
274,2204.91,0.010338294959008478
275,2215.09,0.008784030651957165
276,2225.31,0.00915502413151862
277,2235.58,0.011076924844346029
278,2245.9,0.010507535790439395
279,2256.27,0.008887060969798716
280,2266.6800000000003,0.008786408935770802
281,2277.15,0.009569318581662037
282,2282.4,0.01121554607458744
283,2292.93,0.009892433400397822
284,2303.51,0.01100189895947416
285,2314.15,0.009659778198469644
286,2324.83,0.007274564224077895
287,2335.56,0.007569043482952102
288,2346.34,0.006306361975092264
289,2357.17,0.008941309700498383
290,2362.6,0.00654932323318123
291,2373.51,0.0075546825318128785
292,2384.46,0.005770253617057292
293,2395.4700000000003,0.006639980382220854
294,2406.53,0.006480091380650372
295,2417.64,0.007172586612345846
296,2423.21,0.009889998398173368
297,2434.39,0.00989752675644118
298,2445.63,0.01126270679462814
299,2456.92,0.01174638106608106
300,2462.58,0.010573983871787302
301,2473.95,0.00976603471646575
302,2485.37,0.007861525794410152
303,2496.8399999999997,0.00829338010562051
304,2502.6,0.011541971377858668
305,2511.88643,0.007744767746380931
306,2514.15,0.006819058029665718
307,2519.94,0.006267991939936417
308,2525.75,0.006429921504474027
309,2537.41,0.00822002394208307
310,2543.2599999999998,0.008569393815154501
311,2555.0,0.013167460869831185
312,2566.79,0.010403727060175148
313,2572.7100000000005,0.012561884723180768
314,2584.59,0.01146829935772583
315,2596.52,0.010542973127938166
316,2602.5,0.009491070753744519
317,2614.5099999999998,0.008866708141024502
318,2626.58,0.011237343491105214
319,2632.64,0.017111448733979212
320,2644.7900000000004,0.022769598701127568
321,2657.0,0.03023409763107666
322,2663.12,0.01931904183675139
323,2675.41,0.02214121938376812
324,2687.76,0.02474298589358559
325,2693.96,0.019579598716327962
326,2706.3900000000003,0.023713023843213072
327,2712.6299999999997,0.017963275974489264
328,2725.15,0.015412559545575475
329,2737.73,0.018451382079462415
330,2744.04,0.010985753000672798
331,2756.71,0.013767163978760839
332,2763.06,0.017170524208505043
333,2775.82,0.01857977363079418
334,2782.2200000000003,0.012636772996205662
335,2795.06,0.006793634035562445
336,2807.96,0.007926652037719962
337,2814.43,0.017184876193065628
338,2827.42,0.024222551639424245
339,2833.9399999999996,0.02401018893043719
340,2847.02,0.019855742820996905
341,2853.5899999999997,0.013349379247677127
342,2866.7599999999998,0.02643674158243794
343,2873.37,0.03267931731765199
344,2884.0315,0.0301152352343113
345,2886.63,0.02949034209670044
346,2893.2799999999997,0.03379017974409483
347,2913.3399999999997,0.044999492647362735
348,2926.7900000000004,0.039776077889085236
349,2947.07,0.03760023071452258
350,2967.5,0.04089848348689362
351,2988.0699999999997,0.04142211620973613
352,3008.7799999999997,0.04283249888305011
353,3029.6400000000003,0.04480615150329779
354,3050.64,0.04622495407401692
355,3071.79,0.049822666591669784
356,3093.0800000000004,0.05069858905979409
357,3107.36,0.0561466140078831
358,3128.89,0.05332210639110135
359,3150.58,0.053515278717715546
360,3172.42,0.05754888099126345
361,3187.07,0.049941605808455615
362,3209.16,0.055977887993559704
363,3231.3999999999996,0.0469526801255975
364,3246.3199999999997,0.06367551484727033
365,3268.82,0.07353975688732656
366,3291.48,0.07180023887077874
367,3306.67,0.06974894349693224
368,3311.31121,0.06981774490388597
369,3321.9300000000003,0.06997509004201588
370,3329.59,0.07836283823881061
371,3337.27,0.07266785630034896
372,3344.96,0.07353952429425908
373,3352.6699999999996,0.06710441215291281
374,3360.4,0.0763724698763101
375,3368.1499999999996,0.076055767464451
376,3375.91,0.061006294984963697
377,3383.6899999999996,0.061175142370219975
378,3391.49,0.07651231962021984
379,3399.31,0.07960430673496331
380,3407.15,0.07623244371445036
381,3415.0000000000005,0.0738515306263092
382,3422.87,0.08541440740291163
383,3430.7599999999998,0.07902438404425764
384,3438.6699999999996,0.08034412055034726
385,3446.6000000000004,0.05600583692118047
386,3454.55,0.07877298315675725
387,3462.5099999999998,0.06510538932470585
388,3470.49,0.07564799535739802
389,3478.4900000000002,0.06068099125483378
390,3486.5099999999998,0.07115781701701314
391,3494.55,0.06628914264393608
392,3502.6000000000004,0.08253112820323082
393,3510.68,0.08162625355964095
394,3518.77,0.07346025884842286
395,3526.88,0.06811907400194836
396,3535.01,0.08118216902021747
397,3543.1600000000003,0.09112479390323015
398,3551.33,0.08950845865098643
399,3559.52,0.08571745326348629
400,3567.72,0.08040913780835794
401,3575.95,0.06879278215034498
402,3584.19,0.05582403642470382
403,3592.45,0.06667527056380626
404,3600.7299999999996,0.09271166456765226
405,3609.0299999999997,0.07557341843624187
406,3617.35,0.08366927216957507
407,3625.6899999999996,0.08685187576765185
408,3630.58,0.08787552269745946
409,3633.29,0.12179039437021583
410,3636.01,0.12464777597534399
411,3638.72,0.06231632764810035
412,3641.44,0.09463527925322852
413,3644.15,0.09193401092598488
414,3646.86,0.06697105259874124
415,3649.58,0.0674519242038694
416,3652.2900000000004,0.059808115876625774
417,3655.01,0.05053157748175393
418,3657.72,0.09604185915451029
419,3660.4399999999996,0.09160076075963845
420,3663.15,0.1315970924323948
421,3665.87,0.10329067403752298
422,3668.5800000000004,0.10346775571027934
423,3671.3,0.10070013731540751
424,3674.0099999999998,0.09997670898816387
425,3676.7300000000005,0.10786290059329204
426,3679.44,0.0443431222660484
427,3682.16,0.07057248387117655
428,3684.87,0.06967214554393293
429,3687.59,0.06789560714906108
430,3690.3,0.07958166882181746
431,3693.0099999999998,0.10039619049457381
432,3695.73,0.09690898209970197
433,3698.44,0.14160115377245833
434,3701.16,0.1143308353775865
435,3703.8700000000003,0.08696252705034287
436,3706.59,0.05468829865547103
437,3709.2999999999997,0.09701599032822739
438,3712.02,0.09316288193335555
439,3714.73,0.10848804360611192
440,3717.45,0.10566692521124008
441,3720.1600000000003,0.12022320688399644
442,3722.88,0.0597416184891246
443,3725.5899999999997,0.08821639016188096
444,3728.3100000000004,0.11450315176700912
445,3731.02,0.1509962334397655
446,3733.74,0.10081481504489365
447,3736.4500000000003,0.06192502671765001
448,3739.1600000000003,0.08778061839040638
449,3741.88,0.10329025999553454
450,3744.5899999999997,0.05988151166829091
451,3747.31,0.029973313273419063
452,3750.02,0.02582408494617543
453,3752.74,0.08241835655130358
454,3755.4500000000003,0.05395208822405996
455,3758.17,0.044030009829188116
456,3760.8799999999997,0.10274343150194448
457,3763.6,0.10898901310707264
458,3766.31,0.07632463477982901
459,3769.0299999999997,0.05143124638495716
460,3771.7400000000002,0.07240596805771353
461,3774.46,0.0758597096628417
462,3777.17,0.11750072133559805
463,3779.8900000000003,0.13682610294072622
464,3782.6,0.16164558461348258
465,3785.31,0.10887006628623895
466,3788.03,0.0746015278913671
467,3790.7400000000002,0.07525547956412347
468,3793.46,0.08139838116925163
469,3796.1699999999996,0.09839702284200799
470,3798.89,0.09362698444713616
471,3801.6,0.06501680611989252
472,3801.8939600000003,0.06848252768778142
473,3804.3199999999997,0.09708499114358808
474,3807.03,0.09251281663504389
475,3809.75,0.10287851207296266
476,3812.4599999999996,0.09831459756441847
477,3815.1800000000003,0.11295248300233723
478,3817.89,0.11572006849379306
479,3820.6099999999997,0.10115145393171181
480,3823.32,0.09904638942316762
481,3826.04,0.08407485486108639
482,3828.75,0.08219181035254221
483,3831.46,0.07053485584399802
484,3834.18,0.07466295128191679
485,3836.89,0.07646001677337261
486,3839.61,0.07413658221129137
487,3842.32,0.06899690770274718
488,3845.04,0.10590882314066595
489,3847.75,0.12398900863212176
490,3850.47,0.10476569407004052
491,3853.18,0.11415337956149633
492,3855.9,0.1297574649994151
493,3858.61,0.09876255049087092
494,3861.33,0.11062493592878968
495,3864.0400000000004,0.1329238214202455
496,3866.76,0.12036180685816426
497,3869.47,0.14175609234962008
498,3872.1899999999996,0.12511087778753885
499,3874.9,0.11103626327899466
500,3877.61,0.11108174877045048
501,3880.3300000000004,0.10225743420836923
502,3883.04,0.09143518969982505
503,3885.7599999999998,0.10074420513774382
504,3888.47,0.08895979062919963
505,3891.19,0.08365934606711839
506,3893.9,0.10633646155857421
507,3896.62,0.09724896699649298
508,3899.33,0.09863900248794878
509,3902.05,0.13834691792586756
510,3904.7599999999998,0.11548530341732337
511,3907.48,0.14185838885524213
512,3910.19,0.13927647434669796
513,3912.91,0.16089615978461672
514,3915.6200000000003,0.12351564527607252
515,3918.34,0.1151311307139913
516,3921.0499999999997,0.13749171620544712
517,3923.76,0.10832660169690293
518,3926.48,0.09679249713482169
519,3929.19,0.12280437262627751
520,3931.9100000000003,0.08649222806419626
521,3934.62,0.03965247355565209
522,3937.3399999999997,0.08101106899357084
523,3940.0499999999997,0.06580556448502665
524,3942.77,0.09537783992294542
525,3945.48,0.12804268541440125
526,3948.2,0.12834257085231998
527,3950.9100000000003,0.10907875634377581
528,3953.63,0.12101924178169458
529,3956.3399999999997,0.1285812272731504
530,3959.06,0.12509811271106916
531,3961.77,0.11513539820252497
532,3964.49,0.10578878364044374
533,3967.2000000000003,0.06986783913189955
534,3969.92,0.05558306456981831
535,3972.6299999999997,0.04282408006127413
536,3975.34,0.058811115552729956
537,3978.06,0.11062041099064872
538,3980.77,0.11513959648210453
539,3983.4900000000002,0.13805048192002328
540,3986.2,0.14287406741147912
541,3988.92,0.10642615284939787
542,3991.63,0.1354808383408537
543,3994.35,0.13312022377877245
544,3997.06,0.15364700927022829
545,3999.78,0.156064394708147
546,4002.4900000000002,0.14687878019960285
547,4005.21,0.1559738656375216
548,4007.9199999999996,0.14275455112897745
549,4010.64,0.16756503656689617
550,4013.35,0.176035822058352
551,4016.0699999999997,0.20262260749627076
552,4018.78,0.1714016929877266
553,4021.49,0.1617391784791824
554,4024.2099999999996,0.17773396391710117
555,4026.92,0.168408649408557
556,4029.64,0.16132343484647577
557,4032.35,0.15078912033793154
558,4035.07,0.1567098057758503
559,4037.78,0.15307939126730616
560,4040.5,0.1252087767052249
561,4043.21,0.1670802621966807
562,4045.93,0.1601554476345995
