,lambda (Angstroms),Total Flux (erg/s/cm^2/Angstrom)
0,100.02000000000001,0.00012387288663087508
1,102.11,0.0001521289390875922
2,104.01,0.00017781618021006255
3,104.712855,0.00018731859513693104
4,105.95,0.00017336403713120896
5,107.92,0.00015114348967807477
6,109.92,0.00012858610888857305
7,114.05,8.200290879497705e-05
8,118.06,3.677373086685102e-05
9,120.22644299999999,1.2370461613900726e-05
10,121.08000000000001,1.193856656084081e-05
11,125.05000000000001,9.88238664072528e-06
12,127.08000000000001,8.829313784318597e-06
13,127.96,8.375235090162014e-06
14,130.94,6.829836639722645e-06
15,131.85,6.373287601333445e-06
16,133.98999999999998,5.263565159407195e-06
17,137.10999999999999,3.668978199215642e-06
18,138.038426,3.1894592950868793e-06
19,139.98999999999998,3.1641496998727267e-06
20,142.92,3.3882751184692207e-06
21,146.92000000000002,3.900043461604366e-06
22,151.04,3.914094014033568e-06
23,154.91,3.9580030887668226e-06
24,158.489319,4.014453198641554e-06
25,158.89000000000001,4.016809906727016e-06
26,161.84,4.028830523143747e-06
27,165.98999999999998,4.072893915729996e-06
28,169.86,4.10499589387669e-06
29,173.02,4.125473571123086e-06
30,177.04999999999998,4.198825786092384e-06
31,179.92000000000002,4.251095284097812e-06
32,181.970086,4.284735178127377e-06
33,182.01,4.286884428873086e-06
34,185.82000000000002,4.521081688705831e-06
35,191.02,4.842364108949996e-06
36,194.13,5.076214216057565e-06
37,198.19,5.364344101863585e-06
38,201.88000000000002,5.701812621229157e-06
39,205.16,5.967521193998554e-06
40,208.929613,6.215595066030491e-06
41,209.93,6.327683307625474e-06
42,215.82,7.394266991781222e-06
43,219.82999999999998,8.090413659602027e-06
44,222.89,8.545867313849328e-06
45,227.03,9.352676551948614e-06
46,230.19000000000003,1.2400225260256283e-05
47,233.93,1.820211128211409e-05
48,239.88329199999998,2.3010538838119044e-05
49,239.93,2.304354953487239e-05
50,246.08,2.35257567886188e-05
51,251.82,2.6844588225448787e-05
52,257.09,2.5965969579472133e-05
53,260.07,2.9636614785352508e-05
54,264.29,3.79955214862972e-05
55,269.21,4.242718128929433e-05
56,274.21000000000004,4.706163344681174e-05
57,275.42287,4.6739983319472906e-05
58,279.31,4.6075585964022165e-05
59,283.85,5.859868144242205e-05
60,289.79,6.760994838993203e-05
61,295.86,7.048270368814507e-05
62,300.67,6.994727266415905e-05
63,307.67,8.558007000970953e-05
64,316.227766,9.983377687963239e-05
65,317.75,0.00010224081129970072
66,328.15999999999997,0.00012305392729128903
67,338.13000000000005,0.00013540633213625884
68,347.59999999999997,0.00014779866522370756
69,357.34000000000003,0.00021820537106021767
70,363.078055,0.0003158556885078101
71,365.67,0.0003601300019423983
72,375.04999999999995,0.0003975746325940101
73,384.67,0.0003598447420682644
74,395.44000000000005,0.0005779065542343474
75,404.65000000000003,0.0007821679540532542
76,414.08,0.0008477433761262499
77,416.86938299999997,0.000842243212364667
78,421.78000000000003,0.000832505691541593
79,429.62,0.0008538747939464328
80,440.64,0.0010814691919695623
81,450.9,0.0011909925004738552
82,460.35,0.0011299332846225459
83,469.99,0.001230131241150946
84,478.630092,0.0014360133029394841
85,479.83,0.0014645592341913506
86,489.87,0.0013328834393242545
87,500.13,0.001719391828234971
88,505.91999999999996,0.0015504940740237673
89,511.78000000000003,0.002460190787378231
90,520.1,0.0024430216466118726
91,529.77,0.002376373951754819
92,539.62,0.002065354316352339
93,549.5408739999999,0.0020933804630007334
94,549.65,0.002093690351823951
95,559.87,0.0028231705310190437
96,570.28,0.003263294356402695
97,579.54,0.003308591375908229
98,590.32,0.0034801495649222315
99,599.9100000000001,0.003052501233071051
100,609.66,0.003031259761168131
101,619.56,0.0039312092204667045
102,629.63,0.0038065624684603034
103,630.957344,0.003869323277140264
104,639.86,0.004290416516366456
105,650.26,0.004231733403285415
106,657.7900000000001,0.003976883725256546
107,665.4,0.0045238608155885925
108,674.66,0.004836088753364512
109,685.62,0.004271283018809876
110,695.16,0.005006191645848999
111,704.83,0.004174264521474609
112,716.28,0.005351781493130578
113,724.43596,0.005474402103579001
114,726.25,0.00550166774026774
115,734.6600000000001,0.0055911746981242875
116,744.88,0.005501689547029627
117,755.2399999999999,0.005539943160988464
118,765.75,0.005052856594647478
119,774.61,0.0056952740116045526
120,785.39,0.005315396920723883
121,794.48,0.005761146594554563
122,805.53,0.005963506979134211
123,814.86,0.006060344964485171
124,824.3000000000001,0.0062157645509495945
125,831.763771,0.005451804758467794
126,835.77,0.005041674610849991
127,845.4399999999999,0.006201487409912383
128,855.23,0.006144403779387131
129,865.14,0.006418883719274236
130,875.15,0.006493140467838303
131,885.29,0.0065530126676824245
132,895.54,0.006613398557071206
133,905.9100000000001,0.006522727016872344
134,914.29,0.006388942184001904
135,924.88,0.015145454022892363
136,935.59,0.024560466432195175
137,944.2399999999999,0.03461241338275254
138,954.992586,0.041586133429544786
139,955.1800000000001,0.041707684931819713
140,964.02,0.04562649828618238
141,975.18,0.01637819727200674
142,984.1999999999999,0.037172840287431085
143,995.5999999999999,0.03674692882133769
144,1004.8100000000001,0.04733902147899382
145,1014.11,0.047665963967180786
146,1025.85,0.030145481860870568
147,1035.34,0.03992204399128931
148,1044.92,0.05850758595223889
149,1054.59,0.05665139774371932
150,1064.35,0.04723037936573059
151,1074.2,0.0527484408182727
152,1084.1399999999999,0.045000512101345654
153,1094.17,0.05435070321494945
154,1096.4782,0.05382008428740514
155,1104.29,0.052024242830413306
156,1114.51,0.05060705259966252
157,1124.82,0.04489619183850395
158,1135.23,0.05385238048800339
159,1145.74,0.05037386854816085
160,1153.68,0.05131033175440731
161,1164.35,0.05131098887161759
162,1175.13,0.03566323534055169
163,1186.0,0.04888867127907801
164,1194.22,0.03946406283516691
165,1205.27,0.03267488771287766
166,1213.62,0.025364288502821977
167,1224.85,0.038213002319717145
168,1236.19,0.04877550548833614
169,1244.76,0.05119157498172809
170,1256.27,0.04956789714846571
171,1258.92541,0.04842978984569019
172,1264.98,0.04583483403707421
173,1273.7499999999998,0.05348039771341527
174,1285.54,0.05485394265572553
175,1294.45,0.0462591763907539
176,1306.42,0.045941431408519286
177,1315.48,0.053603985206426924
178,1324.6,0.05130965902948627
179,1333.78,0.04722973287769731
180,1346.1200000000001,0.052504718050564884
181,1355.45,0.050839961961655196
182,1364.85,0.04658041590208917
183,1374.31,0.04733795986767484
184,1383.8400000000001,0.047118923862604176
185,1393.4299999999998,0.03803691788268522
186,1406.3200000000002,0.03786209328611009
187,1416.0700000000002,0.04387372737326236
188,1425.8799999999999,0.04337175148556632
189,1435.7700000000002,0.04407521563140589
190,1442.4,0.04531144841066942
191,1445.43977,0.045599284773751414
192,1445.72,0.04562581978351836
193,1455.74,0.04417829330881636
194,1465.83,0.04132487685874219
195,1475.99,0.04142008043329584
196,1486.22,0.041899534032477335
197,1496.53,0.04180199765980492
198,1503.43,0.03973815008740533
199,1510.3700000000001,0.036241792529078797
200,1517.3500000000001,0.03794975498482531
201,1524.35,0.03708623744760834
202,1534.9099999999999,0.03222570116289246
203,1545.55,0.03171240490632266
204,1556.27,0.030846348677898965
205,1563.45,0.03290095120401071
206,1574.2900000000002,0.03493060501780614
207,1585.2,0.03599240885622942
208,1596.19,0.03632514272279877
209,1603.56,0.03533593531575748
210,1614.67,0.03501086922454598
211,1625.8600000000001,0.033823993161480576
212,1633.3700000000001,0.035417725803694934
213,1644.69,0.035579589786366925
214,1656.0900000000001,0.03390185379718501
215,1659.58691,0.034706866565110274
216,1663.74,0.03566294569810859
217,1671.42,0.03237568543048991
218,1675.27,0.036408795322373774
219,1686.88,0.03683121515218459
220,1694.67,0.03485080516719117
221,1706.4099999999999,0.033746015331013644
222,1714.29,0.032005265577259065
223,1726.1699999999998,0.03156585610078641
224,1734.14,0.03320555657827067
225,1746.1599999999999,0.03252451746150289
226,1754.22,0.03366806817022599
227,1766.3799999999999,0.03171240941316308
228,1774.53,0.03163842035312502
229,1786.8400000000001,0.03215162198146018
230,1795.08,0.033281793152660964
231,1803.37,0.03305368445232778
232,1815.87,0.03077646656883383
233,1824.25,0.031204638099739484
234,1836.8999999999999,0.03021528060164361
235,1845.3700000000001,0.02806956236378811
236,1853.8899999999999,0.028134344254398633
237,1866.74,0.028657617270166854
238,1875.3600000000001,0.03007653941770943
239,1884.0199999999998,0.02781093166802482
240,1897.07,0.02668293519765713
241,1905.46072,0.028073287565968937
242,1905.83,0.028134475533093867
243,1914.6299999999999,0.026991156388526193
244,1923.4699999999998,0.02613481711148321
245,1936.8,0.027116372964086952
246,1945.74,0.027875373355855698
247,1954.72,0.02583629361514914
248,1968.27,0.027810848739138687
249,1977.35,0.02845948866724386
250,1981.91,0.026990843565058792
251,1995.6499999999999,0.026256428059790626
252,2004.86,0.026930037557351048
253,2014.1200000000001,0.026195376889317338
254,2023.4099999999999,0.027053496121927145
255,2032.75,0.025482305188942816
256,2046.8400000000001,0.026075668524515715
257,2056.29,0.02383458722722429
258,2065.78,0.02444725579745756
259,2075.32,0.026497844202096697
260,2080.1,0.025015858371297436
261,2084.9,0.025776712474260523
262,2094.52,0.024447070613949042
263,2104.19,0.024673308588043428
264,2113.9,0.024844586429662505
265,2123.66,0.024958564105687447
266,2133.46,0.023781081649237083
267,2143.31,0.023725739027192584
268,2153.2000000000003,0.024389696272672776
269,2163.14,0.023725813352558838
270,2173.12,0.023562230299969587
271,2183.15,0.022972537081786207
272,2187.7616199999998,0.023317190078423478
273,2193.23,0.023725906248114013
274,2203.35,0.02318569297037166
275,2213.52,0.02229544982465627
276,2223.74,0.021737916810967844
277,2234.0099999999998,0.022397873929306384
278,2244.3199999999997,0.021737991153266495
279,2254.68,0.020999738509253574
280,2265.08,0.021342365970862223
281,2275.54,0.021538333590903225
282,2286.04,0.021639161316565805
283,2296.6,0.02048254920066074
284,2307.2000000000003,0.02058337719037725
285,2312.51,0.019889111211640893
286,2323.19,0.01685581941260054
287,2333.91,0.018918327719181765
288,2344.6800000000003,0.01857929615778995
289,2355.51,0.019194714754830495
290,2366.3799999999997,0.01825224345749261
291,2377.3,0.01838496229218169
292,2382.7799999999997,0.01747973676233702
293,2393.78,0.018141675808269243
294,2404.83,0.01757227498622843
295,2415.93,0.017699874296214585
296,2427.08,0.018160153738227703
297,2432.6800000000003,0.01754655852524774
298,2443.91,0.018044298178504007
299,2455.19,0.017761747963787232
300,2466.52,0.01764558788109742
301,2472.2,0.017167902879360607
302,2483.62,0.01733277303431933
303,2495.08,0.015524853294899632
304,2506.6,0.01742483371391229
305,2511.88643,0.016295508912488613
306,2512.38,0.0161900671685305
307,2518.17,0.016723291251392366
308,2523.97,0.01623306532403465
309,2535.62,0.016238783418221308
310,2547.32,0.015911391461310053
311,2553.2,0.01639762545219568
312,2564.98,0.016178483413527768
313,2576.82,0.016599261313542356
314,2582.76,0.01645011524311049
315,2594.68,0.016230193061368425
316,2606.6600000000003,0.015830110818308867
317,2612.67,0.015615704676339924
318,2624.73,0.015911672351523708
319,2636.8399999999997,0.01595437997560958
320,2642.92,0.016555953762103556
321,2655.1200000000003,0.016523881294213193
322,2667.3799999999997,0.015605278765005328
323,2673.53,0.015898512479962233
324,2685.8700000000003,0.01583111986899771
325,2692.06,0.015296733543076287
326,2704.48,0.01540846085035511
327,2716.9700000000003,0.014994258086096855
328,2723.23,0.014962461688638354
329,2735.7999999999997,0.015246338842623443
330,2742.1099999999997,0.01413362239406703
331,2754.7599999999998,0.01417151946629546
332,2767.48,0.014341136466986813
333,2773.86,0.014711669946893324
334,2786.6600000000003,0.01431639686582802
335,2793.0899999999997,0.012616040294636621
336,2805.98,0.013154797121595077
337,2812.4500000000003,0.014393370509525348
338,2825.43,0.014498777244507563
339,2831.94,0.013977210591559505
340,2845.01,0.01382273723456548
341,2858.1499999999996,0.013606923806034378
342,2864.7299999999996,0.014055547081549246
343,2877.96,0.013868063561041904
344,2884.0315,0.013841271326810765
345,2884.59,0.013838807344541721
346,2897.9100000000003,0.013654477065959177
347,2911.28,0.014042546786330903
348,2931.46,0.013668206364274165
349,2951.7799999999997,0.013426825939289382
350,2972.24,0.013373395511376555
351,2992.8500000000004,0.01322835508032654
352,3006.66,0.013142724791495839
353,3027.5,0.013030284355635462
354,3048.49,0.012859443916637894
355,3069.6200000000003,0.012720453474712281
356,3090.8999999999996,0.012611803029649479
357,3112.32,0.01244672258165863
358,3126.6899999999996,0.01225282228111575
359,3148.36,0.01217637182789625
360,3170.1800000000003,0.01201717137153956
361,3192.16,0.011616670911836534
362,3206.89,0.011675460603764395
363,3229.12,0.011390870138832717
364,3251.51,0.011477419670554701
365,3266.51,0.011456169356835622
366,3289.16,0.011332628883119809
367,3311.31121,0.011238920734180006
368,3311.9500000000003,0.011236218164443477
369,3319.59,0.011447745109920375
370,3327.2400000000002,0.011476722051399206
371,3334.91,0.011558888984881903
372,3342.6,0.010990445910368468
373,3350.3100000000004,0.011484402827858897
374,3358.03,0.010869619741351262
375,3365.77,0.01077238664684749
376,3373.53,0.010627033544347585
377,3381.31,0.010777300433851549
378,3389.1,0.011158577319357443
379,3396.9100000000003,0.011033384196867203
380,3404.74,0.01078479106638083
381,3412.5899999999997,0.010639237927898323
382,3420.46,0.010889564781419683
383,3428.34,0.010842041630942975
384,3436.25,0.01086953846847207
385,3444.1699999999996,0.010406745302003095
386,3452.11,0.011000442127537986
387,3460.07,0.010411638945076743
388,3468.04,0.010389985758617434
389,3476.0400000000004,0.010297312560163925
390,3484.05,0.010276039357712348
391,3492.0800000000004,0.010421356147264636
392,3500.13,0.010210032928820794
393,3508.2000000000003,0.010095679702380815
394,3516.2900000000004,0.009936613467944704
395,3524.39,0.010193833229510525
396,3532.52,0.010266859979082145
397,3540.66,0.0103405067246557
398,3548.8199999999997,0.010486813462233117
399,3557.0,0.010369220191814405
400,3565.2,0.010419656913399558
401,3573.42,0.009999205626988576
402,3581.66,0.00966213433258146
403,3589.9199999999996,0.009314924030178213
404,3598.19,0.009778541723776896
405,3606.49,0.00971363740538138
406,3614.8,0.009783280082987797
407,3623.13,0.00980821975259808
408,3631.49,0.010488080410214162
409,3639.8599999999997,0.010018547063832178
410,3648.25,0.009906320709454058
411,3648.8500000000004,0.009827785469570046
412,3651.58,0.010031722378097786
413,3654.31,0.009008459286625525
414,3657.05,0.009243165191155199
415,3659.78,0.011124399099682937
416,3662.5099999999998,0.010906588008210679
417,3665.2400000000002,0.009664935916738417
418,3667.97,0.008975915825266157
419,3670.7000000000003,0.008735085733793897
420,3673.44,0.01099825363832357
421,3676.17,0.0074924435468513104
422,3678.9,0.00877519645537905
423,3681.63,0.009804940363906788
424,3684.3599999999997,0.010733859272434528
425,3687.09,0.009046680180962269
426,3689.83,0.010485377085491942
427,3692.56,0.011246315994019682
428,3695.29,0.01093377490254742
429,3698.02,0.00915832581107516
430,3700.75,0.0114590227196029
431,3703.48,0.009235003628130642
432,3706.2099999999996,0.010536400536658379
433,3708.95,0.010425639441188054
434,3711.68,0.009298322349715792
435,3714.4100000000003,0.010538087258243532
436,3717.14,0.010601626166771273
437,3719.8700000000003,0.014506385075299014
438,3722.6,0.030260663983826753
439,3725.3399999999997,0.06315761288835642
440,3728.07,0.10181507179688416
441,3730.8,0.1071797707054119
442,3733.5299999999997,0.07351410961393964
443,3736.26,0.03639186852246739
444,3738.99,0.015907087430995122
445,3741.7299999999996,0.012938986335524797
446,3744.46,0.010654105244052536
447,3747.19,0.010754744152580277
448,3749.92,0.009316201061108018
449,3752.65,0.009379365969635756
450,3755.3799999999997,0.009827755878163496
451,3758.12,0.011114829782693169
452,3760.85,0.00976912469122091
453,3763.5800000000004,0.012335387599748648
454,3766.31,0.009837814508276388
455,3769.04,0.009562171416804127
456,3771.77,0.010552924325331867
457,3774.5,0.011058193233859608
458,3777.2400000000002,0.01059587213838928
459,3779.9700000000003,0.01193684104691702
460,3782.7,0.01018041995544476
461,3785.4300000000003,0.0116952588639725
462,3788.16,0.01156971777250024
463,3790.89,0.01204777668102798
464,3793.63,0.009120982585557652
465,3796.3599999999997,0.011447734494085393
466,3799.09,0.011059673402613131
467,3801.82,0.010740652311140872
468,3801.8939600000003,0.010742873790728684
469,3804.5499999999997,0.010822651440928656
470,3807.28,0.011281890576877637
471,3810.02,0.011040619709661598
472,3812.7499999999995,0.01255716884561058
473,3815.48,0.012315017981559564
474,3818.21,0.011675837117508544
475,3820.94,0.011231076253457529
476,3823.67,0.01210616538940651
477,3826.4100000000003,0.011087604522190472
478,3829.14,0.010598143658139453
479,3831.87,0.009510769794088436
480,3834.6000000000004,0.011018191930037419
481,3837.33,0.011492071065986402
482,3840.06,0.010238630201935384
483,3842.79,0.010190319337884368
484,3845.5299999999997,0.010503588470668328
485,3848.26,0.01112945760661731
486,3850.9900000000002,0.011798716742566294
487,3853.72,0.012001325878515276
488,3856.4500000000003,0.01218186501446426
489,3859.18,0.012869954150413242
490,3861.9199999999996,0.013411683283197202
491,3864.65,0.015640082419146186
492,3867.38,0.018727981555095165
493,3870.11,0.02093908069104415
494,3872.84,0.020037389826993133
495,3875.5699999999997,0.015500498962942115
496,3878.31,0.012662718095726076
497,3881.04,0.011709847231675058
498,3883.7699999999995,0.011912836367624042
499,3886.5,0.013149175503573023
500,3889.23,0.013740244639522007
501,3891.96,0.014605443775470989
502,3894.7,0.01381248290825495
503,3897.43,0.012111422044203932
504,3900.16,0.010996471180152916
505,3902.89,0.011264520316101896
506,3905.6200000000003,0.011791289452050881
507,3908.35,0.011706448587999862
508,3911.08,0.011971077723948845
509,3913.82,0.012037416856732807
510,3916.5499999999997,0.01241789599268179
511,3919.28,0.012410675128630772
512,3922.01,0.011301234264579754
513,3924.74,0.011551973400528739
514,3927.4700000000003,0.01164272253647772
515,3930.21,0.010905331669261682
516,3932.9399999999996,0.010248840805210662
517,3935.67,0.009172885941159647
518,3938.4,0.009548986077108627
519,3941.13,0.010977078213057611
520,3943.86,0.011652037349006593
521,3946.6,0.011306716481790555
522,3949.33,0.011471845617739536
523,3952.06,0.01169233475368852
524,3954.7900000000004,0.011729823889637501
525,3957.52,0.011531793025586485
526,3960.25,0.010550382161535468
527,3962.9900000000002,0.010741901294319428
528,3965.72,0.01222631043026841
529,3968.45,0.014121809566217393
530,3971.1800000000003,0.015505958702166376
531,3973.91,0.01337857783811536
532,3976.6400000000003,0.01125538697406434
533,3979.37,0.010784946110013325
534,3982.1099999999997,0.010821235242797284
535,3984.84,0.011208364378746267
536,3987.5699999999997,0.011463853514695251
537,3990.3,0.012509202650644233
538,3993.03,0.011775101786593216
539,3995.7599999999998,0.012108210922542198
540,3998.5,0.01248615005532616
541,4001.23,0.011971199191275142
542,4003.9599999999996,0.011855918327224125
543,4006.69,0.012602977463173107
544,4009.42,0.01235701659912209
545,4012.15,0.011760265735071072
546,4014.89,0.011931614867855033
547,4017.62,0.012081524003804016
548,4020.35,0.012568723139752998
549,4023.08,0.01258851227570198
550,4025.8100000000004,0.013418321411650964
551,4028.54,0.012094300547599945
552,4031.2799999999997,0.012442189680383907
553,4034.01,0.012049938816332888
554,4036.74,0.012718047952281873
555,4039.47,0.012535817088230854
556,4042.2000000000003,0.012440516224179838
