,lambda (Angstroms),Total Flux (erg/s/cm^2/Angstrom)
0,100.02000000000001,0.07685076124705185
1,102.11,0.07661055164333146
2,104.01,0.0763921791970202
3,104.712855,0.07631139815320431
4,105.95,0.07556450026790276
5,107.92,0.07437515836056635
6,109.92,0.07316770619816947
7,114.05,0.07067431527405665
8,118.06,0.06825337205900574
9,120.22644299999999,0.06694546528707787
10,121.08000000000001,0.06651344063852728
11,125.05000000000001,0.06450399276550978
12,127.08000000000001,0.0634764900359814
13,127.96,0.06303107255932107
14,130.94,0.06152271929048518
15,131.85,0.06106213013673178
16,133.98999999999998,0.05997895033287212
17,137.10999999999999,0.05839975824403186
18,138.038426,0.05792982919362756
19,139.98999999999998,0.057223767317880016
20,142.92,0.056163981861890803
21,146.92000000000002,0.05471738157370451
22,151.04,0.05322687020603163
23,154.91,0.05182683320041413
24,158.489319,0.050531970730757804
25,158.89000000000001,0.050422388266200345
26,161.84,0.04961558583159346
27,165.98999999999998,0.04848061972916343
28,169.86,0.04742222066445878
29,173.02,0.04655799243755784
30,177.04999999999998,0.045455875195010126
31,179.92000000000002,0.04467099272332476
32,181.970086,0.044110335170252375
33,182.01,0.044102007970811874
34,185.82000000000002,0.04330716228347771
35,191.02,0.04222233516697704
36,194.13,0.04157356680157568
37,198.19,0.040726604450765536
38,201.88000000000002,0.03995690392081986
39,205.16,0.03927269140853482
40,208.929613,0.03848628765327196
41,209.93,0.0383294001011286
42,215.82,0.037406096534193724
43,219.82999999999998,0.036777467671696464
44,222.89,0.03629769007596289
45,227.03,0.03564876981838218
46,230.19000000000003,0.03515589042719979
47,233.93,0.03457474080841432
48,239.88329199999998,0.033645246108174216
49,239.93,0.03363963444501213
50,246.08,0.03289688756448961
51,251.82,0.03220652591400192
52,257.09,0.031568766434773694
53,260.07,0.031212303310618063
54,264.29,0.03071067412782049
55,269.21,0.030120522517402482
56,274.21000000000004,0.02952090567868498
57,275.42287,0.029374008375924934
58,279.31,0.029012498376289667
59,283.85,0.028603569389035983
60,289.79,0.028061165375933155
61,295.86,0.027500554840001475
62,300.67,0.027053502995334027
63,307.67,0.026419319806088266
64,316.227766,0.02563914877634282
65,317.75,0.025536120505335994
66,328.15999999999997,0.024835900239144577
67,338.13000000000005,0.024157695216480934
68,347.59999999999997,0.02351416188873524
69,357.34000000000003,0.022909941779733847
70,363.078055,0.022610154133319564
71,365.67,0.022519840210319574
72,375.04999999999995,0.02207022294044617
73,384.67,0.021532969011215652
74,395.44000000000005,0.021191792372565695
75,404.65000000000003,0.020917819219736896
76,414.08,0.020493736462497428
77,416.86938299999997,0.02034339598047655
78,421.78000000000003,0.020138957180186597
79,429.62,0.01984947776171915
80,440.64,0.019640139672495775
81,450.9,0.019342863768736084
82,460.35,0.018907121067904778
83,469.99,0.01862510222070756
84,478.630092,0.018488412877087877
85,479.83,0.018480410782286908
86,489.87,0.018042926390785342
87,500.13,0.018116925197876374
88,505.91999999999996,0.01777166969719968
89,511.78000000000003,0.018502876532438806
90,520.1,0.018232288315576953
91,529.77,0.01787110186280603
92,539.62,0.017260060845247224
93,549.5408739999999,0.016985906856902853
94,549.65,0.016983680088583576
95,559.87,0.01747559418823478
96,570.28,0.01767373534355465
97,579.54,0.017503781688248402
98,590.32,0.017424756478291455
99,599.9100000000001,0.01677418655125183
100,609.66,0.016526304250038454
101,619.56,0.017196126098037178
102,629.63,0.01683740004847628
103,630.957344,0.016869306462803393
104,639.86,0.017126210764270483
105,650.26,0.016875723660032805
106,657.7900000000001,0.016482000515329942
107,665.4,0.01688862872367141
108,674.66,0.017030077338552087
109,685.62,0.016263139705624683
110,695.16,0.016822105056160497
111,704.83,0.015811837105393346
112,716.28,0.016778185259862438
113,724.43596,0.016750388016492212
114,726.25,0.016752822697702067
115,734.6600000000001,0.016727211832590305
116,744.88,0.016497833203405744
117,755.2399999999999,0.01639427699025975
118,765.75,0.015763327365726505
119,774.61,0.016284467266452995
120,785.39,0.015757031301422704
121,794.48,0.016078355171355415
122,805.53,0.016129460865828074
123,814.86,0.016098587877541187
124,824.3000000000001,0.01612479078757032
125,831.763771,0.015258665350777701
126,835.77,0.014807609215048756
127,845.4399999999999,0.01586863727039461
128,855.23,0.015711543025496565
129,865.14,0.015884786480354622
130,875.15,0.015856785185009433
131,885.29,0.015813071314400018
132,895.54,0.01576874741856703
133,905.9100000000001,0.015572140222490143
134,914.29,0.015352748755457906
135,924.88,0.024001077508933873
136,935.59,0.03330668096216594
137,944.2399999999999,0.04327026306958493
138,954.992586,0.05013413911924171
139,955.1800000000001,0.05025381560129914
140,964.02,0.0540841874372979
141,975.18,0.024724234008536156
142,984.1999999999999,0.04542863466020004
143,995.5999999999999,0.044888669652325144
144,1004.8100000000001,0.05538861905385779
145,1014.11,0.055622517863223
146,1025.85,0.037984580618271126
147,1035.34,0.047666198177505094
148,1044.92,0.06615589514457162
149,1054.59,0.06420296151947072
150,1064.35,0.054684297302202374
151,1074.2,0.060103812492766605
152,1084.1399999999999,0.052256437091163406
153,1094.17,0.06150628109739276
154,1096.4782,0.0609525693290467
155,1104.29,0.059092772597284494
156,1114.51,0.057591911137347955
157,1124.82,0.05179664231621825
158,1135.23,0.060667604204873896
159,1145.74,0.0571030468033149
160,1153.68,0.057974505160272236
161,1164.35,0.0578878068943698
162,1175.13,0.042151797409231265
163,1186.0,0.055288240562899556
164,1194.22,0.04579633490725589
165,1205.27,0.03891669333853782
166,1213.62,0.03153773260561512
167,1224.85,0.044294506314510686
168,1236.19,0.05476416880417015
169,1244.76,0.05711007563277523
170,1256.27,0.055392165329069806
171,1258.92541,0.05423231816145161
172,1264.98,0.0516019974759664
173,1273.7499999999998,0.0591963355581478
174,1285.54,0.0605010150779789
175,1294.45,0.05185420547846194
176,1306.42,0.051466543693252285
177,1315.48,0.059076178006201366
178,1324.6,0.056728581884136875
179,1333.78,0.05259503532705879
180,1346.1200000000001,0.057797942525932046
181,1355.45,0.05607868988132001
182,1364.85,0.0517642383958588
183,1374.31,0.052466526475384
184,1383.8400000000001,0.05219182571406003
185,1393.4299999999998,0.04305380451772247
186,1406.3200000000002,0.04280368939563789
187,1416.0700000000002,0.04875837370593078
188,1425.8799999999999,0.04819909758121009
189,1435.7700000000002,0.048844794209804615
190,1442.4,0.05004230114080378
191,1445.43977,0.050312382198941796
192,1445.72,0.050337774669493705
193,1455.74,0.048849395170723335
194,1465.83,0.04595484029621305
195,1475.99,0.046008620045962845
196,1486.22,0.046446364419972734
197,1496.53,0.04630679265027987
198,1503.43,0.044214812755917036
199,1510.3700000000001,0.04069015978970283
200,1517.3500000000001,0.04236966375163724
201,1524.35,0.04147760617764597
202,1534.9099999999999,0.036574015208881976
203,1545.55,0.03601733809641523
204,1556.27,0.03510757484024573
205,1563.45,0.03713290344292325
206,1574.2900000000002,0.03911836097119961
207,1585.2,0.04013568312373607
208,1596.19,0.04042360913256975
209,1603.56,0.03940435314395323
210,1614.67,0.03903398993723278
211,1625.8600000000001,0.03780149058680958
212,1633.3700000000001,0.03936460384671322
213,1644.69,0.03948031451277304
214,1656.0900000000001,0.0377560990351301
215,1659.58691,0.03854685438305588
216,1663.74,0.039491064425599055
217,1671.42,0.03618185553305401
218,1675.27,0.04020396253353598
219,1686.88,0.04059320221550889
220,1694.67,0.03859052923726333
221,1706.4099999999999,0.037452187727044714
222,1714.29,0.03568891776958964
223,1726.1699999999998,0.03521555651393402
224,1734.14,0.03683247957726943
225,1746.1599999999999,0.036117088576176785
226,1754.22,0.03723760466030268
227,1766.3799999999999,0.03524719391377302
228,1774.53,0.0351499130186894
229,1786.8400000000001,0.03562793397347722
230,1795.08,0.03673455609918409
231,1803.37,0.03648275545866346
232,1815.87,0.03416981390178675
233,1824.25,0.0345740362820566
234,1836.8999999999999,0.033548526426497374
235,1845.3700000000001,0.031378601827557716
236,1853.8899999999999,0.03141903446239055
237,1866.74,0.031905583541921294
238,1875.3600000000001,0.033299870644299116
239,1884.0199999999998,0.03100951353369493
240,1897.07,0.02984422154831564
241,1905.46072,0.03121059412936935
242,1905.83,0.031271010626944255
243,1914.6299999999999,0.030109307242666226
244,1923.4699999999998,0.02923450016118693
245,1936.8,0.03018820806886578
246,1945.74,0.030928531744383325
247,1954.72,0.028870691722699605
248,1968.27,0.030816939295771503
249,1977.35,0.03144661003108463
250,1981.91,0.029968438550140558
251,1995.6499999999999,0.029205318561506453
252,2004.86,0.029859687280915467
253,2014.1200000000001,0.029105681378822905
254,2023.4099999999999,0.029944392703829398
255,2032.75,0.028353689407334307
256,2046.8400000000001,0.02891761706818914
257,2056.29,0.026656793604390577
258,2065.78,0.02724963644339075
259,2075.32,0.029280294660889335
260,2080.1,0.027788322845338317
261,2084.9,0.028539149181186666
262,2094.52,0.027189410004282728
263,2104.19,0.02739544620587721
264,2113.9,0.027546438710270432
265,2123.66,0.02764002659316207
266,2133.46,0.026442070778852446
267,2143.31,0.026366150343041243
268,2153.2000000000003,0.02700944621002877
269,2163.14,0.02632479745551473
270,2173.12,0.026140365003799418
271,2183.15,0.025529717930582528
272,2187.7616199999998,0.02586473670818195
273,2193.23,0.026265697232427825
274,2203.35,0.02571113105091873
275,2213.52,0.02480646408788044
276,2223.74,0.024234436343312953
277,2234.0099999999998,0.02487982781721627
278,2244.3199999999997,0.024205322665896235
279,2254.68,0.023452376733047006
280,2265.08,0.023780254174974418
281,2275.54,0.023961386679066794
282,2286.04,0.024047322557935815
283,2296.6,0.022875733498969802
284,2307.2000000000003,0.022961527814780437
285,2312.51,0.02225973081637991
286,2323.19,0.01921129188174383
287,2333.91,0.021258596321884392
288,2344.6800000000003,0.02090428998049576
289,2355.51,0.021504348701272095
290,2366.3799999999997,0.020546460796825074
291,2377.3,0.020663692110848855
292,2382.7799999999997,0.01975069445524907
293,2393.78,0.02039703251882614
294,2404.83,0.019811959800874017
295,2415.93,0.019923816301392696
296,2427.08,0.02036828202038218
297,2432.6800000000003,0.019746744489112324
298,2443.91,0.0202285569576551
299,2455.19,0.019930008644668675
300,2466.52,0.01979777955015306
301,2472.2,0.01931203876843649
302,2483.62,0.019460712267168324
303,2495.08,0.0176365391406768
304,2506.6,0.01952018107635024
305,2511.88643,0.01838335868391277
306,2512.38,0.01827739684405633
307,2518.17,0.018804519755349206
308,2523.97,0.018308182118993193
309,2535.62,0.018301624108036717
310,2547.32,0.017961903358835796
311,2553.2,0.018441941341288664
312,2564.98,0.018210386210896625
313,2576.82,0.018618687794611243
314,2582.76,0.018463282491170775
315,2594.68,0.018230799693694278
316,2606.6600000000003,0.017818093610324444
317,2612.67,0.017597354473341747
318,2624.73,0.0178806140087808
319,2636.8399999999997,0.017910560805975397
320,2642.92,0.01850572783545047
321,2655.1200000000003,0.018460799703805066
322,2667.3799999999997,0.01752927828626632
323,2673.53,0.017816031482199166
324,2685.8700000000003,0.0177356356834693
325,2692.06,0.017194726688806592
326,2704.48,0.01729336650888561
327,2716.9700000000003,0.016866002495422402
328,2723.23,0.016827609667217466
329,2735.7999999999997,0.01709824127256314
330,2742.1099999999997,0.01597887570611375
331,2754.7599999999998,0.01600344293026831
332,2767.48,0.01615965632088064
333,2773.86,0.016523466920889022
334,2786.6600000000003,0.016114705930310235
335,2793.0899999999997,0.014407573792074174
336,2805.98,0.014932747872655378
337,2812.4500000000003,0.016164503543823757
338,2825.43,0.016256232695564955
339,2831.94,0.01572780617613777
340,2845.01,0.015559560399038962
341,2858.1499999999996,0.015329900788397927
342,2864.7299999999996,0.015771590435428518
343,2877.96,0.015570165895947475
344,2884.0315,0.015536975861512342
345,2884.59,0.015534095854558812
346,2897.9100000000003,0.015339843554852975
347,2911.28,0.01571795400927737
348,2931.46,0.01532858157623955
349,2951.7799999999997,0.015072064854766382
350,2972.24,0.015003393844857866
351,2992.8500000000004,0.01484300109734005
352,3006.66,0.014747083788110502
353,3027.5,0.01461911970959176
354,3048.49,0.014432643893463718
355,3069.6200000000003,0.01427791378890033
356,3090.8999999999996,0.014153411946727642
357,3112.32,0.013972375816119606
358,3126.6899999999996,0.01376777135314867
359,3148.36,0.013675178993191801
360,3170.1800000000003,0.013499724895625634
361,3192.16,0.013082851611276213
362,3206.89,0.013130668978042956
363,3229.12,0.012829519464344701
364,3251.51,0.012899390763863192
365,3266.51,0.012866967002933197
366,3289.16,0.012726554623928903
367,3311.31121,0.01261634611661624
368,3311.9500000000003,0.012613306752495881
369,3319.59,0.012820805599391928
370,3327.2400000000002,0.012845749169909566
371,3334.91,0.012923872187670387
372,3342.6,0.012351374652674392
373,3350.3100000000004,0.01284126656492158
374,3358.03,0.012222413200790361
375,3365.77,0.012121099283902325
376,3373.53,0.01197165481425747
377,3381.31,0.012117819791855802
378,3389.1,0.012494989493075724
379,3396.9100000000003,0.012365678641538827
380,3404.74,0.012112957237245116
381,3412.5899999999997,0.011963265280194589
382,3420.46,0.012209442770387244
383,3428.34,0.01215776498420149
384,3436.25,0.012181091368880514
385,3444.1699999999996,0.011714122477181128
386,3452.11,0.012303633032724925
387,3460.07,0.011710633035511904
388,3468.04,0.011684777761920477
389,3476.0400000000004,0.011587886659193825
390,3484.05,0.011562390280088763
391,3492.0800000000004,0.011703473348226886
392,3500.13,0.011487905863608192
393,3508.2000000000003,0.01136929782623268
394,3516.2900000000004,0.011205966236100352
395,3524.39,0.011458915369589616
396,3532.52,0.011527655673943656
397,3540.66,0.011597010701919288
398,3548.8199999999997,0.0117390151771381
399,3557.0,0.011617109099600098
400,3565.2,0.01166322246930528
401,3573.42,0.011238437286253644
402,3581.66,0.010897021550445191
403,3589.9199999999996,0.010545456261879922
404,3598.19,0.011004713696936244
405,3606.49,0.010935433302857343
406,3614.8,0.011000694632400032
407,3623.13,0.011021242409185904
408,3631.49,0.011696695356836553
409,3639.8599999999997,0.011222749028108794
410,3648.25,0.011106099146624214
411,3648.8500000000004,0.011027247563919715
412,3651.58,0.011229745112614247
413,3654.31,0.010205042661308776
414,3657.05,0.010438303933624897
415,3659.78,0.012318098482319425
416,3662.5099999999998,0.012098848031013958
417,3665.2400000000002,0.010855756579708487
418,3667.97,0.010165297128403016
419,3670.7000000000003,0.009923027677097546
420,3673.44,0.012184750949413667
421,3676.17,0.008677501498108198
422,3678.9,0.009958815046802726
423,3681.63,0.010987119595497256
424,3684.3599999999997,0.011914599144191785
425,3687.09,0.010225980692886315
426,3689.83,0.011663232965202438
427,3692.56,0.012422732513896967
428,3695.29,0.012108752062591497
429,3698.02,0.010331863611286025
430,3700.75,0.012631121159980555
431,3703.48,0.010405662708675087
432,3706.2099999999996,0.011705620257369615
433,3708.95,0.011593414529685736
434,3711.68,0.010464658078380268
435,3714.4100000000003,0.011702983627074797
436,3717.14,0.011765083175769327
437,3719.8700000000003,0.015668402724463855
438,3722.6,0.03142124227315839
439,3725.3399999999997,0.0643167465454745
440,3728.07,0.10297276609416904
441,3730.8,0.10833602564286357
442,3733.5299999999997,0.0746689251915581
443,3736.26,0.03754524474025263
444,3738.99,0.017059024288947153
445,3741.7299999999996,0.014089478561263278
446,3744.46,0.011803158109957806
447,3747.19,0.011902357658652336
448,3749.92,0.010462375207346867
449,3752.65,0.010524100756041398
450,3755.3799999999997,0.010971051304735926
451,3758.12,0.012256680577052047
452,3760.85,0.010909536125746577
453,3763.5800000000004,0.013474359674441105
454,3766.31,0.010975347223135637
455,3769.04,0.010698264771830166
456,3771.77,0.011687578320524696
457,3774.5,0.012191407869219226
458,3777.2400000000002,0.011727642141535348
459,3779.9700000000003,0.013067171690229877
460,3782.7,0.011309311238924407
461,3785.4300000000003,0.012822710787618936
462,3788.16,0.012695730336313465
463,3790.89,0.013172349885007997
464,3793.63,0.010244111157324117
465,3796.3599999999997,0.012569423706018648
466,3799.09,0.012179923254713176
467,3801.82,0.011859462803407706
468,3801.8939600000003,0.011861645288470514
469,3804.5499999999997,0.011940428807740688
470,3807.28,0.01239864613022363
471,3810.02,0.01215634970663508
472,3812.7499999999995,0.013671877029118021
473,3815.48,0.013428704351600963
474,3818.21,0.012788501674083902
475,3820.94,0.012342718996566845
476,3823.67,0.013216786319049786
477,3826.4100000000003,0.012197199895461237
478,3829.14,0.011706717217944178
479,3831.87,0.010618321540427118
480,3834.6000000000004,0.012124721862910061
481,3837.33,0.012597579185393
482,3840.06,0.011343116507875943
483,3842.79,0.011293783830358884
484,3845.5299999999997,0.011606027406770334
485,3848.26,0.012230874729253275
486,3850.9900000000002,0.012899112051736217
487,3853.72,0.01310069937421916
488,3856.4500000000003,0.0132802166967021
489,3859.18,0.013967284019185042
490,3861.9199999999996,0.014507987595596492
491,3864.65,0.016735364918079434
492,3867.38,0.019822242240562372
493,3870.11,0.022032319563045317
494,3872.84,0.021129606885528257
495,3875.5699999999997,0.0165916942080112
496,3878.31,0.013752887784422648
497,3881.04,0.01279899510690559
498,3883.7699999999995,0.013000962429388531
499,3886.5,0.014236279751871472
500,3889.23,0.014826327074354414
501,3891.96,0.015690504396837356
502,3894.7,0.014896517973248806
503,3897.43,0.013194435295731747
504,3900.16,0.01207846261821469
505,3902.89,0.012345489940697629
506,3905.6200000000003,0.012871237263180572
507,3908.35,0.012785374585663511
508,3911.08,0.013048981908146453
509,3913.82,0.013114295484557902
510,3916.5499999999997,0.013493752807040845
511,3919.28,0.013485510129523787
512,3922.01,0.012375047452006727
513,3924.74,0.01262476477448967
514,3927.4700000000003,0.01271449209697261
515,3930.21,0.011976075673384061
516,3932.9399999999996,0.011318562995867002
517,3935.67,0.010241586318349944
518,3938.4,0.010616664640832885
519,3941.13,0.012043734963315825
520,3943.86,0.012717672285798768
521,3946.6,0.012371325862210217
522,3949.33,0.012535433184693159
523,3952.06,0.012754900507176101
524,3954.7900000000004,0.01279136782965904
525,3957.52,0.012592315152141983
526,3960.25,0.011609882474624925
527,3962.9900000000002,0.011800376051036374
528,3965.72,0.013283763373519317
529,3968.45,0.015178240696002257
530,3971.1800000000003,0.0165613680184852
531,3973.91,0.01443296534096814
532,3976.6400000000003,0.012308752663451081
533,3979.37,0.011837289985934023
534,3982.1099999999997,0.011872553562345473
535,3984.84,0.012258660884828413
536,3987.5699999999997,0.012513128207311356
537,3990.3,0.013557455529794298
538,3993.03,0.012822332852277237
539,3995.7599999999998,0.01315442017476018
540,3998.5,0.01353133375117163
541,4001.23,0.013015361073654572
542,4003.9599999999996,0.012899058396137513
543,4006.69,0.013645095718620454
544,4009.42,0.013398113041103396
545,4012.15,0.012800340363586337
546,4014.89,0.012970663939997787
547,4017.62,0.013119551262480728
548,4020.35,0.013605728584963669
549,4023.08,0.013624495907446611
550,4025.8100000000004,0.014453283229929552
551,4028.54,0.013128240552412494
552,4031.2799999999997,0.013475104128823943
553,4034.01,0.013081831451306885
554,4036.74,0.013748918773789826
555,4039.47,0.013565666096272768
556,4042.2000000000003,0.013469343418755709
557,4044.93,0.013163950741238651
558,4047.6600000000003,0.013808788063721593
559,4050.4,0.014080311640133042
560,4053.1299999999997,0.014214748962615983
561,4055.86,0.013563706285098925
