,lambda (Angstroms),Total Flux (erg/s/cm^2/Angstrom)
0,100.02000000000001,0.20493535871232324
1,102.11,0.2042947982862272
2,104.01,0.20371247054684716
3,104.712855,0.20349705382013136
4,105.95,0.2015053250525123
5,107.92,0.19833374433067527
6,109.92,0.19511386697589192
7,114.05,0.18846481802950105
8,118.06,0.18200896230371524
9,120.22644299999999,0.17852115329625276
10,121.08000000000001,0.1773690648667894
11,125.05000000000001,0.17201051059522607
12,127.08000000000001,0.16927049250321705
13,127.96,0.16808270383493953
14,130.94,0.16406041175812713
15,131.85,0.16283214330395138
16,133.98999999999998,0.159943651738659
17,137.10999999999999,0.15573241633408494
18,138.038426,0.1544792637428302
19,139.98999999999998,0.15259641429768003
20,142.92,0.1497698561862088
21,146.92000000000002,0.14591127957654534
22,151.04,0.141936432597751
23,154.91,0.13820280850110436
24,158.489319,0.1347496378626947
25,158.89000000000001,0.13445739511486757
26,161.84,0.1323057626642492
27,165.98999999999998,0.12927891704776914
28,169.86,0.12645628335189008
29,173.02,0.12415149144682087
30,177.04999999999998,0.12121219964002701
31,179.92000000000002,0.11911895711886601
32,181.970086,0.11762371746809705
33,182.01,0.11760150862716497
34,185.82000000000002,0.11548158767594055
35,191.02,0.11258825888693877
36,194.13,0.11085786740586846
37,198.19,0.10859888259537474
38,201.88000000000002,0.10654584145551962
39,205.16,0.10472088173442619
40,208.929613,0.1026234488608591
41,209.93,0.10220498752800959
42,215.82,0.09974161040118326
43,219.82999999999998,0.09806447644952389
44,222.89,0.09678459272590104
45,227.03,0.09505317594235246
46,230.19000000000003,0.09373404316419943
47,233.93,0.09217498605577151
48,239.88329199999998,0.08968886867242218
49,239.93,0.08967384567003234
50,246.08,0.08769191628863895
51,251.82,0.08584498430400513
52,257.09,0.08414535624272984
53,260.07,0.08318844371164816
54,264.29,0.08183651369085465
55,269.21,0.08025501607973995
56,274.21000000000004,0.07864793379315994
57,275.42287,0.0782566515668501
58,279.31,0.0772940476034391
59,283.85,0.0761830668207626
60,289.79,0.07472211926915508
61,295.86,0.07322286239000393
62,300.67,0.07203200677089074
63,307.67,0.07031536486623537
64,316.227766,0.06821184692347051
65,317.75,0.06793300268089597
66,328.15999999999997,0.0660304414710522
67,338.13000000000005,0.06420071491061581
68,347.59999999999997,0.06246340936996063
69,357.34000000000003,0.06073423241262358
70,363.078055,0.059771707161653184
71,365.67,0.05945719972751886
72,375.04999999999995,0.05819624767452311
73,384.67,0.056826899863241735
74,395.44000000000005,0.05555415866017517
75,404.65000000000003,0.05448355508596506
76,414.08,0.05324381273332647
77,416.86938299999997,0.05285220109444524
78,421.78000000000003,0.05232339681383093
79,429.62,0.05151605469791773
80,440.64,0.05057880245998873
81,450.9,0.04960381338329621
82,460.35,0.04854386118107941
83,469.99,0.0476250825885535
84,478.630092,0.04691768133813542
85,479.83,0.046848722086098415
86,489.87,0.04590119037542757
87,500.13,0.04545396552767033
88,505.91999999999996,0.04481456919253248
89,511.78000000000003,0.04524807908650348
90,520.1,0.044554822174871875
91,529.77,0.04370238496748274
92,539.62,0.04259094892065926
93,549.5408739999999,0.0418127993957097
94,549.65,0.0418063435695562
95,559.87,0.04190219283529274
96,570.28,0.041696905916145735
97,579.54,0.04116809116866241
98,590.32,0.040671298942110544
99,599.9100000000001,0.039649079136671546
100,609.66,0.03902334633343588
101,619.56,0.0393095045947658
102,629.63,0.038560526795936745
103,630.957344,0.03854099345675039
104,639.86,0.038524392038054626
105,650.26,0.037954398093420806
106,657.7900000000001,0.03732933970754651
107,665.4,0.037502174929790424
108,674.66,0.037359139569472226
109,685.62,0.03625549088166582
110,695.16,0.036521370149761326
111,704.83,0.03521402228104892
112,716.28,0.0358286056929665
113,724.43596,0.03555024258325038
114,726.25,0.03551130886053884
115,734.6600000000001,0.03529391155357414
116,744.88,0.034831470209081984
117,755.2399999999999,0.03449165864069266
118,765.75,0.03362103297527067
119,774.61,0.03394012437720798
120,785.39,0.03316685513712721
121,794.48,0.03328088545694777
122,805.53,0.0330800006422082
123,814.86,0.0328363610067765
124,824.3000000000001,0.03264728876685418
125,831.763771,0.03161095523459247
126,835.77,0.031091609573463345
127,845.4399999999999,0.031987804387718956
128,855.23,0.03166383140132417
129,865.14,0.031668150614278995
130,875.15,0.03146952049335849
131,885.29,0.03125296183840004
132,895.54,0.031033918116178744
133,905.9100000000001,0.030660545593307047
134,914.29,0.030298310014554415
135,924.88,0.03876612335715699
136,935.59,0.04788916589910917
137,944.2399999999999,0.05770530151889315
138,954.992586,0.06438589074326745
139,955.1800000000001,0.06450244160346437
140,964.02,0.06818538316612774
141,975.18,0.038639307356096414
142,984.1999999999999,0.05919327576053346
143,995.5999999999999,0.05846318573953372
144,1004.8100000000001,0.06880953414362076
145,1014.11,0.06888833096859467
146,1025.85,0.05105459831538967
147,1035.34,0.06057794514001358
148,1044.92,0.07890787038552431
149,1054.59,0.07679366405192191
150,1064.35,0.06711222613920634
151,1074.2,0.07236746664737762
152,1084.1399999999999,0.06435431557643574
153,1094.17,0.0734368829263807
154,1096.4782,0.07284467584616668
155,1104.29,0.07087821025942531
156,1114.51,0.06923779636626122
157,1124.82,0.063301746176582
158,1135.23,0.07203056121299706
159,1145.74,0.0683224914755064
160,1153.68,0.06908553042739261
161,1164.35,0.0688531350516528
162,1175.13,0.05296992642461672
163,1186.0,0.06595794150106549
164,1194.22,0.05635379308601571
165,1205.27,0.049323265569434185
166,1213.62,0.041830286948306976
167,1224.85,0.05443371683869516
168,1236.19,0.06474853347778706
169,1244.76,0.06697741835406729
170,1256.27,0.06510234087751947
171,1258.92541,0.06390623451942018
172,1264.98,0.061216976602577064
173,1273.7499999999998,0.06872594482172747
174,1285.54,0.06991585687461038
175,1294.45,0.06118231460923182
176,1306.42,0.060678133182006086
177,1315.48,0.06819957468320365
178,1324.6,0.06576320169103166
179,1333.78,0.061540294205490106
180,1346.1200000000001,0.06662308006915213
181,1355.45,0.06481300635018669
182,1364.85,0.0604070523889568
183,1374.31,0.061017253934357335
184,1383.8400000000001,0.060649785237493405
185,1393.4299999999998,0.05141841204725992
186,1406.3200000000002,0.051042821721701034
187,1416.0700000000002,0.05690259654914875
188,1425.8799999999999,0.0562478268832269
189,1435.7700000000002,0.056797251226145644
190,1442.4,0.057930219708810085
191,1445.43977,0.05817071071580263
192,1445.72,0.058194199118649884
193,1455.74,0.05663773712192889
194,1465.83,0.053674624123234795
195,1475.99,0.05365937012256759
196,1486.22,0.0540276051199273
197,1496.53,0.053817980400746326
198,1503.43,0.0516791173491121
199,1510.3700000000001,0.048107309439207546
200,1517.3500000000001,0.04973938667103264
201,1524.35,0.04879976647372257
202,1534.9099999999999,0.04382442389035193
203,1545.55,0.04319545159044062
204,1556.27,0.04221284957398862
205,1563.45,0.044189392514461995
206,1574.2900000000002,0.046101195923198966
207,1585.2,0.04704438832996284
208,1596.19,0.047257641020186016
209,1603.56,0.04618830838387527
210,1614.67,0.04574245649928742
211,1625.8600000000001,0.04443392489815889
212,1633.3700000000001,0.045946010257901924
213,1644.69,0.04598480536739478
214,1656.0900000000001,0.04418313076034694
215,1659.58691,0.04495012579211419
216,1663.74,0.045874571801597486
217,1671.42,0.042528814754810684
218,1675.27,0.04653260008942928
219,1686.88,0.046866589241357046
220,1694.67,0.04482684463270221
221,1706.4099999999999,0.043632633938785914
222,1714.29,0.04183186405223905
223,1726.1699999999998,0.041301967370490716
224,1734.14,0.0428809622060518
225,1746.1599999999999,0.04210836953647142
226,1754.22,0.04319052909414048
227,1766.3799999999999,0.04114225043672805
228,1774.53,0.04100618471650508
229,1786.8400000000001,0.041425623929272584
230,1795.08,0.04249303293115758
231,1803.37,0.04220178122310256
232,1815.87,0.039829353738098
233,1824.25,0.04019369675215094
234,1836.8999999999999,0.03910798713732633
235,1845.3700000000001,0.03689775487348724
236,1853.8899999999999,0.03689764189970813
237,1866.74,0.03732303944512344
238,1875.3600000000001,0.0386763050514643
239,1884.0199999999998,0.03634473608985314
240,1897.07,0.03511734079550838
241,1905.46072,0.03644378299521321
242,1905.83,0.03650291167185134
243,1914.6299999999999,0.035310519313776594
244,1923.4699999999998,0.034404883763165146
245,1936.8,0.03531210485030874
246,1945.74,0.03602125131835553
247,1954.72,0.03393209459386562
248,1968.27,0.03583108812205735
249,1977.35,0.036429093416225675
250,1981.91,0.034935019467041487
251,1995.6499999999999,0.03412398283068388
252,2004.86,0.034746232749107916
253,2014.1200000000001,0.033959933676861086
254,2023.4099999999999,0.03476624721021172
255,2032.75,0.03314297175289148
256,2046.8400000000001,0.03365776218183771
257,2056.29,0.03136398294504154
258,2065.78,0.031923730515708654
259,2075.32,0.033921119095704895
260,2080.1,0.03241247758756884
261,2084.9,0.033146564483164435
262,2094.52,0.031763276678087274
263,2104.19,0.03193558988233923
264,2113.9,0.03205271989405448
265,2123.66,0.03211227091509885
266,2133.46,0.030880138743606518
267,2143.31,0.03076986758144331
268,2153.2000000000003,0.0313786732267434
269,2163.14,0.030659359881372607
270,2173.12,0.03044012334346511
271,2183.15,0.029794497814886734
272,2187.7616199999998,0.03011343410551566
273,2193.23,0.03050149261980753
274,2203.35,0.029923049469116607
275,2213.52,0.02899438756768117
276,2223.74,0.028398246915501205
277,2234.0099999999998,0.029019407512576725
278,2244.3199999999997,0.028320577109056628
279,2254.68,0.027543187954792013
280,2265.08,0.027846527799931776
281,2275.54,0.028002981144178114
282,2286.04,0.02806414348782884
283,2296.6,0.02686763933058614
284,2307.2000000000003,0.026928424172747826
285,2312.51,0.026214098843679763
286,2323.19,0.023140461684650213
287,2333.91,0.02516247352502505
288,2344.6800000000003,0.024782756614655364
289,2355.51,0.025357263203392256
290,2366.3799999999997,0.02437372879153353
291,2377.3,0.02446519562893028
292,2382.7799999999997,0.023539268547330853
293,2393.78,0.024159653383536372
294,2404.83,0.023548509468997374
295,2415.93,0.023634176803713856
296,2427.08,0.024052335387685815
297,2432.6800000000003,0.02341758530429953
298,2443.91,0.023872901887080265
299,2455.19,0.02354773971911647
300,2466.52,0.02338877880040816
301,2472.2,0.022889636715830643
302,2483.62,0.023011366045782196
303,2495.08,0.02116015437513813
304,2506.6,0.02301661620360064
305,2511.88643,0.021867321091183733
306,2512.38,0.021760491584150214
307,2518.17,0.022277436014264552
308,2523.97,0.021770902317315183
309,2535.62,0.021743864288097915
310,2547.32,0.02138357562356212
311,2553.2,0.021853276910103102
312,2564.98,0.021601013229057664
313,2576.82,0.021988500785629982
314,2582.76,0.021822653309788734
315,2594.68,0.02156921584985141
316,2606.6600000000003,0.02113544962753185
317,2612.67,0.02090414526224466
318,2624.73,0.021166204023415458
319,2636.8399999999997,0.021174862149267722
320,2642.92,0.021759340894534587
321,2655.1200000000003,0.021692965876813502
322,2667.3799999999997,0.02073989209671018
323,2673.53,0.021015833952531107
324,2685.8700000000003,0.020913745155918137
325,2692.06,0.020361954503484245
326,2704.48,0.020438760690361633
327,2716.9700000000003,0.019989439987793074
328,2723.23,0.019940042445913242
329,2735.7999999999997,0.02018857672683504
330,2742.1099999999997,0.019058118549636675
331,2754.7599999999998,0.019060447814048826
332,2767.48,0.019194300189015037
333,2773.86,0.01954689512237073
334,2786.6600000000003,0.019115632480827295
335,2793.0899999999997,0.017397196778864463
336,2805.98,0.017899710993747674
337,2812.4500000000003,0.019120092783530017
338,2825.43,0.019189003854839876
339,2831.94,0.018649133136367395
340,2845.01,0.0184579110641039
341,2858.1499999999996,0.01820515210239447
342,2864.7299999999996,0.01863527449447605
343,2877.96,0.018410592389193264
344,2884.0315,0.01836672901305252
345,2884.59,0.01836315561215683
346,2897.9100000000003,0.0181523661462746
347,2911.28,0.01851387735807299
348,2931.46,0.018099450869972132
349,2951.7799999999997,0.017817706279377017
350,2972.24,0.017723633586287642
351,2992.8500000000004,0.017537652926240137
352,3006.66,0.017424590101628005
353,3027.5,0.01727075255891136
354,3048.49,0.01705821704923658
355,3069.6200000000003,0.016877253437067544
356,3090.8999999999996,0.01672633185794038
357,3112.32,0.01651870217631895
358,3126.6899999999996,0.016296256941729786
359,3148.36,0.016176760648511472
360,3170.1800000000003,0.015974216388335023
361,3192.16,0.015530054296736567
362,3206.89,0.015559583941447883
363,3229.12,0.015230835238252537
364,3251.51,0.015272908703635181
365,3266.51,0.015221862007821859
366,3289.16,0.01505332899714374
367,3311.31121,0.014915619120403283
368,3311.9500000000003,0.014912018006655684
369,3319.59,0.01511279826504514
370,3327.2400000000002,0.015131014453092177
371,3334.91,0.015202392500454366
372,3342.6,0.014623132407131714
373,3350.3100000000004,0.015106244173124216
374,3358.03,0.014480601868774296
375,3365.77,0.014372481423739532
376,3373.53,0.014216212838019923
377,3381.31,0.01435553611161547
378,3389.1,0.014725855314868596
379,3396.9100000000003,0.014589676377436876
380,3404.74,0.014330069299320312
381,3412.5899999999997,0.014173474080518904
382,3420.46,0.014412730721032652
383,3428.34,0.014354123291203977
384,3436.25,0.014370493650348037
385,3444.1699999999996,0.013896559939149674
386,3452.11,0.014479088087266466
387,3460.07,0.013879088094698414
388,3468.04,0.01384622403178794
389,3476.0400000000004,0.013742297757850198
390,3484.05,0.013709757413570035
391,3492.0800000000004,0.013843778928605027
392,3500.13,0.013621132302955176
393,3508.2000000000003,0.01349542753662048
394,3516.2900000000004,0.01332498162960094
395,3524.39,0.013570807652238977
396,3532.52,0.013632398463849747
397,3540.66,0.013694595205118098
398,3548.8199999999997,0.013829423805701601
399,3557.0,0.013700324265600262
400,3565.2,0.01373922658481408
401,3573.42,0.013307212763343049
402,3581.66,0.012958550801187175
403,3589.9199999999996,0.01259972169834646
404,3598.19,0.013051706525163319
405,3606.49,0.012975127140952914
406,3614.8,0.013033080686400085
407,3623.13,0.013046303091162413
408,3631.49,0.013714404284897473
409,3639.8599999999997,0.013233097408290113
410,3648.25,0.013109069390997905
411,3648.8500000000004,0.013029690170452576
412,3651.58,0.013229786966971323
413,3654.31,0.012202683763490069
414,3657.05,0.012433535489666393
415,3659.78,0.014310929286185136
416,3662.5099999999998,0.014089278082703886
417,3665.2400000000002,0.01284378587922263
418,3667.97,0.012150925675741376
419,3670.7000000000003,0.011906255472260121
420,3673.44,0.014165569198436445
421,3676.17,0.010655918994955191
422,3678.9,0.011934831791473937
423,3681.63,0.012960735587992683
424,3684.3599999999997,0.01388581438451143
425,3687.09,0.012194795181030175
426,3689.83,0.013629637907206501
427,3692.56,0.014386736703725245
428,3695.29,0.014070355500243992
429,3698.02,0.012291066296762737
430,3700.75,0.014587923093281482
431,3703.48,0.01236006388980023
432,3706.2099999999996,0.013657620686318974
433,3708.95,0.013543005412495299
434,3711.68,0.012411848209014045
435,3714.4100000000003,0.01364777300553279
436,3717.14,0.013707471802051537
437,3719.8700000000003,0.01760839059857028
438,3722.6,0.03335882939508903
439,3725.3399999999997,0.06625192412126535
440,3728.07,0.1049055429177841
441,3730.8,0.11026640171430285
442,3733.5299999999997,0.07659690051082159
443,3736.26,0.03947081930734034
444,3738.99,0.01898219810385908
445,3741.7299999999996,0.016010242830035406
446,3744.46,0.013721521626554151
447,3747.19,0.013818320423072898
448,3749.92,0.012375937219591644
449,3752.65,0.01243526201611039
450,3755.3799999999997,0.012879811812629136
451,3758.12,0.01416303153880546
452,3760.85,0.012813486335324207
453,3763.5800000000004,0.01537590913184295
454,3766.31,0.012874495928361696
455,3769.04,0.012595012724880443
456,3771.77,0.01358192552139919
457,3774.5,0.014083354317917936
458,3777.2400000000002,0.01361717904409426
459,3779.9700000000003,0.014954307840613005
460,3782.7,0.013194046637131751
461,3785.4300000000003,0.014705045433650497
462,3788.16,0.014575664230169243
463,3790.89,0.01504988302668799
464,3793.63,0.012119234752864312
465,3796.3599999999997,0.01444214654938306
466,3799.09,0.014050245345901805
467,3801.82,0.013727384142420552
468,3801.8939600000003,0.013729501587325511
469,3804.5499999999997,0.013806626820641835
470,3807.28,0.014263139680596344
471,3810.02,0.014019132551026879
472,3812.7499999999995,0.015532955410981389
473,3815.48,0.015288078270935899
474,3818.21,0.014646171130890409
475,3820.94,0.01419868399084492
476,3823.67,0.01507104685079943
477,3826.4100000000003,0.014049749721229963
478,3829.14,0.013557562581184474
479,3831.87,0.012467462441138983
480,3834.6000000000004,0.013972158301093494
481,3837.33,0.014443311161048003
482,3840.06,0.013187144021002514
483,3842.79,0.013136106880957024
484,3845.5299999999997,0.01344663975138756
485,3848.26,0.014069782611342068
486,3850.9900000000002,0.01473631547129658
487,3853.72,0.01493619833125109
488,3856.4500000000003,0.0151140111912056
489,3859.18,0.015799374051160112
490,3861.9199999999996,0.016338366921590644
491,3864.65,0.018564039781545156
492,3867.38,0.021649212641499663
493,3870.11,0.023857585501454174
494,3872.84,0.022953168361408684
495,3875.5699999999997,0.018413551221363195
496,3878.31,0.015573034091793728
497,3881.04,0.01461743695174824
498,3883.7699999999995,0.01481769981170275
499,3886.5,0.01605131267165726
500,3889.23,0.01663965553161177
501,3891.96,0.01750212839156628
502,3894.7,0.016706431261996814
503,3897.43,0.015002644121951325
504,3900.16,0.013884966981905835
505,3902.89,0.014150289841860345
506,3905.6200000000003,0.014674332701814854
507,3908.35,0.014586765561769365
508,3911.08,0.014848668421723875
509,3913.82,0.01491227129215441
510,3916.5499999999997,0.01529002415210892
511,3919.28,0.01528007701206343
512,3922.01,0.01416790987201794
513,3924.74,0.014415922731972453
514,3927.4700000000003,0.01450394559192696
515,3930.21,0.013763818462357497
516,3932.9399999999996,0.013104601322312006
517,3935.67,0.012025920182266517
518,3938.4,0.012399294042221025
519,3941.13,0.013824659902175535
520,3943.86,0.014496892762130046
521,3946.6,0.01414883563256058
522,3949.33,0.01431123849251509
523,3952.06,0.014529001352469602
524,3954.7900000000004,0.01456376421242411
525,3957.52,0.014363007072378621
526,3960.25,0.013378869932333132
527,3962.9900000000002,0.013567652802763664
528,3965.72,0.015049335662718176
529,3968.45,0.016942108522672687
530,3971.1800000000003,0.018323531382627198
531,3973.91,0.016193424242581706
532,3976.6400000000003,0.014067507102536216
533,3979.37,0.013594339962490728
534,3982.1099999999997,0.013627892832921262
535,3984.84,0.01401229569287577
536,3987.5699999999997,0.014265058552830282
537,3990.3,0.015307681412784793
538,3993.03,0.014570854272739301
539,3995.7599999999998,0.014901237132693812
540,3998.5,0.015276440003124347
541,4001.23,0.014758762863078857
542,4003.9599999999996,0.014640755723033368
543,4006.69,0.015385088582987877
544,4009.42,0.015136401442942388
545,4012.15,0.014536924302896898
546,4014.89,0.01470553717332743
547,4017.62,0.014852720033281943
548,4020.35,0.015337192893236451
549,4023.08,0.015354255753190962
550,4025.8100000000004,0.016181338613145472
551,4028.54,0.014854591473099981
552,4031.2799999999997,0.015199744343530516
553,4034.01,0.014804767203485026
554,4036.74,0.015470150063439537
555,4039.47,0.015285192923394048
556,4042.2000000000003,0.015187165783348559
557,4044.93,0.014880068643303069
558,4047.6600000000003,0.015523201503257578
559,4050.4,0.015793014373688113
560,4053.1299999999997,0.015925747233642623
561,4055.86,0.015273000093597132
562,4058.59,0.015010802953551642
563,4061.3199999999997,0.015098635813506154
564,4064.05,0.015451278673460661
