,lambda (Angstroms),Total Flux (erg/s/cm^2/Angstrom)
0,100.02000000000001,1.3766114415875008e-05
1,102.11,1.690646664884358e-05
2,104.01,1.9761253022451396e-05
3,104.712855,2.0817402169050585e-05
4,105.95,1.9267468247467662e-05
5,107.92,1.6799746409563863e-05
6,109.92,1.4295995686285895e-05
7,114.05,9.123541679441894e-06
8,118.06,4.101892034094558e-06
9,120.22644299999999,1.4211460219241481e-06
10,121.08000000000001,1.3852643467600902e-06
11,125.05000000000001,1.1709920089694755e-06
12,127.08000000000001,1.0597509893687327e-06
13,127.96,1.0139540766846682e-06
14,130.94,8.511462044136274e-07
15,131.85,8.167976445926051e-07
16,133.98999999999998,6.99942262156355e-07
17,137.10999999999999,5.528997999128491e-07
18,138.038426,5.041302381084187e-07
19,139.98999999999998,5.107988555414141e-07
20,142.92,7.82934835385469e-07
21,146.92000000000002,1.3602466068449298e-06
22,151.04,1.4418068904481741e-06
23,154.91,1.5491292320852025e-06
24,158.489319,1.6642295515415234e-06
25,158.89000000000001,1.6766739896363352e-06
26,161.84,1.7629651692381942e-06
27,165.98999999999998,1.911510879525555e-06
28,169.86,2.041045765986299e-06
29,173.02,2.1410810634581205e-06
30,177.04999999999998,2.3158944206769316e-06
31,179.92000000000002,2.440420364899757e-06
32,181.970086,2.5256741714032023e-06
33,182.01,2.5275000476525654e-06
34,185.82000000000002,2.7308295209673147e-06
35,191.02,3.0099826787722218e-06
36,194.13,3.218636246228618e-06
37,198.19,3.473872900207065e-06
38,201.88000000000002,3.7814458468032396e-06
39,205.16,4.0205805771109506e-06
40,208.929613,4.238113869263764e-06
41,209.93,4.300982589736163e-06
42,215.82,5.077775443531247e-06
43,219.82999999999998,5.5766281844002255e-06
44,222.89,5.881528368205481e-06
45,227.03,6.48464761688318e-06
46,230.19000000000003,9.376722806695142e-06
47,233.93,1.499459903134601e-05
48,239.88329199999998,1.9510121760176175e-05
49,239.93,1.954502550387471e-05
50,246.08,2.0276488532068755e-05
51,251.82,2.3827958691716532e-05
52,257.09,2.316292995327468e-05
53,260.07,2.6954352753928054e-05
54,264.29,3.548429349847746e-05
55,269.21,4.01153579210327e-05
56,274.21000000000004,4.495245704964575e-05
57,275.42287,4.467996380867347e-05
58,279.31,4.3847367329335794e-05
59,283.85,5.617401349360245e-05
60,289.79,6.492825204332578e-05
61,295.86,6.753835374312723e-05
62,300.67,6.679479029601767e-05
63,307.67,8.212469222330106e-05
64,316.227766,9.600809793436651e-05
65,317.75,9.846337903330009e-05
66,328.15999999999997,0.00011960643636569879
67,338.13000000000005,0.00013227483690402876
68,347.59999999999997,0.00014496731835818974
69,357.34000000000003,0.00021568273011780196
70,363.078055,0.00031351491322921223
71,365.67,0.00035772511132693317
72,375.04999999999995,0.0003949377147326678
73,384.67,0.00035696986022980715
74,395.44000000000005,0.0005747652615815941
75,404.65000000000003,0.0007787988393392505
76,414.08,0.0008441409973473611
77,416.86938299999997,0.0008385718343474854
78,421.78000000000003,0.0008287614323935103
79,429.62,0.0008500141771051593
80,440.64,0.0010774450213299513
81,450.9,0.0011868160556082062
82,460.35,0.0011256165871802828
83,469.99,0.001225671471238994
84,478.630092,0.0014314253007349203
85,479.83,0.0014599945815768167
86,489.87,0.001328514159924917
87,500.13,0.0017152222031372188
88,505.91999999999996,0.0015464371193359742
89,511.78000000000003,0.0024562478652642478
90,520.1,0.0024392406274013193
91,529.77,0.0023727811057505355
92,539.62,0.002061953146261371
93,549.5408739999999,0.0020901723479945203
94,549.65,0.002090482927980439
95,559.87,0.0028200278367798938
96,570.28,0.0032602175951558553
97,579.54,0.003305573263989803
98,590.32,0.0034771997294358037
99,599.9100000000001,0.0030496121370078943
100,609.66,0.00302843241790757
101,619.56,0.003928444580051856
102,629.63,0.0038038616076067
103,630.957344,0.0038666308231802
104,639.86,0.004287648057374051
105,650.26,0.004228876155920601
106,657.7900000000001,0.003973962191695171
107,665.4,0.004520874312843177
108,674.66,0.004833023194818279
109,685.62,0.004268123890978874
110,695.16,0.005002951071761
111,704.83,0.004170941391274956
112,716.28,0.005348360610347842
113,724.43596,0.005470911590564166
114,726.25,0.005498168415585304
115,734.6600000000001,0.00558763452201381
116,744.88,0.005498099727447737
117,755.2399999999999,0.005536303017887607
118,765.75,0.005049165399405276
119,774.61,0.0056915397790671726
120,785.39,0.005311610324524875
121,794.48,0.005757315843839396
122,805.53,0.005959622553237134
123,814.86,0.00605641521827613
124,824.3000000000001,0.006211788950105511
125,831.763771,0.005447792902486501
126,835.77,0.0050377051789833325
127,845.4399999999999,0.006197620378879154
128,855.23,0.006140640419931904
129,865.14,0.006415225302141582
130,875.15,0.006489588051982033
131,885.29,0.006549567629742492
132,895.54,0.006610062061896801
133,905.9100000000001,0.006519500335208038
134,914.29,0.006385804242666878
135,924.88,0.015142428224765818
136,935.59,0.024557554048021686
137,944.2399999999999,0.03460959259808361
138,954.992586,0.041583426509794984
139,955.1800000000001,0.041704978325757744
140,964.02,0.045623806476242486
141,975.18,0.016375524141334082
142,984.1999999999999,0.03717018225415901
143,995.5999999999999,0.03674428986903752
144,1004.8100000000001,0.04733639794211043
145,1014.11,0.04766335599635342
146,1025.85,0.03014289354009673
147,1035.34,0.0399194715545877
148,1044.92,0.05850502955024877
149,1054.59,0.056648857527079925
150,1064.35,0.047227855485081176
151,1074.2,0.052745933424252524
152,1084.1399999999999,0.044998021344593964
153,1094.17,0.054348229246105495
154,1096.4782,0.053817614181955874
155,1104.29,0.0520218136478237
156,1114.51,0.050604676955518055
157,1124.82,0.04489387020427822
158,1135.23,0.05385011338755594
159,1145.74,0.050371656505351206
160,1153.68,0.05130816130604526
161,1164.35,0.051308874319068616
162,1175.13,0.0356611772600613
163,1186.0,0.04888667014211978
164,1194.22,0.03946210475946299
165,1205.27,0.03267298752365307
166,1213.62,0.02536243205586911
167,1224.85,0.03821120470219079
168,1236.19,0.04877376727648179
169,1244.76,0.05118988166463646
170,1256.27,0.049566264127607305
171,1258.92541,0.048428170735450436
172,1264.98,0.04583321267078602
173,1273.7499999999998,0.05347877307926836
174,1285.54,0.05485231362841395
175,1294.45,0.0462575440434171
176,1306.42,0.04593979460094659
177,1315.48,0.05360234502293632
178,1324.6,0.0513080154477207
179,1333.78,0.047228085875299704
180,1346.1200000000001,0.052503066450062766
181,1355.45,0.05083830688462835
182,1364.85,0.04657875732245435
183,1374.31,0.04733629776307498
184,1383.8400000000001,0.04711725820695602
185,1393.4299999999998,0.03803524865363169
186,1406.3200000000002,0.037860419254012234
187,1416.0700000000002,0.043872049708140265
188,1425.8799999999999,0.043370070165062925
189,1435.7700000000002,0.04407353062571177
190,1442.4,0.04530976093451882
191,1445.43977,0.04559759616492819
192,1445.72,0.045624131087057596
193,1455.74,0.04417660147875738
194,1465.83,0.04132318187319358
195,1475.99,0.041418382270366205
196,1486.22,0.041897832670275255
197,1496.53,0.04180029307331166
198,1503.43,0.03973644334304503
199,1510.3700000000001,0.03624008361434209
200,1517.3500000000001,0.03794804388720281
201,1524.35,0.03708452416084537
202,1534.9099999999999,0.03222398457365472
203,1545.55,0.031710684989591405
204,1556.27,0.03084462540865544
205,1563.45,0.032899225689334524
206,1574.2900000000002,0.03492887611308957
207,1585.2,0.035990676539581046
208,1596.19,0.03632340696919986
209,1603.56,0.03533419725730639
210,1614.67,0.03500912769161622
211,1625.8600000000001,0.0338222481290534
212,1633.3700000000001,0.03541597842263277
213,1644.69,0.03557783886515188
214,1656.0900000000001,0.033900099310798334
215,1659.58691,0.03470511098511971
216,1663.74,0.03566118063312317
217,1671.42,0.03237390282560999
218,1675.27,0.0364070039247082
219,1686.88,0.036829397239131624
220,1694.67,0.03484896946302125
221,1706.4099999999999,0.03374415281455707
222,1714.29,0.0320033850641399
223,1726.1699999999998,0.031563948455642934
224,1734.14,0.03320363073091896
225,1746.1599999999999,0.03252256416238921
226,1754.22,0.03366609646335844
227,1766.3799999999999,0.031710409934795895
228,1774.53,0.031636402261458335
229,1786.8400000000001,0.0321495757757178
230,1795.08,0.03327972812807344
231,1803.37,0.033051600494703084
232,1815.87,0.03077435406320376
233,1824.25,0.031202506455526607
234,1836.8999999999999,0.03021312006684929
235,1845.3700000000001,0.028067382484865344
236,1853.8899999999999,0.028132144917155405
237,1866.74,0.028655388585574097
238,1875.3600000000001,0.030074291046412162
239,1884.0199999999998,0.027808663518669424
240,1897.07,0.026680637244184124
241,1905.46072,0.028070970449430355
242,1905.83,0.028132159503677097
243,1914.6299999999999,0.0269888662653918
244,1923.4699999999998,0.02613255301238702
245,1936.8,0.027114148107120775
246,1945.74,0.027873174817317298
247,1954.72,0.025834121512794347
248,1968.27,0.027808716526570965
249,1977.35,0.028457383185249315
250,1981.91,0.026988751507228754
251,1995.6499999999999,0.026254376451087847
252,2004.86,0.026928013061927894
253,2014.1200000000001,0.026193379654368593
254,2023.4099999999999,0.027051526235769684
255,2032.75,0.025480362798771423
256,2046.8400000000001,0.02607376761383508
257,2056.29,0.023832714136358252
258,2065.78,0.02444541064416195
259,2075.32,0.0264960271335663
260,2080.1,0.025014055374588604
261,2084.9,0.02577492360825117
262,2094.52,0.02444531006821656
263,2104.19,0.024671576509782602
264,2113.9,0.024842882936629167
265,2123.66,0.02495688934507638
266,2133.46,0.02377943573880412
267,2143.31,0.02372412211413251
268,2153.2000000000003,0.02438810847474142
269,2163.14,0.023724254816950983
270,2173.12,0.023560701144441067
271,2183.15,0.022971037453531802
272,2187.7616199999998,0.023315704026297474
273,2193.23,0.023724407360901558
274,2203.35,0.023184170330041297
275,2213.52,0.0222939033138507
276,2223.74,0.02173634631232976
277,2234.0099999999998,0.022396279325478486
278,2244.3199999999997,0.021736372350362944
279,2254.68,0.020998095389917065
280,2265.08,0.021340698441206913
281,2275.54,0.021536641510100357
282,2286.04,0.021637444590729533
283,2296.6,0.020480807688962304
284,2307.2000000000003,0.020581610798930807
285,2312.51,0.01988733235684899
286,2323.19,0.01685401549028895
287,2333.91,0.01891649863546464
288,2344.6800000000003,0.018577441795309995
289,2355.51,0.019192834972758945
290,2366.3799999999997,0.018250338161943623
291,2377.3,0.018383031365797966
292,2382.7799999999997,0.017477792973593004
293,2393.78,0.018139706200918804
294,2404.83,0.01757027944291427
295,2415.93,0.017697852699579398
296,2427.08,0.01815810597091419
297,2432.6800000000003,0.017544497613916413
298,2443.91,0.01804221090872267
299,2455.19,0.01775963421819858
300,2466.52,0.01764344754234416
301,2472.2,0.017165749208817846
302,2483.62,0.017330592559368814
303,2495.08,0.015522645921655516
304,2506.6,0.017422599301545813
305,2511.88643,0.016293262092098904
306,2512.38,0.01618782079650339
307,2518.17,0.016721050139043597
308,2523.97,0.016230829480448294
309,2535.62,0.016236558157580145
310,2547.32,0.01590917682903445
311,2553.2,0.016395416161355075
312,2564.98,0.01617628482372531
313,2576.82,0.016597073479282482
314,2582.76,0.016447932804790052
315,2594.68,0.016228021451263158
316,2606.6600000000003,0.015827950090923207
317,2612.67,0.015613549408482214
318,2624.73,0.01590952803905819
319,2636.8399999999997,0.015952246663956622
320,2642.92,0.01655382597356706
321,2655.1200000000003,0.01652176458824591
322,2667.3799999999997,0.015603173196111703
323,2673.53,0.01589641249777358
324,2685.8700000000003,0.0158290310965553
325,2692.06,0.015294650393675143
326,2704.48,0.015406388983372791
327,2716.9700000000003,0.014992197565121873
328,2723.23,0.01496040685429315
329,2735.7999999999997,0.015244295426958161
330,2742.1099999999997,0.014131584710451891
331,2754.7599999999998,0.014169493274032828
332,2767.48,0.014339121829665201
333,2773.86,0.014709661105210369
334,2786.6600000000003,0.014314399651758668
335,2793.0899999999997,0.01261404892162629
336,2805.98,0.01315281745795501
337,2812.4500000000003,0.014391396723280594
338,2825.43,0.014496815249389729
339,2831.94,0.013975254510173278
340,2845.01,0.01382079302606283
341,2858.1499999999996,0.01360499153400382
342,2864.7299999999996,0.014053620786838805
343,2877.96,0.013866149284560212
344,2884.0315,0.013839362565724073
345,2884.59,0.01383689859383797
346,2897.9100000000003,0.013652568562884354
347,2911.28,0.014040638531814545
348,2931.46,0.013666298484919352
349,2951.7799999999997,0.013424918437698819
350,2972.24,0.01337148839015295
351,2992.8500000000004,0.013226448342258505
352,3006.66,0.013140818310166206
353,3027.5,0.013028378261737274
354,3048.49,0.012857538212959766
355,3069.6200000000003,0.01271854816385692
356,3090.8999999999996,0.012609898114405497
357,3112.32,0.012444818064628736
358,3126.6899999999996,0.012250918031235083
359,3148.36,0.01217446798087736
360,3170.1800000000003,0.012015267930171061
361,3192.16,0.011614767879092948
362,3206.89,0.01167355784486271
363,3229.12,0.011388967793203635
364,3251.51,0.011475517741172744
365,3266.51,0.01145426770631507
366,3289.16,0.011330727653679979
367,3311.31121,0.011237019916548012
368,3311.9500000000003,0.011234317573827054
369,3319.59,0.011445847234435598
370,3327.2400000000002,0.011474826894599912
371,3334.91,0.011556996553875766
372,3342.6,0.010988556212263162
373,3350.3100000000004,0.0114825158697621
374,3358.03,0.010867735526816807
375,3365.77,0.010770505182983055
376,3373.53,0.010625154838260842
377,3381.31,0.010775424492650173
378,3389.1,0.01115670414659527
379,3396.9100000000003,0.01103151379965191
380,3404.74,0.010782923451820092
381,3412.5899999999997,0.010637373103099814
382,3420.46,0.010887702753491076
383,3428.34,0.010840182403438108
384,3436.25,0.010867682052052453
385,3444.1699999999996,0.010404891700222565
386,3452.11,0.010998591347504222
387,3460.07,0.010409790993897416
388,3468.04,0.010388140639846381
389,3476.0400000000004,0.01029547028446266
390,3484.05,0.010274199928634705
391,3492.0800000000004,0.010419519571918293
392,3500.13,0.010208199214313422
393,3508.2000000000003,0.01009384885582009
394,3516.2900000000004,0.0099347854964383
395,3524.39,0.01019200813661228
396,3532.52,0.01026503777545357
397,3540.66,0.010338687413850634
398,3548.8199999999997,0.010484997051359234
399,3557.0,0.01036740668797938
400,3565.2,0.010417846323711063
401,3573.42,0.009997397958554286
402,3581.66,0.009660329592509051
403,3589.9199999999996,0.009313122225575357
404,3598.19,0.009776742858197433
405,3606.49,0.00971184148948682
406,3614.8,0.009781487120331977
407,3623.13,0.009806429750288675
408,3631.49,0.010486293378912685
409,3639.8599999999997,0.010016763007092465
410,3648.25,0.009904539634383784
411,3648.8500000000004,0.009826004607730005
412,3651.58,0.01002994248645531
413,3654.31,0.009006680365180614
414,3657.05,0.00924138724346169
415,3659.78,0.011122622122186992
416,3662.5099999999998,0.010904812000912298
417,3665.2400000000002,0.009663160879637603
418,3667.97,0.008974141758362907
419,3670.7000000000003,0.00873331263708821
420,3673.44,0.010996481515369286
421,3676.17,0.007490672394094591
422,3678.9,0.008773426272819894
423,3681.63,0.009803171151545198
424,3684.3599999999997,0.010732091030270502
425,3687.09,0.009044912908995808
426,3689.83,0.010483610787276883
427,3692.56,0.011244550666002186
428,3695.29,0.010932010544727491
429,3698.02,0.009156562423452795
430,3700.75,0.0114572603021781
431,3703.48,0.009233242180903404
432,3706.2099999999996,0.010534640059628708
433,3708.95,0.010423879937909783
434,3711.68,0.009296563816635088
435,3714.4100000000003,0.010536329695360391
436,3717.14,0.010599869574085697
437,3719.8700000000003,0.014504629452811002
438,3722.6,0.030258909331536306
439,3725.3399999999997,0.06315585920981738
440,3728.07,0.10181331908854269
441,3730.8,0.10717801896726799
442,3733.5299999999997,0.0735123588459933
443,3736.26,0.036390118724718604
444,3738.99,0.0159053386034439
445,3741.7299999999996,0.012937238481724978
446,3744.46,0.010652358360450281
447,3747.19,0.010752998239175587
448,3749.92,0.009314456117900891
449,3752.65,0.009377621996626196
450,3755.3799999999997,0.0098260128753515
451,3758.12,0.011113087753632575
452,3760.85,0.009767383632357879
453,3763.5800000000004,0.012333647511083182
454,3766.31,0.009836075389808487
455,3769.04,0.009560433268533793
456,3771.77,0.010551187147259096
457,3774.5,0.0110564570259844
458,3777.2400000000002,0.010594136904265476
459,3779.9700000000003,0.01193510678299078
460,3782.7,0.010178686661716084
461,3785.4300000000003,0.011693526540441389
462,3788.16,0.011567986419166693
463,3790.89,0.012046046297891999
464,3793.63,0.009119253176173072
465,3796.3599999999997,0.011446006054898377
466,3799.09,0.011057945933623681
467,3801.82,0.010738925812348987
468,3801.8939600000003,0.010741147318220979
469,3804.5499999999997,0.010820925715658741
470,3807.28,0.011280165619653072
471,3810.02,0.011038895523295733
472,3812.7499999999995,0.012555445427290065
473,3815.48,0.012313295331284396
474,3818.21,0.011674115235278726
475,3820.94,0.011229355139273058
476,3823.67,0.01210444504326739
477,3826.4100000000003,0.011085884946910053
478,3829.14,0.010596424850904384
479,3831.87,0.009509051754898714
480,3834.6000000000004,0.011016474658893046
481,3837.33,0.011490354562887377
482,3840.06,0.010236914466881708
483,3842.79,0.01018860437087604
484,3845.5299999999997,0.010501874274518702
485,3848.26,0.011127744178513034
486,3850.9900000000002,0.011797004082507365
487,3853.72,0.011999613986501697
488,3856.4500000000003,0.012180153890496028
489,3859.18,0.01286824379449036
490,3861.9199999999996,0.013409973698133022
491,3864.65,0.015638373602127355
492,3867.38,0.018726273506121684
493,3870.11,0.020937373410116016
494,3872.84,0.020035683314110347
495,3875.5699999999997,0.015498793218104679
496,3878.31,0.012661013121747342
497,3881.04,0.011708143025741673
498,3883.7699999999995,0.011911132929736005
499,3886.5,0.013147472833730335
500,3889.23,0.013738542737724667
501,3891.96,0.014603742641718999
502,3894.7,0.013810782545361661
503,3897.43,0.012109722449355993
504,3900.16,0.010994772353350325
505,3902.89,0.011262822257344655
506,3905.6200000000003,0.011789592161338987
507,3908.35,0.011704752065333317
508,3911.08,0.011969381969327649
509,3913.82,0.012035721872970312
510,3916.5499999999997,0.012416201776964644
511,3919.28,0.012408981680958974
512,3922.01,0.011299541584953306
513,3924.74,0.011550281488947638
514,3927.4700000000003,0.011641031392941968
515,3930.21,0.010903641296584632
516,3932.9399999999996,0.010247151200578963
517,3935.67,0.009171197104573295
518,3938.4,0.009547298008567625
519,3941.13,0.010975390912561956
520,3943.86,0.011650350816556288
521,3946.6,0.011305030720198951
522,3949.33,0.011470160624193282
523,3952.06,0.011690650528187614
524,3954.7900000000004,0.011728140432181944
525,3957.52,0.011530110336176276
526,3960.25,0.010548700240170608
527,3962.9900000000002,0.010740220143813269
528,3965.72,0.0122246300478076
529,3968.45,0.014120129951801933
530,3971.1800000000003,0.015504279855796265
531,3973.91,0.013376899759790596
532,3976.6400000000003,0.011253709663784927
533,3979.37,0.01078326956777926
534,3982.1099999999997,0.01081955947142192
535,3984.84,0.01120668937541625
536,3987.5699999999997,0.011462179279410584
537,3990.3,0.012507529183404916
538,3993.03,0.011773429087399246
539,3995.7599999999998,0.012106538991393578
540,3998.5,0.01248447889503624
541,4001.23,0.011969528799030571
542,4003.9599999999996,0.011854248703024902
543,4006.69,0.012601308607019234
544,4009.42,0.012355348511013567
545,4012.15,0.011758598415007898
546,4014.89,0.011929948318650558
547,4017.62,0.012079858222644891
548,4020.35,0.01256705812663922
549,4023.08,0.012586848030633552
550,4025.8100000000004,0.013416657934627884
551,4028.54,0.012092637838622215
552,4031.2799999999997,0.012440527742264878
553,4034.01,0.012048277646259209
554,4036.74,0.012716387550253542
555,4039.47,0.012534157454247873
556,4042.2000000000003,0.012438857358242204
