,lambda (Angstroms),Total Flux (erg/s/cm^2/Angstrom)
0,100.02000000000001,0.1537015197262147
1,102.11,0.1532210996290689
2,104.01,0.1527843540069164
3,104.712855,0.15262279155336056
4,105.95,0.1511289951386685
5,107.92,0.14875030994263172
6,109.92,0.14633540266480294
7,114.05,0.1413486169273233
8,118.06,0.13650672620583146
9,120.22644299999999,0.13389087809258282
10,121.08000000000001,0.13302681517548456
11,125.05000000000001,0.12900790346333957
12,127.08000000000001,0.12695289151632277
13,127.96,0.12606205132469214
14,130.94,0.12304533477107035
15,131.85,0.12212413803706355
16,133.98999999999998,0.11995777117634424
17,137.10999999999999,0.11679935309806372
18,138.038426,0.11585948992314914
19,139.98999999999998,0.11444735550576003
20,142.92,0.11232750645648161
21,146.92000000000002,0.10943372037540902
22,151.04,0.10645260764106326
23,154.91,0.10365241838082827
24,158.489319,0.10106257100991994
25,158.89000000000001,0.10084339237540069
26,161.84,0.09922969193118691
27,165.98999999999998,0.09695959812032685
28,169.86,0.09484265827691757
29,173.02,0.09311409184311567
30,177.04999999999998,0.09090966986202026
31,179.92000000000002,0.08933977136064952
32,181.970086,0.08821836454895919
33,182.01,0.08820170836462374
34,185.82000000000002,0.08661181751895543
35,191.02,0.08444188939895408
36,194.13,0.08314414716415136
37,198.19,0.08144997133753107
38,201.88000000000002,0.07991026644163972
39,205.16,0.07854160560406964
40,208.929613,0.07696858437782425
41,209.93,0.0766547525572572
42,215.82,0.07480740485438746
43,219.82999999999998,0.07354967293839293
44,222.89,0.07258983166592578
45,227.03,0.07129141349276436
46,230.19000000000003,0.07030278206939959
47,233.93,0.06913488795682865
48,239.88329199999998,0.06727141964672301
49,239.93,0.06726016118002426
50,246.08,0.06577390479897922
51,251.82,0.06438960094800385
52,257.09,0.06311472031954739
53,260.07,0.06239798755123612
54,264.29,0.06138617786564098
55,269.21,0.06020121865480497
56,274.21000000000004,0.05899712254736996
57,275.42287,0.05870359429048005
58,279.31,0.057981427912579334
59,283.85,0.057151267848071965
60,289.79,0.056057737711866305
61,295.86,0.05493393937000295
62,300.67,0.054040605260668055
63,307.67,0.052756946842176536
64,316.227766,0.05118276766461943
65,317.75,0.05097424981067199
66,328.15999999999997,0.049552624978289155
67,338.13000000000005,0.04818350703296186
68,347.59999999999997,0.04688371037747048
69,357.34000000000003,0.045604516159467694
70,363.078055,0.04490708595031974
71,365.67,0.04468225592063915
72,375.04999999999995,0.04374583778089234
73,384.67,0.042709327522431305
74,395.44000000000005,0.041809212145131384
75,404.65000000000003,0.04105726073947379
76,414.08,0.04014378222499486
77,416.86938299999997,0.03984867904885776
78,421.78000000000003,0.039449620960373195
79,429.62,0.0388494239234383
80,440.64,0.038203337344991546
81,450.9,0.03749943353747216
82,460.35,0.03668916513580956
83,469.99,0.03602509044141512
84,478.630092,0.035545973953716406
85,479.83,0.035501397564573815
86,489.87,0.034757884781570686
87,500.13,0.03451914939575275
88,505.91999999999996,0.03399740939439936
89,511.78000000000003,0.03454999806487761
90,520.1,0.034025808631153905
91,529.77,0.03336987172561205
92,539.62,0.03245859369049445
93,549.5408739999999,0.031882042380186965
94,549.65,0.03187727817716715
95,559.87,0.03213155337646956
96,570.28,0.0320876376871093
97,579.54,0.0317023673764968
98,590.32,0.03137268195658291
99,599.9100000000001,0.03049912210250366
100,609.66,0.030024529500076908
101,619.56,0.030464153196074355
102,629.63,0.02987127609695256
103,630.957344,0.029872318659171594
104,639.86,0.02996511952854097
105,650.26,0.02952292832006561
106,657.7900000000001,0.028990404030659882
107,665.4,0.029256756447342817
108,674.66,0.029227514677104174
109,685.62,0.028258550411249368
110,695.16,0.028641664112320997
111,704.83,0.02745314821078669
112,716.28,0.028208437519724877
113,724.43596,0.028030300756547114
114,726.25,0.02800791439540413
115,734.6600000000001,0.02786723166518061
116,744.88,0.027498015406811488
117,755.2399999999999,0.027252705980519498
118,765.75,0.02647795073145301
119,774.61,0.026877861532905993
120,785.39,0.026202925602845407
121,794.48,0.02639987334271083
122,805.53,0.026299784731656152
123,814.86,0.026141251755082376
124,824.3000000000001,0.02603828957514064
125,831.763771,0.02507003928106656
126,835.77,0.02457800943009751
127,845.4399999999999,0.025540137540789223
128,855.23,0.025282916050993132
129,865.14,0.025354804960709246
130,875.15,0.025224426370018864
131,885.29,0.025077005628800036
132,895.54,0.024927849837134062
133,905.9100000000001,0.024625183444980284
134,914.29,0.02432008551091581
135,924.88,0.03286010501786775
136,935.59,0.04205617192433188
137,944.2399999999999,0.05193128613916986
138,954.992586,0.05868519009365715
139,955.1800000000001,0.058802991202598284
140,964.02,0.0625449048745958
141,975.18,0.03307327801707231
142,984.1999999999999,0.053687419320400095
143,995.5999999999999,0.05303337930465029
144,1004.8100000000001,0.06344116810771558
145,1014.11,0.063582005726446
146,1025.85,0.04582659123654226
147,1035.34,0.05541324635501018
148,1044.92,0.07380708028914323
149,1054.59,0.07175738303894143
150,1064.35,0.06214105460440475
151,1074.2,0.06746200498553322
152,1084.1399999999999,0.05951516418232681
153,1094.17,0.06866464219478552
154,1096.4782,0.06808783323931869
155,1104.29,0.06616403519456898
156,1114.51,0.06457944227469592
157,1124.82,0.058699704632436504
158,1135.23,0.06748537840974779
159,1145.74,0.06383471360662979
160,1153.68,0.06464112032054446
161,1164.35,0.06446700378873961
162,1175.13,0.04864267481846254
163,1186.0,0.06169006112579912
164,1194.22,0.05213080981451178
165,1205.27,0.045160636677075636
166,1213.62,0.03771326521123023
167,1224.85,0.05037803262902137
168,1236.19,0.0607547876083403
169,1244.76,0.06303048126555046
170,1256.27,0.061218270658139604
171,1258.92541,0.060036667976232756
172,1264.98,0.0573709849519328
173,1273.7499999999998,0.0649141011162956
174,1285.54,0.06614992015595779
175,1294.45,0.057451070956923866
176,1306.42,0.05699349738650457
177,1315.48,0.06455021601240274
178,1324.6,0.06214935376827374
179,1333.78,0.05796219065411758
180,1346.1200000000001,0.0630930250518641
181,1355.45,0.061319279762640025
182,1364.85,0.056949926791717606
183,1374.31,0.05759696295076801
184,1383.8400000000001,0.057266601428120054
185,1393.4299999999998,0.04807256903544494
186,1406.3200000000002,0.047747168791275774
187,1416.0700000000002,0.053644907411861564
188,1425.8799999999999,0.05302833516242018
189,1435.7700000000002,0.05361626841960923
190,1442.4,0.05477505228160756
191,1445.43977,0.055027379309058294
192,1445.72,0.05505162933898741
193,1455.74,0.05352240034144667
194,1465.83,0.0505867105924261
195,1475.99,0.0505990700919257
196,1486.22,0.05099510883994547
197,1496.53,0.050813505300559746
198,1503.43,0.048693395511834076
199,1510.3700000000001,0.04514044957940566
200,1517.3500000000001,0.04679149750327448
201,1524.35,0.045870902355291926
202,1534.9099999999999,0.04092426041776395
203,1545.55,0.04032420619283046
204,1556.27,0.039370739680491464
205,1563.45,0.0413667968858465
206,1574.2900000000002,0.04330806194239922
207,1585.2,0.04428090624747213
208,1596.19,0.044524028265139515
209,1603.56,0.043474726287906454
210,1614.67,0.04305906987446556
211,1625.8600000000001,0.041780951173619164
212,1633.3700000000001,0.043313447693426446
213,1644.69,0.04338300902554608
214,1656.0900000000001,0.04161231807026021
215,1659.58691,0.04238881722849086
216,1663.74,0.04332116885119811
217,1671.42,0.03999003106610801
218,1675.27,0.04400114506707196
219,1686.88,0.044357234431017786
220,1694.67,0.042332318474526655
221,1706.4099999999999,0.04116045545408944
222,1714.29,0.039374685539179284
223,1726.1699999999998,0.038867403027868036
224,1734.14,0.04046156915453886
225,1746.1599999999999,0.03971185715235357
226,1754.22,0.04080935932060536
227,1766.3799999999999,0.038784227827546036
228,1774.53,0.03866367603737881
229,1786.8400000000001,0.03910654794695444
230,1795.08,0.04018964219836819
231,1803.37,0.039914170917326915
232,1815.87,0.0375655378035735
233,1824.25,0.037945832564113206
234,1836.8999999999999,0.03688420285299474
235,1845.3700000000001,0.034690093655115425
236,1853.8899999999999,0.0347061989247811
237,1866.74,0.03515605708384258
238,1875.3600000000001,0.03652573128859823
239,1884.0199999999998,0.034210647067389854
240,1897.07,0.03300809309663128
241,1905.46072,0.03435050744887567
242,1905.83,0.03441015125388851
243,1914.6299999999999,0.033230034485332446
244,1923.4699999999998,0.03233673032237386
245,1936.8,0.03326254613773156
246,1945.74,0.03398416348876665
247,1954.72,0.03190753344539921
248,1968.27,0.03382542859154301
249,1977.35,0.03443610006216926
250,1981.91,0.03294838710028112
251,1995.6499999999999,0.03215651712301291
252,2004.86,0.03279161456183094
253,2014.1200000000001,0.032018232757645815
254,2023.4099999999999,0.03283750540765879
255,2032.75,0.03122725881466861
256,2046.8400000000001,0.031761704136378285
257,2056.29,0.02948110720878115
258,2065.78,0.030054092886781493
259,2075.32,0.03206478932177867
260,2080.1,0.030562815690676634
261,2084.9,0.03130359836237333
262,2094.52,0.029933730008565453
263,2104.19,0.03011953241175442
264,2113.9,0.03025020742054086
265,2123.66,0.030323373186324137
266,2133.46,0.02910491155770489
267,2143.31,0.029008380686082483
268,2153.2000000000003,0.029630982420057544
269,2163.14,0.028925534911029456
270,2173.12,0.028720220007598832
271,2183.15,0.02808858586116505
272,2187.7616199999998,0.028413955146582175
273,2193.23,0.028807174464855645
274,2203.35,0.02823828210183746
275,2213.52,0.027319218175760877
276,2223.74,0.026732722686625902
277,2234.0099999999998,0.027363575634432542
278,2244.3199999999997,0.02667447533179247
279,2254.68,0.02590686346609401
280,2265.08,0.02622001834994883
281,2275.54,0.026386343358133585
282,2286.04,0.02645741511587163
283,2296.6,0.025270876997939607
284,2307.2000000000003,0.02534166562956087
285,2312.51,0.02463235163275982
286,2323.19,0.02156879376348766
287,2333.91,0.023600922643768785
288,2344.6800000000003,0.023231369960991524
289,2355.51,0.023816097402544194
290,2366.3799999999997,0.022842821593650146
291,2377.3,0.02294459422169771
292,2382.7799999999997,0.02202383891049814
293,2393.78,0.02265460503765228
294,2404.83,0.02205388960174803
295,2415.93,0.02215003260278539
296,2427.08,0.02257871404076436
297,2432.6800000000003,0.021949248978224648
298,2443.91,0.022415163915310198
299,2455.19,0.022100647289337354
300,2466.52,0.02195237910030612
301,2472.2,0.021458597536872983
302,2483.62,0.021591104534336644
303,2495.08,0.0197507082813536
304,2506.6,0.02161804215270048
305,2511.88643,0.020473736128275348
306,2512.38,0.02036725368811266
307,2518.17,0.020888269510698415
308,2523.97,0.02038581423798639
309,2535.62,0.020366968216073436
310,2547.32,0.020014906717671588
311,2553.2,0.02048874268257733
312,2564.98,0.020244762421793246
313,2576.82,0.020640575589222485
314,2582.76,0.020478904982341548
315,2594.68,0.020233849387388557
316,2606.6600000000003,0.019808507220648888
317,2612.67,0.019581428946683493
318,2624.73,0.019851968017561592
319,2636.8399999999997,0.019869141611950792
320,2642.92,0.02045789567090094
321,2655.1200000000003,0.020400099407610128
322,2667.3799999999997,0.019455646572532636
323,2673.53,0.019735912964398333
324,2685.8700000000003,0.019642501366938604
325,2692.06,0.019095063377613183
326,2704.48,0.019180603017771223
327,2716.9700000000003,0.018740064990844806
328,2723.23,0.01869506933443493
329,2735.7999999999997,0.01895244254512628
330,2742.1099999999997,0.017826421412227504
331,2754.7599999999998,0.01783764586053662
332,2767.48,0.01798044264176128
333,2773.86,0.018337523841778048
334,2786.6600000000003,0.017915261860620472
335,2793.0899999999997,0.016201347584148346
336,2805.98,0.016712925745310758
337,2812.4500000000003,0.017937857087647512
338,2825.43,0.018015895391129907
339,2831.94,0.017480602352275547
340,2845.01,0.017298570798077926
341,2858.1499999999996,0.017055051576795856
342,2864.7299999999996,0.01748980087085704
343,2877.96,0.017274421791894947
344,2884.0315,0.017234827752436448
345,2884.59,0.017231531709117624
346,2897.9100000000003,0.017027357109705953
347,2911.28,0.017395508018554745
348,2931.46,0.0169911031524791
349,2951.7799999999997,0.016719449709532763
350,2972.24,0.01663553768971573
351,2992.8500000000004,0.016459792194680103
352,3006.66,0.016353587576221004
353,3027.5,0.01621009941918352
354,3048.49,0.016007987786927438
355,3069.6200000000003,0.01583751757780066
356,3090.8999999999996,0.015697163893455282
357,3112.32,0.015500171632239212
358,3126.6899999999996,0.01528486270629734
359,3148.36,0.015176127986383604
360,3170.1800000000003,0.014984419791251266
361,3192.16,0.014551173222552425
362,3206.89,0.014588017956085912
363,3229.12,0.014270308928689402
364,3251.51,0.014323501527726386
365,3266.51,0.014279904005866394
366,3289.16,0.014122619247857807
367,3311.31121,0.013995909918888466
368,3311.9500000000003,0.013992533504991763
369,3319.59,0.014196001198783855
370,3327.2400000000002,0.014216908339819131
371,3334.91,0.014290984375340775
372,3342.6,0.013714429305348785
373,3350.3100000000004,0.014200253129843162
374,3358.03,0.013577326401580722
375,3365.77,0.01347192856780465
376,3373.53,0.013318389628514943
377,3381.31,0.013460449583711604
378,3389.1,0.013833508986151447
379,3396.9100000000003,0.013700077283077657
380,3404.74,0.013443224474490234
381,3412.5899999999997,0.01328939056038918
382,3420.46,0.01353141554077449
383,3428.34,0.013475579968402982
384,3436.25,0.013494732737761028
385,3444.1699999999996,0.013023584954362255
386,3452.11,0.01360890606544985
387,3460.07,0.01301170607102381
388,3468.04,0.012981645523840955
389,3476.0400000000004,0.01288053331838765
390,3484.05,0.012850810560177527
391,3492.0800000000004,0.01298765669645377
392,3500.13,0.012767841727216383
393,3508.2000000000003,0.01264497565246536
394,3516.2900000000004,0.012477375472200705
395,3524.39,0.012726050739179233
396,3532.52,0.012790501347887312
397,3540.66,0.012855561403838573
398,3548.8199999999997,0.012993260354276202
399,3557.0,0.012867038199200197
400,3565.2,0.01290882493861056
401,3573.42,0.012479702572507287
402,3581.66,0.012133939100890383
403,3589.9199999999996,0.011778015523759846
404,3598.19,0.012232909393872489
405,3606.49,0.012159249605714685
406,3614.8,0.012220126264800063
407,3623.13,0.01223627881837181
408,3631.49,0.012907320713673107
409,3639.8599999999997,0.012428958056217587
410,3648.25,0.012307881293248429
411,3648.8500000000004,0.012228713127839432
412,3651.58,0.012429770225228492
413,3654.31,0.011403627322617552
414,3657.05,0.011635442867249796
415,3659.78,0.013513796964638853
416,3662.5099999999998,0.013293106062027913
417,3665.2400000000002,0.012048574159416972
418,3667.97,0.011356674256806032
419,3670.7000000000003,0.011112964354195091
420,3673.44,0.013373241898827335
421,3676.17,0.009864551996216393
422,3678.9,0.011144425093605453
423,3681.63,0.012171289190994512
424,3684.3599999999997,0.013097328288383572
425,3687.09,0.011407269385772632
426,3689.83,0.012843075930404875
427,3692.56,0.013601135027793934
428,3695.29,0.013285714125182993
429,3698.02,0.011507385222572053
430,3700.75,0.013805202319961112
431,3703.48,0.011578303417350173
432,3706.2099999999996,0.012876820514739231
433,3708.95,0.012763169059371474
434,3711.68,0.011632972156760533
435,3714.4100000000003,0.012869857254149592
436,3717.14,0.012930516351538654
437,3719.8700000000003,0.01683239544892771
438,3722.6,0.032583794546316776
439,3725.3399999999997,0.06547785309094901
440,3728.07,0.10413243218833808
441,3730.8,0.10949425128572714
442,3733.5299999999997,0.0758257103831162
443,3736.26,0.038700589480505254
444,3738.99,0.018212928577894312
445,3741.7299999999996,0.015241937122526555
446,3744.46,0.012954176219915613
447,3747.19,0.013051935317304673
448,3749.92,0.011610512414693734
449,3752.65,0.011670797512082793
450,3755.3799999999997,0.012116307609471853
451,3758.12,0.013400491154104095
452,3760.85,0.012051906251493156
453,3763.5800000000004,0.014615289348882213
454,3766.31,0.012114836446271274
455,3769.04,0.011836313543660333
456,3771.77,0.012824186641049392
457,3774.5,0.013326575738438453
458,3777.2400000000002,0.012861364283070694
459,3779.9700000000003,0.014199453380459755
460,3782.7,0.012440152477848814
461,3785.4300000000003,0.013952111575237873
462,3788.16,0.013823690672626933
463,3790.89,0.014298869770015992
464,3793.63,0.011369185314648235
465,3796.3599999999997,0.013693057412037295
466,3799.09,0.013302116509426355
467,3801.82,0.012980215606815414
468,3801.8939600000003,0.012982359067783512
469,3804.5499999999997,0.013060147615481377
470,3807.28,0.01351734226044726
471,3810.02,0.01327401941327016
472,3812.7499999999995,0.014788524058236042
473,3815.48,0.014544328703201924
474,3818.21,0.013903103348167807
475,3820.94,0.013456297993133689
476,3823.67,0.014329342638099573
477,3826.4100000000003,0.013308729790922473
478,3829.14,0.012817224435888355
479,3831.87,0.011727806080854237
480,3834.6000000000004,0.01323318372582012
481,3837.33,0.013705018370786002
482,3840.06,0.012449533015751886
483,3842.79,0.01239917766071777
484,3845.5299999999997,0.012710394813540669
485,3848.26,0.013334219458506552
486,3850.9900000000002,0.014001434103472436
487,3853.72,0.014201998748438319
488,3856.4500000000003,0.0143804933934042
489,3859.18,0.015066538038370084
490,3861.9199999999996,0.015606215191192983
491,3864.65,0.017832569836158867
492,3867.38,0.02091842448112475
493,3870.11,0.02312747912609063
494,3872.84,0.022223743771056514
495,3875.5699999999997,0.017684808416022397
496,3878.31,0.014844975568845297
497,3881.04,0.01389006021381118
498,3883.7699999999995,0.014091004858777064
499,3886.5,0.015325299503742944
500,3889.23,0.015914324148708827
501,3891.96,0.01677747879367471
502,3894.7,0.01598246594649761
503,3897.43,0.014279360591463494
504,3900.16,0.013162365236429377
505,3902.89,0.013428369881395258
506,3905.6200000000003,0.013953094526361141
507,3908.35,0.013866209171327023
508,3911.08,0.014128793816292907
509,3913.82,0.014193080969115807
510,3916.5499999999997,0.01457151561408169
511,3919.28,0.014562250259047572
512,3922.01,0.013450764904013455
513,3924.74,0.01369945954897934
514,3927.4700000000003,0.01378816419394522
515,3930.21,0.013048721346768122
516,3932.9399999999996,0.012390185991734004
517,3935.67,0.011312186636699887
518,3938.4,0.011686242281665768
519,3941.13,0.013112289926631653
520,3943.86,0.013785204571597535
521,3946.6,0.013437831724420436
522,3949.33,0.013600916369386318
523,3952.06,0.0138193610143522
524,3954.7900000000004,0.013854805659318082
525,3957.52,0.013654730304283966
526,3960.25,0.012671274949249849
527,3962.9900000000002,0.012860742102072747
528,3965.72,0.014343106747038632
529,3968.45,0.016236561392004516
530,3971.1800000000003,0.017618666036970397
531,3973.91,0.01548924068193628
532,3976.6400000000003,0.013364005326902162
533,3979.37,0.012891519971868047
534,3982.1099999999997,0.012925757124690946
535,3984.84,0.013310841769656828
536,3987.5699999999997,0.013564286414622711
537,3990.3,0.014607591059588594
538,3993.03,0.013871445704554475
539,3995.7599999999998,0.014202510349520359
540,3998.5,0.01457839750234326
541,4001.23,0.014061402147309143
542,4003.9599999999996,0.013944076792275025
543,4006.69,0.014689091437240908
544,4009.42,0.01444108608220679
545,4012.15,0.013842290727172673
546,4014.89,0.014011587879995572
547,4017.62,0.014159452524961457
548,4020.35,0.014644607169927338
549,4023.08,0.014662351814893221
550,4025.8100000000004,0.015490116459859104
551,4028.54,0.014164051104824986
552,4031.2799999999997,0.014509888257647888
553,4034.01,0.01411559290261377
554,4036.74,0.014781657547579654
555,4039.47,0.014597382192545536
556,4042.2000000000003,0.014500036837511419
557,4044.93,0.014193621482477301
558,4047.6600000000003,0.014837436127443183
559,4050.4,0.015107933280266085
560,4053.1299999999997,0.015241347925231966
561,4055.86,0.01458928257019785
562,4058.59,0.014327767215163732
563,4061.3199999999997,0.014416281860129615
