,lambda (Angstroms),Total Flux (erg/s/cm^2/Angstrom)
0,100.05999999999999,0.000895289079703654
1,101.92,0.001076243572651519
2,104.06,0.0012844385269067992
3,104.712855,0.0013479530675082382
4,105.99000000000001,0.0012442812690757622
5,107.96,0.0010843672085336454
6,109.97,0.0009212061621300528
7,114.1,0.0005859548579210328
8,118.11,0.00026044451217079945
9,120.22644299999999,8.864299849275443e-05
10,121.14,8.521160868527995e-05
11,125.10000000000001,7.033754208448292e-05
12,127.14,6.2675144737196e-05
13,128.01999999999998,5.9369797986475625e-05
14,131.0,4.8176690558944745e-05
15,131.91,4.475866749375759e-05
16,134.05,3.6720666527434856e-05
17,136.86,2.6166110695518774e-05
18,138.038426,2.1739857709124007e-05
19,140.05,2.147302504766612e-05
20,142.98,2.1084580933998955e-05
21,146.98,2.0554713655178935e-05
22,151.1,2.0008503942648315e-05
23,154.98,1.9494240861138895e-05
24,158.489319,1.9029220509946542e-05
25,158.95,1.8935390508020188e-05
26,161.91,1.833257779174257e-05
27,166.06,1.748758301915739e-05
28,169.93,1.6699757308409285e-05
29,173.09,1.6056567676248043e-05
30,177.11999999999998,1.5236502375593046e-05
31,180.0,1.4650645137268873e-05
32,181.970086,1.4249922797124913e-05
33,182.07999999999998,1.425717811797312e-05
34,185.89999999999998,1.4509660031888375e-05
35,191.1,1.4853601339992915e-05
36,194.21,1.5059708322397744e-05
37,197.82000000000002,1.529941149769724e-05
38,201.95999999999998,1.5574514807265082e-05
39,204.76999999999998,1.5761735755933108e-05
40,208.929613,1.6037808708517137e-05
41,210.02,1.6472976615589516e-05
42,215.91,1.8828157690696445e-05
43,219.92000000000002,2.0431628175429698e-05
44,222.98,2.1654905419016647e-05
45,227.13,2.3315594887181978e-05
46,229.76,2.440112510951325e-05
47,234.03,2.6176935639191796e-05
48,239.88329199999998,2.857677089732736e-05
49,240.03,2.853034754768821e-05
50,246.19,2.6525710202347484e-05
51,251.92,2.4696800677866584e-05
52,257.2,2.2942483096145957e-05
53,260.18,2.2027293332977873e-05
54,263.8,2.088472876899517e-05
55,268.7,1.9311969003383235e-05
56,273.7,1.7707364928269008e-05
57,275.42287,1.7155261886673545e-05
58,278.79,1.8360594442101615e-05
59,283.96999999999997,2.021621106550422e-05
60,289.90999999999997,2.2320141813575948e-05
61,295.99,2.4510534610928844e-05
62,300.79,2.622926797199691e-05
63,307.8,2.8759246832431722e-05
64,316.227766,3.180814698644222e-05
65,317.88,3.140312935234408e-05
66,328.29999999999995,2.8833781670981076e-05
67,338.27000000000004,2.63779910734581e-05
68,347.75,2.4047875147227654e-05
69,356.66999999999996,2.18597758453315e-05
70,363.078055,2.029649860939801e-05
71,365.82000000000005,2.088025009511294e-05
72,375.21,2.2859375709336668e-05
73,384.83000000000004,2.4848588055325216e-05
74,394.7,2.6993492327145042e-05
75,404.83,2.9161373121829445e-05
76,414.26,3.114592812418619e-05
77,416.86938299999997,3.169165845500076e-05
78,421.96,3.2348527889645126e-05
79,429.79999999999995,3.3375828407123265e-05
80,440.83,3.484093562112631e-05
81,451.09999999999997,3.61696841676187e-05
82,459.48,3.725307658043335e-05
83,470.19,3.864759167127401e-05
84,478.630092,3.9774032199299625e-05
85,480.03,3.957212391324559e-05
86,490.08000000000004,3.803811360028565e-05
87,500.35,3.657995765559923e-05
88,506.14,3.5768328484252176e-05
89,512.0,3.6173010566446685e-05
90,520.32,3.5116400130245025e-05
91,529.99,3.388427872663085e-05
92,539.85,3.236423686834379e-05
93,549.5408739999999,3.22769498925401e-05
94,549.88,3.2309932152557953e-05
95,560.11,3.2914128301439226e-05
96,570.52,3.356848186936239e-05
97,579.7900000000001,3.3013682450020185e-05
98,590.5699999999999,3.471069010152948e-05
99,600.16,3.5183278538261776e-05
100,609.92,3.6843660148533636e-05
101,619.83,3.885455044134041e-05
102,629.9000000000001,4.039236666218443e-05
103,630.957344,4.039643605665038e-05
104,640.13,4.1536050473710054e-05
105,650.53,4.5803769491198186e-05
106,658.07,4.897116602887709e-05
107,665.69,5.124508186669052e-05
108,674.95,5.2579508357261694e-05
109,684.3399999999999,5.393986996055146e-05
110,695.4599999999999,6.481410267925031e-05
111,705.1300000000001,6.521872683301093e-05
112,716.59,7.439622907728151e-05
113,724.43596,7.76561263237462e-05
114,726.56,7.847536028428789e-05
115,734.97,8.214447348662812e-05
116,745.19,9.204309492871101e-05
117,755.56,9.900738511994384e-05
118,764.31,0.00010570903882035726
119,774.9399999999999,0.00011538615351011667
120,785.72,0.00012510091694902602
121,794.8199999999999,0.00013197989439745598
122,805.8800000000001,0.00013938632883477855
123,815.2099999999999,0.0001464098310319051
124,824.65,0.00016165585897840828
125,831.763771,0.0001440700611463445
126,834.1999999999999,0.0001377428492936864
127,845.8000000000001,0.0001728961775949251
128,855.6,0.0001794136204701095
129,865.51,0.0001940723330102195
130,875.5300000000001,0.00020991061521525496
131,885.6700000000001,0.00023115120978202738
132,895.9200000000001,0.0002463286740137254
133,904.21,0.0002461202696703865
134,914.68,0.0004013186732319356
135,925.27,0.0030803726891552212
136,935.99,0.006960031660137056
137,944.65,0.013862531235575739
138,954.992586,0.020354500722288688
139,955.59,0.020729536467163818
140,964.4300000000001,0.022210256681366607
141,975.5999999999999,0.0030986503230685516
142,984.6199999999999,0.016776083098194023
143,996.02,0.01979737862329717
144,1005.24,0.03253936368833674
145,1014.5400000000001,0.03276477766934194
146,1023.93,0.014446840430808473
147,1035.79,0.02145602972271403
148,1045.3700000000001,0.046379069909598954
149,1055.04,0.046059718876945224
150,1064.8,0.03430752662475283
151,1074.66,0.04318496301751748
152,1084.6,0.032240668326247765
153,1094.64,0.0471317422799351
154,1096.4782,0.04676562494702959
155,1104.76,0.04511588613715622
156,1114.99,0.042396222278852445
157,1125.3,0.03752815502771738
158,1135.72,0.05203303311143924
159,1146.22,0.04691365780232981
160,1154.17,0.05155607063971838
161,1164.8500000000001,0.05348954769673849
162,1175.63,0.03446157051271947
163,1183.78,0.053365374868029766
164,1194.73,0.034066910474244205
165,1205.78,0.022461121839419514
166,1214.1399999999999,0.01776224728854762
167,1225.3799999999999,0.03795756059574857
168,1233.87,0.06084773053152579
169,1245.29,0.06671257620485628
170,1253.92,0.06255116020317872
171,1258.92541,0.05858613677072989
172,1265.52,0.05336254781517635
173,1274.29,0.07115722427096385
174,1286.09,0.07485377986712034
175,1295.0,0.05447996674523513
176,1303.9799999999998,0.05561983383451354
177,1316.04,0.07365469021499214
178,1325.1599999999999,0.06937913772659783
179,1334.35,0.05959544544936717
180,1343.6000000000001,0.07519939335313391
181,1356.03,0.07297995084976318
182,1365.43,0.06371147920602345
183,1374.9,0.06779874777344734
184,1384.43,0.06905592652186865
185,1394.02,0.058106625451287364
186,1403.6899999999998,0.061406924622035945
187,1413.4199999999998,0.06356427397378193
188,1426.49,0.06625450340105019
189,1436.3799999999999,0.06671321323545594
190,1443.0100000000002,0.07099315323566929
191,1445.43977,0.0717117741636286
192,1446.3400000000001,0.0719780228445917
193,1456.36,0.06969721821343897
194,1466.46,0.0635642937848319
195,1476.62,0.06460128950813411
196,1483.44,0.06610111677515391
197,1493.72,0.06748914280227465
198,1504.08,0.06255086903194107
199,1511.0199999999998,0.05460610660277939
200,1517.9899999999998,0.05945979424957235
201,1525.0,0.05837851199763815
202,1535.57,0.049573868758987
203,1546.21,0.054481165697563325
204,1553.35,0.05214896377476586
205,1564.12,0.05410558104247894
206,1574.96,0.05797666848741948
207,1585.88,0.06154918613490572
208,1593.1999999999998,0.06240424466783605
209,1604.24,0.06240472261914081
210,1615.3600000000001,0.06356513077299125
211,1626.56,0.0601505891293874
212,1634.07,0.06519547814336374
213,1645.3899999999999,0.0661018068035784
214,1656.8,0.06169068569165697
215,1659.58691,0.06391631907361447
216,1664.45,0.06780007266330536
217,1672.13,0.06154929466201526
218,1675.98,0.06795348584626436
219,1683.72,0.07132246895433918
220,1695.3899999999999,0.06702546472581632
221,1703.22,0.06444927949793851
222,1715.02,0.05987474767303965
223,1726.91,0.05987444751218818
224,1734.88,0.06460300487282852
225,1746.91,0.06313049730049519
226,1754.9699999999998,0.06764388632518292
227,1763.07,0.06255366608944726
228,1775.29,0.06298428203010285
229,1783.49,0.06519811364330873
230,1795.85,0.06986393217248246
231,1804.1399999999999,0.07050931544973571
232,1816.6399999999999,0.0628438365674276
233,1825.03,0.0659515116936224
234,1833.45,0.06313242737449966
235,1846.16,0.05771402237496876
236,1854.6799999999998,0.056661399904787545
237,1863.24,0.05892046817418295
238,1876.16,0.06625862705742928
239,1884.8200000000002,0.05946403717576622
240,1893.52,0.05614032803367977
241,1905.46072,0.06132556073933093
242,1906.64,0.06183761070475796
243,1915.4399999999998,0.05784531097381148
244,1924.29,0.05692187005121188
245,1933.1699999999998,0.06070984841362043
246,1946.57,0.06240792905058828
247,1955.55,0.05744799502969061
248,1969.1100000000001,0.06460427185336853
249,1978.2,0.06733341521083404
250,1982.76,0.06284276653207085
251,1996.5,0.06126870906579758
252,2005.72,0.06460300932496502
253,2014.98,0.06198145863080996
254,2024.28,0.06640912698333241
255,2033.62,0.0611263743825324
256,2043.01,0.06400767059007928
257,2057.17,0.061125583113919926
258,2066.66,0.06183323693816059
259,2076.2,0.06671381957074814
260,2085.79,0.06504843101168259
261,2095.41,0.061125101737625184
262,2105.09,0.06269274103358405
263,2114.8,0.06356454961455105
264,2124.56,0.06474774700386494
265,2134.37,0.06112383320152574
266,2144.22,0.061406758445864046
267,2154.12,0.06459994249854925
268,2164.06,0.06327480559791196
269,2174.0499999999997,0.06283858750562157
270,2184.09,0.060986858221678084
271,2187.7616199999998,0.06208602023291305
272,2194.17,0.0640047524872683
273,2204.2999999999997,0.06269076497673937
274,2214.4700000000003,0.060285118226287335
275,2224.69,0.058105382425931405
276,2234.96,0.06140648757567158
277,2245.28,0.05959477367550786
278,2255.64,0.05717721053542103
279,2266.05,0.0591878683454303
280,2276.5099999999998,0.06042797710553568
281,2287.02,0.06169069681573717
282,2297.5699999999997,0.05837898728601553
283,2302.87,0.05837903799620277
284,2313.5,0.055623389986634915
285,2324.1800000000003,0.042982902927163155
286,2334.91,0.05239333681778751
287,2345.69,0.05203330165850797
288,2356.51,0.05461173725930531
289,2367.39,0.051558254000217976
290,2372.85,0.052396247750712756
291,2383.8,0.050039615821759975
292,2394.8,0.05300431484290329
293,2405.86,0.05085389500416195
294,2416.96,0.052038855925497486
295,2422.5299999999997,0.053991701766203694
296,2433.7200000000003,0.05180107439771222
297,2444.95,0.05461837778929763
298,2456.23,0.05399428213097915
299,2467.57,0.053746827612775994
300,2473.2599999999998,0.05204311573371286
301,2484.68,0.05387237273566347
302,2496.14,0.050048040497690974
303,2507.67,0.055001739589853015
304,2511.88643,0.05172633202225543
305,2513.45,0.050511678211251985
306,2519.24,0.052770515630178386
307,2525.0499999999997,0.05062893290201989
308,2536.7000000000003,0.05121559722507559
309,2542.55,0.049820274202747344
310,2554.29,0.05252920786392107
311,2566.08,0.05169069115738259
312,2577.92,0.0542511040831319
313,2583.86,0.053754740398921676
314,2595.79,0.05350804266278901
315,2607.77,0.05193116455894414
316,2613.78,0.051574080359936825
317,2625.85,0.052775721594209984
318,2637.9700000000003,0.05363350246077094
319,2644.05,0.05629033774696653
320,2656.2599999999998,0.05681304795164551
321,2662.3799999999997,0.05289906294367134
322,2674.67,0.05501055256001078
323,2687.01,0.05450753180863802
324,2693.2099999999996,0.05290040621232432
325,2705.6400000000003,0.053636964799069584
326,2718.13,0.0520560329445602
327,2724.39,0.052176786906991846
328,2736.9700000000003,0.05401022439060049
329,2743.28,0.049146667985319935
330,2755.94,0.04960178488058904
331,2762.29,0.05075696818113872
332,2775.0399999999995,0.05254096441452586
333,2787.85,0.05146389020665835
334,2794.28,0.04513631291886849
335,2807.1800000000003,0.04759065804911901
336,2813.6499999999996,0.05230101046715938
337,2826.6400000000003,0.05315128493552793
338,2833.1499999999996,0.05087750705939854
339,2846.23,0.05041136086588511
340,2852.79,0.049835032622043515
341,2865.96,0.05254527576664811
342,2872.56,0.05206407722863675
343,2884.0315,0.05196104350545067
344,2885.82,0.05194499259524458
345,2892.48,0.05158748159287286
346,2912.5299999999997,0.05389531857522228
347,2932.71,0.05267039553800587
348,2953.04,0.05182953247821353
349,2966.67,0.052309870426813156
350,2987.24,0.05207050733089931
351,3007.94,0.05231196421541965
352,3028.79,0.05231331107736405
353,3049.79,0.05195386791673252
354,3070.93,0.0518362847350301
355,3092.22,0.051717781530751746
356,3106.4900000000002,0.051481199383027365
357,3128.0200000000004,0.0508936161426275
358,3149.7000000000003,0.0508948528796517
359,3171.54,0.050429199592594905
360,3193.5200000000004,0.04883143628446723
361,3208.26,0.0497396640660049
362,3230.5,0.0484974307187456
363,3252.89,0.049513787348910356
364,3267.91,0.05008761508830627
365,3290.56,0.04962984167933939
366,3311.31121,0.0495273106575552
367,3313.37,0.049517132632807624
368,3321.0099999999998,0.04985991065176374
369,3328.66,0.05043827864194885
370,3336.3399999999997,0.05067093654582096
371,3344.03,0.048391344420922064
372,3351.7400000000002,0.049976682238481174
373,3359.46,0.04828086002726929
374,3367.21,0.048615997729744405
375,3374.97,0.046535705403448514
376,3382.75,0.04718339301961062
377,3390.5499999999997,0.04952063057823074
378,3398.36,0.049864548108079845
379,3406.2,0.04795100555161596
380,3414.05,0.04850667296638107
381,3421.92,0.04952238032360418
382,3429.81,0.049295257623285293
383,3437.71,0.04986678489419541
384,3445.64,0.04675401207879252
385,3453.58,0.04952408923461864
386,3461.54,0.04675526633290275
387,3469.52,0.047515043373644865
388,3477.52,0.04654109035684498
389,3485.54,0.0470800472825031
390,3493.5699999999997,0.047516214179390205
391,3501.63,0.04762571098996433
392,3509.7,0.04664975777176744
393,3517.79,0.046116304496028555
394,3525.9,0.047082161162747674
395,3534.03,0.04817880777192479
396,3542.17,0.04918797435233091
397,3550.34,0.04952873084642402
398,3558.52,0.04829117731174614
399,3566.73,0.049075573690755256
400,3574.9500000000003,0.046013140040993376
401,3583.19,0.04475946633368949
402,3591.45,0.04364136256884361
403,3599.73,0.046977348746455726
404,3608.0299999999997,0.046014694866525846
405,3616.34,0.046547640957824966
406,3624.6800000000003,0.04785150696281109
407,3633.04,0.05022209291025521
408,3641.41,0.048742178828928326
409,3649.8,0.04752359469005944
410,3658.22,0.04964844046487756
411,3666.65,0.04908124621092469
412,3674.51,0.0625631135969188
413,3677.2500000000005,0.04903812571366484
414,3679.9900000000002,0.04173800783041088
415,3682.73,0.06021324994715691
416,3685.4700000000003,0.048692642063902954
417,3688.21,0.047308244180648995
418,3690.9500000000003,0.05069184629739504
419,3693.68,0.04241413844291208
420,3696.42,0.05067337055965811
421,3699.1600000000003,0.050210182676404154
422,3701.9,0.04427573479315019
423,3704.6400000000003,0.03857570690989623
424,3707.38,0.03789056902664227
425,3710.12,0.04460347114338831
426,3712.86,0.04806352326013435
427,3715.6,0.042682845376880385
428,3718.34,0.06745483749362643
429,3721.08,0.12733090961037247
430,3723.8100000000004,0.24100320175588952
431,3726.55,0.3908099938726356
432,3729.29,0.4165552859893816
433,3732.03,0.3244785781061276
434,3734.77,0.16927577022287368
435,3737.51,0.0716391623396197
436,3740.25,0.06247791445636574
437,3742.99,0.03580169657311178
438,3745.73,0.04171227868985782
439,3748.47,0.047652300806603855
440,3751.21,0.0437160229233499
441,3753.94,0.044529295068866936
442,3756.68,0.041225457185612976
443,3759.42,0.053602689302359015
444,3762.16,0.05259821141910505
445,3764.9,0.04904353353585109
446,3767.64,0.04311080565259713
447,3770.3799999999997,0.04293355776934317
448,3773.12,0.04559920988608921
449,3775.8599999999997,0.05408432200283524
450,3778.6,0.047743934119581284
451,3781.33,0.058435276265098327
452,3784.0699999999997,0.058735328381844365
453,3786.81,0.05133781049859041
454,3789.5499999999997,0.04312891261533644
455,3792.29,0.04248907473208248
456,3795.0299999999997,0.04981913684882852
457,3797.77,0.04858138896557456
458,3800.51,0.048304481082320605
459,3801.8939600000003,0.04659797865629574
460,3803.2500000000005,0.04492590401198285
461,3805.9900000000002,0.05608067777129872
462,3808.73,0.0577101815306146
463,3811.46,0.0539496953127067
464,3814.2,0.052036449072022574
465,3816.9399999999996,0.05330868283133845
466,3819.68,0.05202279659065433
467,3822.42,0.05238344034997021
468,3825.1600000000003,0.04869968410928609
469,3827.9,0.04491003786860196
470,3830.6400000000003,0.04375665162791784
471,3833.38,0.04995090538723372
472,3836.12,0.0533316691465496
473,3838.86,0.05189857290586548
474,3841.5899999999997,0.04938485668795757
475,3844.3300000000004,0.05299496044727345
476,3847.07,0.04587205420658932
477,3849.8100000000004,0.0516739379659052
478,3852.55,0.05987879172522107
479,3855.29,0.05196320548453695
480,3858.03,0.05704203924385283
481,3860.77,0.06123758300316871
482,3863.51,0.0649122167624846
483,3866.25,0.07446404052180047
484,3868.98,0.08277630430389256
485,3871.7200000000003,0.07520607806320843
486,3874.46,0.06394419182252431
487,3877.2000000000003,0.061101795581840194
488,3879.94,0.05774415934115607
489,3882.68,0.058684023100471945
490,3885.42,0.06618055685978783
491,3888.16,0.0693399406191037
492,3890.9,0.06877370437841958
493,3893.64,0.05754015813773545
494,3896.3799999999997,0.05162781189705133
495,3899.11,0.049162785679143436
496,3901.85,0.0525107294384593
497,3904.59,0.053899033197775184
498,3907.33,0.05711561695709106
499,3910.0699999999997,0.055829730716406935
500,3912.81,0.052688394475722815
501,3915.5499999999997,0.055295738235038694
502,3918.29,0.04841745199435457
503,3921.0299999999997,0.053084645753670445
504,3923.77,0.056416719512986324
505,3926.5099999999998,0.0560175232723022
506,3929.24,0.0463548870543943
507,3931.98,0.04560577081371018
508,3934.72,0.046201954573026054
509,3937.46,0.048560178332341934
510,3940.2,0.05296069209165781
511,3942.9399999999996,0.05470174585097369
512,3945.68,0.05705316961028957
513,3948.42,0.05991247336960544
514,3951.1600000000003,0.054085617128921314
515,3953.9,0.056140910888237194
516,3956.6400000000003,0.05739841464755307
517,3959.37,0.05650745842964516
518,3962.1099999999997,0.046203032188961046
519,3964.85,0.04802109594827692
520,3967.5899999999997,0.0563097497075928
521,3970.3300000000004,0.05628028346690868
522,3973.07,0.059029177226224555
523,3975.8100000000004,0.049767720985540435
524,3978.55,0.04974221474485631
525,3981.29,0.053831318504172186
526,3984.03,0.054967662263488065
527,3986.7599999999998,0.057862916045580165
528,3989.5000000000005,0.05848570980489604
529,3992.2400000000002,0.05806102356421192
530,3994.98,0.054706787323527795
531,3997.7200000000003,0.05290452108284367
532,4000.46,0.06104483484215954
533,4003.2000000000003,0.05703039860147542
534,4005.94,0.0589894323607913
535,4008.68,0.06636139612010719
536,4011.42,0.061293819879423055
537,4014.16,0.05761346363873893
538,4016.8900000000003,0.06647484742083103
539,4019.63,0.0688981811801469
540,4022.37,0.06808279493946279
541,4025.11,0.06990027869877866
542,4027.85,0.06946426245809453
543,4030.59,0.06536488621741042
544,4033.33,0.06606695997672629
545,4036.0699999999997,0.06028030373604217
546,4038.81,0.05706988749535805
547,4041.5499999999997,0.06114652125467393
548,4044.29,0.0688129050139898
549,4047.02,0.06689375879608189
550,4049.76,0.06225649255539778
551,4052.5,0.06276604631471365
552,4055.24,0.06312838007402953
553,4057.98,0.06095977383334541
554,4060.72,0.06281689759266129
555,4063.46,0.058434431351977165
556,4066.2,0.06411343511129304
557,4068.9399999999996,0.06506462887060892
558,4071.68,0.06907898262992479
559,4074.41,0.0681620264120169
560,4077.15,0.06454959017133277
561,4079.89,0.06061443393064865
562,4082.6299999999997,0.06025201768996453
563,4085.37,0.057245431449280404
564,4088.1099999999997,0.06004811520859628
