,lambda (Angstroms),Total Flux (erg/s/cm^2/Angstrom)
0,100.04,13.433555519087085
1,101.89999999999999,13.396186264056398
2,104.03,13.353392439747063
3,104.712855,13.33967320176643
4,105.97,13.207000314897288
5,107.94,12.999096224969545
6,109.94999999999999,12.786970732200631
7,114.07000000000001,12.352166239559873
8,118.08000000000001,11.928970604732342
9,120.22644299999999,11.702445590266988
10,121.11,11.624268398267777
11,125.08,11.27300248985796
12,127.11,11.093387932157237
13,127.99,11.01552546379437
14,130.97,10.751854832292862
15,131.88,10.671337961599466
16,134.02,10.481990595353462
17,137.14000000000001,10.2059327529762
18,138.038426,10.126439950702014
19,140.02,10.001117060794682
20,142.95000000000002,9.815811809803286
21,146.95,9.562835357938415
22,151.07,9.30226961251849
23,154.95,9.056882454212003
24,158.489319,8.83304136355665
25,158.92,8.812448907511442
26,161.87,8.67139846569389
27,166.03,8.472493435880109
28,169.89000000000001,8.28793251880066
29,173.05,8.136841198087005
30,177.08,7.944151950479737
31,179.96,7.806448468329901
32,181.970086,7.710338801104495
33,182.04000000000002,7.707788527486848
34,185.85999999999999,7.568445259789081
35,191.06,7.378763324736996
36,194.17000000000002,7.265318936688573
37,197.78,7.133635901108539
38,201.92000000000002,6.9826198991218655
39,205.2,6.862974371017512
40,208.929613,6.726928176943151
41,209.98,6.6981222029978165
42,215.86,6.536868182777886
43,219.88,6.426623087504449
44,222.94000000000003,6.342705179273626
45,227.07999999999998,6.22916918598213
46,230.23999999999998,6.142508908190836
47,233.98,6.03994258609072
48,239.88329199999998,5.878049820547906
49,239.98,5.876006062176138
50,246.14000000000001,5.745824988612426
51,251.87,5.62473123734112
52,257.15,5.513147461534761
53,260.12,5.45038159824999
54,263.74,5.373879099860661
55,269.26,5.25722334929979
56,274.27,5.15134558451712
57,275.42287,5.126981654198776
58,278.72999999999996,5.073343804184953
59,283.90999999999997,4.9893301588813355
60,289.85,4.892990192750438
61,295.92,4.794541779807018
62,300.73,4.716529104393618
63,307.74,4.602835005511273
64,316.227766,4.465173284290351
65,317.82,4.445885155102106
66,328.22999999999996,4.319779686532556
67,338.20000000000005,4.199004363564246
68,347.68,4.0841648850591366
69,356.59999999999997,3.9761092178528283
70,363.078055,3.8976349651661706
71,365.75000000000006,3.873395113929089
72,375.13,3.788299871399163
73,384.75,3.7010273927583808
74,394.61999999999995,3.6114870381869584
75,404.74,3.519678704307893
76,414.17,3.4341300346950376
77,416.86938299999997,3.4096413312754597
78,421.87,3.3749975532177214
79,429.71000000000004,3.320682838490678
80,440.74,3.244268240479329
81,451.0,3.1731881073835018
82,460.45000000000005,3.1077195454470026
83,470.09000000000003,3.040934839091674
84,478.630092,2.981770201565301
85,479.93,2.9748441028903296
86,489.98,2.9212961696405038
87,500.24,2.8666294935196013
88,506.03000000000003,2.835779831656051
89,511.89,2.8045577985724752
90,520.2099999999999,2.760227713613713
91,529.88,2.708704780935883
92,539.73,2.656222573940845
93,549.5408739999999,2.6039490782796793
94,549.77,2.6030177908280154
95,559.99,2.561478958694134
96,570.4,2.5191674687232526
97,579.67,2.4814895091543705
98,590.4399999999999,2.437714886846542
99,600.04,2.3986955260612914
100,609.79,2.359066529283146
101,619.6999999999999,2.31878804839858
102,629.76,2.277899183411119
103,630.957344,2.2730326191017993
104,640.0,2.2438968812588946
105,650.4,2.2103873456227734
106,657.9300000000001,2.1861251322675908
107,665.5500000000001,2.1615734519476058
108,674.81,2.131737589275656
109,685.77,2.0964233287152045
110,695.31,2.0656855881660903
111,704.98,2.034527883421148
112,716.4399999999999,1.9976040880629031
113,724.43596,1.9718408800325538
114,726.4,1.967143602539733
115,734.82,1.9470060014891746
116,745.04,1.922563171648165
117,755.4,1.8977855401946755
118,764.15,1.8768584253697012
119,774.7800000000001,1.8514354818571435
120,785.5600000000001,1.8256533190562156
121,794.65,1.8039135273609341
122,805.71,1.7774618988250466
123,815.04,1.7551480472183711
124,824.4799999999999,1.7325711502968906
125,831.763771,1.7151498531743807
126,835.95,1.707665711556579
127,845.63,1.690362771813892
128,855.4200000000001,1.6728615399712876
129,865.3199999999999,1.6551641780287671
130,875.34,1.6372520033608822
131,885.48,1.6191251594976337
132,895.73,1.6008016958044682
133,904.02,1.5859820514989127
134,914.49,1.5672809656259132
135,925.08,1.54839727172755
136,935.79,1.5292999930338231
137,944.45,1.513890687056729
138,954.992586,1.4950774289964988
139,955.38,1.4944010495757905
140,964.2299999999999,1.4789690528958732
141,975.39,1.459331034462892
142,984.4200000000001,1.4436770112372808
143,995.8100000000001,1.4237492034570254
144,1005.03,1.4076538389054052
145,1014.3299999999999,1.3913824714112546
146,1026.07,1.3707271803199286
147,1035.57,1.3542246802194517
148,1045.1499999999999,1.337534754276445
149,1054.8200000000002,1.320627469010591
150,1064.58,1.3035433778218912
151,1074.43,1.2863398824103445
152,1084.3700000000001,1.2689340412759507
153,1094.4099999999999,1.251416044238395
154,1096.4782,1.2477983335157685
155,1104.53,1.236266818773275
156,1114.75,1.2216407957989455
157,1125.07,1.2068524858536347
158,1135.48,1.1919753913044404
159,1145.98,1.176936388551362
160,1153.93,1.165565953508317
161,1164.6,1.1502991588145701
162,1175.38,1.1348145906827432
163,1186.26,1.1192904592799349
164,1194.48,1.1075007258252392
165,1205.53,1.0916446293817617
166,1213.8899999999999,1.0795239108876922
167,1225.12,1.0636244239364476
168,1233.61,1.0515281304701016
169,1245.03,1.035198265743992
170,1253.66,1.0228572777382714
171,1258.92541,1.0153213690512246
172,1265.26,1.0088600154600995
173,1274.03,0.9999371379898152
174,1285.81,0.9879321466194675
175,1294.73,0.9788199823780838
176,1303.7,0.9696826793463335
177,1315.77,0.95740288411186
178,1324.8899999999999,0.9481047537090106
179,1334.07,0.9387417487377209
180,1346.41,0.9261860279952683
181,1355.75,0.916674585074806
182,1365.1399999999999,0.9071043618639771
183,1374.61,0.8974634782285619
184,1384.13,0.8877791588027799
185,1393.73,0.8779600623524119
186,1403.3899999999999,0.868119831933604
187,1416.3799999999999,0.8549494655163871
188,1426.19,0.8449612873264793
189,1436.0800000000002,0.8349077727119855
190,1442.71,0.8281734871493874
191,1445.43977,0.8254022204353458
192,1446.0300000000002,0.824984997874416
193,1456.0600000000002,0.817870659606017
194,1466.1499999999999,0.8107145434825729
195,1476.3100000000002,0.8035214820282421
196,1486.5500000000002,0.7962794997671848
197,1493.41,0.7914388203403436
198,1503.76,0.7841160608450365
199,1510.7,0.7791976006114681
200,1517.67,0.7742617759503774
201,1524.6799999999998,0.769316168385923
202,1535.25,0.7618239464221166
203,1545.89,0.7542752631274239
204,1556.6,0.7467366865018454
205,1563.79,0.7417204723722552
206,1574.6299999999999,0.7341602095607452
207,1585.54,0.7265596954183491
208,1596.53,0.7188522934692259
209,1603.9,0.7136054167744998
210,1615.02,0.7058641566394452
211,1626.2199999999998,0.6979765556976638
212,1633.7199999999998,0.6927480068170064
213,1645.0500000000002,0.6849633486892932
214,1656.4499999999998,0.6767639792306942
215,1659.58691,0.674768215573163
216,1664.1000000000001,0.672860535670241
217,1671.78,0.6688306503447198
218,1675.6299999999999,0.6675257264093999
219,1683.37,0.6638957224485229
220,1695.03,0.658123991644411
221,1706.78,0.6525402443872659
222,1714.66,0.6489844866105589
223,1726.55,0.6432913375375839
224,1734.52,0.6397684623078437
225,1746.54,0.6339118606915981
226,1754.6000000000001,0.6303544920088243
227,1766.76,0.623966200576749
228,1774.92,0.6204587251683824
229,1783.11,0.6167518209423383
230,1795.47,0.6111541110590774
231,1803.76,0.6078030691074405
232,1816.26,0.6018901844083498
233,1824.6499999999999,0.5976051177311201
234,1833.07,0.5938386292362126
235,1845.77,0.5869674970859364
236,1854.2900000000002,0.5833906798654361
237,1867.1499999999999,0.5777026603542118
238,1875.77,0.5736265394081188
239,1884.42,0.5696106766443481
240,1893.1200000000001,0.5658249295177809
241,1905.46072,0.5597593249255752
242,1906.2399999999998,0.5594802234359859
243,1915.04,0.5569333673007714
244,1923.88,0.5540239804103966
245,1937.22,0.5486093735645144
246,1946.16,0.5469016297862397
247,1955.1399999999999,0.5439789452528049
248,1968.6899999999998,0.5400377169423325
249,1977.7800000000002,0.5367789178322073
250,1982.34,0.5353107617439598
251,1996.0800000000002,0.530555767346477
252,2005.3000000000002,0.5270810882820818
253,2014.55,0.5243919561513165
254,2023.8500000000001,0.520432495576601
255,2033.19,0.5186007042467256
256,2047.29,0.5144578730528022
257,2056.74,0.5101388371462366
258,2066.23,0.5072117404845109
259,2075.77,0.5059468153788351
260,2085.35,0.5031697995179992
261,2094.97,0.49965116290200334
262,2104.6400000000003,0.4961142078420571
263,2114.36,0.49360280433816106
264,2124.12,0.4902282600791051
265,2133.92,0.4860624550648887
266,2143.77,0.48420127160672244
267,2153.67,0.48089306970460605
268,2163.61,0.47678949704732954
269,2173.59,0.47371237363489305
270,2183.63,0.47128602408971637
271,2187.7616199999998,0.470507307869689
272,2193.71,0.4700899174683672
273,2203.83,0.46740718803095027
274,2214.0,0.4640733455725974
275,2224.2200000000003,0.46278012009330866
276,2234.4900000000002,0.46269893159308406
277,2244.8,0.4594953946761108
278,2255.17,0.45597895013401457
279,2265.57,0.4534679517793568
280,2276.03,0.4524888657995759
281,2286.54,0.4514078767988593
282,2297.09,0.44785432938139397
283,2302.39,0.4483559591621934
284,2313.01,0.44631835951541776
285,2323.69,0.44191526224351924
286,2334.42,0.44018236195068483
287,2345.19,0.43533684324110167
288,2356.02,0.4377641469063956
289,2366.8900000000003,0.4319022321549407
290,2372.35,0.43328052826874547
291,2383.2999999999997,0.4264815066837933
292,2394.3,0.4266699120779051
293,2405.35,0.4241692844510813
294,2416.45,0.4225004938033216
295,2427.61,0.42435989553043874
296,2433.2000000000003,0.42298315178981016
297,2444.43,0.42229334128761725
298,2455.7200000000003,0.41998292316030117
299,2467.05,0.41776124661623654
300,2472.74,0.41505395683373636
301,2484.15,0.4108017934561742
302,2495.62,0.4083361524534892
303,2507.14,0.4109600884298682
304,2511.88643,0.40545587920301324
305,2512.92,0.4043224962645866
306,2518.71,0.4014186418151475
307,2524.52,0.40052741978557227
308,2536.1699999999996,0.4010724543562175
309,2547.88,0.40015241618645386
310,2553.75,0.40307191141647
311,2565.54,0.40049975292616147
312,2577.38,0.4016671454855124
313,2583.32,0.40069217418505165
314,2595.24,0.3981817164238578
315,2607.2200000000003,0.39500549592225503
316,2613.2300000000005,0.3927279480913174
317,2625.2999999999997,0.39531001347910183
318,2637.4199999999996,0.39673225991654554
319,2643.49,0.40227356934519926
320,2655.7,0.4030781016720299
321,2667.95,0.3968373688385881
322,2674.1,0.39884540794669693
323,2686.4500000000003,0.3989733872125739
324,2692.64,0.3937419611604103
325,2705.07,0.39423492010574246
326,2717.55,0.38807446010073393
327,2723.82,0.3873514537280253
328,2736.3900000000003,0.3882325996124038
329,2742.7000000000003,0.37970431807942273
330,2755.36,0.3816024298531882
331,2768.08,0.384412398886545
332,2774.46,0.3863715808230872
333,2787.27,0.3797076057458309
334,2793.6899999999996,0.36070961252210065
335,2806.59,0.36303434333423124
336,2813.06,0.38329408116016034
337,2826.0400000000004,0.384570881651746
338,2832.56,0.3830303605273347
339,2845.63,0.3780478069083073
340,2852.19,0.3686356606236234
341,2865.35,0.37885918289398307
342,2871.96,0.3798591676589586
343,2884.0315,0.3783471570879612
344,2885.22,0.3782626649146579
345,2891.8700000000003,0.3789326693675207
346,2911.91,0.3833627732976518
347,2932.1000000000004,0.3805848248470203
348,2952.42,0.37820454833306133
349,2972.8900000000003,0.3781310394383399
350,2986.61,0.37877180767793067
351,3007.3100000000004,0.3783622191327067
352,3028.16,0.3779854382067204
353,3049.15,0.378596787058689
354,3070.28,0.37686972568861254
355,3091.56,0.37537583193777374
356,3112.99,0.3748707058061724
357,3127.36,0.3737929037291256
358,3149.04,0.37255642362958674
359,3170.87,0.3736646111492854
360,3192.85,0.3682765662882216
361,3207.59,0.37113678433862735
362,3229.8199999999997,0.3667217855096261
363,3252.21,0.37267885214114466
364,3267.2200000000003,0.37751721190617793
365,3289.87,0.3761670224110417
366,3311.31121,0.3749003717621496
367,3312.6699999999996,0.3748717097213323
368,3320.3100000000004,0.3763697408293485
369,3327.9599999999996,0.3695703495958832
370,3335.63,0.37564571367945443
371,3343.32,0.37340373308006236
372,3351.0299999999997,0.3678307077977071
373,3358.75,0.3758302601738701
374,3366.5,0.3652657455255881
375,3374.26,0.3521280085358245
376,3382.04,0.3644864268630976
377,3389.83,0.371494122848889
378,3397.6499999999996,0.3701716518102355
379,3405.48,0.3720257584301003
380,3413.33,0.3713335203670018
381,3421.2,0.37721953762094
382,3429.09,0.3725378101919149
383,3436.99,0.37650316042140813
384,3444.91,0.36380256596793803
385,3452.8599999999997,0.38489430449002304
386,3460.8100000000004,0.37576364301210796
387,3468.79,0.372018514509748
388,3476.79,0.37435544132442466
389,3484.8,0.3820886457976197
390,3492.8399999999997,0.37745518324636984
391,3500.89,0.37464869835363823
392,3508.96,0.3760379687779433
393,3517.0499999999997,0.3697854945192851
394,3525.16,0.3718411755776636
395,3533.2799999999997,0.38121413429456047
396,3541.43,0.3862078259870123
397,3549.59,0.38671719533798254
398,3557.77,0.3815026200059895
399,3565.9800000000005,0.3889350776495514
400,3574.2000000000003,0.36755521295163174
401,3582.44,0.37619230357074873
402,3590.69,0.3574624718483841
403,3598.9700000000003,0.38088877310157443
404,3607.27,0.37870692967180153
405,3615.58,0.3776692639005469
406,3623.92,0.3770063311048474
407,3632.2700000000004,0.39349507596766614
408,3637.63,0.4208164009334996
409,3640.35,0.39548392405048965
410,3643.0699999999997,0.38424274716747975
411,3645.79,0.3676122702844698
412,3648.5099999999998,0.3687962934014599
413,3651.2299999999996,0.37817971651844995
414,3653.9500000000003,0.38853353963544
415,3656.67,0.3997312627524301
416,3659.3900000000003,0.3602002858694201
417,3662.11,0.40750770898641026
418,3664.83,0.3910511321034003
419,3667.55,0.39056315522039037
420,3670.27,0.3965422783373804
421,3672.98,0.3935907237958522
422,3675.7000000000003,0.3770328469128422
423,3678.42,0.41125137002983236
424,3681.14,0.39312569314682244
425,3683.86,0.38150191626381247
426,3686.58,0.37326663938080257
427,3689.2999999999997,0.37373006249779267
428,3692.0199999999995,0.36161638561478276
429,3694.7400000000002,0.39394140873177275
430,3697.46,0.38734663184876283
431,3700.1800000000003,0.37822955496575295
432,3702.9,0.384037978082743
433,3705.62,0.3986558011997331
434,3708.34,0.3911601243167232
435,3711.06,0.36114334743371324
436,3713.7799999999997,0.38204497055070336
437,3716.5,0.3699123936676934
438,3719.22,0.3835440167846835
439,3721.94,0.38361233990167354
440,3724.6600000000003,0.4010085630186636
441,3727.38,0.4160466861356537
442,3730.1,0.4087344092526438
443,3732.82,0.42034303236963383
444,3735.54,0.4437322554866239
445,3738.2599999999998,0.451023178603614
446,3740.98,0.4119663017206041
447,3743.7,0.38505042483759416
448,3746.4199999999996,0.3756709479545842
449,3749.13,0.38869119341305597
450,3751.85,0.37799361653004604
451,3754.5699999999997,0.3753214396470361
452,3757.29,0.35271686276402614
453,3760.0099999999998,0.3614712858810163
454,3762.73,0.40530820899800635
455,3765.4500000000003,0.4126402321149964
456,3768.17,0.3889261552319865
457,3770.89,0.4034207783489766
458,3773.61,0.4116220014659666
459,3776.33,0.39420122458295676
460,3779.0499999999997,0.4020642476999468
461,3781.77,0.40450637081693686
462,3784.49,0.412192393933927
463,3787.2099999999996,0.42799561705091704
464,3789.9300000000003,0.45548124016790703
465,3792.65,0.4607903632848972
466,3795.3700000000003,0.4417289864018872
467,3798.09,0.4332693095188773
468,3800.81,0.41315873263586744
469,3801.8939600000003,0.40477148179391254
470,3803.5299999999997,0.39215622088717544
471,3806.25,0.3722448057736484
472,3808.97,0.39436969066012134
473,3811.6899999999996,0.4172057755465943
474,3814.41,0.4347916604330673
475,3817.13,0.4329951453195402
476,3819.8500000000004,0.4245766302060131
477,3822.56,0.41677316992746233
478,3825.2799999999997,0.4295798548139353
479,3827.9999999999995,0.41580673970040827
480,3830.7200000000003,0.3885399245868812
481,3833.44,0.39539150947335416
482,3836.1600000000003,0.3790328943598271
483,3838.88,0.38754077924630004
484,3841.6,0.36765776413277307
485,3844.32,0.336803349019246
486,3847.04,0.358030633905719
487,3849.7599999999998,0.38003231879219196
488,3852.48,0.4057860036786649
489,3855.2,0.40744738856513785
490,3857.92,0.4156361734516108
491,3860.6400000000003,0.44915595833808375
492,3863.36,0.4488671432245568
493,3866.08,0.4545461281110297
494,3868.8,0.42416901299750265
495,3871.52,0.4437209978839757
496,3874.24,0.4691805827704486
497,3876.96,0.47364896765692155
498,3879.68,0.4366814525433945
499,3882.3999999999996,0.4247006374298675
500,3885.1200000000003,0.42219282231634037
501,3887.84,0.41949870720281335
502,3890.56,0.40465729208928636
503,3893.28,0.3880647769757593
504,3896.0,0.38399876186223225
505,3898.71,0.38952760158368144
506,3901.4300000000003,0.38725388647015435
507,3904.15,0.40695757135662736
508,3906.87,0.40948515624310033
509,3909.59,0.43137304112957325
510,3912.31,0.43562012601604627
511,3915.0299999999997,0.44918861090251916
512,3917.75,0.45872059578899216
513,3920.47,0.4660811806754651
514,3923.1899999999996,0.4625935655619381
515,3925.9100000000003,0.446323350448411
516,3928.63,0.454221235334884
517,3931.35,0.43783102022135695
518,3934.07,0.4243297051078299
519,3936.79,0.3994746899943029
520,3939.5099999999998,0.37679747488077586
521,3942.23,0.3387047597672488
522,3944.95,0.34970974465372173
523,3947.6699999999996,0.3838712295401947
524,3950.39,0.4121946144266677
525,3953.11,0.43321629931314065
526,3955.8300000000004,0.4447744841996136
527,3958.55,0.44841786908608655
528,3961.27,0.45182405397255954
529,3963.9900000000002,0.4500781388590325
530,3966.71,0.4247395237455055
531,3969.43,0.4102869086319785
532,3972.1400000000003,0.38017384835342755
533,3974.86,0.35387103323990055
534,3977.58,0.32757461812637345
535,3980.2999999999997,0.3371636030128464
536,3983.02,0.36178878789931945
537,3985.74,0.4014819727857924
538,3988.4599999999996,0.42983385767226534
539,3991.18,0.4554199425587383
540,3993.9,0.47134962744521125
541,3996.6200000000003,0.4815106123316842
542,3999.34,0.5034584972181572
543,4002.06,0.5129526821046302
544,4004.78,0.49705226699110316
545,4007.5,0.4734615518775761
546,4010.22,0.49669593676404905
547,4012.94,0.49849022165052204
548,4015.66,0.514464006536995
549,4018.3799999999997,0.522282891423468
550,4021.1000000000004,0.5185960763099409
551,4023.82,0.5528713611964138
552,4026.54,0.5270269460828868
553,4029.26,0.5227713309693598
554,4031.98,0.5285987158558327
555,4034.7,0.5493139007423057
556,4037.42,0.5395582856287786
557,4040.14,0.5188661705152515
558,4042.8599999999997,0.5235240554017245
559,4045.58,0.5109869402881975
560,4048.29,0.5430519800096467
561,4051.0099999999998,0.5523564648961197
562,4053.73,0.5292619497825926
563,4056.45,0.5145121346690655
564,4059.1699999999996,0.5262504195555386
565,4061.8900000000003,0.5259142044420115
566,4064.61,0.5286123893284844
567,4067.33,0.5313422742149574
568,4070.05,0.5127361591014303
569,4072.77,0.5110724439879033
570,4075.49,0.4947105288743763
571,4078.21,0.49570191376084927
572,4080.93,0.5049747986473223
573,4083.6499999999996,0.5206325835337952
574,4086.37,0.48950316842026814
575,4089.09,0.49381965330674105
576,4091.81,0.502744838193214
577,4094.53,0.504905723079687
578,4097.25,0.51929910796616
579,4099.97,0.5013251928526329
580,4102.69,0.505382677739106
581,4105.41,0.46315866262557887
582,4108.13,0.4282995475120518
583,4110.849999999999,0.42188173239852483
584,4113.57,0.4204835172849978
585,4116.29,0.43616660217147074
586,4119.01,0.4864421870579436
587,4121.7300000000005,0.5105836719444166
