,lambda (Angstroms),Total Flux (erg/s/cm^2/Angstrom)
0,100.04,8.955703679391391
1,101.89999999999999,8.930790842704267
2,104.03,8.902261626498044
3,104.712855,8.893115467844288
4,105.97,8.804666876598194
5,107.94,8.666064149979698
6,109.94999999999999,8.524647154800423
7,114.07000000000001,8.234777493039918
8,118.08000000000001,7.952647069821568
9,120.22644299999999,7.801630393511337
10,121.11,7.749512265511863
11,125.08,7.515334993238666
12,127.11,7.39559195477153
13,127.99,7.343683642529626
14,130.97,7.167903221528653
15,131.88,7.114225307733072
16,134.02,6.9879937302357735
17,137.14000000000001,6.8039551686510205
18,138.038426,6.750959967134938
19,140.02,6.6674113738634775
20,142.95000000000002,6.543874539869427
21,146.95,6.375223571959979
22,151.07,6.201513075014137
23,154.95,6.037921636144412
24,158.489319,5.888694242375962
25,158.92,5.874965938346042
26,161.87,5.780932310469888
27,166.03,5.648328957264991
28,169.89000000000001,5.5252883458851345
29,173.05,5.424560798749383
30,177.08,5.296101300356973
31,179.96,5.2042989789363645
32,181.970086,5.140225867462894
33,182.04000000000002,5.138525685051482
34,185.85999999999999,5.045630173279796
35,191.06,4.919175549959548
36,194.17000000000002,4.843545957966129
37,197.78,4.755757267646082
38,201.92000000000002,4.65507993307668
39,205.2,4.575316247757025
40,208.929613,4.484618785180762
41,209.98,4.465414802589962
42,215.86,4.357912122747115
43,219.88,4.2844153928335205
44,222.94000000000003,4.228470120921385
45,227.07999999999998,4.152779459119874
46,230.23999999999998,4.095005956089055
47,233.98,4.026628411711777
48,239.88329199999998,3.9186999076719067
49,239.98,3.917337402194296
50,246.14000000000001,3.8305500274766175
51,251.87,3.7498208694500796
52,257.15,3.675431692654608
53,260.12,3.6335877913134604
54,263.74,3.5825861354278077
55,269.26,3.5048156474692274
56,274.27,3.434230485157114
57,275.42287,3.4179878687330274
58,278.72999999999996,3.382229312923835
59,283.90999999999997,3.3262202347161574
60,289.85,3.2619936138651586
61,295.92,3.1963613635225796
62,300.73,3.144352928983979
63,307.74,3.068556902561582
64,316.227766,2.9767824810398165
65,317.82,2.963923739370371
66,328.22999999999996,2.8798535018477036
67,338.20000000000005,2.7993367046754973
68,347.68,2.7227771483917587
69,356.59999999999997,2.650740142178553
70,363.078055,2.5984240584313203
71,365.75000000000006,2.5822641925463934
72,375.13,2.5255341531187754
73,384.75,2.4673526397065872
74,394.61999999999995,2.407659252578639
75,404.74,2.346453888357929
76,414.17,2.2894216222903587
77,416.86938299999997,2.273095876978022
78,421.87,2.2500001304718147
79,429.71000000000004,2.2137904950507856
80,440.74,2.1628477114202194
81,451.0,2.115461215273335
82,460.45000000000005,2.071815740000335
83,470.09000000000003,2.0272928913631163
84,478.630092,1.9878500705383577
85,479.93,1.9832327126498865
86,489.98,1.9475343848370028
87,500.24,1.9110902909830678
88,506.03000000000003,1.8905241331473677
89,511.89,1.8697099297016506
90,520.2099999999999,1.8401568315324754
91,529.88,1.8058085938372557
92,539.73,1.7708207762505637
93,549.5408739999999,1.7359721790860694
94,549.77,1.7353513301253436
95,559.99,1.707659383012756
96,570.4,1.6794522054755021
97,579.67,1.654333993866247
98,590.4399999999999,1.6251514411943615
99,600.04,1.5991389391375277
100,609.79,1.572720033255431
101,619.6999999999999,1.5458684242457201
102,629.76,1.5186096633007462
103,630.957344,1.5153653577682304
104,640.0,1.4959420662859297
105,650.4,1.4736028596051824
106,657.9300000000001,1.4574283940417274
107,665.5500000000001,1.4410611278217376
108,674.81,1.4211711542004375
109,685.77,1.3976287018468032
110,695.31,1.37713758997406
111,704.98,1.3563661430174323
112,716.4399999999999,1.3317511909119355
113,724.43596,1.3145762043733182
114,726.4,1.3114448052931555
115,734.82,1.2980202529761165
116,745.04,1.28172556542211
117,755.4,1.2652076946431172
118,764.15,1.2512567290364676
119,774.7800000000001,1.2343088102314292
120,785.5600000000001,1.2171212632674773
121,794.65,1.2026286940172894
122,805.71,1.1849949180933645
123,815.04,1.1701196347389142
124,824.4799999999999,1.1550690062312605
125,831.763771,1.1434548717793915
126,835.95,1.1384654806043861
127,845.63,1.1269312611792617
128,855.4200000000001,1.115264303294192
129,865.3199999999999,1.1034667689491782
130,875.34,1.0915259349405884
131,885.48,1.0794419447984227
132,895.73,1.0672268884663123
133,904.02,1.057347604845942
134,914.49,1.0448860336139423
135,925.08,1.0323133674183667
136,935.79,1.0195986294892156
137,944.45,1.0093501828044862
138,954.992586,0.9968196964444469
139,955.38,0.9963692062505272
140,964.2299999999999,0.9860973732639157
141,975.39,0.9729664087085947
142,984.4200000000001,0.9625775016581875
143,995.8100000000001,0.9492908537046837
144,1005.03,0.9385713885036034
145,1014.3299999999999,0.927722565907503
146,1026.07,0.9139125089132858
147,1035.57,0.9029491675796347
148,1045.1499999999999,0.8918450459509635
149,1054.8200000000002,0.8805760412403942
150,1064.58,0.8691827068479276
151,1074.43,0.857722444473563
152,1084.3700000000001,0.8461123126173006
153,1094.4099999999999,0.8344483317922635
154,1096.4782,0.8320365250866423
155,1104.53,0.8243488503155169
156,1114.75,0.8146017419326306
157,1125.07,0.8047400854690898
158,1135.48,0.7948326094029602
159,1145.98,0.7848061901342415
160,1153.93,0.7772309968722113
161,1164.6,0.7670579417763802
162,1175.38,0.7567196260218289
163,1186.26,0.7463894858866232
164,1194.48,0.7385238892168262
165,1205.53,0.727942940154508
166,1213.8899999999999,0.7198131928917949
167,1225.12,0.7092747833242985
168,1233.61,0.7012315216467345
169,1245.03,0.6903534381959947
170,1253.66,0.6821323164255144
171,1258.92541,0.6771100560436467
172,1265.26,0.672804506606733
173,1274.03,0.6668662583598769
174,1285.81,0.6588702672463118
175,1294.73,0.6527937806187226
176,1303.7,0.646709171330889
177,1315.77,0.6385370699079067
178,1324.8899999999999,0.6323426816393405
179,1334.07,0.6261038381584806
180,1346.41,0.6177476983301788
181,1355.75,0.6114148685165375
182,1365.1399999999999,0.6050402745426514
183,1374.61,0.5986222459523746
184,1384.13,0.5921777977018534
185,1393.73,0.5856257982349413
186,1403.3899999999999,0.5790730841557361
187,1416.3799999999999,0.5703235083442582
188,1426.19,0.5636738948843196
189,1436.0800000000002,0.5569861708079904
190,1442.71,0.5525082240995917
191,1445.43977,0.5506659598160217
192,1446.0300000000002,0.5503889459162774
193,1456.0600000000002,0.545657226070678
194,1466.1499999999999,0.5408979813217154
195,1476.3100000000002,0.5361184196854948
196,1486.5500000000002,0.5313089411781233
197,1493.41,0.5280978492268958
198,1503.76,0.523233723896691
199,1510.7,0.5199638550743122
200,1517.67,0.5166837483002517
201,1524.6799999999998,0.5134033605906154
202,1535.25,0.5084220336147445
203,1545.89,0.503400873751616
204,1556.6,0.4984064490012303
205,1563.79,0.49509821358150363
206,1574.6299999999999,0.4901129840404969
207,1585.54,0.48510413161223276
208,1596.53,0.4800073953128173
209,1603.9,0.47651125618299994
210,1615.02,0.47141154309296357
211,1626.2199999999998,0.46618449313177596
212,1633.7199999999998,0.4627375632113377
213,1645.0500000000002,0.4576443374595288
214,1656.4499999999998,0.45215302882046293
215,1659.58691,0.45090243560726523
216,1664.1000000000001,0.4497456244468274
217,1671.78,0.44699350489647993
218,1675.6299999999999,0.4463291276062666
219,1683.37,0.44398687196568204
220,1695.03,0.44015508242960744
221,1706.78,0.4365262502581772
222,1714.66,0.43428153340703934
223,1726.55,0.43056659202505604
224,1734.52,0.42836973153856245
225,1746.54,0.42451296646106546
226,1754.6000000000001,0.4222965863392163
227,1766.76,0.41793142405116607
228,1774.92,0.41578157477892164
229,1783.11,0.4134372879615589
230,1795.47,0.40989598237271835
231,1803.76,0.40792419540496044
232,1816.26,0.4040910076055666
233,1824.6499999999999,0.40120183348741345
234,1833.07,0.3988362288241417
235,1845.77,0.3940780687239576
236,1854.2900000000002,0.39191877291029076
237,1867.1499999999999,0.38837034556947453
238,1875.77,0.38572838360541256
239,1884.42,0.38315167109623205
240,1893.1200000000001,0.38081339301185396
241,1905.46072,0.37680098498957054
242,1906.2399999999998,0.3766168956239906
243,1915.04,0.3751429615338476
244,1923.88,0.3733113736069311
245,1937.22,0.3695232190430097
246,1946.16,0.36890546652415984
247,1955.1399999999999,0.36707765016853666
248,1968.6899999999998,0.36478847796155506
249,1977.7800000000002,0.3626379585548049
250,1982.34,0.36172577116263993
251,1996.0800000000002,0.3586459982309847
252,2005.3000000000002,0.3562954488547212
253,2014.55,0.3547341041008777
254,2023.8500000000001,0.3519085270510674
255,2033.19,0.3512154961644838
256,2047.29,0.3487917787018682
257,2056.74,0.3456249147641578
258,2066.23,0.343854866989674
259,2075.77,0.34375308691922346
260,2085.35,0.34214409301199944
261,2094.97,0.33979835526800223
262,2104.6400000000003,0.3374403952280381
263,2114.36,0.3361140828921074
264,2124.12,0.3339295067194034
265,2133.92,0.33095854670992586
266,2143.77,0.33029830440448166
267,2153.67,0.3281971398030707
268,2163.61,0.32530548136488635
269,2173.59,0.3234451490899287
270,2183.63,0.32224290605981093
271,2187.7616199999998,0.3219679291784038
272,2193.71,0.3220412016455782
273,2203.83,0.32019323868730026
274,2214.0,0.31769828704839825
275,2224.2200000000003,0.31724807672887245
276,2234.4900000000002,0.3180140277287227
277,2244.8,0.3156609297840739
278,2255.17,0.31299987342267643
279,2265.57,0.31134673785290456
280,2276.03,0.311230463866384
281,2286.54,0.31101641119923956
282,2297.09,0.30833309958759597
283,2302.39,0.3092719094414623
284,2313.01,0.3081103196769452
285,2323.69,0.3045881814956795
286,2334.42,0.30374036463378995
287,2345.19,0.29978322882740116
288,2356.02,0.3031038646042638
289,2366.8900000000003,0.2981385814366272
290,2372.35,0.299967255512497
291,2383.2999999999997,0.29407146445586224
292,2394.3,0.29516722471860346
293,2405.35,0.2935780763007209
294,2416.45,0.29282488920221444
295,2427.61,0.29560484368695916
296,2433.2000000000003,0.2946892011932068
297,2444.43,0.2949257175250782
298,2455.7200000000003,0.2935465754402008
299,2467.05,0.2922594744108244
300,2472.74,0.2900215345558243
301,2484.15,0.2867105456374495
302,2495.62,0.2851910283023262
303,2507.14,0.28876521228657887
304,2511.88643,0.283652520911461
305,2512.92,0.2825826608430578
306,2518.71,0.28003465787676507
307,2524.52,0.2795005165237149
308,2536.1699999999996,0.2807615562374784
309,2547.88,0.2805612107909693
310,2553.75,0.2838414742776467
311,2565.54,0.2819939252841077
312,2577.38,0.283889000323675
313,2583.32,0.28327909945670116
314,2595.24,0.28150124094923856
315,2607.2200000000003,0.27906130728150336
316,2613.2300000000005,0.2771531320608783
317,2625.2999999999997,0.2804770156527346
318,2637.4199999999996,0.28264415327769704
319,2643.49,0.2885585228967995
320,2655.7,0.29011347778135327
321,2667.95,0.2846256258923921
322,2674.1,0.28701164196446466
323,2686.4500000000003,0.28789864814171595
324,2692.64,0.28304765744027355
325,2705.07,0.284304560070495
326,2717.55,0.2789111167338227
327,2723.82,0.27857346248535025
328,2736.3900000000003,0.28022715640826923
329,2742.7000000000003,0.27208668538628183
330,2755.36,0.27476287656879217
331,2768.08,0.27835461259103
332,2774.46,0.28070590721539146
333,2787.27,0.27482923049722063
334,2793.6899999999996,0.25622580834806713
335,2806.59,0.2593433688894875
336,2813.06,0.2800007507734403
337,2826.0400000000004,0.2820752977678307
338,2832.56,0.2809354936848898
339,2845.63,0.2767562179388716
340,2852.19,0.2677472470824156
341,2865.35,0.27877957859598873
342,2871.96,0.2801858117726391
343,2884.0315,0.27941571159521694
344,2885.22,0.27938280660977194
345,2891.8700000000003,0.2803414562450138
346,2911.91,0.28564140219843454
347,2932.1000000000004,0.28373980656468023
348,2952.42,0.2822415255553743
349,2972.8900000000003,0.28305652295889333
350,2986.61,0.28429281178528715
351,3007.3100000000004,0.28478171275513786
352,3028.16,0.28530993213781364
353,3049.15,0.286832358039126
354,3070.28,0.28602245045907504
355,3091.56,0.28545222129184916
356,3112.99,0.28587727053744827
357,3127.36,0.28542320248608377
358,3149.04,0.2851277490863912
359,3170.87,0.2871834740995236
360,3192.85,0.2827494775254811
361,3207.59,0.2862494895590849
362,3229.8199999999997,0.2827993903397507
363,3252.21,0.2897283014274298
364,3267.2200000000003,0.29521817460411864
365,3289.87,0.2948511149406945
366,3311.31121,0.29451512624231024
367,3312.6699999999996,0.2945282398142216
368,3320.3100000000004,0.296261160552899
369,3327.9599999999996,0.2896969663972555
370,3335.63,0.2960081424529696
371,3343.32,0.2940025887200416
372,3351.0299999999997,0.2886666051984714
373,3358.75,0.2969035067825801
374,3366.5,0.2865772636837254
375,3374.26,0.2736781056905497
376,3382.04,0.28627571790873174
377,3389.83,0.29352291523259266
378,3397.6499999999996,0.29244086787349033
379,3405.48,0.29453570562006687
380,3413.33,0.2940848135780012
381,3421.2,0.3002127917472933
382,3429.09,0.29577364012794327
383,3436.99,0.2999818736142721
384,3444.91,0.2875247773119587
385,3452.8599999999997,0.308860936326682
386,3460.8100000000004,0.2999746953414053
387,3468.79,0.29647490967316537
388,3476.79,0.2990577942162831
389,3484.8,0.3070372638650798
390,3492.8399999999997,0.30265098883091324
391,3500.89,0.3000919989024255
392,3508.96,0.3017293791852955
393,3517.0499999999997,0.2957256296795234
394,3525.16,0.2980306503851091
395,3533.2799999999997,0.3076532561963736
396,3541.43,0.3128975173246749
397,3549.59,0.31365776355865504
398,3557.77,0.308694680003993
399,3565.9800000000005,0.31637955176636756
400,3574.2000000000003,0.29525240863442115
401,3582.44,0.3041428357138325
402,3590.69,0.2856666478989227
403,3598.9700000000003,0.30934751540104966
404,3607.27,0.3074208531145344
405,3615.58,0.306638675933698
406,3623.92,0.30623215406989823
407,3632.2700000000004,0.32297761731177743
408,3637.63,0.35046373395566643
409,3640.35,0.32521488270032645
410,3643.0699999999997,0.3140573314449865
411,3645.79,0.29751048018964654
412,3648.5099999999998,0.2987781289343066
413,3651.2299999999996,0.30824517767896664
414,3653.9500000000003,0.31868262642362666
415,3656.67,0.32996397516828674
416,3659.3900000000003,0.29051662391294675
417,3662.11,0.33790767265760685
418,3664.83,0.3215347214022669
419,3667.55,0.3211303701469269
420,3670.27,0.327193118891587
421,3672.98,0.3243248825305681
422,3675.7000000000003,0.30785063127522816
423,3678.42,0.34215278001988825
424,3681.14,0.3241107287645483
425,3683.86,0.31257057750920836
426,3686.58,0.3044189262538684
427,3689.2999999999997,0.30496597499852846
428,3692.0199999999995,0.29293592374318855
429,3694.7400000000002,0.32534457248784854
430,3697.46,0.3188334212325086
431,3700.1800000000003,0.30979996997716863
432,3702.9,0.3156920187218287
433,3705.62,0.3303934674664888
434,3708.34,0.32298141621114884
435,3711.06,0.2930482649558088
436,3713.7799999999997,0.31403351370046895
437,3716.5,0.30198456244512895
438,3719.22,0.31569981118978896
439,3721.94,0.31585175993444903
440,3724.6600000000003,0.3333316086791091
441,3727.38,0.34845335742376915
442,3730.1,0.3412247061684292
443,3732.82,0.3529169549130893
444,3735.54,0.3763898036577493
445,3738.2599999999998,0.38376435240240936
446,3740.98,0.34479110114706946
447,3743.7,0.31795884989172946
448,3746.4199999999996,0.3086629986363895
449,3749.13,0.32176656227537065
450,3751.85,0.3111526110200307
451,3754.5699999999997,0.30856405976469076
452,3757.29,0.2860431085093508
453,3760.0099999999998,0.2948811572540109
454,3762.73,0.3388017059986709
455,3765.4500000000003,0.34621735474333093
456,3768.17,0.322586903487991
457,3770.89,0.3371651522326511
458,3773.61,0.3454500009773111
459,3776.33,0.3281128497219712
460,3779.0499999999997,0.3360594984666312
461,3781.77,0.3385852472112913
462,3784.49,0.34635489595595137
463,3787.2099999999996,0.3622417447006114
464,3789.9300000000003,0.38981099344527137
465,3792.65,0.3952037421899315
466,3795.3700000000003,0.3762259909345915
467,3798.09,0.36784993967925156
468,3800.81,0.3478229884239116
469,3801.8939600000003,0.3394690636243719
470,3803.5299999999997,0.3268895139247836
471,3806.25,0.3070374705157656
472,3808.97,0.3292217271067476
473,3811.6899999999996,0.35211718369772954
474,3814.41,0.3697624402887115
475,3817.13,0.3680252968796935
476,3819.8500000000004,0.35966615347067543
477,3822.56,0.3519218466183083
478,3825.2799999999997,0.3647879032092902
479,3827.9999999999995,0.35107415980027223
480,3830.7200000000003,0.32386671639125414
481,3833.44,0.33077767298223615
482,3836.1600000000003,0.3144784295732181
483,3838.88,0.32304568616420004
484,3841.6,0.30322204275518205
485,3844.32,0.272426999346164
486,3847.04,0.293713655937146
487,3849.7599999999998,0.31577471252812794
488,3852.48,0.34158776911910993
489,3855.2,0.34330852571009196
490,3857.92,0.35155668230107384
491,3860.6400000000003,0.3851358388920558
492,3863.36,0.38490639548303784
493,3866.08,0.39064475207401983
494,3868.8,0.3603270086650018
495,3871.52,0.3799383652559838
496,3874.24,0.40545732184696576
497,3876.96,0.40998507843794774
498,3879.68,0.3730769350289297
499,3882.3999999999996,0.3611554916199117
500,3885.1200000000003,0.3587070482108936
501,3887.84,0.35607230480187557
502,3890.56,0.34129026139285756
503,3893.28,0.32475711798383955
504,3896.0,0.32075047457482153
505,3898.71,0.32633846772245434
506,3901.4300000000003,0.3241241243134363
507,3904.15,0.3438871809044183
508,3906.87,0.34647413749540024
509,3909.59,0.3684213940863822
510,3912.31,0.37272785067736414
511,3915.0299999999997,0.3863557072683461
512,3917.75,0.3959470638593281
513,3920.47,0.4033670204503101
514,3923.1899999999996,0.3999387770412921
515,3925.9100000000003,0.38372793363227403
516,3928.63,0.391685190223256
517,3931.35,0.37535434681423796
518,3934.07,0.36191240340521996
519,3936.79,0.33711675999620194
520,3939.5099999999998,0.31449891658718393
521,3942.23,0.2764655731781659
522,3944.95,0.2875299297691479
523,3947.6699999999996,0.3217507863601298
524,3950.39,0.3501335429511118
525,3953.11,0.3712145995420938
526,3955.8300000000004,0.38283215613307575
527,3958.55,0.3865349127240577
528,3961.27,0.39000046931503973
529,3963.9900000000002,0.38831392590602165
530,3966.71,0.36303468249700366
531,3969.43,0.3486414390879856
532,3972.1400000000003,0.31858753223561836
533,3974.86,0.2923440888266004
534,3977.58,0.26610704541758234
535,3980.2999999999997,0.2757554020085643
536,3983.02,0.3004399585995463
537,3985.74,0.3401925151905283
538,3988.4599999999996,0.36860377178151027
539,3991.18,0.3942492283724922
540,3993.9,0.4102382849634742
541,3996.6200000000003,0.4204586415544561
542,3999.34,0.44246589814543813
543,4002.06,0.4520194547364201
544,4004.78,0.4361784113274021
545,4007.5,0.41264706791838407
546,4010.22,0.43594082450936605
547,4012.94,0.437794481100348
548,4015.66,0.45382763769132994
549,4018.3799999999997,0.461705894282312
550,4021.1000000000004,0.4580784508732939
551,4023.82,0.4924131074642759
552,4026.54,0.46662806405525786
553,4029.26,0.4624318206462399
554,4031.98,0.4683185772372218
555,4034.7,0.48909313382820385
556,4037.42,0.47939689041918576
557,4040.14,0.4587641470101677
558,4042.8599999999997,0.4634814036011497
559,4045.58,0.4510036601921317
560,4048.29,0.48312785333976443
561,4051.0099999999998,0.4924917099307464
562,4053.73,0.4694565665217284
563,4056.45,0.4547661231127104
564,4059.1699999999996,0.4665637797036924
565,4061.8900000000003,0.4662869362946743
566,4064.61,0.4690444928856563
567,4067.33,0.47183374947663825
568,4070.05,0.45328700606762024
569,4072.77,0.45168266265860224
570,4075.49,0.4353801192495842
571,4078.21,0.43643087584056617
572,4080.93,0.4457631324315482
573,4083.6499999999996,0.46148028902253013
574,4086.37,0.4304102456135121
575,4089.09,0.43478610220449404
576,4091.81,0.44377065879547606
577,4094.53,0.445990915386458
578,4097.25,0.46044367197744
579,4099.97,0.44252912856842197
580,4102.69,0.44664598515940396
581,4105.41,0.40448134175038597
582,4108.13,0.3696815983413679
583,4110.849999999999,0.3633231549323499
584,4113.57,0.3619843115233319
585,4116.29,0.3777267681143138
