,lambda (Angstroms),Total Flux (erg/s/cm^2/Angstrom)
0,100.04,0.004022723909248941
1,101.89999999999999,0.0048375617646192115
2,104.03,0.005770682534478803
3,104.712855,0.006069830977343876
4,105.97,0.005610307585263648
5,107.94,0.004890214769878201
6,109.94999999999999,0.004155500780576713
7,114.07000000000001,0.0026495198671847514
8,118.08000000000001,0.0011837471820689994
9,120.22644299999999,0.00039915927196102407
10,121.11,0.00038421512434120273
11,125.08,0.00031706805173288793
12,127.11,0.00028273340252933535
13,127.99,0.00026784941667568383
14,130.97,0.00021744682823574213
15,131.88,0.0002020554337957762
16,134.02,0.00016586028643842893
17,137.14000000000001,0.00011308979131626554
18,138.038426,9.789415519869974e-05
19,140.02,9.671046349736701e-05
20,142.95000000000002,9.496023048354254e-05
21,146.95,9.257083439406682e-05
22,151.07,9.01097573136192e-05
23,154.95,8.779204554733137e-05
24,158.489319,8.567784093054913e-05
25,158.92,8.52825571948608e-05
26,161.87,8.257501707683635e-05
27,166.03,7.875693011779195e-05
28,169.89000000000001,7.52141933476197e-05
29,173.05,7.231392602870577e-05
30,177.08,6.861517912118963e-05
31,179.96,6.597191708508503e-05
32,181.970086,6.412706550585664e-05
33,182.04000000000002,6.41477157954632e-05
34,185.85999999999999,6.527604050666187e-05
35,191.06,6.681201378627629e-05
36,194.17000000000002,6.773067476448279e-05
37,197.78,6.879709502979646e-05
38,201.92000000000002,7.00201170134437e-05
39,205.2,7.098912096616663e-05
40,208.929613,7.209108916610066e-05
41,209.98,7.397519456056985e-05
42,215.86,8.452254667135636e-05
43,219.88,9.173367452580218e-05
44,222.94000000000003,9.722285364220133e-05
45,227.07999999999998,0.00010464958735615294
46,230.23999999999998,0.00011036389260147357
47,233.98,0.00011708307129973912
48,239.88329199999998,0.00012769025492688932
49,239.98,0.00012754767894343795
50,246.14000000000001,0.00011846921412007744
51,251.87,0.00011003156564401327
52,257.15,0.0001022515583325615
53,260.12,9.788591052611978e-05
54,263.74,9.25664591819047e-05
55,269.26,8.444787004265963e-05
56,274.27,7.708819214997523e-05
57,275.42287,7.539618381497886e-05
58,278.72999999999996,8.064559580154287e-05
59,283.90999999999997,8.887273920071569e-05
60,289.85,9.83124645341302e-05
61,295.92,0.00010796240786945434
62,300.73,0.00011559712384011481
63,307.74,0.00012677350280463246
64,316.227766,0.00014034035371948141
65,317.82,0.0001385340001055146
66,328.22999999999996,0.0001267305002021835
67,338.20000000000005,0.00011546524028833023
68,347.68,0.00010479988217866849
69,356.59999999999997,9.48091812737969e-05
70,363.078055,8.757834598634722e-05
71,365.75000000000006,9.009264305513489e-05
72,375.13,9.891801509285648e-05
73,384.75,0.00010801007973708699
74,394.61999999999995,0.00011745830067976421
75,404.74,0.00012715930092088826
76,414.17,0.00013620400741829925
77,416.86938299999997,0.00013880912999449208
78,421.87,0.00014183131620262073
79,429.71000000000004,0.00014659634786449985
80,440.74,0.00015340927255079155
81,451.0,0.00015973820788636292
82,460.45000000000005,0.00016554919482702086
83,470.09000000000003,0.00017163172647759666
84,478.630092,0.00017706493116071765
85,479.93,0.0001762664622817565
86,489.98,0.00017002006354428296
87,500.24,0.0001638123100212502
88,506.03000000000003,0.00016055510993369078
89,511.89,0.00015785386191761167
90,520.2099999999999,0.00015282707241355399
91,529.88,0.00014711945428804455
92,539.73,0.00014109310434634153
93,549.5408739999999,0.00013533310919778047
94,549.77,0.00013530822669398742
95,559.99,0.00013477142730884678
96,570.4,0.0001338151581993249
97,579.67,0.0001329590874360907
98,590.4399999999999,0.00013205896674353058
99,600.04,0.00013105779119584467
100,609.79,0.0001300824916552262
101,619.6999999999999,0.0001299290791888129
102,629.76,0.00012905343272946705
103,630.957344,0.000128988995130512
104,640.0,0.00013340458343675998
105,650.4,0.00013809260954413476
106,657.9300000000001,0.0001414661944180321
107,665.5500000000001,0.00014539975002747404
108,674.81,0.0001500862234846173
109,685.77,0.00015466136861315845
110,695.31,0.0001597759865808849
111,704.98,0.00016385420449995357
112,716.4399999999999,0.0001701553048259646
113,724.43596,0.00017410033546131465
114,726.4,0.00017480587360415738
115,734.82,0.00017784204057495772
116,745.04,0.00018124882226635674
117,755.4,0.0001847339452138023
118,764.15,0.0001876162287167124
119,774.7800000000001,0.00019162920337224783
120,785.5600000000001,0.0001952228400878331
121,794.65,0.00019870814092685623
122,805.71,0.00020259595015453464
123,815.04,0.00020610126028963765
124,824.4799999999999,0.00020968121926877726
125,831.763771,0.0002111619217659949
126,835.95,0.0002096555657802517
127,845.63,0.0002091398745194844
128,855.4200000000001,0.00020695053847166284
129,865.3199999999999,0.0002052495576367872
130,875.34,0.00020322871157967058
131,885.48,0.00020103153030031305
132,895.73,0.0001988329742339014
133,904.02,0.00019707042346409136
134,914.49,0.00021048659782357132
135,925.08,0.0002557876069608104
136,935.79,0.00030199668087580855
137,944.45,0.000371925444004089
138,954.992586,0.0004029125873514305
139,955.38,0.0004041772079488962
140,964.2299999999999,0.00045213160247810184
141,975.39,0.00033459384642679514
142,984.4200000000001,0.0004753681577938829
143,995.8100000000001,0.0004703448677020922
144,1005.03,0.0005021157857313889
145,1014.3299999999999,0.0004978155223552999
146,1026.07,0.0003775103761149468
147,1035.57,0.0004919069092253935
148,1045.1499999999999,0.0005588093609304546
149,1054.8200000000002,0.0005657757210544567
150,1064.58,0.0005533593895973999
151,1074.43,0.0005789620665592842
152,1084.3700000000001,0.0005596422519401095
153,1094.4099999999999,0.0006030812355642027
154,1096.4782,0.0006029563674207966
155,1104.53,0.0006014238550665572
156,1114.75,0.000610192901406333
157,1125.07,0.000599872550352173
158,1135.48,0.000629645411643471
159,1145.98,0.0006263878852802269
160,1153.93,0.0006401599424623421
161,1164.6,0.0006525463505294073
162,1175.38,0.0006046766514631434
163,1186.26,0.0006604412550029438
164,1194.48,0.0006415483492214327
165,1205.53,0.0006087837871915424
166,1213.8899999999999,0.00045938244505852144
167,1225.12,0.000640983007719547
168,1233.61,0.0007021635389744096
169,1245.03,0.0007254617165869574
170,1253.66,0.0007424243114903102
171,1258.92541,0.0007464549838908861
172,1265.26,0.0007525999035304347
173,1274.03,0.0007837292339084755
174,1285.81,0.0008058986516796638
175,1294.73,0.0008008884196354362
176,1303.7,0.0008217884667837859
177,1315.77,0.000865238623871922
178,1324.8899999999999,0.0008784585085980032
179,1334.07,0.000888062708355177
180,1346.41,0.00093125233308323
181,1355.75,0.0009557756062566509
182,1365.1399999999999,0.000972567658622649
183,1374.61,0.0010003777976967706
184,1384.13,0.0010358012159634696
185,1393.73,0.0010181261209382918
186,1403.3899999999999,0.0010405759409442068
187,1416.3799999999999,0.0011327577951757632
188,1426.19,0.00116040705275941
189,1436.0800000000002,0.00120439839705118
190,1442.71,0.0012392194579869168
191,1445.43977,0.0012549971161508388
192,1446.0300000000002,0.0012584072678639606
193,1456.0600000000002,0.00129203861775933
194,1466.1499999999999,0.00132665165170193
195,1476.3100000000002,0.0013742054836996319
196,1486.5500000000002,0.001429851227760308
197,1493.41,0.0014780124371603315
198,1503.76,0.001531273435307597
199,1510.7,0.0015586665567705943
200,1517.67,0.001590075020257207
201,1524.6799999999998,0.0016402069397753066
202,1535.25,0.0016807904460957508
203,1545.89,0.0017147987504712969
204,1556.6,0.0018087998529019455
205,1563.79,0.0019166038245617368
206,1574.6299999999999,0.002081564409094718
207,1585.54,0.002256159791682802
208,1596.53,0.00238088008633386
209,1603.9,0.0023863001101353423
210,1615.02,0.0025698078868887334
211,1626.2199999999998,0.0026639875757050978
212,1633.7199999999998,0.002780381081608913
213,1645.0500000000002,0.0030701492525276102
214,1656.4499999999998,0.00299509222150141
215,1659.58691,0.0032348756602139923
216,1664.1000000000001,0.0035801777347534707
217,1671.78,0.0033842291547666525
218,1675.6299999999999,0.004001265697351385
219,1683.37,0.004235151112833421
220,1695.03,0.004284214898947184
221,1706.78,0.004566191178264227
222,1714.66,0.0049442122498402526
223,1726.55,0.005186676185251285
224,1734.52,0.00564250875003059
225,1746.54,0.005786417508957471
226,1754.6000000000001,0.006252685566940056
227,1766.76,0.005934793981960927
228,1774.92,0.006500876365724933
229,1783.11,0.006882506247223366
230,1795.47,0.007455038313807081
231,1803.76,0.008242451521086934
232,1816.26,0.00856969824376464
233,1824.6499999999999,0.008473007776825916
234,1833.07,0.008909871807621619
235,1845.77,0.008378713181862165
236,1854.2900000000002,0.00905516953843929
237,1867.1499999999999,0.009786997233930112
238,1875.77,0.010014070916288658
239,1884.42,0.01031637909638163
240,1893.1200000000001,0.010873763439365313
241,1905.46072,0.010968776018299348
242,1906.2399999999998,0.010974627268214843
243,1915.04,0.011645592850024934
244,1923.88,0.01196865413902507
245,1937.22,0.011431972486905367
246,1946.16,0.012993243043880618
247,1955.1399999999999,0.013354199308045916
248,1968.6899999999998,0.014367685118673954
249,1977.7800000000002,0.014432749577611877
250,1982.34,0.014632010197277105
251,1996.0800000000002,0.01490120561705786
252,2005.3000000000002,0.014797926124363432
253,2014.55,0.01549116341206154
254,2023.8500000000001,0.014932355333747203
255,2033.19,0.016515842962622915
256,2047.29,0.017528839747114083
257,2056.74,0.016665305570762415
258,2066.23,0.017208337101600798
259,2075.77,0.019431823266426743
260,2085.35,0.020157845138442727
261,2094.97,0.020156872717648756
262,2104.6400000000003,0.020155864930842343
263,2114.36,0.02119869177802349
264,2124.12,0.02139300433239468
265,2133.92,0.020810682593955916
266,2143.77,0.022551265489504715
267,2153.67,0.022863113019041065
268,2163.61,0.02239421625576746
269,2173.59,0.022966395199683905
270,2183.63,0.024211287704385423
271,2187.7616199999998,0.02494334609373213
272,2193.71,0.025998453274790306
273,2203.83,0.025820889198981685
274,2214.0,0.02500458940145464
275,2224.2200000000003,0.026241283882209174
276,2234.4900000000002,0.02870239264124529
277,2244.8,0.028051054822906662
278,2255.17,0.02710166213850593
279,2265.57,0.027165142021074146
280,2276.03,0.02877538703758025
281,2286.54,0.03029610633236794
282,2297.09,0.029354169049780887
283,2302.39,0.03116779254762815
284,2313.01,0.03175913125463531
285,2323.69,0.02999982509558036
286,2334.42,0.03092309321480699
287,2345.19,0.028743644756658884
288,2356.02,0.03385187143244867
289,2366.8900000000003,0.03068078153086372
290,2372.35,0.03341067871921203
291,2383.2999999999997,0.0293222856628776
292,2394.3,0.03223369688482475
293,2405.35,0.03246845238505348
294,2416.45,0.03354742216356378
295,2427.61,0.03816943707601199
296,2433.2000000000003,0.0381764753878924
297,2444.43,0.04026660628993481
298,2455.7200000000003,0.04075098232591511
299,2467.05,0.04133400178452068
300,2472.74,0.040035248652964255
301,2484.15,0.03860758495682034
302,2495.62,0.038981296394614326
303,2507.14,0.044456962110689884
304,2511.88643,0.0401277125703269
305,2512.92,0.039184864014109054
306,2518.71,0.03734837227158783
307,2524.52,0.037528199866743564
308,2536.1699999999996,0.040220864063570456
309,2547.88,0.041459516273428226
310,2553.75,0.04546112188161483
311,2565.54,0.04506240144218042
312,2577.38,0.0484124493469384
313,2583.32,0.04853249263699435
314,2595.24,0.04821943789246015
315,2607.2200000000003,0.04725168116095682
316,2613.2300000000005,0.04608205213288212
317,2625.2999999999997,0.05088917242092509
318,2637.4199999999996,0.054545691053160456
319,2643.49,0.061205980038116614
320,2655.7,0.06426137568989827
321,2667.95,0.06027888001703386
322,2674.1,0.06342064635269784
323,2686.4500000000003,0.0658252973682182
324,2692.64,0.0617349723792361
325,2705.07,0.06451935074546429
326,2717.55,0.06065952745588486
327,2723.82,0.061092369817610584
328,2736.3900000000003,0.06429074354757747
329,2742.7000000000003,0.05692568458465709
330,2755.36,0.06115761533417027
331,2768.08,0.06631246409671432
332,2774.46,0.06944777281566329
333,2787.27,0.06514526859775364
334,2793.6899999999996,0.04733077599205653
335,2806.59,0.05203356879369319
336,2813.06,0.07348602453218847
337,2826.0400000000004,0.07715563468453294
338,2832.56,0.0768170487672206
339,2845.63,0.07424389593911139
340,2852.19,0.06604105869715297
341,2865.35,0.07869057288859005
342,2871.96,0.08090908399082403
343,2884.0315,0.08162240483892129
344,2885.22,0.08169267342371124
345,2891.8700000000003,0.08322860891680994
346,2911.91,0.09026822533511042
347,2932.1000000000004,0.09011932165175146
348,2952.42,0.09038501788028767
349,2972.8900000000003,0.09297701400716445
350,2986.61,0.09540433470871547
351,3007.3100000000004,0.09769020067971446
352,3028.16,0.10002840654905402
353,3049.15,0.10337297232351145
354,3070.28,0.10439735800308673
355,3091.56,0.10567444358100261
356,3112.99,0.10795982905725904
357,3127.36,0.10875321931828588
358,3149.04,0.11033980462510995
359,3170.87,0.11429058983027457
360,3192.85,0.11176467493377978
361,3207.59,0.1165442649440467
362,3229.8199999999997,0.11502394987811952
363,3252.21,0.12389653470375563
364,3267.2200000000003,0.13068942453103555
365,3289.87,0.132288609180462
366,3311.31121,0.13381392985175267
367,3312.6699999999996,0.13391057704521175
368,3320.3100000000004,0.13611317806459858
369,3327.9599999999996,0.13001927895442963
370,3335.63,0.13680197958514914
371,3343.32,0.13526917995675708
372,3351.0299999999997,0.13040718006925348
373,3358.75,0.1391186800521941
374,3366.5,0.12926887964646738
375,3374.26,0.11684677911118492
376,3382.04,0.12992267831679088
377,3389.83,0.13764877739284107
378,3397.6499999999996,0.1370474760802239
379,3405.48,0.139623674638051
380,3413.33,0.13965537293676653
381,3421.2,0.14626717097637051
382,3429.09,0.14231306875686292
383,3436.99,0.14700696640779956
384,3444.91,0.13503676379962468
385,3452.8599999999997,0.15686166080278244
386,3460.8100000000004,0.1484641578059402
387,3468.79,0.14545495442043063
388,3476.79,0.1485296507758095
389,3484.8,0.15700154700163263
390,3492.8399999999997,0.1531095428387884
391,3500.89,0.15104543854638838
392,3508.96,0.15317893399487684
393,3517.0499999999997,0.14767252918425375
394,3525.16,0.15047612411451908
395,3533.2799999999997,0.16059791891522865
396,3541.43,0.1663432133272709
397,3549.59,0.16760510760975733
398,3557.77,0.16314490163313225
399,3565.9800000000005,0.1713344952678398
400,3574.2000000000003,0.15071268877299163
401,3582.44,0.16010968201903186
402,3590.69,0.14214067513551637
403,3598.9700000000003,0.1663305678633335
404,3607.27,0.16491416033203907
405,3615.58,0.1646428526711889
406,3623.92,0.16474904462167136
407,3632.2700000000004,0.1820078364425981
408,3637.63,0.20982346700070195
409,3640.35,0.18474183176153075
410,3643.0699999999997,0.17375149652235958
411,3645.79,0.1573718612831884
412,3648.5099999999998,0.15880672604401722
413,3651.2299999999996,0.16844099080484604
414,3653.9500000000003,0.17904565556567487
415,3656.67,0.19049422032650368
416,3659.3900000000003,0.1512140850873325
417,3662.11,0.19877234984816133
418,3664.83,0.18256661460899012
419,3667.55,0.18232947936981897
420,3670.27,0.18855944413064776
421,3672.98,0.18585780902103236
422,3675.7000000000003,0.1695507737818612
423,3678.42,0.20402013854269
424,3681.14,0.18614530330351883
425,3683.86,0.17477236806434765
426,3686.58,0.16678793282517648
427,3689.2999999999997,0.1675021975860053
428,3692.0199999999995,0.15563936234683412
429,3694.7400000000002,0.18821522710766295
430,3697.46,0.18187129186849174
431,3700.1800000000003,0.17300505662932059
432,3702.9,0.17906432139014938
433,3705.62,0.19393298615097823
434,3708.34,0.18668815091180704
435,3711.06,0.15692221567263587
436,3713.7799999999997,0.17807468043346467
437,3716.5,0.16619294519429348
438,3719.22,0.1800754099551223
439,3721.94,0.18039457471595113
440,3724.6600000000003,0.19804163947677997
441,3727.38,0.21333060423760877
442,3730.1,0.2062691689984376
443,3732.82,0.21812863375926642
444,3735.54,0.24176869852009525
445,3738.2599999999998,0.24931046328092404
446,3740.98,0.21050442804175287
447,3743.7,0.18383939280258169
448,3746.4199999999996,0.1747107575634105
449,3749.13,0.1879809224537951
450,3751.85,0.17753418721462394
451,3754.5699999999997,0.17511285197545273
452,3757.29,0.15275911673628156
453,3760.0099999999998,0.1617643814971104
454,3762.73,0.2058521462579392
455,3765.4500000000003,0.21343501101876802
456,3768.17,0.18997177577959687
457,3770.89,0.20471724054042567
458,3773.61,0.21316930530125447
459,3776.33,0.19599937006208332
460,3779.0499999999997,0.20411323482291213
461,3781.77,0.20680619958374097
462,3784.49,0.21474306434456977
463,3787.2099999999996,0.2307971291053986
464,3789.9300000000003,0.25853359386622743
465,3792.65,0.26409355862705625
466,3795.3700000000003,0.24528302338788505
467,3798.09,0.23707418814871387
468,3800.81,0.2172144529095427
469,3801.8939600000003,0.20892716615150528
470,3803.5299999999997,0.19641902208677786
471,3806.25,0.17668569419010763
472,3808.97,0.19898866629343742
473,3811.6899999999996,0.22200283839676715
474,3814.41,0.23976681050009693
475,3817.13,0.23814838260342672
476,3819.8500000000004,0.22990795470675648
477,3822.56,0.22228192691264753
478,3825.2799999999997,0.2352666990159773
479,3827.9999999999995,0.22167167111930708
480,3830.7200000000003,0.19458294322263686
481,3833.44,0.2016126153259666
482,3836.1600000000003,0.18543208742929637
483,3838.88,0.19411805953262615
484,3841.6,0.17441313163595593
485,3844.32,0.1437368037392857
486,3847.04,0.16514217584261545
487,3849.7599999999998,0.18732194794594523
488,3852.48,0.213253720049275
489,3855.2,0.21509319215260478
490,3857.92,0.22346006425593457
491,3860.6400000000003,0.2571579363592643
492,3863.36,0.2570472084625941
493,3866.08,0.26290428056592385
494,3868.8,0.23270525266925363
495,3871.52,0.2524353247725834
496,3874.24,0.2780729968759132
497,3876.96,0.28271946897924294
498,3879.68,0.24593004108257271
499,3882.3999999999996,0.2341273131859025
500,3885.1200000000003,0.23179758528923225
501,3887.84,0.229281557392562
502,3890.56,0.2146182294958918
503,3893.28,0.19820380159922157
504,3896.0,0.19431587370255135
505,3898.71,0.2000221459084424
506,3901.4300000000003,0.19792651801177216
507,3904.15,0.21780829011510194
508,3906.87,0.22051396221843172
509,3909.59,0.24257993432176145
510,3912.31,0.24700510642509124
511,3915.0299999999997,0.26075167852842096
512,3917.75,0.27046175063175076
513,3920.47,0.2780004227350805
514,3923.1899999999996,0.27469089483841036
515,3925.9100000000003,0.2585987669417401
516,3928.63,0.26667473904506983
517,3931.35,0.2504626111483996
518,3934.07,0.2371393832517294
519,3936.79,0.21246245535505917
520,3939.5099999999998,0.18996332745838895
521,3942.23,0.1520486995617187
522,3944.95,0.1632317716650485
523,3947.6699999999996,0.19757134376837823
524,3950.39,0.22607281587170802
525,3953.11,0.2472725879750378
526,3955.8300000000004,0.25900886007836754
527,3958.55,0.2628303321816973
528,3961.27,0.2664146042850271
529,3963.9900000000002,0.2648467763883569
530,3966.71,0.23968624849168665
531,3969.43,0.22541172059501643
532,3972.1400000000003,0.19547609280090747
533,3974.86,0.16935136490423724
534,3977.58,0.143233037007567
535,3980.2999999999997,0.1530001091108968
536,3983.02,0.17780338121422654
537,3985.74,0.2176746533175563
538,3988.4599999999996,0.2462046254208861
539,3991.18,0.2719687975242158
540,3993.9,0.28807656962754563
541,3996.6200000000003,0.29841564173087537
542,3999.34,0.3205416138342052
543,4002.06,0.3302138859375349
544,4004.78,0.3144915580408647
545,4007.5,0.2910789301441945
546,4010.22,0.31449140224752425
547,4012.94,0.31646377435085404
548,4015.66,0.3326156464541838
549,4018.3799999999997,0.34061261855751357
550,4021.1000000000004,0.33710389066084334
551,4023.82,0.3715572627641731
552,4026.54,0.3458909348675029
553,4029.26,0.3418134069708327
554,4031.98,0.3478188790741624
555,4034.7,0.36871215117749223
556,4037.42,0.35913462328082196
557,4040.14,0.33862059538415173
