,lambda (Angstroms),Total Flux (erg/s/cm^2/Angstrom)
0,100.04,4.4778518396956954
1,101.89999999999999,4.465395421352134
2,104.03,4.451130813249023
3,104.712855,4.446557733922145
4,105.97,4.402333438299097
5,107.94,4.33303207498985
6,109.94999999999999,4.262323577400213
7,114.07000000000001,4.117388746519962
8,118.08000000000001,3.976323534910793
9,120.22644299999999,3.9008151967556826
10,121.11,3.8747561327559485
11,125.08,3.757667496619371
12,127.11,3.697795977385821
13,127.99,3.6718418212648807
14,130.97,3.583951610764444
15,131.88,3.5571126538666764
16,134.02,3.4939968651180857
17,137.14000000000001,3.401977584325839
18,138.038426,3.3754799835678617
19,140.02,3.333705686932272
20,142.95000000000002,3.271937269935569
21,146.95,3.1876117859815416
22,151.07,3.100756537509785
23,154.95,3.018960818076819
24,158.489319,2.944347121195275
25,158.92,2.9374829691806417
26,161.87,2.890466155245884
27,166.03,2.824164478649873
28,169.89000000000001,2.7626441729696083
29,173.05,2.71228039941176
30,177.08,2.6480506502342083
31,179.96,2.6021494895428288
32,181.970086,2.570112933821292
33,182.04000000000002,2.569262842616115
34,185.85999999999999,2.522815086770509
35,191.06,2.4595877751821003
36,194.17000000000002,2.421772979243684
37,197.78,2.377878634183624
38,201.92000000000002,2.3275399670314942
39,205.2,2.2876581244965366
40,208.929613,2.242309393418373
41,209.98,2.2327074021821067
42,215.86,2.1789560627163445
43,219.88,2.1422076981625917
44,222.94000000000003,2.1142350625691417
45,227.07999999999998,2.0763897322576184
46,230.23999999999998,2.0475030039872726
47,233.98,2.0133142373328337
48,239.88329199999998,1.9593499947959072
49,239.98,1.9586687422124531
50,246.14000000000001,1.915275066340809
51,251.87,1.87491050155904
52,257.15,1.837715923774454
53,260.12,1.81679398437693
54,263.74,1.791293170994954
55,269.26,1.7524079456386636
56,274.27,1.717115385797107
57,275.42287,1.7089940832672783
58,278.72999999999996,1.6911148216627176
59,283.90999999999997,1.6631103105509788
60,289.85,1.6309970349798795
61,295.92,1.5981809472381396
62,300.73,1.5721767535743394
63,307.74,1.534278799611891
64,316.227766,1.4883916777892812
65,317.82,1.4819623236386357
66,328.22999999999996,1.439927317162852
67,338.20000000000005,1.3996690457867487
68,347.68,1.3613894117243792
69,356.59999999999997,1.3253710665042764
70,363.078055,1.29921315169647
71,365.75000000000006,1.2911332711636967
72,375.13,1.2627684348383879
73,384.75,1.2336778866547935
74,394.61999999999995,1.2038314669703194
75,404.74,1.1732290724079646
76,414.17,1.1447132098856794
77,416.86938299999997,1.1365504226805832
78,421.87,1.1250027077259075
79,429.71000000000004,1.1068981516108927
80,440.74,1.0814271823611097
81,451.0,1.0577343231631675
82,460.45000000000005,1.0359119345536676
83,470.09000000000003,1.013650943634558
84,478.630092,0.9939299395114145
85,479.93,0.9916213224094433
86,489.98,0.9737726000335014
87,500.24,0.9555510884465339
88,506.03000000000003,0.9452684346386838
89,511.89,0.9348620608308252
90,520.2099999999999,0.9200859494512378
91,529.88,0.9029124067386278
92,539.73,0.8854189785602818
93,549.5408739999999,0.8679952798924591
94,549.77,0.8676848694226719
95,559.99,0.853839807331378
96,570.4,0.8397369422277511
97,579.67,0.8271784785781234
98,590.4399999999999,0.8125879955421808
99,600.04,0.7995823522137638
100,609.79,0.7863735372277154
101,619.6999999999999,0.77294880009286
102,629.76,0.7593201431903731
103,630.957344,0.7576980964346611
104,640.0,0.747987251312965
105,650.4,0.7368183735875913
106,657.9300000000001,0.7287316558158636
107,665.5500000000001,0.7205488036958687
108,674.81,0.7106047191252187
109,685.77,0.6988340749784017
110,695.31,0.68858959178203
111,704.98,0.6782044026137162
112,716.4399999999999,0.6658982937609678
113,724.43596,0.6573115287140825
114,726.4,0.6557460080465778
115,734.82,0.6490345044630582
116,745.04,0.640887959196055
117,755.4,0.6326298490915586
118,764.15,0.6256550327032339
119,774.7800000000001,0.6171821386057147
120,785.5600000000001,0.6085892074787386
121,794.65,0.6013438606736446
122,805.71,0.5925279373616823
123,815.04,0.5850912222594571
124,824.4799999999999,0.5775668621656302
125,831.763771,0.571759890384402
126,835.95,0.569265249652193
127,845.63,0.5634997505446309
128,855.4200000000001,0.5576670666170961
129,865.3199999999999,0.5517693598695891
130,875.34,0.5457998665202941
131,885.48,0.5397587300992113
132,895.73,0.5336520811281561
133,904.02,0.528713158192971
134,914.49,0.5224911016019712
135,925.08,0.5162294631091834
136,935.79,0.5098972659446078
137,944.45,0.504809678552243
138,954.992586,0.49856196389239477
139,955.38,0.4983373629252636
140,964.2299999999999,0.49322569363195784
141,975.39,0.4866017829542974
142,984.4200000000001,0.4814779920790937
143,995.8100000000001,0.47483250395234183
144,1005.03,0.46948893810180176
145,1014.3299999999999,0.46406266040375155
146,1026.07,0.4570978375066429
147,1035.57,0.45167365493981737
148,1045.1499999999999,0.4461553376254817
149,1054.8200000000002,0.4405246134701971
150,1064.58,0.4348220358739638
151,1074.43,0.4291050065367815
152,1084.3700000000001,0.4232905839586503
153,1094.4099999999999,0.41748061934613173
154,1096.4782,0.4162747166575158
155,1104.53,0.4124308818577584
156,1114.75,0.4075626880663153
157,1125.07,0.40262768508454494
158,1135.48,0.39768982750148013
159,1145.98,0.3926759917171207
160,1153.93,0.3888960402361057
161,1164.6,0.38381672473819006
162,1175.38,0.37862466136091444
163,1186.26,0.3734885124933116
164,1194.48,0.36954705260841314
165,1205.53,0.364241250927254
166,1213.8899999999999,0.3601024748958974
167,1225.12,0.35492514271214926
168,1233.61,0.35093491282336725
169,1245.03,0.3455086106479973
170,1253.66,0.3414073551127572
171,1258.92541,0.33889874303606865
172,1265.26,0.3367489977533665
173,1274.03,0.3337953787299384
174,1285.81,0.3298083878731559
175,1294.73,0.3267675788593613
176,1303.7,0.3237356633154445
177,1315.77,0.3196712557039534
178,1324.8899999999999,0.3165806095696702
179,1334.07,0.3134659275792403
180,1346.41,0.30930936866508946
181,1355.75,0.3061551519582687
182,1365.1399999999999,0.30297618722132574
183,1374.61,0.2997810136761873
184,1384.13,0.2965764366009267
185,1393.73,0.29329153411747066
186,1403.3899999999999,0.29002633637786807
187,1416.3799999999999,0.2856975511721291
188,1426.19,0.28238650244215985
189,1436.0800000000002,0.27906456890399517
190,1442.71,0.27684296104979583
191,1445.43977,0.2759296991966976
192,1446.0300000000002,0.27579289395813866
193,1456.0600000000002,0.273443792535339
194,1466.1499999999999,0.2710814191608577
195,1476.3100000000002,0.26871535734274743
196,1486.5500000000002,0.2663383825890617
197,1493.41,0.2647568781134479
198,1503.76,0.26235138694834553
199,1510.7,0.26073010953715614
200,1517.67,0.2591057206501258
201,1524.6799999999998,0.25749055279530775
202,1535.25,0.25502012080737224
203,1545.89,0.25252648437580805
204,1556.6,0.25007621150061515
205,1563.79,0.2484759547907518
206,1574.6299999999999,0.24606575852024845
207,1585.54,0.24364856780611638
208,1596.53,0.24116249715640864
209,1603.9,0.23941709559149996
210,1615.02,0.2369589295464818
211,1626.2199999999998,0.23439243056588796
212,1633.7199999999998,0.23272711960566886
213,1645.0500000000002,0.23032532622976443
214,1656.4499999999998,0.22754207841023147
215,1659.58691,0.22703665564136724
216,1664.1000000000001,0.22663071322341372
217,1671.78,0.22515635944823995
218,1675.6299999999999,0.2251325288031333
219,1683.37,0.224078021482841
220,1695.03,0.22218617321480372
221,1706.78,0.22051225612908862
222,1714.66,0.21957858020351967
223,1726.55,0.21784184651252803
224,1734.52,0.21697100076928122
225,1746.54,0.21511407223053272
226,1754.6000000000001,0.21423868066960813
227,1766.76,0.21189664752558302
228,1774.92,0.21110442438946084
229,1783.11,0.21012275498077945
230,1795.47,0.20863785368635918
231,1803.76,0.20804532170248022
232,1816.26,0.2062918308027833
233,1824.6499999999999,0.20479854924370675
234,1833.07,0.20383382841207087
235,1845.77,0.2011886403619788
236,1854.2900000000002,0.20044686595514538
237,1867.1499999999999,0.19903803078473728
238,1875.77,0.19783022780270626
239,1884.42,0.19669266554811604
240,1893.1200000000001,0.19580185650592696
241,1905.46072,0.19384264505356574
242,1906.2399999999998,0.1937535678119953
243,1915.04,0.19335255576692378
244,1923.88,0.19259876680346558
245,1937.22,0.19043706452150486
246,1946.16,0.19090930326207992
247,1955.1399999999999,0.19017635508426833
248,1968.6899999999998,0.1895392389807775
249,1977.7800000000002,0.18849699927740243
250,1982.34,0.18814078058131997
251,1996.0800000000002,0.18673622911549237
252,2005.3000000000002,0.18550980942736062
253,2014.55,0.18507625205043884
254,2023.8500000000001,0.1833845585255337
255,2033.19,0.1838302880822419
256,2047.29,0.1831256843509341
257,2056.74,0.1811109923820789
258,2066.23,0.180497993494837
259,2075.77,0.1815593584596117
260,2085.35,0.18111838650599973
261,2094.97,0.1799455476340011
262,2104.6400000000003,0.17876658261401907
263,2114.36,0.17862536144605373
264,2124.12,0.1776307533597017
265,2133.92,0.17585463835496293
266,2143.77,0.17639533720224085
267,2153.67,0.17550120990153537
268,2163.61,0.1738214656824432
269,2173.59,0.17317792454496436
270,2183.63,0.17319978802990546
271,2187.7616199999998,0.17342855048711853
272,2193.71,0.17399248582278912
273,2203.83,0.17297928934365012
274,2214.0,0.17132322852419912
275,2224.2200000000003,0.17171603336443622
276,2234.4900000000002,0.17332912386436136
277,2244.8,0.17182646489203693
278,2255.17,0.1700207967113382
279,2265.57,0.16922552392645226
280,2276.03,0.169972061933192
281,2286.54,0.1706249455996198
282,2297.09,0.168811869793798
283,2302.39,0.17018785972073117
284,2313.01,0.16990227983847261
285,2323.69,0.16726110074783976
286,2334.42,0.16729836731689496
287,2345.19,0.1642296144137006
288,2356.02,0.1684435823021319
289,2366.8900000000003,0.16437493071831358
290,2372.35,0.1666539827562485
291,2383.2999999999997,0.16166142222793112
292,2394.3,0.16366453735930173
293,2405.35,0.16298686815036045
294,2416.45,0.16314928460110723
295,2427.61,0.1668497918434796
296,2433.2000000000003,0.1663952505966034
297,2444.43,0.1675580937625391
298,2455.7200000000003,0.1671102277201004
299,2467.05,0.1667577022054122
300,2472.74,0.16498911227791213
301,2484.15,0.16261929781872475
302,2495.62,0.16204590415116307
303,2507.14,0.16657033614328942
304,2511.88643,0.1618491626199087
305,2512.92,0.1608428254215289
306,2518.71,0.15865067393838253
307,2524.52,0.15847361326185744
308,2536.1699999999996,0.1604506581187392
309,2547.88,0.16097000539548464
310,2553.75,0.16461103713882336
311,2565.54,0.16348809764205385
312,2577.38,0.1661108551618375
313,2583.32,0.16586602472835058
314,2595.24,0.16482076547461927
315,2607.2200000000003,0.16311711864075168
316,2613.2300000000005,0.16157831603043915
317,2625.2999999999997,0.16564401782636728
318,2637.4199999999996,0.16855604663884852
319,2643.49,0.17484347644839976
320,2655.7,0.17714885389067664
321,2667.95,0.17241388294619606
322,2674.1,0.17517787598223233
323,2686.4500000000003,0.176823909070858
324,2692.64,0.17235335372013677
325,2705.07,0.17437420003524748
326,2717.55,0.16974777336691133
327,2723.82,0.16979547124267513
328,2736.3900000000003,0.1722217132041346
329,2742.7000000000003,0.16446905269314094
330,2755.36,0.16792332328439608
331,2768.08,0.17229682629551502
332,2774.46,0.17504023360769574
333,2787.27,0.1699508552486103
334,2793.6899999999996,0.15174200417403355
335,2806.59,0.15565239444474377
336,2813.06,0.17670742038672013
337,2826.0400000000004,0.17957971388391536
338,2832.56,0.1788406268424449
339,2845.63,0.1754646289694358
340,2852.19,0.1668588335412078
341,2865.35,0.17869997429799436
342,2871.96,0.18051245588631953
343,2884.0315,0.18048426610247276
344,2885.22,0.18050294830488597
345,2891.8700000000003,0.18175024312250687
346,2911.91,0.1879200310992173
347,2932.1000000000004,0.1868947882823401
348,2952.42,0.18627850277768715
349,2972.8900000000003,0.18798200647944666
350,2986.61,0.18981381589264357
351,3007.3100000000004,0.19120120637756893
352,3028.16,0.19263442606890682
353,3049.15,0.195067929019563
354,3070.28,0.19517517522953753
355,3091.56,0.19552861064592458
356,3112.99,0.19688383526872413
357,3127.36,0.19705350124304188
358,3149.04,0.1976990745431956
359,3170.87,0.20070233704976181
360,3192.85,0.19722238876274054
361,3207.59,0.20136219477954248
362,3229.8199999999997,0.19887699516987536
363,3252.21,0.2067777507137149
364,3267.2200000000003,0.2129191373020593
365,3289.87,0.21353520747034727
366,3311.31121,0.2141298807224709
367,3312.6699999999996,0.2141847699071108
368,3320.3100000000004,0.2161525802764495
369,3327.9599999999996,0.20982358319862773
370,3335.63,0.2163705712264848
371,3343.32,0.2146014443600208
372,3351.0299999999997,0.2095025025992357
373,3358.75,0.21797675339129005
374,3366.5,0.20788878184186269
375,3374.26,0.19522820284527484
376,3382.04,0.20806500895436586
377,3389.83,0.21555170761629633
378,3397.6499999999996,0.21471008393674518
379,3405.48,0.21704565281003343
380,3413.33,0.21683610678900062
381,3421.2,0.22320604587364667
382,3429.09,0.21900947006397162
383,3436.99,0.22346058680713604
384,3444.91,0.21124698865597935
385,3452.8599999999997,0.232827568163341
386,3460.8100000000004,0.22418574767070265
387,3468.79,0.2209313048365827
388,3476.79,0.22376014710814157
389,3484.8,0.2319858819325399
390,3492.8399999999997,0.2278467944154566
391,3500.89,0.22553529945121276
392,3508.96,0.22742078959264778
393,3517.0499999999997,0.22166576483976175
394,3525.16,0.22422012519255458
395,3533.2799999999997,0.23409237809818684
396,3541.43,0.23958720866233746
397,3549.59,0.2405983317793275
398,3557.77,0.2358867400019965
399,3565.9800000000005,0.2438240258831838
400,3574.2000000000003,0.22294960431721056
401,3582.44,0.23209336785691626
402,3590.69,0.21387082394946136
403,3598.9700000000003,0.23780625770052483
404,3607.27,0.23613477655726717
405,3615.58,0.23560808796684898
406,3623.92,0.23545797703494914
407,3632.2700000000004,0.2524601586558887
408,3637.63,0.2801110669778332
409,3640.35,0.25494584135016324
410,3643.0699999999997,0.24387191572249325
411,3645.79,0.22740869009482328
412,3648.5099999999998,0.2287599644671533
413,3651.2299999999996,0.23831063883948334
414,3653.9500000000003,0.24883171321181335
415,3656.67,0.2601966875841434
416,3659.3900000000003,0.22083296195647337
417,3662.11,0.26830763632880344
418,3664.83,0.25201831070113345
419,3667.55,0.25169758507346346
420,3670.27,0.25784395944579347
421,3672.98,0.25505904126528406
422,3675.7000000000003,0.2386684156376141
423,3678.42,0.27305419000994413
424,3681.14,0.25509576438227416
425,3683.86,0.24363923875460416
426,3686.58,0.2355712131269342
427,3689.2999999999997,0.23620188749926424
428,3692.0199999999995,0.22425546187159426
429,3694.7400000000002,0.2567477362439243
430,3697.46,0.2503202106162543
431,3700.1800000000003,0.24137038498858432
432,3702.9,0.24734605936091436
433,3705.62,0.26213113373324437
434,3708.34,0.2548027081055744
435,3711.06,0.2249531824779044
436,3713.7799999999997,0.24602205685023446
437,3716.5,0.23405673122256448
438,3719.22,0.2478556055948945
439,3721.94,0.24809117996722452
440,3724.6600000000003,0.26565465433955454
441,3727.38,0.2808600287118846
442,3730.1,0.2737150030842146
443,3732.82,0.2854908774565446
444,3735.54,0.30904735182887466
445,3738.2599999999998,0.31650552620120465
446,3740.98,0.2776159005735347
447,3743.7,0.2508672749458647
448,3746.4199999999996,0.24165504931819476
449,3749.13,0.25484193113768533
450,3751.85,0.24431160551001535
451,3754.5699999999997,0.2418066798823454
452,3757.29,0.2193693542546754
453,3760.0099999999998,0.22829102862700545
454,3762.73,0.27229520299933546
455,3765.4500000000003,0.27979447737166546
456,3768.17,0.2562476517439955
457,3770.89,0.2709095261163255
458,3773.61,0.27927800048865553
459,3776.33,0.26202447486098557
460,3779.0499999999997,0.2700547492333156
461,3781.77,0.2726641236056456
462,3784.49,0.2805173979779757
463,3787.2099999999996,0.2964878723503057
464,3789.9300000000003,0.3241407467226357
465,3792.65,0.3296171210949657
466,3795.3700000000003,0.31072299546729576
467,3798.09,0.3024305698396258
468,3800.81,0.2824872442119558
469,3801.8939600000003,0.2741666454548312
470,3803.5299999999997,0.2616228069623918
471,3806.25,0.24183013525788277
472,3808.97,0.2640737635533738
473,3811.6899999999996,0.28702859184886476
474,3814.41,0.3047332201443558
475,3817.13,0.3030554484398468
476,3819.8500000000004,0.2947556767353377
477,3822.56,0.2870705233091541
478,3825.2799999999997,0.2999959516046451
479,3827.9999999999995,0.2863415799001361
480,3830.7200000000003,0.2591935081956271
481,3833.44,0.2661638364911181
482,3836.1600000000003,0.24992396478660905
483,3838.88,0.25855059308210004
484,3841.6,0.23878632137759104
485,3844.32,0.208050649673082
486,3847.04,0.229396677968573
487,3849.7599999999998,0.251517106264064
488,3852.48,0.27738953455955495
489,3855.2,0.27916966285504596
490,3857.92,0.28747719115053694
491,3860.6400000000003,0.3211157194460279
492,3863.36,0.3209456477415189
493,3866.08,0.3267433760370099
494,3868.8,0.29648500433250086
495,3871.52,0.3161557326279919
496,3874.24,0.3417340609234829
497,3876.96,0.34632118921897387
498,3879.68,0.30947241751446486
499,3882.3999999999996,0.2976103458099558
500,3885.1200000000003,0.2952212741054468
501,3887.84,0.2926459024009378
502,3890.56,0.27792323069642877
503,3893.28,0.2614494589919198
504,3896.0,0.25750218728741076
505,3898.71,0.2631493338612272
506,3901.4300000000003,0.2609943621567181
507,3904.15,0.28081679045220914
508,3906.87,0.28346311874770014
509,3909.59,0.3054697470431911
510,3912.31,0.3098355753386821
511,3915.0299999999997,0.3235228036341731
512,3917.75,0.33317353192966404
513,3920.47,0.34065286022515506
514,3923.1899999999996,0.33728398852064606
515,3925.9100000000003,0.321132516816137
516,3928.63,0.329149145111628
517,3931.35,0.312877673407119
518,3934.07,0.29949510170260996
519,3936.79,0.274758829998101
520,3939.5099999999998,0.252200358293592
521,3942.23,0.21422638658908294
522,3944.95,0.22535011488457393
523,3947.6699999999996,0.2596303431800649
524,3950.39,0.2880724714755559
525,3953.11,0.3092128997710469
526,3955.8300000000004,0.3208898280665379
527,3958.55,0.3246519563620288
528,3961.27,0.3281768846575199
529,3963.9900000000002,0.32654971295301083
530,3966.71,0.3013298412485018
531,3969.43,0.2869959695439928
532,3972.1400000000003,0.2570012161178092
533,3974.86,0.2308171444133002
534,3977.58,0.20463947270879115
535,3980.2999999999997,0.21434720100428215
536,3983.02,0.23909112929977314
537,3985.74,0.2789030575952641
538,3988.4599999999996,0.3073736858907551
539,3991.18,0.33307851418624607
540,3993.9,0.3491269424817371
541,3996.6200000000003,0.35940667077722804
542,3999.34,0.3814732990727191
543,4002.06,0.39108622736821
544,4004.78,0.375304555663701
545,4007.5,0.35183258395919204
546,4010.22,0.375185712254683
547,4012.94,0.377098740550174
548,4015.66,0.39319126884566497
549,4018.3799999999997,0.401128897141156
550,4021.1000000000004,0.39756082543664695
551,4023.82,0.43195485373213793
552,4026.54,0.4062291820276289
553,4029.26,0.40209231032311993
554,4031.98,0.40803843861861094
555,4034.7,0.4288723669141019
556,4037.42,0.4192354952095929
557,4040.14,0.39866212350508384
558,4042.8599999999997,0.40343875180057487
559,4045.58,0.3910203800960658
560,4048.29,0.4232037266698822
561,4051.0099999999998,0.43262695496537323
562,4053.73,0.4096511832608642
563,4056.45,0.3950201115563552
564,4059.1699999999996,0.4068771398518462
565,4061.8900000000003,0.40665966814733717
566,4064.61,0.4094765964428282
567,4067.33,0.4123252247383191
568,4070.05,0.39383785303381014
569,4072.77,0.3922928813293011
570,4075.49,0.3760497096247921
571,4078.21,0.3771598379202831
572,4080.93,0.3865514662157741
573,4083.6499999999996,0.40232799451126505
574,4086.37,0.37131732280675606
575,4089.09,0.37575255110224703
576,4091.81,0.38479647939773803
577,4094.53,0.387076107693229
578,4097.25,0.40158823598872
579,4099.97,0.38373306428421095
580,4102.69,0.38790929257970197
581,4105.41,0.34580402087519296
582,4108.13,0.31106364917068396
