,lambda (Angstroms),Total Flux (erg/s/cm^2/Angstrom)
0,100.04,0.0056318134729484515
1,101.89999999999999,0.006772586470466777
2,104.03,0.008078955548270116
3,104.712855,0.008497763368281161
4,105.97,0.007854430619368741
5,107.94,0.006846300677828858
6,109.94999999999999,0.005817701092806347
7,114.07000000000001,0.0037093278140558654
8,118.08000000000001,0.001657246054889711
9,120.22644299999999,0.000558822980733867
10,121.11,0.0005379011740641913
11,125.08,0.0004438952723957006
12,127.11,0.00039582676349639057
13,127.99,0.00037498918329186893
14,130.97,0.00030442555943648036
15,131.88,0.0002828776072018646
16,134.02,0.000232204400854901
17,137.14000000000001,0.0001583257075796523
18,138.038426,0.00013705181696404702
19,140.02,0.0001353946484696662
20,142.95000000000002,0.00013294432199295277
21,146.95,0.000129599166909772
22,151.07,0.0001261536580658081
23,154.95,0.00012290886007562633
24,158.489319,0.00011994897146738375
25,158.92,0.00011939557397643712
26,161.87,0.0001156050151554469
27,166.03,0.00011025968826272874
28,169.89000000000001,0.00010529984905409958
29,173.05,0.00010123946678556808
30,177.08,9.60612061923055e-05
31,179.96,9.236062420211906e-05
32,181.970086,8.977781983218909e-05
33,182.04000000000002,8.98067298147285e-05
34,185.85999999999999,9.138635222028662e-05
35,191.06,9.353665743986681e-05
36,194.17000000000002,9.482273617447592e-05
37,197.78,9.631564457503506e-05
38,201.92000000000002,9.802776929550119e-05
39,205.2,9.938427493343329e-05
40,208.929613,0.00010092686243906185
41,209.98,0.00010356456268399781
42,215.86,0.00011833049111069892
43,219.88,0.00012842574767092305
44,222.94000000000003,0.00013611030833948187
45,227.07999999999998,0.00014650726415341413
46,230.23999999999998,0.000154488695446063
47,233.98,0.00016389111826363477
48,239.88329199999998,0.00017873358893451426
49,239.98,0.00017853385827681315
50,246.14000000000001,0.00016581481776810843
51,251.87,0.0001539907247016186
52,257.15,0.0001430902239455861
53,260.12,0.00013696929857656768
54,263.74,0.0001295104180146666
55,269.26,0.00011812949481972349
56,274.27,0.00010780889416996533
57,275.42287,0.0001054355367293906
58,278.72999999999996,0.00011277167348216002
59,283.90999999999997,0.00012426728056100198
60,289.85,0.0001374550125077823
61,295.92,0.00015093498953723606
62,300.73,0.00016160470749616076
63,307.74,0.00017720423904648547
64,316.227766,0.00019612667970892716
65,317.82,0.00019358443738772048
66,328.22999999999996,0.0001769697090830569
67,338.20000000000005,0.0001610965772036623
68,347.68,0.0001460498122501359
69,356.59999999999997,0.00013193652178331564
70,363.078055,0.00012171169973300393
71,365.75000000000006,0.00012518978787718886
72,375.13,0.0001373985979299991
73,384.75,0.0001499606704319218
74,394.61999999999995,0.0001629690761516699
75,404.74,0.00017632043808924359
76,414.17,0.00018876661798561896
77,416.86938299999997,0.00019234542873446467
78,421.87,0.00019644985068366903
79,429.71000000000004,0.00020291161861029982
80,440.74,0.0002121116607711082
81,451.0,0.0002206610698409081
82,460.45000000000005,0.00022851722995782922
83,470.09000000000003,0.00023668605466863534
84,478.630092,0.00024396750983654146
85,479.93,0.00024280017959445914
86,489.98,0.00023370199696199614
87,500.24,0.0002245828700297503
88,506.03000000000003,0.00021968270190716712
89,511.89,0.00021531862268465637
90,520.2099999999999,0.0002079309533789756
91,529.88,0.00019947938000326238
92,539.73,0.0001906579980848782
93,549.5408739999999,0.00018211407333741458
94,549.77,0.0001820680293715824
95,559.99,0.00018058733823238552
96,570.4,0.00017866962947905485
97,579.67,0.000176957406410527
98,590.4399999999999,0.00017506259744094283
99,600.04,0.00017317479167418254
100,609.79,0.00017129900831731664
101,619.6999999999999,0.00017023033486433808
102,629.76,0.00016842557382125387
103,630.957344,0.0001682505527459418
104,640.0,0.00017379188081146398
105,650.4,0.0001797746253617887
106,657.9300000000001,0.00018408563618524496
107,665.5500000000001,0.00018896782203846368
108,674.81,0.00019480709287846422
109,685.77,0.00020074667205842182
110,695.31,0.00020704894521323888
111,704.98,0.00021233100229993502
112,716.4399999999999,0.00022005878275635049
113,724.43596,0.00022499924770718997
114,726.4,0.00022584390304582034
115,734.82,0.00022947647680494085
116,745.04,0.00023360716317289944
117,755.4,0.00023782610729932324
118,764.15,0.0002413281722033974
119,774.7800000000001,0.00024609409272114693
120,785.5600000000001,0.00025045130012296636
121,794.65,0.00025458046529759876
122,805.71,0.0002592516782163485
123,815.04,0.0002634178524054927
124,824.4799999999999,0.00026766646697628816
125,831.763771,0.0002696630947073502
126,835.95,0.0002675103120923524
127,845.63,0.00026549986032727815
128,855.4200000000001,0.00026179877786032795
129,865.3199999999999,0.0002585690646915021
130,875.34,0.0002550009562115388
131,885.48,0.0002512379824204383
132,895.73,0.00024745664792746196
133,904.02,0.0002444139768497279
134,914.49,0.0002562134009529999
135,925.08,0.0002998791297451345
136,935.79,0.00034443439322613196
137,944.45,0.00041302590160572457
138,954.992586,0.0004423850861549195
139,955.38,0.00044364025112845476
140,964.2299999999999,0.0004913786434693427
141,975.39,0.0003735685049975132
142,984.4200000000001,0.000514122420911436
143,995.8100000000001,0.0005088211347829291
144,1005.03,0.0005403670200239446
145,1014.3299999999999,0.00053583977129742
146,1026.07,0.00041524808656092553
147,1035.57,0.000529412752915551
148,1045.1499999999999,0.0005960813853026364
149,1054.8200000000002,0.0006028117294762394
150,1064.58,0.0005901571854363599
151,1074.43,0.0006155194531829978
152,1084.3700000000001,0.0005959570327161533
153,1094.4099999999999,0.0006391509697898838
154,1096.4782,0.0006389756230333841
155,1104.53,0.0006368280370931801
156,1114.75,0.0006448163819688661
157,1125.07,0.0006337076904930423
158,1135.48,0.0006626853363008594
159,1145.98,0.0006586257193923177
160,1153.93,0.0006717904794472789
161,1164.6,0.0006833618107411703
162,1175.38,0.0006346686320484007
163,1186.26,0.0006896021170041213
164,1194.48,0.0006700812889100057
165,1205.53,0.0006364726220681594
166,1213.8899999999999,0.00048643266308193004
167,1225.12,0.0006671753708073658
168,1233.61,0.0007277073545641736
169,1245.03,0.0007501331632217404
170,1253.66,0.0007664365160864342
171,1258.92541,0.0007700649660509991
172,1265.26,0.0007762443049426085
173,1274.03,0.0008074212874718658
174,1285.81,0.0008296547123515293
175,1294.73,0.0008246929474896108
176,1303.7,0.0008456417334973003
177,1315.77,0.0008891574734206907
178,1324.8899999999999,0.0009024269120372044
179,1334.07,0.0009120809916972479
180,1346.41,0.0009553376663165219
181,1355.75,0.0009799116887593113
182,1365.1399999999999,0.0009967547620717086
183,1374.61,0.0010246163567754788
184,1384.13,0.0010600915023488574
185,1393.73,0.0010424685693136086
186,1403.3899999999999,0.0010649708773218896
187,1416.3799999999999,0.0011572233132460686
188,1426.19,0.001184925873863174
189,1436.0800000000002,0.001228970955871652
190,1442.71,0.0012638280411816835
191,1445.43977,0.0012796205316617773
192,1446.0300000000002,0.001283033375009545
193,1456.0600000000002,0.0013167104648630621
194,1466.1499999999999,0.0013513695123827019
195,1476.3100000000002,0.0013989696771794847
196,1486.5500000000002,0.0014546621188644313
197,1493.41,0.0015028546120244642
198,1503.76,0.0015561628094306356
199,1510.7,0.0015835875794788321
200,1517.67,0.0016150278283600897
201,1524.6799999999998,0.0016651917156854292
202,1535.25,0.001705823424534051
203,1545.89,0.0017398802506598157
204,1556.6,0.001833930194062724
205,1563.79,0.0019417669543864314
206,1574.6299999999999,0.0021067769727326053
207,1585.54,0.0022814221083559227
208,1596.53,0.0024061925208674036
209,1603.9,0.0024116461541894793
210,1615.02,0.0025952046416442263
211,1626.2199999999998,0.0026894354059871367
212,1633.7199999999998,0.002805863114252478
213,1645.0500000000002,0.0030956829535386545
214,1656.4499999999998,0.003020677910101974
215,1659.58691,0.003260475654111876
216,1664.1000000000001,0.003605928028654859
217,1671.78,0.0034102352166733136
218,1675.6299999999999,0.00402739997629194
219,1683.37,0.004261543157966789
220,1695.03,0.004310995258526058
221,1706.78,0.004593362849569918
222,1714.66,0.004971646349776353
223,1726.55,0.005214506259351799
224,1734.52,0.005670604250042826
225,1746.54,0.005814913312540459
226,1754.6000000000001,0.006281449793716079
227,1766.76,0.005963963174745298
228,1774.92,0.006530317312014907
229,1783.11,0.0069122199461127114
230,1795.47,0.007485163639329912
231,1803.76,0.008272852929521709
232,1816.26,0.008600515941270495
233,1824.6499999999999,0.008504104887556282
234,1833.07,0.008941249330670266
235,1845.77,0.008410513654607031
236,1854.2900000000002,0.009087253753815005
237,1867.1499999999999,0.009819509727502158
238,1875.77,0.01004687048280412
239,1884.42,0.010349466734934282
240,1893.1200000000001,0.01090714081511144
241,1905.46072,0.011002564378594697
242,1906.2399999999998,0.011008382175500781
243,1915.04,0.011678969990034907
244,1923.88,0.012001651794635098
245,1937.22,0.011464397481667514
246,1946.16,0.013025284261432866
247,1955.1399999999999,0.013385855031264281
248,1968.6899999999998,0.014398759166143535
249,1977.7800000000002,0.014463433408656627
250,1982.34,0.014662498276187949
251,1996.0800000000002,0.014931103863881004
252,2005.3000000000002,0.014827428574108806
253,2014.55,0.015520268776886156
254,2023.8500000000001,0.014961061467246085
255,2033.19,0.01654414814767208
256,2047.29,0.017556539645959716
257,2056.74,0.016692599799067384
258,2066.23,0.01723522394224112
259,2075.77,0.019458300572997436
260,2085.35,0.020183911193819817
261,2094.97,0.020182525804708258
262,2104.6400000000003,0.02018110290317928
263,2114.36,0.021223512489232887
264,2124.12,0.021417406065352553
265,2133.92,0.020834663631538283
266,2143.77,0.0225748236853066
267,2153.67,0.022886246226657494
268,2163.61,0.022416922758074446
269,2173.59,0.02298867327955747
270,2183.63,0.02423313478613959
271,2187.7616199999998,0.024965015812891674
272,2193.71,0.02602032658470643
273,2203.83,0.02584310887857436
274,2214.0,0.025027157162036497
275,2224.2200000000003,0.026264201435092845
276,2234.4900000000002,0.028725661697743404
277,2244.8,0.028074676752069327
278,2255.17,0.027125638993908303
279,2265.57,0.027189474829503804
280,2276.03,0.028800077852612353
281,2286.54,0.030321156865315117
282,2297.09,0.029379580669693244
283,2302.39,0.031193385566679412
284,2313.01,0.03178508775648943
285,2323.69,0.030026147133812506
286,2334.42,0.03094978250072979
287,2345.19,0.028770702659322436
288,2356.02,0.03387930000542814
289,2366.8900000000003,0.030708582143209203
290,2372.35,0.03343866620689684
291,2383.2999999999997,0.02935064792802864
292,2394.3,0.03226243563875465
293,2405.35,0.03249756933907487
294,2416.45,0.0335769190289893
295,2427.61,0.03819931590641678
296,2433.2000000000003,0.03820654554304936
297,2444.43,0.04029706080590873
298,2455.7200000000003,0.04078182325628116
299,2467.05,0.04136523049832895
300,2472.74,0.04006667211414995
301,2484.15,0.03863939893954847
302,2495.62,0.039013502952460054
303,2507.14,0.04448956295496583
304,2511.88643,0.040160475867115096
305,2512.92,0.03921761361975268
306,2518.71,0.03738104518022296
307,2524.52,0.03756079581344099
308,2536.1699999999996,0.040253305688998646
309,2547.88,0.04149180278279952
310,2553.75,0.04549333063426076
311,2565.54,0.045094454019052585
312,2577.38,0.04844434508571376
313,2583.32,0.04856430969179208
314,2595.24,0.04825109704944421
315,2607.2200000000003,0.04728318162533955
316,2613.2300000000005,0.046113472986034965
317,2625.2999999999997,0.050920433389295125
318,2637.4199999999996,0.05457679147442464
319,2643.49,0.06123700005336326
320,2655.7,0.06429223396585759
321,2667.95,0.06030957602384741
322,2674.1,0.06345126089377698
323,2686.4500000000003,0.06585574831550549
324,2692.64,0.06176534133093054
325,2705.07,0.06454955504365001
326,2717.55,0.06068956643823881
327,2723.82,0.061122325744654815
328,2736.3900000000003,0.06432053296660845
329,2742.7000000000003,0.05695539041851993
330,2755.36,0.06118715346783838
331,2768.08,0.06634183373540004
332,2774.46,0.06947705794192861
333,2787.27,0.0651743840368551
334,2793.6899999999996,0.04735980638887915
335,2806.59,0.05206242831117046
336,2813.06,0.07351479834506386
337,2826.0400000000004,0.07718423655834612
338,2832.56,0.07684556427410885
339,2845.63,0.07427223831475595
340,2852.19,0.06606931417601417
341,2865.35,0.07871865404402607
342,2871.96,0.08093707758715364
343,2884.0315,0.0816502385305984
344,2885.22,0.08172050679319573
345,2891.8700000000003,0.08325644048353392
346,2911.91,0.09029605146915459
347,2932.1000000000004,0.09014714231245205
348,2952.42,0.09041283303240275
349,2972.8900000000003,0.09300482361003022
350,2986.61,0.09543214059220165
351,3007.3100000000004,0.09771800095160024
352,3028.16,0.10005620116867563
353,3049.15,0.10340076125291603
354,3070.28,0.10442514120432143
355,3091.56,0.10570222101340365
356,3112.99,0.10798760068016267
357,3127.36,0.10878098704560023
358,3149.04,0.11036756647515392
359,3170.87,0.11431834576238441
360,3192.85,0.11179242490729169
361,3207.59,0.11657201092166537
362,3229.8199999999997,0.11505168982936734
363,3252.21,0.12392426858525787
364,3267.2200000000003,0.13071715434344977
365,3289.87,0.1323163328526468
366,3311.31121,0.1338416477114011
367,3312.6699999999996,0.13393828786329645
368,3320.3100000000004,0.13614084929043802
369,3327.9599999999996,0.1300469105362015
370,3335.63,0.1368295714192088
371,3343.32,0.13529673193945993
372,3351.0299999999997,0.13043469209695488
373,3358.75,0.13914615207307177
374,3366.5,0.12929631150505436
375,3374.26,0.11687417075565888
376,3382.04,0.12995002964350724
377,3389.83,0.1376760883499775
378,3397.6499999999996,0.1370747465123135
379,3405.48,0.13965090449327142
380,3413.33,0.13968256211147315
381,3421.2,0.14629431936691872
382,3429.09,0.1423401762596081
383,3436.99,0.1470340329709194
384,3444.91,0.13506378931947455
385,3452.8599999999997,0.15688864512389541
386,3460.8100000000004,0.14849110092831627
387,3468.79,0.1454818561886029
388,3476.79,0.14855651108613332
389,3484.8,0.15702836580228569
390,3492.8399999999997,0.15313631997430377
391,3500.89,0.15107217396494374
392,3508.96,0.15320562759282758
393,3517.0499999999997,0.14769918085795525
394,3525.16,0.15050273376032672
395,3533.2799999999997,0.1606244864813201
396,3541.43,0.16636973865817925
397,3549.59,0.16763159065366026
398,3557.77,0.16317134228638513
399,3565.9800000000005,0.17136089337497576
400,3574.2000000000003,0.1507390442821883
401,3582.44,0.16013599482664462
402,3590.69,0.1421669451897229
403,3598.9700000000003,0.16635679500866687
404,3607.27,0.1649403444648547
405,3615.58,0.16466899373966445
406,3623.92,0.16477514247033992
407,3632.2700000000004,0.18203389101963735
408,3637.63,0.20984949380098272
409,3640.35,0.18476784446614306
410,3643.0699999999997,0.17377749513130342
411,3645.79,0.15739784579646376
412,3648.5099999999998,0.1588326964616241
413,3651.2299999999996,0.16846694712678445
414,3653.9500000000003,0.17907159779194481
415,3656.67,0.19052014845710516
416,3659.3900000000003,0.1512399991222655
417,3662.11,0.19879824978742586
418,3664.83,0.18259250045258618
419,3667.55,0.18235535111774656
420,3670.27,0.1885853017829069
421,3672.98,0.1858836526294453
422,3675.7000000000003,0.16957660329460567
423,3678.42,0.20404595395976602
424,3681.14,0.18617110462492636
425,3683.86,0.17479815529008672
426,3686.58,0.16681370595524705
427,3689.2999999999997,0.16752795662040743
428,3692.0199999999995,0.15566510728556776
429,3694.7400000000002,0.18824095795072812
430,3697.46,0.18189700861588845
431,3700.1800000000003,0.1730307592810488
432,3702.9,0.17909000994620916
433,3705.62,0.19395866061136952
434,3708.34,0.18671381127652986
435,3711.06,0.1569478619416902
436,3713.7799999999997,0.17810031260685052
437,3716.5,0.1662185632720109
438,3719.22,0.18010101393717123
439,3721.94,0.1804201646023316
440,3724.6600000000003,0.19806721526749194
441,3727.38,0.2133561659326523
442,3730.1,0.20629471659781265
443,3732.82,0.218154167262973
444,3735.54,0.24179421792813333
445,3738.2599999999998,0.24933596859329366
446,3740.98,0.21052991925845405
447,3743.7,0.18386486992361437
448,3746.4199999999996,0.17473622058877472
449,3749.13,0.18800637143531315
450,3751.85,0.17755962210047352
451,3754.5699999999997,0.17513827276563385
452,3757.29,0.15278452343079418
453,3760.0099999999998,0.16178977409595455
454,3762.73,0.2058775247611149
455,3765.4500000000003,0.21346037542627525
456,3768.17,0.1899971260914356
457,3770.89,0.20474257675659593
458,3773.61,0.21319462742175627
459,3776.33,0.19602467808691665
460,3779.0499999999997,0.204138528752077
461,3781.77,0.20683147941723734
462,3784.49,0.21476833008239768
463,3787.2099999999996,0.230822380747558
464,3789.9300000000003,0.25855883141271835
465,3792.65,0.2641187820778787
466,3795.3700000000003,0.24530823274303906
467,3798.09,0.23709938340819942
468,3800.81,0.21723963407335978
469,3801.8939600000003,0.20895234169799118
470,3803.5299999999997,0.19644419092148901
471,3806.25,0.17671085186615068
472,3808.97,0.19901381281081237
473,3811.6899999999996,0.22202797375547403
474,3814.41,0.2397919347001357
475,3817.13,0.2381734956447974
476,3819.8500000000004,0.22993305658945906
477,3822.56,0.22230701767770655
478,3825.2799999999997,0.23529177862236822
479,3827.9999999999995,0.2216967395670299
480,3830.7200000000003,0.19460800051169158
481,3833.44,0.20163766145635326
482,3836.1600000000003,0.18545712240101495
483,3838.88,0.19414308334567662
484,3841.6,0.1744381442903383
485,3844.32,0.14376180523499998
486,3847.04,0.16516716617966165
487,3849.7599999999998,0.18734692712432333
488,3852.48,0.213278688068985
489,3855.2,0.21511814901364668
490,3857.92,0.22348500995830836
491,3860.6400000000003,0.25718287090297004
492,3863.36,0.2570721318476317
493,3866.08,0.26292919279229343
494,3868.8,0.23273015373695508
495,3871.52,0.2524602146816168
496,3874.24,0.27809787562627847
497,3876.96,0.2827443365709401
498,3879.68,0.2459548975156018
499,3882.3999999999996,0.23415215846026347
500,3885.1200000000003,0.23182241940492515
501,3887.84,0.22930638034958684
502,3890.56,0.21464304129424852
503,3893.28,0.1982286022389102
504,3896.0,0.19434066318357188
505,3898.71,0.20004692427181936
506,3901.4300000000003,0.19795128521648103
507,3904.15,0.2178330461611427
508,3906.87,0.2205387071058044
509,3909.59,0.24260466805046604
510,3912.31,0.24702982899512774
511,3915.0299999999997,0.2607763899397894
512,3917.75,0.27048645088445106
513,3920.47,0.27802511182911277
514,3923.1899999999996,0.27471557277377445
515,3925.9100000000003,0.25862343371843616
516,3928.63,0.2666993946630978
517,3931.35,0.2504872556077595
518,3934.07,0.23716401655242117
519,3936.79,0.21248707749708284
520,3939.5099999999998,0.18998793844174452
521,3942.23,0.15207329938640618
522,3944.95,0.16325636033106786
523,3947.6699999999996,0.19759592127572956
524,3950.39,0.22609738222039125
525,3953.11,0.2472971431650529
526,3955.8300000000004,0.2590334041097146
527,3958.55,0.2628548650543763
528,3961.27,0.26643912599903796
529,3963.9900000000002,0.26487128694369966
530,3966.71,0.2397107478883613
531,3969.43,0.22543620883302298
532,3972.1400000000003,0.19550056992127046
533,3974.86,0.16937583086593214
534,3977.58,0.1432574918105938
535,3980.2999999999997,0.1530245527552555
536,3983.02,0.17782781369991718
537,3985.74,0.21769907464457885
538,3988.4599999999996,0.24622903558924053
539,3991.18,0.2719931965339022
540,3993.9,0.2881009574785639
541,3996.6200000000003,0.29844001842322554
542,3999.34,0.3205659793678873
543,4002.06,0.3302382403125489
544,4004.78,0.31451590125721063
545,4007.5,0.29110326220187227
546,4010.22,0.314515723146534
547,4012.94,0.3164880840911956
548,4015.66,0.3326399450358573
549,4018.3799999999997,0.34063690598051904
550,4021.1000000000004,0.33712816692518066
551,4023.82,0.3715815278698424
552,4026.54,0.345915188814504
553,4029.26,0.34183764975916575
554,4031.98,0.3478431107038274
555,4034.7,0.3687363716484891
556,4037.42,0.35915883259315073
