,lambda (Angstroms),Total Flux (erg/s/cm^2/Angstrom)
0,100.04,0.0016090895636996752
1,101.89999999999999,0.001935024705847864
2,104.03,0.0023082730137918388
3,104.712855,0.0024279323909379494
4,105.97,0.002244123034106009
5,107.94,0.0019560859079522162
6,109.94999999999999,0.0016622003122322634
7,114.07000000000001,0.0010598079468780814
8,118.08000000000001,0.0004734988728379321
9,120.22644299999999,0.00015966370880175982
10,121.11,0.00015368604975672008
11,125.08,0.000126827220738669
12,127.11,0.00011309336107875252
13,127.99,0.00010713976675140624
14,130.97,8.697873143463487e-05
15,131.88,8.082217368664374e-05
16,134.02,6.634411481372085e-05
17,137.14000000000001,4.523591692118544e-05
18,138.038426,3.915766255067886e-05
19,140.02,3.868418603891821e-05
20,142.95000000000002,3.798409321942722e-05
21,146.95,3.702833562050913e-05
22,151.07,3.604390618533588e-05
23,154.95,3.5116823754888954e-05
24,158.489319,3.42711451252972e-05
25,158.92,3.411303202249632e-05
26,161.87,3.3030019958920544e-05
27,166.03,3.1502792900386784e-05
28,169.89000000000001,3.0085709787899877e-05
29,173.05,2.8925614893412312e-05
30,177.08,2.7446138514515854e-05
31,179.96,2.6388856409534017e-05
32,181.970086,2.5650934016357977e-05
33,182.04000000000002,2.565919476656529e-05
34,185.85999999999999,2.611057293622475e-05
35,191.06,2.6725048305890516e-05
36,194.17000000000002,2.709258264949312e-05
37,197.78,2.7519270711938582e-05
38,201.92000000000002,2.800863859035748e-05
39,205.2,2.8396390015266655e-05
40,208.929613,2.883742925665889e-05
41,209.98,2.9591142375427943e-05
42,215.86,3.3810630012342544e-05
43,219.88,3.669556480812087e-05
44,222.94000000000003,3.889167159628053e-05
45,227.07999999999998,4.186307216026118e-05
46,230.23999999999998,4.417668833458943e-05
47,233.98,4.6871000853895655e-05
48,239.88329199999998,5.112525391545195e-05
49,239.98,5.106840994337518e-05
50,246.14000000000001,4.7450808648030984e-05
51,251.87,4.4092827057605314e-05
52,257.15,4.0993559913024594e-05
53,260.12,3.926082845044791e-05
54,263.74,3.715052093276189e-05
55,269.26,3.392543287706385e-05
56,274.27,3.1007139119990094e-05
57,275.42287,3.033715444336128e-05
58,278.72999999999996,3.245647928061714e-05
59,283.90999999999997,3.5780927160286276e-05
60,289.85,3.959864257365208e-05
61,295.92,4.3503535367781736e-05
62,300.73,4.6585748356045923e-05
63,307.74,5.1127398441852984e-05
64,316.227766,5.666086473531282e-05
65,317.82,5.595834418220584e-05
66,328.22999999999996,5.13716868808734e-05
67,338.20000000000005,4.701823491533209e-05
68,347.68,4.29249870714674e-05
69,356.59999999999997,3.9118170509518763e-05
70,363.078055,3.6378315366362165e-05
71,365.75000000000006,3.7446925822053956e-05
72,375.13,4.119714083714259e-05
73,384.75,4.50841936948348e-05
74,394.61999999999995,4.9192137471905684e-05
75,404.74,5.341759516835531e-05
76,414.17,5.7360091567319705e-05
77,416.86938299999997,5.850468188453322e-05
78,421.87,5.99035144810483e-05
79,429.71000000000004,6.212344174579995e-05
80,440.74,6.535569022031662e-05
81,451.0,6.835391495454517e-05
82,460.45000000000005,7.109714213080834e-05
83,470.09000000000003,7.405023419103867e-05
84,478.630092,7.671106314698192e-05
85,479.93,7.646588631270261e-05
86,489.98,7.449716341771317e-05
87,500.24,7.265647000850009e-05
88,506.03000000000003,7.186372197347631e-05
89,511.89,7.165672076704467e-05
90,520.2099999999999,7.01712509654216e-05
91,529.88,6.857956571521782e-05
92,539.73,6.674576373853662e-05
93,549.5408739999999,6.516166298832932e-05
94,549.77,6.516852267759497e-05
95,559.99,6.604756092353872e-05
96,570.4,6.653345127972996e-05
97,579.67,6.696160897443628e-05
98,590.4399999999999,6.755352069741223e-05
99,600.04,6.788229047833787e-05
100,609.79,6.825771666209048e-05
101,619.6999999999999,6.947719567552517e-05
102,629.76,6.999522109178683e-05
103,630.957344,7.009665870736731e-05
104,640.0,7.2823637374704e-05
105,650.4,7.55695858176539e-05
106,657.9300000000001,7.753703176721284e-05
107,665.5500000000001,8.004764201098962e-05
108,674.81,8.300491939384691e-05
109,685.77,8.553341344526337e-05
110,695.31,8.886654863235396e-05
111,704.98,9.113900779998143e-05
112,716.4399999999999,9.530008793038586e-05
113,724.43596,9.775196709250178e-05
114,726.4,9.824882944166295e-05
115,734.82,0.0001003903862299831
116,745.04,0.0001027113109065427
117,755.4,0.00010509570208552091
118,764.15,0.00010704831348668496
119,774.7800000000001,0.00010993186934889913
120,785.5600000000001,0.00011238015003513325
121,794.65,0.0001148996543707425
122,805.71,0.00011761235806181385
123,815.04,0.00012012637211585505
124,824.4799999999999,0.0001227033477075109
125,831.763771,0.00012341016235396205
126,835.95,0.00012287344631210068
127,845.63,0.00012459989580779375
128,855.4200000000001,0.00012467817938866514
129,865.3199999999999,0.0001252702970547149
130,875.34,0.00012557034463186821
131,885.48,0.00012572185212012525
132,895.73,0.00012589746369356058
133,904.02,0.00012605509338563654
134,914.49,0.00014189639312942853
135,925.08,0.00018965032278432415
136,935.79,0.0002383401123503234
137,944.45,0.0003102747576016356
138,954.992586,0.000343703839146197
139,955.38,0.0003449826431795585
140,964.2299999999999,0.00039326104099124073
141,975.39,0.00027613185857071804
142,984.4200000000001,0.00041723676311755317
143,995.8100000000001,0.0004126304670808369
144,1005.03,0.00044473893429255556
145,1014.3299999999999,0.00044077914894212
146,1026.07,0.0003209038104459787
147,1035.57,0.0004356481436901574
148,1045.1499999999999,0.0005029013243721818
149,1054.8200000000002,0.0005102217084217827
150,1064.58,0.0004981626958389599
151,1074.43,0.0005241259866237137
152,1084.3700000000001,0.0005051700807760438
153,1094.4099999999999,0.000548976634225681
154,1096.4782,0.0005489274840019154
155,1104.53,0.0005483175820266228
156,1114.75,0.0005582576805625331
157,1125.07,0.0005491198401408692
158,1135.48,0.0005800855246573884
159,1145.98,0.0005780311341120908
160,1153.93,0.0005927141369849368
161,1164.6,0.0006063231602117629
162,1175.38,0.0005596886805852573
163,1186.26,0.0006166999620011776
164,1194.48,0.0005987489396885731
165,1205.53,0.0005672505348766169
166,1213.8899999999999,0.00041880711802340853
167,1225.12,0.0006016944630878188
168,1233.61,0.0006638478155897639
169,1245.03,0.0006884545466347829
170,1253.66,0.0007064060045961241
171,1258.92541,0.0007110400106507166
172,1265.26,0.0007171333014121739
173,1274.03,0.0007481911535633902
174,1285.81,0.0007702645606718655
175,1294.73,0.0007651816278541746
176,1303.7,0.0007860085667135144
177,1315.77,0.0008293603495487687
178,1324.8899999999999,0.0008425059034392013
179,1334.07,0.0008520352833420708
180,1346.41,0.0008951243332332919
181,1355.75,0.0009195714825026603
182,1365.1399999999999,0.0009362870034490596
183,1374.61,0.0009640199590787083
184,1384.13,0.000999365786385388
185,1393.73,0.0009816124483753167
186,1403.3899999999999,0.0010039835363776827
187,1416.3799999999999,0.0010960595180703053
188,1426.19,0.001123628821103764
189,1436.0800000000002,0.0011675395588204719
190,1442.71,0.0012023065831947668
191,1445.43977,0.0012180619928844312
192,1446.0300000000002,0.0012214681071455844
193,1456.0600000000002,0.001255030847103732
194,1466.1499999999999,0.001289574860680772
195,1476.3100000000002,0.0013370591934798528
196,1486.5500000000002,0.0013926348911041232
197,1493.41,0.0014407491748641328
198,1503.76,0.0014939393741230387
199,1510.7,0.0015212850227082377
200,1517.67,0.0015526458081028829
201,1524.6799999999998,0.0016027297759101226
202,1535.25,0.0016432409784383002
203,1545.89,0.0016771765001885187
204,1556.6,0.0017711043411607781
205,1563.79,0.0018788591298246947
206,1574.6299999999999,0.0020437455636378873
207,1585.54,0.002218266316673121
208,1596.53,0.0023429114345335437
209,1603.9,0.002348281044054137
210,1615.02,0.0025317127547554935
211,1626.2199999999998,0.002625815830282039
212,1633.7199999999998,0.002742158032643565
213,1645.0500000000002,0.003031848701011044
214,1656.4499999999998,0.002956713688600564
215,1659.58691,0.0031964756693671674
216,1664.1000000000001,0.0035415522939013884
217,1671.78,0.003345220061906661
218,1675.6299999999999,0.003962064278940554
219,1683.37,0.004195563045133369
220,1695.03,0.004244044359578873
221,1706.78,0.004525433671305691
222,1714.66,0.004903061099936101
223,1726.55,0.005144931074100514
224,1734.52,0.005600365500012236
225,1746.54,0.005743673803582988
226,1754.6000000000001,0.0062095392267760225
227,1766.76,0.005891040192784371
228,1774.92,0.006456714946289973
229,1783.11,0.006837935698889346
230,1795.47,0.007409850325522833
231,1803.76,0.008196849408434773
232,1816.26,0.008523471697505856
233,1824.6499999999999,0.008426362110730367
234,1833.07,0.008862805523048647
235,1845.77,0.008331012472744866
236,1854.2900000000002,0.009007043215375715
237,1867.1499999999999,0.009738228493572044
238,1875.77,0.009964871566515463
239,1884.42,0.010266747638552653
240,1893.1200000000001,0.010823697375746125
241,1905.46072,0.010918093477856326
242,1906.2399999999998,0.010923994907285938
243,1915.04,0.011595527140009974
244,1923.88,0.011919157655610028
245,1937.22,0.011383334994762148
246,1946.16,0.012945181217552247
247,1955.1399999999999,0.013306715723218366
248,1968.6899999999998,0.014321074047469582
249,1977.7800000000002,0.014386723831044751
250,1982.34,0.014586278078910843
251,1996.0800000000002,0.014856358246823144
252,2005.3000000000002,0.014753672449745374
253,2014.55,0.015447505364824617
254,2023.8500000000001,0.014889296133498882
255,2033.19,0.016473385185049167
256,2047.29,0.017487289898845633
257,2056.74,0.016624364228304964
258,2066.23,0.01716800684064032
259,2075.77,0.019392107306570698
260,2085.35,0.02011874605537709
261,2094.97,0.020118393087059504
262,2104.6400000000003,0.020118007972336937
263,2114.36,0.021161460711209397
264,2124.12,0.021356401732957872
265,2133.92,0.020774711037582366
266,2143.77,0.022515928195801886
267,2153.67,0.022828413207616426
268,2163.61,0.022360156502306983
269,2173.59,0.022932978079873562
270,2183.63,0.02417851708175417
271,2187.7616199999998,0.02491084151499282
272,2193.71,0.025965643309916124
273,2203.83,0.025787559679592675
274,2214.0,0.024970737760581854
275,2224.2200000000003,0.02620690755288367
276,2234.4900000000002,0.028667489056498116
277,2244.8,0.028015621929162664
278,2255.17,0.027065696855402374
279,2265.57,0.027128642808429658
280,2276.03,0.0287383508150321
281,2286.54,0.030258530532947175
282,2297.09,0.029316051619912357
283,2302.39,0.03112940301905126
284,2313.01,0.03172019650185412
285,2323.69,0.029960342038232144
286,2334.42,0.030883059285922797
287,2345.19,0.028703057902663552
288,2356.02,0.03381072857297947
289,2366.8900000000003,0.030639080612345486
290,2372.35,0.03336869748768481
291,2383.2999999999997,0.02927974226515104
292,2394.3,0.0321905887539299
293,2405.35,0.03242477695402139
294,2416.45,0.03350317686542551
295,2427.61,0.0381246188304048
296,2433.2000000000003,0.03813137015515696
297,2444.43,0.04022092451597392
298,2455.7200000000003,0.04070472093036605
299,2467.05,0.041287158713808274
300,2472.74,0.0399881134611857
301,2484.15,0.038559863982728135
302,2495.62,0.03893298655784573
303,2507.14,0.044408060844275954
304,2511.88643,0.04007856762514461
305,2512.92,0.03913573960564362
306,2518.71,0.03729936290863513
307,2524.52,0.037479305946697426
308,2536.1699999999996,0.04017220162542818
309,2547.88,0.041411086509371295
310,2553.75,0.04541280875264593
311,2565.54,0.045014322576872164
312,2577.38,0.04836460573877536
313,2583.32,0.04848476705479774
314,2595.24,0.04817194915698406
315,2607.2200000000003,0.04720443046438273
316,2613.2300000000005,0.04603492085315285
317,2625.2999999999997,0.050842280968370034
318,2637.4199999999996,0.05449904042126418
319,2643.49,0.06115945001524664
320,2655.7,0.06421508827595931
321,2667.95,0.06023283600681355
322,2674.1,0.06337472454107913
323,2686.4500000000003,0.06577962094728727
324,2692.64,0.06168941895169444
325,2705.07,0.06447404429818572
326,2717.55,0.060614468982353946
327,2723.82,0.06104743592704423
328,2736.3900000000003,0.06424605941903098
329,2742.7000000000003,0.05688112583386284
330,2755.36,0.06111330813366811
331,2768.08,0.06626840963868573
332,2774.46,0.06940384512626532
333,2787.27,0.06510159543910146
334,2793.6899999999996,0.047287230396822616
335,2806.59,0.05199027951747728
336,2813.06,0.07344286381287539
337,2826.0400000000004,0.07711273187381318
338,2832.56,0.07677427550688824
339,2845.63,0.07420138237564455
340,2852.19,0.0659986754788612
341,2865.35,0.07864845115543602
342,2871.96,0.08086709359632961
343,2884.0315,0.08158065430140563
344,2885.22,0.0816509233694845
345,2891.8700000000003,0.08318686156672397
346,2911.91,0.09022648613404417
347,2932.1000000000004,0.09007759066070059
348,2952.42,0.09034329515211507
349,2972.8900000000003,0.09293529960286577
350,2986.61,0.0953626258834862
351,3007.3100000000004,0.09764850027188579
352,3028.16,0.09998671461962161
353,3049.15,0.10333128892940459
354,3070.28,0.1043556832012347
355,3091.56,0.10563277743240104
356,3112.99,0.10791817162290361
357,3127.36,0.10871156772731434
358,3149.04,0.11029816185004399
359,3170.87,0.11424895593210982
360,3192.85,0.11172304997351191
361,3207.59,0.11650264597761868
362,3229.8199999999997,0.1149823399512478
363,3252.21,0.12385493388150225
364,3267.2200000000003,0.1306478298124142
365,3289.87,0.1322470236721848
366,3311.31121,0.13377235306228002
367,3312.6699999999996,0.1338690108180847
368,3320.3100000000004,0.13607167122583944
369,3327.9599999999996,0.12997783158177184
370,3335.63,0.13676059183405964
371,3343.32,0.13522785198270282
372,3351.0299999999997,0.1303659120277014
373,3358.75,0.13907747202087764
374,3366.5,0.12922773185858696
375,3374.26,0.11680569164447396
376,3382.04,0.12988165132671636
377,3389.83,0.13760781095713642
378,3397.6499999999996,0.13700657043208958
379,3405.48,0.1395828298552204
380,3413.33,0.13961458917470662
381,3421.2,0.1462264483905482
382,3429.09,0.14227240750274517
383,3436.99,0.14696636656311982
384,3444.91,0.13499622551984988
385,3452.8599999999997,0.15682118432111297
386,3460.8100000000004,0.14842374312237608
387,3468.79,0.14541460176817225
388,3476.79,0.1484893603103238
389,3484.8,0.15696131880065306
390,3492.8399999999997,0.15306937713551536
391,3500.89,0.15100533541855535
392,3508.96,0.15313889359795074
393,3517.0499999999997,0.1476325516737015
394,3525.16,0.15043620964580764
395,3533.2799999999997,0.16055806756609145
396,3541.43,0.16630342533090836
397,3549.59,0.16756538304390292
398,3557.77,0.1631052406532529
399,3565.9800000000005,0.1712948981071359
400,3574.2000000000003,0.15067315550919666
401,3582.44,0.16007021280761274
402,3590.69,0.14210127005420656
403,3598.9700000000003,0.1662912271453334
404,3607.27,0.16487488413281562
405,3615.58,0.16460364106847555
406,3623.92,0.16470989784866855
407,3632.2700000000004,0.18196875457703926
408,3637.63,0.20978442680028078
409,3640.35,0.1847028127046123
410,3643.0699999999997,0.17371249860894383
411,3645.79,0.15733288451327537
412,3648.5099999999998,0.15876777041760687
413,3651.2299999999996,0.16840205632193841
414,3653.9500000000003,0.17900674222626994
415,3656.67,0.19045532813060148
416,3659.3900000000003,0.15117521403493298
417,3662.11,0.19873349993926454
418,3664.83,0.18252778584359605
419,3667.55,0.1822906717479276
420,3670.27,0.18852065765225912
421,3672.98,0.18581904360841295
422,3675.7000000000003,0.1695120295127445
423,3678.42,0.20398141541707598
424,3681.14,0.18610660132140752
425,3683.86,0.17473368722573906
426,3686.58,0.1667492731300706
427,3689.2999999999997,0.1674635590344021
428,3692.0199999999995,0.15560074493873363
429,3694.7400000000002,0.18817663084306518
430,3697.46,0.1818327167473967
431,3700.1800000000003,0.17296650265172825
432,3702.9,0.17902578855605975
433,3705.62,0.1938944744603913
434,3708.34,0.18664966036472283
435,3711.06,0.15688374626905435
436,3713.7799999999997,0.17803623217338585
437,3716.5,0.1661545180777174
438,3719.22,0.18003700398204892
439,3721.94,0.18035618988638047
440,3724.6600000000003,0.198003275790712
441,3727.38,0.2132922616950435
442,3730.1,0.20623084759937504
443,3732.82,0.21809033350370657
444,3735.54,0.2417304194080381
445,3738.2599999999998,0.2492722053123696
446,3740.98,0.21046619121670115
447,3743.7,0.18380117712103267
448,3746.4199999999996,0.1746725630253642
449,3749.13,0.18794274898151805
450,3751.85,0.17749603488584959
451,3754.5699999999997,0.1750747207901811
452,3757.29,0.1527210066945126
453,3760.0099999999998,0.16172629259884416
454,3762.73,0.20581407850317568
455,3765.4500000000003,0.21339696440750722
456,3768.17,0.18993375031183873
457,3770.89,0.20467923621617026
458,3773.61,0.2131313221205018
459,3776.33,0.19596140802483333
460,3779.0499999999997,0.20407529392916487
461,3781.77,0.20676827983349638
462,3784.49,0.2147051657378279
463,3787.2099999999996,0.23075925164215944
464,3789.9300000000003,0.25849573754649097
465,3792.65,0.2640557234508225
466,3795.3700000000003,0.245245209355154
467,3798.09,0.23703639525948555
468,3800.81,0.21717668116381708
469,3801.8939600000003,0.20888940283177643
470,3803.5299999999997,0.19638126883471116
471,3806.25,0.17664795767604305
472,3808.97,0.19895094651737497
473,3811.6899999999996,0.22196513535870688
474,3814.41,0.23972912420003878
475,3817.13,0.2381107130413707
476,3819.8500000000004,0.22987030188270258
477,3822.56,0.22224429076505903
478,3825.2799999999997,0.23522907960639092
479,3827.9999999999995,0.22163406844772282
480,3830.7200000000003,0.19454535728905475
481,3833.44,0.20157504613038665
482,3836.1600000000003,0.18539453497171854
483,3838.88,0.19408052381305047
484,3841.6,0.17437561265438237
485,3844.32,0.14369930149571428
486,3847.04,0.1651046903370462
487,3849.7599999999998,0.1872844791783781
488,3852.48,0.21321626801971
489,3855.2,0.21505575686104192
490,3857.92,0.22342264570237383
491,3860.6400000000003,0.2571205345437057
492,3863.36,0.25700982338503764
493,3866.08,0.26286691222636954
494,3868.8,0.23266790106770144
495,3871.52,0.2523979899090334
496,3874.24,0.2780356787503653
497,3876.96,0.2826821675916972
498,3879.68,0.24589275643302907
499,3882.3999999999996,0.234090045274361
500,3885.1200000000003,0.2317603341156929
501,3887.84,0.2292443229570248
502,3890.56,0.21458101179835673
503,3893.28,0.19816660063968863
504,3896.0,0.19427868948102053
505,3898.71,0.19998497836337695
506,3901.4300000000003,0.19788936720470887
507,3904.15,0.21777115604604078
508,3906.87,0.22047684488737268
509,3909.59,0.24254283372870458
510,3912.31,0.2469680225700365
511,3915.0299999999997,0.26071461141136837
512,3917.75,0.27042470025270027
513,3920.47,0.27796338909403223
514,3923.1899999999996,0.27465387793536417
515,3925.9100000000003,0.25856176677669607
516,3928.63,0.26663775561802794
517,3931.35,0.25042564445935983
518,3934.07,0.23710243330069178
519,3936.79,0.21242552214202368
520,3939.5099999999998,0.18992641098335558
521,3942.23,0.1520117998246875
522,3944.95,0.1631948886660194
523,3947.6699999999996,0.19753447750735129
524,3950.39,0.2260359663486832
525,3953.11,0.24723575519001512
526,3955.8300000000004,0.25897204403134705
527,3958.55,0.2627935328726789
528,3961.27,0.26637782171401087
529,3963.9900000000002,0.26481001055534276
530,3966.71,0.23964949939667465
531,3969.43,0.22537498823800658
532,3972.1400000000003,0.195439377120363
533,3974.86,0.1693146659616949
534,3977.58,0.1431963548030268
535,3980.2999999999997,0.1529634436443587
536,3983.02,0.1777667324856906
537,3985.74,0.21763802132702254
538,3988.4599999999996,0.24616801016835443
539,3991.18,0.27193219900968635
540,3993.9,0.28803998785101825
541,3996.6200000000003,0.29837907669235014
542,3999.34,0.3205050655336821
543,4002.06,0.33017735437501394
544,4004.78,0.3144550432163459
545,4007.5,0.2910424320576778
546,4010.22,0.3144549208990097
547,4012.94,0.3164273097403416
548,4015.66,0.3325791985816735
549,4018.3799999999997,0.34057618742300544
550,4021.1000000000004,0.3370674762643373
551,4023.82,0.37152086510566923
552,4026.54,0.34585455394700115
553,4029.26,0.3417770427883331
554,4031.98,0.347782531629665
555,4034.7,0.3686758204709969
556,4037.42,0.3590983093123288
557,4040.14,0.33858429815366065
