,lambda (Angstroms),Total Flux (erg/s/cm^2/Angstrom)
0,100.05999999999999,0.001023187519650328
1,101.92,0.0012299926544410528
2,104.06,0.001467929745010161
3,104.712855,0.0015405177914074707
4,105.99000000000001,0.0014220357360475904
5,107.96,0.00123927680969385
6,109.97,0.0010528070423352501
7,114.1,0.000669662694571912
8,118.11,0.0002976508706975101
9,120.22644299999999,0.00010130628273877946
10,121.14,9.738469399971421e-05
11,125.10000000000001,8.038575969049905e-05
12,127.14,7.162873352372399e-05
13,128.01999999999998,6.785119394891071e-05
14,131.0,5.505906991251971e-05
15,131.91,5.115275654060009e-05
16,134.05,4.1966468479324125e-05
17,136.86,2.9904115106838598e-05
18,138.038426,2.484553905121143e-05
19,140.05,2.4540585365761277e-05
20,142.98,2.409661528074166e-05
21,146.98,2.3490944628061638e-05
22,151.1,2.2866657440455216e-05
23,154.98,2.2278865086301594e-05
24,158.489319,2.174734018007149e-05
25,158.95,2.164009629916593e-05
26,161.91,2.095109578313436e-05
27,166.06,1.998526338589416e-05
28,169.93,1.9084752950467755e-05
29,173.09,1.834955201856919e-05
30,177.11999999999998,1.7412143193249198e-05
31,180.0,1.6742427555164426e-05
32,181.970086,1.6284341236079234e-05
33,182.07999999999998,1.6292626451826424e-05
34,185.89999999999998,1.658090179072957e-05
35,191.1,1.6973567132849043e-05
36,194.21,1.720881483559742e-05
37,197.82000000000002,1.7482343734511127e-05
38,201.95999999999998,1.7796238871160093e-05
39,204.76999999999998,1.8009789538209266e-05
40,208.929613,1.832483809181271e-05
41,210.02,1.8822051370673734e-05
42,215.91,2.1512386147938793e-05
43,219.92000000000002,2.3344034280491083e-05
44,222.98,2.474143212316188e-05
45,227.13,2.6638265541065114e-05
46,229.76,2.7873448435157997e-05
47,234.03,2.9892231173362053e-05
48,239.88329199999998,3.2625131369292614e-05
49,240.03,3.257183126878653e-05
50,246.19,3.0278451759825692e-05
51,251.92,2.818095577470467e-05
52,257.2,2.6179144909881093e-05
53,260.18,2.5124271437689e-05
54,263.8,2.381202397885162e-05
55,268.7,2.2009582946723698e-05
56,273.7,2.0170610232307436e-05
57,275.42287,1.9537749851193117e-05
58,278.79,2.0911587848116132e-05
59,283.96999999999997,2.3026433603433394e-05
60,289.90999999999997,2.542762710122965e-05
61,295.99,2.7922288841061534e-05
62,300.79,2.9881234525139323e-05
63,307.8,3.2762023465636256e-05
64,316.227766,3.623268471311391e-05
65,317.88,3.576710274553609e-05
66,328.29999999999995,3.281579926683551e-05
67,338.27000000000004,2.9994548083952112e-05
68,347.75,2.731693302540303e-05
69,356.66999999999996,2.4801861966093142e-05
70,363.078055,2.300369089552356e-05
71,365.82000000000005,2.3665885394414785e-05
72,375.21,2.5913645096384762e-05
73,384.83000000000004,2.8178071491800242e-05
74,394.7,3.060534194530862e-05
75,404.83,3.306302713923365e-05
76,414.26,3.53173605704985e-05
77,416.86938299999997,3.593774151066191e-05
78,421.96,3.668199030245158e-05
79,429.79999999999995,3.784386275099801e-05
80,440.83,3.9498297567001496e-05
81,451.09999999999997,4.100332847727851e-05
82,459.48,4.223056180620954e-05
83,470.19,4.38089117671703e-05
84,478.630092,4.508022467770027e-05
85,480.03,4.4846810615137816e-05
86,490.08000000000004,4.308661897175503e-05
87,500.35,4.1397330463541985e-05
88,506.14,4.045539383914534e-05
89,512.0,4.072819307593907e-05
90,520.32,3.948433600599431e-05
91,529.99,3.803458540186383e-05
92,539.85,3.629263827810719e-05
93,549.5408739999999,3.5987252319788055e-05
94,549.88,3.601775046006623e-05
95,560.11,3.6547011201644824e-05
96,570.52,3.712511085069987e-05
97,579.7900000000001,3.650240808573735e-05
98,590.5699999999999,3.812045154460513e-05
99,600.16,3.852279261515632e-05
100,609.92,4.011168159832415e-05
101,619.83,4.204998050438904e-05
102,629.9000000000001,4.351403332821077e-05
103,630.957344,4.351035760993978e-05
104,640.13,4.4740540541382917e-05
105,650.53,4.911094656136936e-05
106,658.07,5.235279117585954e-05
107,665.69,5.4701944990503455e-05
108,674.95,5.612780240829908e-05
109,684.3399999999999,5.758087852634452e-05
110,695.4599999999999,6.856490734771464e-05
111,705.1300000000001,6.906501066629821e-05
112,716.59,7.835566608832174e-05
113,724.43596,8.169303238422118e-05
114,726.56,8.252419889632901e-05
115,734.97,8.624055827043214e-05
116,745.19,9.619659420424115e-05
117,755.56,0.00010321914156565009
118,764.31,0.00010996995150897972
119,774.9399999999999,0.00011970678401156191
120,785.72,0.00012948210794174402
121,794.8199999999999,0.00013641220788280684
122,805.8800000000001,0.00014388077581117549
123,815.2099999999999,0.00015095669260789155
124,824.65,0.0001662557531181809
125,831.763771,0.00014870991942958294
126,834.1999999999999,0.0001423528706213559
127,845.8000000000001,0.00017736413153705724
128,855.6,0.00018376155196583944
129,865.51,0.00019829889486882226
130,875.5300000000001,0.00021401446024600567
131,885.6700000000001,0.00023513086832231702
132,895.9200000000001,0.000250182798872829
133,904.21,0.00024987286533758457
134,914.68,0.0004049430408364978
135,925.27,0.0030838673590345388
136,935.99,0.006963395040156636
137,944.65,0.013865788554943703
138,954.992586,0.02035763137405728
139,955.59,0.020732665962472936
140,964.4300000000001,0.02221336906441898
141,975.5999999999999,0.003101741083506916
142,984.6199999999999,0.016779156397936028
143,996.02,0.019800429855196765
144,1005.24,0.03254239707238484
145,1014.5400000000001,0.0327677930506765
146,1023.93,0.014449837635209684
147,1035.79,0.02145900396881603
148,1045.3700000000001,0.04638202561097023
149,1055.04,0.04606265585936597
150,1064.8,0.034310444714003234
151,1074.66,0.04318786202001998
152,1084.6,0.032243548087140306
153,1094.64,0.04713460260564012
154,1096.4782,0.0467684817143918
155,1104.76,0.04511869272817853
156,1114.99,0.04239896689011708
157,1125.3,0.03753083717453414
158,1135.72,0.05203565212735913
159,1146.22,0.04691621320266264
160,1154.17,0.051558577873963854
161,1164.8500000000001,0.05349199022484399
162,1175.63,0.03446394772882225
163,1183.78,0.05336770270631973
164,1194.73,0.034069171970564804
165,1205.78,0.022463316387908015
166,1214.1399999999999,0.017764391186911567
167,1225.3799999999999,0.03795963639514122
168,1233.87,0.060849754893172334
169,1245.29,0.06671453137697861
170,1253.92,0.0625530630893471
171,1258.92541,0.05858800933098441
172,1265.52,0.0533644232173444
173,1274.29,0.07115910345253011
174,1286.09,0.07485566413385182
175,1295.0,0.054481854851697285
176,1303.9799999999998,0.055621725810872616
177,1316.04,0.07365658738856244
178,1325.1599999999999,0.06938103883039752
179,1334.35,0.059597350513562485
180,1343.6000000000001,0.07520130240358162
181,1356.03,0.07298186525687221
182,1365.43,0.0637133976640268
183,1374.9,0.06780067031251125
184,1384.43,0.06905785316784988
185,1394.02,0.0581085562300427
186,1403.6899999999998,0.061408859568041076
187,1413.4199999999998,0.06356621311289365
188,1426.49,0.0662564481726288
189,1436.3799999999999,0.0667151622690925
190,1443.0100000000002,0.07099510512647919
191,1445.43977,0.07171372710153866
192,1446.3400000000001,0.0719799761081048
193,1456.36,0.0696991751010731
194,1466.46,0.06356625432552218
195,1476.62,0.06460325372358185
196,1483.44,0.06610308345731876
197,1493.72,0.0674911132025996
198,1504.08,0.06255284317936122
199,1511.0199999999998,0.0546080832603193
200,1517.9899999999998,0.05946177342808268
201,1525.0,0.05838049371158645
202,1535.57,0.04957585429598514
203,1546.21,0.054483155082929516
204,1553.35,0.05215095574258956
205,1564.12,0.05410757690569021
206,1574.96,0.057978668271336554
207,1585.88,0.061551189868463675
208,1593.1999999999998,0.06240625104895548
209,1604.24,0.062406732993303786
210,1615.3600000000001,0.06356714516913287
211,1626.56,0.060152607576442745
212,1634.07,0.0651974993067014
213,1645.3899999999999,0.06610383206123245
214,1656.8,0.06169271507617939
215,1659.58691,0.06391834946613083
216,1664.45,0.0678021159009204
217,1672.13,0.0615513581851603
218,1675.98,0.06795555953858784
219,1683.72,0.07132456309067334
220,1695.3899999999999,0.06702758968664721
221,1703.22,0.06445142514050115
222,1715.02,0.059876924483473884
223,1726.91,0.05987665572821506
224,1734.88,0.06460523414037546
225,1746.91,0.06313275834342308
226,1754.9699999999998,0.0676461686573519
227,1763.07,0.06255596981651115
228,1775.29,0.06298661803440325
229,1783.49,0.06520047130663854
230,1795.85,0.0698663224828371
231,1804.1399999999999,0.07051172765684081
232,1816.6399999999999,0.06284628179134583
233,1825.03,0.0659539790784256
234,1833.45,0.06313491699942818
235,1846.16,0.057716545571392865
236,1854.6799999999998,0.05666394560547148
237,1863.24,0.05892303648478051
238,1876.16,0.06626122949420489
239,1884.8200000000002,0.05946666248658996
240,1893.52,0.05614297632420545
241,1905.46072,0.061328240569418276
242,1906.64,0.06184028651972339
243,1915.4399999999998,0.057847956827213116
244,1924.29,0.05692448577281358
245,1933.1699999999998,0.06071243390128049
246,1946.57,0.06241046891495803
247,1955.55,0.05745050431964641
248,1969.1100000000001,0.06460673497527832
249,1978.2,0.06733584738381032
250,1982.76,0.06284518317950955
251,1996.5,0.061271078932340094
252,2005.72,0.06460534779996001
253,2014.98,0.06198376557806853
254,2024.28,0.06641140226666563
255,2033.62,0.061128617865751314
256,2043.01,0.06400988210294774
257,2057.17,0.061127746415908485
258,2066.66,0.06183536792932639
259,2076.2,0.06671591808085502
260,2085.79,0.0650504968704944
261,2095.41,0.06112713484300021
262,2105.09,0.06269474118123891
263,2114.8,0.06356651670234406
264,2124.56,0.06474968086155994
265,2134.37,0.061125733658886565
266,2144.22,0.06140862536670177
267,2154.12,0.06460177571262772
268,2164.06,0.06327660496904225
269,2174.0499999999997,0.06284035286356751
270,2184.09,0.060988589396203524
271,2187.7616199999998,0.06208773890658885
272,2194.17,0.06400648855687804
273,2204.2999999999997,0.062692528544845
274,2214.4700000000003,0.06028690940147124
275,2224.69,0.05810720134392161
276,2234.96,0.06140833437219609
277,2245.28,0.0595966484862947
278,2255.64,0.057179113469052606
279,2266.05,0.05918979953763463
280,2276.5099999999998,0.060429936692040775
281,2287.02,0.06169268493227105
282,2297.5699999999997,0.05838100404116061
283,2302.87,0.058381069138517455
284,2313.5,0.055625449984725614
285,2324.1800000000003,0.04298499191675789
286,2334.91,0.0523954549346143
287,2345.69,0.052035449038294816
288,2356.51,0.05461391401063464
289,2367.39,0.0515604602859634
290,2372.85,0.05239846885795744
291,2383.8,0.05004186665343997
292,2394.8,0.05300659553474662
293,2405.86,0.05085620571904223
294,2416.96,0.052041196771997124
295,2422.5299999999997,0.053994057732804225
296,2433.7200000000003,0.05180346074024254
297,2444.95,0.054620794616340146
298,2456.23,0.05399672957826188
299,2467.57,0.053749305843172564
300,2473.2599999999998,0.052045609409957554
301,2484.68,0.053874897412186824
302,2496.14,0.0500505962830754
303,2507.67,0.05500432667411773
304,2511.88643,0.05172893055227364
305,2513.45,0.050514275098573695
306,2519.24,0.05277310643448958
307,2525.0499999999997,0.05063151760230845
308,2536.7000000000003,0.05121816968580068
309,2542.55,0.04982284051742553
310,2554.29,0.052531761844481224
311,2566.08,0.051693232751294386
312,2577.92,0.05425363323786503
313,2583.86,0.05375726331305334
314,2595.79,0.05351055304318744
315,2607.77,0.051933662353079016
316,2613.78,0.0515765718399278
317,2625.85,0.05277820039338284
318,2637.9700000000003,0.05363596852659536
319,2644.05,0.05629279742510461
320,2656.2599999999998,0.056815494801880584
321,2662.3799999999997,0.052901503364195815
322,2674.67,0.055012980068583746
323,2687.01,0.05450994635272917
324,2693.2099999999996,0.05290281424265637
325,2705.6400000000003,0.05363935977036524
326,2718.13,0.052058414793783085
327,2724.39,0.05217916217941925
328,2736.9700000000003,0.054012586446400564
329,2743.28,0.04914902341179421
330,2755.94,0.04960412700638748
331,2762.29,0.05075930363558711
332,2775.0399999999995,0.05254328647374384
333,2787.85,0.05146619880760954
334,2794.28,0.04513861476442113
335,2807.1800000000003,0.047592946341850295
336,2813.6499999999996,0.052303291962467864
337,2826.6400000000003,0.05315355278346049
338,2833.1499999999996,0.050879768067884044
339,2846.23,0.05041360813244013
340,2852.79,0.049837272996621156
341,2865.96,0.0525475023047407
342,2872.56,0.05206629683272771
343,2884.0315,0.05196325105751139
344,2885.82,0.05194720010885095
345,2892.48,0.05158968896328327
346,2912.5299999999997,0.053897525514539746
347,2932.71,0.05267260204343528
348,2953.04,0.05183173854652975
349,2966.67,0.05231207620207218
350,2987.24,0.052072712663884926
351,3007.94,0.05231416910333674
352,3028.79,0.05231551551698749
353,3049.79,0.05195607190483716
354,3070.93,0.05183848826860583
355,3092.22,0.05171998460657343
356,3106.4900000000002,0.051483402152031274
357,3128.0200000000004,0.05089581844871714
358,3149.7000000000003,0.050897054719601945
359,3171.54,0.050431400962965604
360,3193.5200000000004,0.048833637182248264
361,3208.26,0.04974186464686274
362,3230.5,0.04849963082142354
363,3252.89,0.04951598697018326
364,3267.91,0.050089814386635734
365,3290.56,0.049632040490673594
366,3311.31121,0.04952950902271982
367,3313.37,0.049519330151780144
368,3321.0099999999998,0.049862105030587134
369,3328.66,0.05044046987651297
370,3336.3399999999997,0.05067312462379538
371,3344.03,0.04839352933819665
372,3351.7400000000002,0.04997886398683563
373,3359.46,0.048283038602593475
374,3367.21,0.04861817311970789
375,3374.97,0.04653787760394115
376,3382.75,0.04718556202241214
377,3390.5499999999997,0.049522796375120845
378,3398.36,0.04986671069494839
379,3406.2,0.047953164916132524
380,3414.05,0.04850882910443551
381,3421.92,0.04952453322697621
382,3429.81,0.049297407283754625
383,3437.71,0.0498689313076519
384,3445.64,0.04675615523290574
385,3453.58,0.049526229125278445
386,3461.54,0.046757402951888856
387,3469.52,0.04751717671273699
388,3477.52,0.046543220407822834
389,3485.54,0.047082174037146395
390,3493.5699999999997,0.04751833763358881
391,3501.63,0.0476278311313878
392,3509.7,0.04665187459630565
393,3517.79,0.04611841799546121
394,3525.9,0.04708427132885448
395,3534.03,0.04818091459648548
396,3542.17,0.04919007783123532
397,3550.34,0.04953083096734174
398,3558.52,0.048293274070567015
399,3566.73,0.049077667075148865
400,3574.9500000000003,0.04601523004684957
401,3583.19,0.04476155295278799
402,3591.45,0.04364344579296412
403,3599.73,0.046979428567377975
404,3608.0299999999997,0.04601677127602954
405,3616.34,0.04654971395179996
406,3624.6800000000003,0.04785357652892695
407,3633.04,0.05022415904029166
408,3641.41,0.048744241518775225
409,3649.8,0.047525653931496506
410,3658.22,0.04965049624557436
411,3666.65,0.04908329852677107
412,3674.51,0.06256516268219292
413,3677.2500000000005,0.04904017367275981
414,3679.9900000000002,0.04174005466332672
415,3682.73,0.060215295653893615
416,3685.4700000000003,0.04869468664446052
417,3688.21,0.04731028763502742
418,3690.9500000000003,0.050693888625594326
419,3693.68,0.042416179649042374
420,3696.42,0.050675410639609265
421,3699.1600000000003,0.050212221630176176
422,3701.9,0.044277772620743075
423,3704.6400000000003,0.03857774361130997
424,3707.38,0.03789260460187688
425,3710.12,0.044605505592443785
426,3712.86,0.048065556583010684
427,3715.6,0.042684877573577584
428,3718.34,0.0674568685641445
429,3721.08,0.1273329395547114
430,3723.8100000000004,0.24100523057815945
431,3726.55,0.39081202156872635
432,3729.29,0.41655731255929324
433,3732.03,0.32448060354986014
434,3734.77,0.16927779454042705
435,3737.51,0.07164118553099394
436,3740.25,0.06247993652156084
437,3742.99,0.03580371751212775
438,3745.73,0.041714298502694654
439,3748.47,0.04765431949326155
440,3751.21,0.043718040483828456
441,3753.94,0.0445313115072765
442,3756.68,0.0412274724978434
443,3759.42,0.0536047034884103
444,3762.16,0.0526002244789772
445,3764.9,0.04904554546954411
446,3767.64,0.04311281646011101
447,3770.3799999999997,0.042935567450677906
448,3773.12,0.04560121844124481
449,3775.8599999999997,0.05408632943181171
450,3778.6,0.04774594042237861
451,3781.33,0.05843728144582666
452,3784.0699999999997,0.058737332436393556
453,3786.81,0.051339813426960465
454,3789.5499999999997,0.043130914417527366
455,3792.29,0.04249107540809426
456,3795.0299999999997,0.04982113639866117
457,3797.77,0.04858338738922807
458,3800.51,0.04830647837979497
459,3801.8939600000003,0.04659997538494278
460,3803.2500000000005,0.04492790029940897
461,3805.9900000000002,0.05608267316719854
462,3808.73,0.057712176034988114
463,3811.46,0.05395168892880766
464,3814.2,0.05203844179659723
465,3816.9399999999996,0.053310674664386805
466,3819.68,0.052024787532176375
467,3822.42,0.05238543039996595
468,3825.1600000000003,0.04870167326775553
469,3827.9,0.0449120261355451
470,3830.6400000000003,0.043758639003334675
471,3833.38,0.04995289187112425
472,3836.12,0.05333365473891382
473,3838.86,0.051900557606703396
474,3841.5899999999997,0.04938684050052294
475,3844.3300000000004,0.05299694336831251
476,3847.07,0.04587403623610208
477,3849.8100000000004,0.05167591910389166
478,3852.55,0.05988077197168123
479,3855.29,0.0519651848394708
480,3858.03,0.05704401770726038
481,3860.77,0.06123956057504995
482,3863.51,0.06491419344283954
483,3866.25,0.0744660163106291
484,3868.98,0.08277827920444863
485,3871.7200000000003,0.07520805207223821
486,3874.46,0.06394616494002778
487,3877.2000000000003,0.061103767807817365
488,3879.94,0.05774613067560694
489,3882.68,0.05868599354339651
490,3885.42,0.06618252641118609
491,3888.16,0.06934190927897566
492,3890.9,0.06877567214676523
493,3893.64,0.0575421250145548
494,3896.3799999999997,0.05162977788234438
495,3899.11,0.049164750776163925
496,3901.85,0.052512693643953494
497,3904.59,0.05390099651174307
498,3907.33,0.05711757937953264
499,3910.0699999999997,0.055831692247322214
500,3912.81,0.05269035511511179
501,3915.5499999999997,0.055297697982901364
502,3918.29,0.04841941085069094
503,3921.0299999999997,0.05308660371848051
504,3923.77,0.05641867658627008
505,3926.5099999999998,0.056019479454059655
506,3929.24,0.0463568423478792
507,3931.98,0.045607725215668776
508,3934.72,0.046203908083458346
509,3937.46,0.04856213095124792
510,3940.2,0.052962643819037494
511,3942.9399999999996,0.05470369668682707
512,3945.68,0.057055119554616646
513,3948.42,0.059914422422406216
514,3951.1600000000003,0.05408756529019579
515,3953.9,0.056142858157985365
516,3956.6400000000003,0.057400361025774935
517,3959.37,0.05650940391959448
518,3962.1099999999997,0.046204976787384056
519,3964.85,0.04802303965517363
520,3967.5899999999997,0.056311692522963204
521,3970.3300000000004,0.056282225390752776
522,3973.07,0.05903111825854235
523,3975.8100000000004,0.049769661126331924
524,3978.55,0.04974415399412149
525,3981.29,0.053833256861911066
526,3984.03,0.05496959972970064
527,3986.7599999999998,0.05786485262352019
528,3989.5000000000005,0.05848764549130976
529,3992.2400000000002,0.05806295835909933
530,3994.98,0.054708721226888905
531,3997.7200000000003,0.05290645409467848
532,4000.46,0.06104676696246805
533,4003.2000000000003,0.057032329830257626
534,4005.94,0.0589913626980472
535,4008.68,0.06636332556583678
536,4011.42,0.06129574843362635
537,4014.16,0.05761539130141592
538,4016.8900000000003,0.06647677419523546
539,4019.63,0.06890010706302503
540,4022.37,0.06808471993081461
541,4025.11,0.06990220279860418
542,4027.85,0.06946618566639376
543,4030.59,0.06536680853418333
544,4033.33,0.06606888140197291
545,4036.0699999999997,0.06028222426976248
546,4038.81,0.057071807137552055
547,4041.5499999999997,0.06114844000534163
548,4044.29,0.0688148228731312
549,4047.02,0.06689567576695074
550,4049.76,0.06225840863474032
551,4052.5,0.06276796150252989
552,4055.24,0.06313029437031947
553,4057.98,0.06096168723810904
554,4060.72,0.06281881010589863
555,4063.46,0.05843634297368819
556,4066.2,0.06411534584147777
557,4068.9399999999996,0.06506653870926733
558,4071.68,0.06908089157705691
559,4074.41,0.06816393447087644
560,4077.15,0.06455149733866601
561,4079.89,0.0606163402064556
562,4082.6299999999997,0.06025392307424517
563,4085.37,0.057247335942034745
