,lambda (Angstroms),Total Flux (erg/s/cm^2/Angstrom)
0,102.08999999999999,0.033607291875515026
1,103.99000000000001,0.03929202189404508
2,104.712855,0.04145477742959525
3,105.92,0.038441218547549075
4,107.89,0.03352324183586283
5,109.89999999999999,0.02850540772902135
6,114.02000000000001,0.018220096027445527
7,118.02999999999999,0.008209392162596182
8,120.22644299999999,0.002726115247983036
9,121.06,0.0026298277571696177
10,125.03,0.002171237236535417
11,127.06,0.001936743846994134
12,127.94,0.0018350915403078352
13,130.92,0.001490859865375759
14,132.13,0.0013510879441828987
15,133.97,0.0011385422124732577
16,137.09,0.0007781385819475284
17,138.038426,0.0006685821161520938
18,139.96,0.0006607427059898216
19,142.89,0.000648789265266003
20,146.89000000000001,0.0006324706367153826
21,151.01,0.0006156624108563345
22,154.88,0.0005998741364992321
23,158.489319,0.0005851493894150422
24,158.85,0.0005828885343860626
25,162.18,0.0005620151278686942
26,165.96,0.0005383210872390977
27,169.82,0.0005141256443285141
28,172.98000000000002,0.0004943180322434185
29,177.01000000000002,0.00046905716779226196
30,179.89000000000001,0.0004510048503289219
31,181.97000000000003,0.00043796709662245384
32,181.970086,0.0004379665575641487
33,186.20999999999998,0.0004465199877910396
34,190.98,0.00045614322945281076
35,194.09,0.00046241770075602023
36,198.15,0.00047060903850103296
37,201.84,0.0004780544983541013
38,205.11999999999998,0.00048467268341971753
39,208.929613,0.0004923597316746519
40,209.89000000000001,0.0005041248439585437
41,215.76999999999998,0.0005761599799905909
42,219.78,0.0006252864970636883
43,222.84,0.0006627746538792439
44,226.99,0.0007136179626942947
45,230.14,0.0007522309258782484
46,233.88,0.0007980969411961498
47,239.88,0.000871657143922729
48,239.88329199999998,0.0008716974844133159
49,246.04000000000002,0.0008095980055975676
50,251.77,0.0007518378872139132
51,257.04,0.0006986556531580913
52,260.01,0.0006687548580414329
53,264.24,0.0006261306071267976
54,269.15000000000003,0.0005766448178275401
55,274.15999999999997,0.0005261532590570157
56,275.42287,0.000513427168004431
57,279.25,0.0005547108019973486
58,283.79,0.0006037043752989911
59,289.72999999999996,0.0006677695452491565
60,295.8,0.0007332872693531148
61,301.3,0.0007926265281366021
62,308.32,0.0008684288449413436
63,316.227766,0.0009538604640026717
64,317.69,0.000942365735963011
65,328.09,0.0008605982534763469
66,338.06,0.0007822416054982654
67,348.34,0.0007014651484326011
68,357.27000000000004,0.0006313765381031859
69,363.078055,0.0005858625861717669
70,365.59000000000003,0.0006014708452197535
71,374.97,0.0006596521879144026
72,384.59,0.0007192621003645649
73,395.36,0.0007863132755182295
74,404.57,0.0008437138757610565
75,414.0,0.0009023441865297711
76,416.86938299999997,0.0009201788111154191
77,421.69,0.0009382653584259016
78,429.53,0.0009677347869596261
79,440.54999999999995,0.0010093520292812647
80,450.81,0.0010479626914083077
81,460.25000000000006,0.001083419533193813
82,469.89000000000004,0.001119832778135791
83,478.630092,0.0011529589819591303
84,479.73,0.0011477344367745491
85,489.78000000000003,0.0010996648534130182
86,500.03,0.0010511422717258852
87,505.82,0.0010238645596996896
88,511.68,0.0010012227617595332
89,519.99,0.0009624025468307451
90,529.66,0.0009173453412878596
91,539.51,0.0008702700962519314
92,549.5400000000001,0.0008281739817229602
93,549.5408739999999,0.000828170252378313
94,559.75,0.0008179717258532114
95,570.16,0.0008073847025015862
96,579.4300000000001,0.0007936764664334244
97,590.2,0.0007870092523607058
98,599.79,0.0007764703423182386
99,609.53,0.0007709840744753156
100,619.4399999999999,0.0007693179104585429
101,629.5000000000001,0.0007640173186413142
102,630.957344,0.0007625007309735147
103,639.73,0.0007858523068276124
104,650.13,0.000825757088056325
105,657.6500000000001,0.000854193243098625
106,665.27,0.0008816120573835085
107,674.52,0.0009082760873225078
108,685.48,0.0009367442803096895
109,695.02,0.0010083292320521818
110,704.69,0.0010285992108100329
111,716.14,0.0011016844440858748
112,724.43596,0.0011364666728305426
113,726.0999999999999,0.001141918856948902
114,734.51,0.0011725241763088947
115,744.73,0.0012368324022136658
116,755.09,0.0012870547435417897
117,765.59,0.0013367116002932667
118,774.46,0.0014033032417585622
119,785.2299999999999,0.0014719006353979339
120,794.32,0.00152396104395707
121,805.37,0.0015825027684431483
122,814.7,0.0016368907320137465
123,824.13,0.0017378651351724539
124,831.763771,0.0016690986157265114
125,835.5999999999999,0.0016197872177102478
126,845.2700000000001,0.001797684982314969
127,855.06,0.0018239478621991708
128,864.96,0.0018930125227562282
129,874.98,0.001971856998592765
130,885.11,0.0020811818551021584
131,895.36,0.002157431326891031
132,905.73,0.0021584464139593833
133,914.11,0.0030068172143097004
134,924.6899999999999,0.01783272162811714
135,935.4,0.040313044291810686
136,944.0600000000001,0.07995513186114646
137,954.99,0.11791136448618572
138,954.992586,0.11791527825471936
139,966.04,0.1346594538992622
140,974.98,0.020640358349249783
141,984.01,0.11570326529370031
142,995.4000000000001,0.12765771875962406
143,1004.6099999999999,0.19615218069300056
144,1013.91,0.19315420512083997
145,1025.65,0.08254855273189747
146,1035.1399999999999,0.1357170579813809
147,1044.71,0.27595076989260925
148,1054.38,0.2754584401310186
149,1064.1399999999999,0.21701827286389094
150,1073.98,0.26696747225850814
151,1083.92,0.20983362998030639
152,1093.95,0.29082995019656765
153,1096.4782,0.2887098553160591
154,1104.0700000000002,0.2823367947626836
155,1114.29,0.27344026498235136
156,1124.6000000000001,0.248321017816478
157,1135.0,0.32718305326506353
158,1145.51,0.2991288452424322
159,1156.1100000000001,0.3249112198342598
160,1164.1200000000001,0.3413445725211031
161,1174.8899999999999,0.23411032538468643
162,1185.76,0.3396562478198908
163,1193.98,0.2284392266071382
164,1205.03,0.16069461427126036
165,1216.18,0.11024737150700352
166,1224.61,0.2370018763946551
167,1235.94,0.37431839885931606
168,1244.51,0.41927132114723703
169,1256.02,0.4020321088408159
170,1258.92541,0.382691798417792
171,1264.73,0.34406075787003
172,1276.43,0.46047114331242045
173,1285.28,0.4891392643521774
174,1294.19,0.38086909095830557
175,1306.16,0.37967980144936664
176,1315.22,0.49034054197142285
177,1324.33,0.4728278871321218
178,1333.51,0.41678653878692046
179,1345.8500000000001,0.5097577836039374
180,1355.18,0.49715964917466426
181,1364.58,0.4432331212394908
182,1374.03,0.4728217979429601
183,1383.5600000000002,0.48277068206825763
184,1396.3600000000001,0.4218756695607874
185,1406.04,0.443801867602013
186,1415.7900000000002,0.45412547213733845
187,1425.6,0.4722086822390351
188,1435.48,0.47107909883483157
189,1442.1100000000001,0.5031472139188529
190,1445.43,0.5140389219247278
191,1445.43977,0.5140263074404999
192,1455.45,0.5011015022607005
193,1465.54,0.46221388790143836
194,1475.7,0.46420907899260744
195,1485.93,0.4770389755342078
196,1496.23,0.48906617752623943
197,1506.6,0.4636490849687024
198,1513.55,0.40998402611866547
199,1517.04,0.4435978978615966
200,1524.0400000000002,0.4310317429047249
201,1534.61,0.3735182659198486
202,1545.24,0.4197401936067706
203,1555.96,0.3969037283013899
204,1566.74,0.4049026676678075
205,1573.97,0.43526353061949574
206,1584.8799999999999,0.46061928010814285
207,1595.8700000000001,0.47307383582585427
208,1603.24,0.46700640967840507
209,1614.35,0.470837174739713
210,1625.54,0.44506184603008525
211,1636.81,0.4774066235495218
212,1644.36,0.4888736114174673
213,1655.76,0.4494590990591334
214,1659.58691,0.4730288047662734
215,1663.3999999999999,0.49651526523854017
216,1671.0800000000002,0.44081563224882914
217,1678.79,0.4994327163177521
218,1686.54,0.5244470231315203
219,1694.33,0.49312835269013366
220,1706.0700000000002,0.4734895283022161
221,1713.9499999999998,0.4482667090367313
222,1725.83,0.44649206425577215
223,1733.79,0.4807950904799779
224,1745.81,0.46902682530597706
225,1753.87,0.504998708392296
226,1766.0300000000002,0.46078762282525354
227,1774.1799999999998,0.47488205708747433
228,1786.48,0.48383665112739027
229,1794.72,0.5208703365655128
230,1803.01,0.5185277504346919
231,1815.51,0.47625115819883423
232,1823.8799999999999,0.48846961755770385
233,1836.5300000000002,0.4675567106150158
234,1845.0,0.42937742683599855
235,1853.52,0.4313094714880379
236,1866.37,0.4453014782695761
237,1874.98,0.4858656740975173
238,1883.64,0.446116598356515
239,1896.7,0.4278372245484909
240,1905.4499999999998,0.4550761999833904
241,1905.46072,0.4550559379616024
242,1914.24,0.4384506712270281
243,1923.0800000000002,0.4312540918697789
244,1936.41,0.44398842152677764
245,1945.3500000000001,0.46354346887363196
246,1954.33,0.43437478690212766
247,1967.87,0.47684806263774376
248,1976.96,0.4909611000407534
249,1986.0800000000002,0.4621065154549941
250,1995.25,0.4491502942212865
251,2004.46,0.4634415436692203
252,2013.71,0.44628866379879556
253,2023.01,0.46900334728042253
254,2037.03,0.4421177711957355
255,2046.4299999999998,0.460300481381466
256,2055.88,0.4401178549192483
257,2065.37,0.44161809913867195
258,2074.9,0.47257971403973703
259,2079.68,0.4479408104958851
260,2084.48,0.46549909229285386
261,2094.1,0.43889284122761213
262,2103.77,0.4423300535144222
263,2113.48,0.4457709364828735
264,2123.23,0.4533636901329664
265,2133.0299999999997,0.4195635071351109
266,2142.88,0.4296084874893073
267,2152.77,0.445995138525145
268,2162.71,0.4320903529130345
269,2172.69,0.4273590379825654
270,2182.72,0.4178249864041481
271,2187.7616199999998,0.42775558552760334
272,2192.79,0.43766672960185016
273,2202.91,0.42491794355476886
274,2213.08,0.4040515867268225
275,2223.3,0.3895428591180112
276,2233.56,0.4155165548845078
277,2243.87,0.3959571798701394
278,2254.23,0.379963534074906
279,2264.63,0.3887283116549805
280,2275.08,0.40215121845419005
281,2285.59,0.4141101603163616
282,2296.1400000000003,0.393460225553841
283,2306.73,0.3950504141666285
284,2317.38,0.3796889378423779
285,2322.7200000000003,0.3005707584459931
286,2333.44,0.35860312302853153
287,2344.22,0.3502654226740319
288,2355.04,0.3794244456948402
289,2365.91,0.3523137979347835
290,2376.83,0.3645006793938618
291,2382.31,0.3412895818110549
292,2393.2999999999997,0.3663192041769222
293,2404.35,0.3529118616057514
294,2415.4500000000003,0.36260874825371553
295,2426.6,0.38476526412081474
296,2437.8,0.3707019092070489
297,2443.42,0.39389619343781995
298,2454.7,0.38921098527467
299,2466.02,0.38904000048682813
300,2477.41,0.3774015566057751
301,2483.12,0.3919073934309892
302,2494.58,0.37071029045672516
303,2506.09,0.4118945167015961
304,2511.87,0.3726130944335991
305,2511.88643,0.37264868732878953
306,2517.66,0.38515149821807493
307,2523.47,0.36902968416171567
308,2535.1099999999997,0.3739956515255673
309,2546.81,0.36871490531912954
310,2552.69,0.394511475430766
311,2564.47,0.3880485111306089
312,2576.31,0.4117857332601625
313,2582.2400000000002,0.40934679206322433
314,2594.16,0.40729859609905866
315,2606.1400000000003,0.39605648656460357
316,2612.1499999999996,0.3928122272739462
317,2624.2,0.4101966019074868
318,2636.3199999999997,0.42054416070902306
319,2642.39,0.45309468784807627
320,2654.59,0.45922922855589327
321,2666.8399999999997,0.42551805795513575
322,2672.9900000000002,0.4449493670004697
323,2685.3300000000004,0.44377147604427813
324,2697.7200000000003,0.42956797377951195
325,2703.94,0.43999986699284155
326,2716.42,0.4239616443726413
327,2722.69,0.4263397262773964
328,2735.25,0.4483216855634769
329,2747.8799999999997,0.397663229017553
330,2754.2100000000005,0.4054525973520187
331,2766.92,0.4205287227123756
332,2773.3,0.4397579797382668
333,2786.1000000000004,0.4237563847431896
334,2792.5299999999997,0.3512827304605063
335,2805.42,0.37712741510999487
336,2811.8900000000003,0.44447335178045194
337,2824.86,0.4610225183362213
338,2837.9,0.4452704690599864
339,2844.4399999999996,0.4386058898984391
340,2857.5699999999997,0.43051162026677003
341,2864.16,0.4617418297966483
342,2877.38,0.459513739809545
343,2884.01,0.4621106402925636
344,2884.0315,0.46210535727672347
345,2897.3300000000004,0.45884057387576765
346,2910.7,0.4915238119907102
347,2930.88,0.47964961858454275
348,2951.19,0.47676772457665073
349,2971.65,0.48717952987446106
350,2992.25,0.4910056345242604
351,3012.99,0.4982952385260486
352,3026.9,0.5005196741415199
353,3047.88,0.502159477032432
354,3069.0,0.506134779275333
355,3090.28,0.51132628077765
356,3111.7,0.5118529816319559
357,3133.2700000000004,0.5100211817919642
358,3147.7300000000005,0.5147131148616776
359,3169.5499999999997,0.5164485138645233
360,3191.52,0.49946731217307144
361,3213.64,0.516389409787322
362,3228.48,0.5034756410981482
363,3250.85,0.5229478375552361
364,3273.39,0.5369709332254534
365,3288.4999999999995,0.5369822632865441
366,3311.29,0.5401050577995987
367,3311.31121,0.5401276798482139
368,3318.92,0.5482423844607153
369,3326.58,0.5488851066888439
370,3334.24,0.5636190289169725
371,3341.9300000000003,0.5364274484906421
372,3349.64,0.5636387662946724
373,3357.3599999999997,0.5426606832138829
374,3365.1,0.5224603983634541
375,3372.85,0.5123628126282057
376,3380.63,0.5470976242384982
377,3388.4199999999996,0.5656837349639711
378,3396.23,0.5471462439198046
379,3404.06,0.5554015511059988
380,3411.9100000000003,0.5372108565225535
381,3419.7699999999995,0.5503635610542886
382,3427.6600000000003,0.5586904629315647
383,3435.56,0.565820363924021
384,3443.48,0.5397822631468381
385,3451.42,0.5737530606000159
386,3459.37,0.5473555571683739
387,3467.3500000000004,0.5480111510822728
388,3475.34,0.5588653441113522
389,3483.35,0.5516378353707923
390,3491.38,0.5658903248605929
391,3499.43,0.5355999125807541
392,3507.5,0.554518898531276
393,3515.58,0.5432700835969783
394,3523.69,0.5624640660082215
395,3531.8100000000004,0.5587061475346451
396,3539.95,0.5705165272914292
397,3548.1099999999997,0.5852586052785742
398,3556.2899999999995,0.5773477814960797
399,3564.4900000000002,0.5801349559439458
400,3572.71,0.5554348286221726
401,3580.94,0.5404275004155797
402,3589.2000000000003,0.5103182695545279
403,3597.47,0.5481698378086562
404,3605.76,0.5559015042931453
405,3614.08,0.5471371681231754
406,3622.41,0.5523077310683857
407,3630.76,0.6183489922439568
408,3639.1299999999997,0.5866025516498885
409,3639.3599999999997,0.5346780312990359
410,3642.0400000000004,0.5750072941673628
411,3644.73,0.5793262561508702
412,3647.42,0.5428631181343775
413,3650.1099999999997,0.5532608801178849
414,3652.7900000000004,0.5571879429862118
415,3655.48,0.5676577049697191
416,3658.17,0.5300816669532264
417,3660.86,0.5437703289367337
418,3663.54,0.5676934918050607
419,3666.2299999999996,0.562463053788568
420,3668.92,0.5681821157720753
421,3671.61,0.5879496777555826
422,3674.29,0.5409591406239097
423,3676.9800000000005,0.572908802607417
424,3679.67,0.5668407645909243
425,3682.35,0.5438669274592512
426,3685.04,0.5694264894427585
427,3687.73,0.5468685514262659
428,3690.4199999999996,0.5201463134097732
429,3693.1000000000004,0.5788321762781001
430,3695.79,0.5889907382616074
431,3698.48,0.5835330002451148
432,3701.1699999999996,0.5428935622286221
433,3703.8500000000004,0.5582007250969491
434,3706.54,0.5885947870804563
435,3709.23,0.5884261490639637
436,3711.92,0.550503211047471
437,3714.6,0.596588373915798
438,3717.29,0.6051195358993052
439,3719.98,0.6412213978828126
440,3722.67,0.77767455986632
441,3725.35,1.0578986227346467
442,3728.0400000000004,1.267096384718154
443,3730.73,1.2064241467016616
444,3733.42,0.9901271086851688
445,3736.1,0.7672772715534958
446,3738.79,0.6186275335370032
447,3741.48,0.6563329955205104
448,3744.1600000000003,0.6298532583888374
449,3746.85,0.6273032203723448
450,3749.54,0.596835282355852
451,3752.2299999999996,0.5855857443393594
452,3754.9100000000003,0.6605584072076863
453,3757.6,0.6752042691911937
454,3760.29,0.749994031174701
455,3762.98,0.7240253931582082
456,3765.6600000000003,0.6816544560265352
457,3768.35,0.6187808180100426
458,3771.04,0.6013564799935498
459,3773.73,0.6657712419770572
460,3776.41,0.7722283048453842
461,3779.1000000000004,0.8318322668288916
462,3781.79,0.8633508288123988
463,3784.48,0.9145182907959062
464,3787.16,0.8671818536642331
465,3789.8500000000004,0.8354091156477405
466,3792.54,0.7409080776312477
467,3795.2200000000003,0.6700925404995748
468,3797.91,0.6090618024830821
469,3800.6,0.6229897644665893
470,3801.8939600000003,0.6634151249915823
471,3803.2899999999995,0.7070296521878692
472,3805.9700000000003,0.8150426644654041
473,3808.66,0.885356876042482
474,3811.35,0.91436228761956
475,3814.0400000000004,0.9209424991966378
476,3816.7200000000003,0.9159678114741727
477,3819.41,0.9309365230512506
478,3822.1,0.9175444346283286
479,3824.79,0.9047269462054064
480,3827.4700000000003,0.8169913584829412
481,3830.1600000000003,0.7131920700600192
482,3832.85,0.6370836816370972
483,3835.54,0.5907122932141751
484,3838.22,0.5769169054917099
485,3840.9100000000003,0.6654086170687878
486,3843.6,0.7539360286458657
487,3846.29,0.8516056402229436
488,3848.97,0.9226063525004785
489,3851.6600000000003,1.0025053640775563
490,3854.3500000000004,0.9936008756546343
491,3857.03,1.000712987932169
492,3859.72,1.0017157995092472
493,3862.41,1.025611611086325
494,3865.1000000000004,0.996124822663403
495,3867.78,1.0436482349409377
496,3870.47,1.0448310465180157
497,3873.16,1.0185028580950937
498,3875.85,0.9697494696721715
499,3878.53,0.8740922819497063
500,3881.2200000000003,0.8104048935267844
501,3883.91,0.7686524051038621
502,3886.6,0.7008128166809401
503,3889.2799999999997,0.656993728958475
504,3891.9700000000003,0.6923060405355529
505,3894.66,0.7195886521126308
506,3897.35,0.7991647636897088
507,3900.0299999999997,0.8480032759672436
508,3902.7200000000003,0.8976272875443214
509,3905.4100000000003,0.9360863991213995
510,3908.1,0.9688133106984773
511,3910.7799999999997,1.0004922229760123
512,3913.47,1.00124503455309
513,3916.1600000000003,1.067178846130168
514,3918.84,1.060504658407703
515,3921.5299999999997,1.0467304699847808
516,3924.22,0.9828510815618587
517,3926.9100000000003,0.9286173931389365
518,3929.59,0.8983690054164715
519,3932.28,0.8274418169935494
520,3934.97,0.8005518285706272
521,3937.66,0.8367253401477052
522,3940.34,0.8882442524252401
523,3943.03,0.9278044640023179
524,3945.72,0.9686090755793959
525,3948.41,0.9927320871564739
526,3951.0899999999997,1.0219343994340087
527,3953.78,0.9960966110110866
528,3956.4700000000003,0.9344435225881645
529,3959.16,0.9033650341652424
530,3961.8399999999997,0.8296301464427772
531,3964.53,0.7085512580198552
532,3967.2200000000003,0.595490369596933
533,3969.91,0.527543481174011
534,3972.5899999999997,0.5693204934515459
535,3975.2799999999997,0.6698745050286237
536,3977.9700000000003,0.7717326166057017
537,3980.65,0.8748992288832366
538,3983.34,0.9138848404603145
539,3986.0299999999997,0.9902420520373924
540,3988.7200000000003,1.0546807636144704
541,3991.4,1.0759845758920052
542,3994.09,1.075336387469083
543,3996.7799999999997,1.1248171990461608
544,3999.47,1.1443810106232388
545,4002.15,1.1443848229007738
546,4004.84,1.1411396344778517
547,4007.53,1.1156734460549296
548,4010.22,1.1182202576320075
549,4012.8999999999996,1.1498640699095424
550,4015.59,1.1519088814866203
551,4018.28,1.1597336930636981
552,4020.97,1.172439504640776
553,4023.6499999999996,1.1540873169183108
554,4026.34,1.1601651284953889
555,4029.03,1.1658829400724668
556,4031.71,1.1348697523500015
557,4034.4,1.1350955639270794
558,4037.0899999999997,1.1464263755041573
559,4039.78,1.1570151870812353
560,4042.46,1.1542789993587703
561,4045.15,1.153821810935848
562,4047.8399999999997,1.157290622512926
563,4050.5299999999997,1.111337434090004
564,4053.21,1.128310246367539
565,4055.9,1.1386470579446168
566,4058.59,1.1160648695216946
567,4061.2799999999997,1.1262946810987724
568,4063.9599999999996,1.1074874933763073
569,4066.65,1.0836603049533853
570,4069.34,1.0919631165304633
571,4072.0299999999997,1.087270928107541
572,4074.7100000000005,1.048311740385076
573,4077.4,1.045449551962154
574,4080.09,1.0780573635392319
575,4082.7799999999997,1.0740111751163097
