,lambda (Angstroms),Total Flux (erg/s/cm^2/Angstrom)
0,102.08999999999999,0.0042009114844418554
1,103.99000000000001,0.004911502736759688
2,104.712855,0.005181847178704448
3,105.92,0.004805152318450325
4,107.89,0.0041904052294940534
5,109.89999999999999,0.003563175966148604
6,114.02000000000001,0.0022775120034801573
7,118.02999999999999,0.0010261740204313557
8,120.22644299999999,0.00034076440644657965
9,121.06,0.0003287284702246421
10,125.03,0.00027140465568033136
11,127.06,0.00024209298235125976
12,127.94,0.0002293864442692688
13,130.92,0.0001863574857472349
14,132.13,0.0001688859963852992
15,133.97,0.0001423177808483031
16,137.09,9.726732991966692e-05
17,138.038426,8.357277268594635e-05
18,139.96,8.259284842290395e-05
19,142.89,8.109869455701663e-05
20,146.89000000000001,7.905895591483533e-05
21,151.01,7.695798666147931e-05
22,154.88,7.498453829079151e-05
23,158.489319,7.314405836796078e-05
24,158.85,7.286146282772033e-05
25,162.18,7.025240651871176e-05
26,165.96,6.729087153103721e-05
27,169.82,6.426671745056426e-05
28,172.98000000000002,6.179104129892732e-05
29,177.01000000000002,5.8633879952782744e-05
30,179.89000000000001,5.637775726424023e-05
31,181.97000000000003,5.4748366450681735e-05
32,181.970086,5.474829908430371e-05
33,186.20999999999998,5.581826225275495e-05
34,190.98,5.702243270960135e-05
35,194.09,5.780774018737753e-05
36,198.15,5.883315988375412e-05
37,201.84,5.9765753333012664e-05
38,205.11999999999998,6.0594723817464695e-05
39,208.929613,6.155778819185241e-05
40,209.89000000000001,6.302897763856795e-05
41,215.76999999999998,7.203924319382386e-05
42,219.78,7.818451356421105e-05
43,222.84,8.28740132949055e-05
44,226.99,8.923548325303683e-05
45,230.14,9.408512296728106e-05
46,233.88,9.986389073701872e-05
47,239.88,0.00010911300114034111
48,239.88329199999998,0.00010911805627827353
49,246.04000000000002,0.00010137914223719595
50,251.77,9.421197647673914e-05
51,257.04,8.756113165726141e-05
52,260.01,8.38839088426791e-05
53,264.24,7.860838211584971e-05
54,269.15000000000003,7.247536722844252e-05
55,274.15999999999997,6.621953143212695e-05
56,275.42287,6.464393288901153e-05
57,279.25,6.985033814966858e-05
58,283.79,7.604666692487388e-05
59,289.72999999999996,8.411720416864456e-05
60,295.8,9.241482380663936e-05
61,301.3,9.990720045457527e-05
62,308.32,0.00010953404224266795
63,316.227766,0.00012042147734808327
64,317.69,0.00011902318712037638
65,328.09,0.00010906565655954336
66,338.06,9.954989518728318e-05
67,348.34,8.975481367907515e-05
68,357.27000000000004,8.132609476289824e-05
69,363.078055,7.591561882499677e-05
70,365.59000000000003,7.798721652746918e-05
71,374.97,8.562052436430032e-05
72,384.59,9.338906204557062e-05
73,395.36,0.00010240160868977869
74,404.57,0.00011017028984513206
75,414.0,0.00011798311994122138
76,416.86938299999997,0.00012035487971829492
77,421.69,0.0001228549860532377
78,429.53,0.00012697544011995327
79,440.54999999999995,0.00013296185353515807
80,450.81,0.00013839898530103846
81,460.25000000000006,0.00014333359252422661
82,469.89000000000004,0.00014857794539197385
83,478.630092,0.00015344491848223808
84,479.73,0.00015288323959681863
85,489.78000000000003,0.00014741886167662728
86,500.03,0.00014234935021573565
87,505.82,0.0001396173237124612
88,511.68,0.00014181796396994166
89,519.99,0.00013822653085384314
90,529.66,0.00013416358766098245
91,539.51,0.0001288456832814914
92,549.5400000000001,0.00012926998771537002
93,549.5408739999999,0.00012926996353983215
94,559.75,0.00013315802823165142
95,570.16,0.00013693476281269828
96,579.4300000000001,0.00013601730830417805
97,590.2,0.0001442105815450882
98,599.79,0.00014690399028977982
99,609.53,0.00015485701180941445
100,619.4399999999999,0.00016686470380731787
101,629.5000000000001,0.00017544493858016427
102,630.957344,0.00017593919975392392
103,639.73,0.00018297457085345156
104,650.13,0.00020353646100704063
105,657.6500000000001,0.00021798621788732812
106,665.27,0.00023123264467293857
107,674.52,0.00024069266091531348
108,685.48,0.0002487764225387112
109,695.02,0.00030261799150652275
110,704.69,0.0003049028013512541
111,716.14,0.00035669225551073435
112,724.43596,0.0003760448832319807
113,726.0999999999999,0.00037973614461861275
114,734.51,0.00040144182203861187
115,744.73,0.0004549350252767082
116,755.09,0.0004941941929427237
117,765.59,0.0005327397250366584
118,774.46,0.0005899449427198202
119,785.2299999999999,0.0006471452919247418
120,794.32,0.0006895864679946338
121,805.37,0.0007364348460553936
122,814.7,0.0007809496040017183
123,824.13,0.0008719449793965567
124,831.763771,0.0007951002401465826
125,835.5999999999999,0.000754638914713781
126,845.2700000000001,0.0009548450977893712
127,855.06,0.0010036932327748963
128,864.96,0.0010955969153445286
129,874.98,0.0011975572498240956
130,885.11,0.0013302517318877697
131,895.36,0.0014301476658613787
132,905.73,0.001455086051744923
133,914.11,0.0023227892767887126
134,924.6899999999999,0.017173101453514642
135,935.4,0.039678131786476334
136,944.0600000000001,0.07934019773264331
137,954.99,0.11732164556077322
138,954.992586,0.11732556529513624
139,966.04,0.13407376923740777
140,974.98,0.020057933543656224
141,984.01,0.11512413316171254
142,995.4000000000001,0.127082739844953
143,1004.6099999999999,0.19558056008662508
144,1013.91,0.192585975640105
145,1025.65,0.08198460409148718
146,1035.1399999999999,0.1351565697476726
147,1044.71,0.27539377123657616
148,1054.38,0.27490496751637733
149,1064.1399999999999,0.21646835910798637
150,1073.98,0.2664211465323135
151,1083.92,0.2092909287475383
152,1093.95,0.290290906274571
153,1096.4782,0.2881717332697446
154,1104.0700000000002,0.28180733684533543
155,1114.29,0.2729224706227939
156,1124.6000000000001,0.24781498972705976
157,1135.0,0.3266888941581329
158,1145.51,0.29864668065530403
159,1156.1100000000001,0.32444115247928246
160,1164.1200000000001,0.3408836465651379
161,1174.8899999999999,0.2336616906730858
162,1185.76,0.33922001847748634
163,1193.98,0.22801237832589227
164,1205.03,0.16028037678390755
165,1216.18,0.10984585893837544
166,1224.61,0.23660998454933188
167,1235.94,0.3739394373574145
168,1244.51,0.4189021401434046
169,1256.02,0.401676063605102
170,1258.92541,0.3823390689763482
171,1264.73,0.34370755723375374
172,1276.43,0.46011699291405256
173,1285.28,0.48878439554402214
174,1294.19,0.3805134988697882
175,1306.16,0.3793232376811708
176,1315.22,0.48998324274642785
177,1324.33,0.47246984839151523
178,1333.51,0.41642775484836503
179,1345.8500000000001,0.5093979979504921
180,1355.18,0.49679910614683304
181,1364.58,0.44287181515493634
182,1374.03,0.47245972474287
183,1383.5600000000002,0.4824078352585322
184,1396.3600000000001,0.4215117836950984
185,1406.04,0.4434371959502516
186,1415.7900000000002,0.4537600090171673
187,1425.6,0.47184242277987937
188,1435.48,0.47071203735435396
189,1442.1100000000001,0.5027796142398566
190,1445.43,0.513671052740591
191,1445.43977,0.5136584374632712
192,1455.45,0.5007329502825876
193,1465.54,0.46184464848767975
194,1475.7,0.4638391473740759
195,1485.93,0.476668346941776
196,1496.23,0.48869484719077994
197,1506.6,0.46327704812108783
198,1513.55,0.4096115157648332
199,1517.04,0.44322514973269955
200,1524.0400000000002,0.4306585178630906
201,1534.61,0.3731443207399811
202,1545.24,0.41936552420084633
203,1555.96,0.3965283285376738
204,1566.74,0.40452653345847595
205,1573.97,0.43488690382743694
206,1584.8799999999999,0.46024191001351783
207,1595.8700000000001,0.47269571697823176
208,1603.24,0.4666277887098006
209,1614.35,0.4704577968424641
210,1625.54,0.44468170575376065
211,1636.81,0.4770257154436902
212,1644.36,0.4884921889271834
213,1655.76,0.4490768998823917
214,1659.58691,0.47264634486065693
215,1663.3999999999999,0.49613090815481753
216,1671.0800000000002,0.4404274540311036
217,1678.79,0.499040702039719
218,1686.54,0.52405115289144
219,1694.33,0.4927286065862667
220,1706.0700000000002,0.473083941037777
221,1713.9499999999998,0.44785720112959143
222,1725.83,0.4460766455319715
223,1733.79,0.48037571130999723
224,1745.81,0.4686014656632471
225,1753.87,0.504569338549037
226,1766.0300000000002,0.4603522028531567
227,1774.1799999999998,0.4744425821359343
228,1786.48,0.4833910563909238
229,1794.72,0.5204206420706892
230,1803.01,0.5180739313043365
231,1815.51,0.4757911197748543
232,1823.8799999999999,0.488005414694713
233,1836.5300000000002,0.467086213826877
234,1845.0,0.42890271585449985
235,1853.52,0.4308305214360047
236,1866.37,0.444816134783697
237,1874.98,0.4853760467621897
238,1883.64,0.4456226622945644
239,1896.7,0.4273367905685614
240,1905.4499999999998,0.4545714124979238
241,1905.46072,0.4545511451424695
242,1914.24,0.43795150890337853
243,1923.0800000000002,0.4307605989837224
244,1936.41,0.4435034776908472
245,1945.3500000000001,0.463064258609204
246,1954.33,0.43390133586276597
247,1967.87,0.47638329532971796
248,1976.96,0.49050216250509415
249,1986.0800000000002,0.4616534269318743
250,1995.25,0.4487030867776608
251,2004.46,0.46300024295865255
252,2013.71,0.4458532954748494
253,2023.01,0.4685739434100528
254,2037.03,0.44169735889946693
255,2046.4299999999998,0.45988609767268324
256,2055.88,0.4397095318649061
257,2065.37,0.441215862392334
258,2074.9,0.4721835892549672
259,2079.68,0.44754775131198565
260,2084.48,0.4651091115366067
261,2094.1,0.43850903015345155
262,2103.77,0.4419524441893028
263,2113.48,0.4453995545603592
264,2123.23,0.4529985612666208
265,2133.0299999999997,0.4192046633918889
266,2142.88,0.4292559609361634
267,2152.77,0.4456489548156431
268,2162.71,0.4317505441141293
269,2172.69,0.4270256297478207
270,2182.72,0.4174980108005185
271,2187.7616199999998,0.42743184331197803
272,2192.79,0.4373404162002313
273,2202.91,0.4245864554443461
274,2213.08,0.40371489834085283
275,2223.3,0.3892009448897514
276,2233.56,0.41516939436056344
277,2243.87,0.3956047474837674
278,2254.23,0.37960580425936324
279,2264.63,0.38836526395687254
280,2275.08,0.4017828273067737
281,2285.59,0.41373639503954523
282,2296.1400000000003,0.3930810656942301
283,2306.73,0.39466583927082854
284,2317.38,0.37929891723029724
285,2322.7200000000003,0.3001780073057491
286,2333.44,0.35820489037856645
287,2344.22,0.349861677834254
288,2355.04,0.379015168211855
289,2365.91,0.3518989622418479
290,2376.83,0.36408025992423276
291,2382.31,0.34086636022638184
292,2393.2999999999997,0.3658903630221153
293,2404.35,0.3524773702007189
294,2415.4500000000003,0.3621685810317144
295,2426.6,0.3843193955151018
296,2437.8,0.3702503136508811
297,2443.42,0.3934417241797275
298,2454.7,0.38875074815933375
299,2466.02,0.3885739750608535
300,2477.41,0.3769297070757219
301,2483.12,0.39143262417887364
302,2494.58,0.3702296613070907
303,2506.09,0.4114080020876995
304,2511.87,0.3721236243041999
305,2511.88643,0.3721592087981585
306,2517.66,0.38466316227725933
307,2523.47,0.36854249802021444
308,2535.1099999999997,0.3735107689406959
309,2546.81,0.36823233816489115
310,2552.69,0.39403007192884576
311,2564.47,0.3875694388913261
312,2576.31,0.4113090041575203
313,2582.2400000000002,0.408871236507903
314,2594.16,0.40682539951238234
315,2606.1400000000003,0.39558566082057545
316,2612.1499999999996,0.3923425909092433
317,2624.2,0.4097293502384358
318,2636.3199999999997,0.4200793075886279
319,2642.39,0.4526310359810095
320,2654.59,0.4587679910694867
321,2666.8399999999997,0.42505924474439194
322,2672.9900000000002,0.4444917708750587
323,2685.3300000000004,0.4433163220055348
324,2697.7200000000003,0.429115271722439
325,2703.94,0.43954839587410516
326,2716.42,0.42351264304658015
327,2722.69,0.42589196578467453
328,2735.25,0.4478764106954346
329,2747.8799999999997,0.3972204536271941
330,2754.2100000000005,0.4050110746690023
331,2766.92,0.42008971533904693
332,2773.3,0.43932023496728334
333,2786.1000000000004,0.4233211730928987
334,2792.5299999999997,0.3508487913075633
335,2805.42,0.37669602688874937
336,2811.8900000000003,0.44404324397255646
337,2824.86,0.46059497729202764
338,2837.9,0.4448455086324983
339,2844.4399999999996,0.4381822237373049
340,2857.5699999999997,0.4300905525333462
341,2864.16,0.46132206622458105
342,2877.38,0.4590965924761931
343,2884.01,0.46169480503657045
344,2884.0315,0.46168952627558146
345,2897.3300000000004,0.45842479673447095
346,2910.7,0.4911080889988388
347,2930.88,0.47923397732306783
348,2951.19,0.4763521655720814
349,2971.65,0.48676405373430764
350,2992.25,0.49059024181553257
351,3012.99,0.4978799298157561
352,3026.9,0.50010442176769
353,3047.88,0.501744309629054
354,3069.0,0.5057196974094167
355,3090.28,0.5109112850972062
356,3111.7,0.5114380727039946
357,3133.2700000000004,0.5096063602239955
358,3147.7300000000005,0.5142983518577097
359,3169.5499999999997,0.5160338392330653
360,3191.52,0.4990527265216339
361,3213.64,0.5159749137234152
362,3228.48,0.5030612051372685
363,3250.85,0.5225334921944045
364,3273.39,0.5365566791531816
365,3288.4999999999995,0.536568070410818
366,3311.29,0.5396909572249499
367,3311.31121,0.539713579359467
368,3318.92,0.5478288730575894
369,3326.58,0.5484721883361056
370,3334.24,0.5632067036146216
371,3341.9300000000003,0.5360157185613302
372,3349.64,0.563227633286834
373,3357.3599999999997,0.5422501479017354
374,3365.1,0.5220504622954317
375,3372.85,0.5119534765785257
376,3380.63,0.5466888905298123
377,3388.4199999999996,0.5652756043704964
378,3396.23,0.5467387179899755
379,3404.06,0.5549946313882499
380,3411.9100000000003,0.5368045445653192
381,3419.7699999999995,0.5499578576317861
382,3427.6600000000003,0.5582853703664455
383,3435.56,0.5654158829905026
384,3443.48,0.5393783953933547
385,3451.42,0.573349807575002
386,3459.37,0.5469529196460468
387,3467.3500000000004,0.5476091313852841
388,3475.34,0.558463943013919
389,3483.35,0.5512370544213491
390,3491.38,0.565490165607574
391,3499.43,0.5352003765725942
392,3507.5,0.5541199873164094
393,3515.58,0.5428717979496223
394,3523.69,0.5620664082510277
395,3531.8100000000004,0.5583091184418306
396,3539.95,0.5701201284114286
397,3548.1099999999997,0.5848628381598218
398,3556.2899999999995,0.5769526476870099
399,3564.4900000000002,0.5797404569929933
400,3572.71,0.5550409660777715
401,3580.94,0.5400342750519475
402,3589.2000000000003,0.509925683694316
403,3597.47,0.547777892226082
404,3605.76,0.5555102005366431
405,3614.08,0.5467465085153969
406,3622.41,0.5519177163835481
407,3630.76,0.6179596240304946
408,3639.1299999999997,0.5862138314562361
409,3639.3599999999997,0.5342893289123795
410,3642.0400000000004,0.5746187992709204
411,3644.73,0.5789379695188588
412,3647.42,0.5424750397667972
413,3650.1099999999997,0.5528730100147357
414,3652.7900000000004,0.5568002803732764
415,3655.48,0.5672702506212148
416,3658.17,0.5296944208691533
417,3660.86,0.5433832911170917
418,3663.54,0.5673066614756326
419,3666.2299999999996,0.562076431723571
420,3668.92,0.5677957019715094
421,3671.61,0.5875634722194478
422,3674.29,0.5405731425779887
423,3676.9800000000005,0.5725230128259271
424,3679.67,0.5664551830738654
425,3682.35,0.5434815534324065
426,3685.04,0.5690413236803448
427,3687.73,0.5464835939282833
428,3690.4199999999996,0.5197615641762217
429,3693.1000000000004,0.5784476345347626
430,3695.79,0.588606404782701
431,3698.48,0.5831488750306394
432,3701.1699999999996,0.5425096452785778
433,3703.8500000000004,0.5578170156371186
434,3706.54,0.588211285885057
435,3709.23,0.5880428561329955
436,3711.92,0.5501201263809339
437,3714.6,0.5962054967394748
438,3717.29,0.6047368669874131
439,3719.98,0.6408389372353516
440,3722.67,0.77729230748329
441,3725.35,1.0575165778418307
442,3728.0400000000004,1.2667145480897692
443,3730.73,1.2060425183377077
444,3733.42,0.989745688585646
445,3736.1,0.766896058944187
446,3738.79,0.6182465291921254
447,3741.48,0.6559521994400638
448,3744.1600000000003,0.6294726697986046
449,3746.85,0.6269228400465432
450,3749.54,0.5964551102944815
451,3752.2299999999996,0.58520578054242
452,3754.9100000000003,0.6601786509009607
453,3757.6,0.6748247211488992
454,3760.29,0.7496146913968376
455,3762.98,0.723646261644776
456,3765.6600000000003,0.6812755320033169
457,3768.35,0.6184021022512554
458,3771.04,0.6009779724991937
459,3773.73,0.6653929427471321
460,3776.41,0.771850213105673
461,3779.1000000000004,0.8314543833536114
462,3781.79,0.8629731536015498
463,3784.48,0.9141408238494882
464,3787.16,0.8668045942080291
465,3789.8500000000004,0.8350320644559676
466,3792.54,0.7405312347039059
467,3795.2200000000003,0.6697159050624468
468,3797.91,0.6086853753103854
469,3800.6,0.6226135455583237
470,3801.8939600000003,0.6630390062639275
471,3803.2899999999995,0.7066536190234836
472,3805.9700000000003,0.8146667955581754
473,3808.66,0.8849811720053102
474,3811.35,0.9139867484524451
475,3814.0400000000004,0.9205671248995797
476,3816.7200000000003,0.9155926014342716
477,3819.41,0.9305614778814064
478,3822.1,0.9171695543285411
479,3824.79,0.9043522307756758
480,3827.4700000000003,0.8166168073103677
481,3830.1600000000003,0.7128176837575023
482,3832.85,0.6367094602046371
483,3835.54,0.590338236651772
484,3838.22,0.5765430131864638
485,3840.9100000000003,0.6650348896335985
486,3843.6,0.7535624660807333
487,3846.29,0.8512322425278679
488,3848.97,0.9222331190625598
489,3851.6600000000003,1.0021322955096945
490,3854.3500000000004,0.9932279719568292
491,3857.03,1.0003402484915211
492,3859.72,1.0013432249386558
493,3862.41,1.0252392013857905
494,3865.1000000000004,0.9957525778329254
495,3867.78,1.0432761543676172
496,3870.47,1.044459130814752
497,3873.16,1.0181311072618868
498,3875.85,0.9693778837090214
499,3878.53,0.8737208602437133
500,3881.2200000000003,0.810033636690848
501,3883.91,0.7682813131379828
502,3886.6,0.7004418895851174
503,3889.2799999999997,0.6566229661198093
504,3891.9700000000003,0.6919354425669441
505,3894.66,0.7192182190140789
506,3897.35,0.7987944954612136
507,3900.0299999999997,0.8476331719959054
508,3902.7200000000003,0.8972573484430402
509,3905.4100000000003,0.9357166248901749
510,3908.1,0.9684437013373097
511,3910.7799999999997,1.0001227778720014
512,3913.47,1.0008757543191362
513,3916.1600000000003,1.066809730766271
514,3918.84,1.060135707300963
515,3921.5299999999997,1.0463616837480976
516,3924.22,0.9824824601952323
517,3926.9100000000003,0.9282489366423671
518,3929.59,0.898000713177059
519,3932.28,0.8270736896241936
520,3934.97,0.8001838660713284
521,3937.66,0.8363575425184631
522,3940.34,0.887876619053155
523,3943.03,0.9274369955002897
524,3945.72,0.9682417719474246
525,3948.41,0.9923649483945592
526,3951.0899999999997,1.021567424929251
527,3953.78,0.9957298013763859
528,3956.4700000000003,0.9340768778235206
529,3959.16,0.9029985542706553
530,3961.8399999999997,0.8292638308053472
531,3964.53,0.7081851072524818
532,3967.2200000000003,0.5951243836996166
533,3969.91,0.5271776601467514
534,3972.5899999999997,0.5689548366814433
535,3975.2799999999997,0.6695090131285779
536,3977.9700000000003,0.7713672895757128
537,3980.65,0.8745340661104046
538,3983.34,0.9135198425575393
539,3986.0299999999997,0.9898772190046741
540,3988.7200000000003,1.054316095451809
541,3991.4,1.0756200719865008
542,3994.09,1.0749720484336356
543,3996.7799999999997,1.12445302488077
544,3999.47,1.1440170013279047
545,4002.15,1.1440209778625967
546,4004.84,1.1407759543097316
547,4007.53,1.1153099307568664
548,4010.22,1.1178569072040008
549,4012.8999999999996,1.1495008837386926
550,4015.59,1.1515458601858275
551,4018.28,1.1593708366329623
552,4020.97,1.1720768130800971
553,4023.6499999999996,1.1537247896147889
554,4026.34,1.1598027660619237
555,4029.03,1.1655207425090583
556,4031.71,1.13450771904375
557,4034.4,1.1347336954908849
558,4037.0899999999997,1.1460646719380196
559,4039.78,1.1566536483851544
560,4042.46,1.1539176249198464
561,4045.15,1.153460601366981
562,4047.8399999999997,1.1569295778141158
563,4050.5299999999997,1.1109765542612504
564,4053.21,1.1279495307959424
565,4055.9,1.1382865072430772
566,4058.59,1.115704483690212
567,4061.2799999999997,1.1259344601373464
568,4063.9599999999996,1.1071274366720383
569,4066.65,1.083300413119173
570,4069.34,1.091603389566308
571,4072.0299999999997,1.0869113660134426
572,4074.7100000000005,1.0479523425481345
573,4077.4,1.0450903189952694
574,4080.09,1.077698295442404
