,lambda (Angstroms),Total Flux (erg/s/cm^2/Angstrom)
0,100.04,1.492617279898565
1,101.89999999999999,1.4884651404507112
2,104.03,1.4837102710830075
3,104.712855,1.4821859113073819
4,105.97,1.4674444794330328
5,107.94,1.4443440249966175
6,109.94999999999999,1.4207745258000726
7,114.07000000000001,1.3724629155066586
8,118.08000000000001,1.325441178303609
9,120.22644299999999,1.3002717322519133
10,121.11,1.2915853775853385
11,125.08,1.2525558322065076
12,127.11,1.2325986591286813
13,127.99,1.2239472737550503
14,130.97,1.194650536921637
15,131.88,1.1857042179557458
16,134.02,1.1646656217062932
17,137.14000000000001,1.1339925281090513
18,138.038426,1.125159994523144
19,140.02,1.111235228978135
20,142.95000000000002,1.0906457566463295
21,146.95,1.062537261995917
22,151.07,1.0335855125068838
23,154.95,1.0063202726984242
24,158.489319,0.9814490404081507
25,158.92,0.979160989737041
26,161.87,0.9634887184298814
27,166.03,0.9413881595731279
28,169.89000000000001,0.9208813910259235
29,173.05,0.9040934665200109
30,177.08,0.882683550152365
31,179.96,0.8673831632804712
32,181.970086,0.8567043113935573
33,182.04000000000002,0.856420947659203
34,185.85999999999999,0.8409383624309846
35,191.06,0.819862591997135
36,194.17000000000002,0.8072576600953876
37,197.78,0.7926262118753191
38,201.92000000000002,0.7758466563347035
39,205.2,0.7625527089895442
40,208.929613,0.7474364655767801
41,209.98,0.7442358019102036
42,215.86,0.7263186893624968
43,219.88,0.7140692350486392
44,222.94000000000003,0.7047450236676466
45,227.07999999999998,0.6921299143494483
46,230.23999999999998,0.6825010359194174
47,233.98,0.6711047877468711
48,239.88329199999998,0.653116719545241
49,239.98,0.6528896355578909
50,246.14000000000001,0.6384250922502697
51,251.87,0.6249702562983466
52,257.15,0.6125720778543513
53,260.12,0.60559811308591
54,263.74,0.5970978613730512
55,269.26,0.5841361444182879
56,274.27,0.572371986223769
57,275.42287,0.5696648929567787
58,278.72999999999996,0.5637051608219724
59,283.90999999999997,0.5543703611075262
60,289.85,0.543665982389693
61,295.92,0.5327273363818466
62,300.73,0.5240593033012464
63,307.74,0.5114267309787637
64,316.227766,0.49613114228892424
65,317.82,0.4939880464841452
66,328.22999999999996,0.47997652737295055
67,338.20000000000005,0.46655727319424956
68,347.68,0.4537975872794597
69,356.59999999999997,0.44179168272142544
70,363.078055,0.4330725472065698
71,365.75000000000006,0.4303793235752322
72,375.13,0.4209246226514626
73,384.75,0.4112280512869312
74,394.61999999999995,0.4012796098981065
75,404.74,0.39107919510798816
76,414.17,0.3815742682825598
77,416.86938299999997,0.3788534531489574
78,421.87,0.3750044258953024
79,429.71000000000004,0.36896992265096423
80,440.74,0.3604801629883699
81,451.0,0.3525830617563891
82,460.45000000000005,0.3453093975892225
83,470.09000000000003,0.33788964514885267
84,478.630092,0.3313165188267856
85,479.93,0.33054706224914776
86,489.98,0.32459807683116715
87,500.24,0.31852495342217796
88,506.03000000000003,0.31509796896622794
89,511.89,0.3116301482502751
90,520.2099999999999,0.30670536139707927
91,529.88,0.3009816153395426
92,539.73,0.29515111343342726
93,549.5408739999999,0.2893440137633854
94,549.77,0.28924056228755723
95,559.99,0.28462675687712596
96,570.4,0.2799267667292503
97,579.67,0.27574146838604113
98,590.4399999999999,0.27087903177406025
99,600.04,0.26654462759792125
100,609.79,0.26214253987590513
101,619.6999999999999,0.25766905065762
102,629.76,0.2531271297834577
103,630.957344,0.2525865888789483
104,640.0,0.24935070799765494
105,650.4,0.24562871624253038
106,657.9300000000001,0.2429338303319545
107,665.5500000000001,0.2402072542786229
108,674.81,0.23689376240840623
109,685.77,0.23297099039946723
110,695.31,0.22955759298734335
111,704.98,0.22609657567790534
112,716.4399999999999,0.22199636232698924
113,724.43596,0.21913507827459186
114,726.4,0.21861347654885924
115,734.82,0.21637733878768609
116,745.04,0.213662888378685
117,755.4,0.2109112853905195
118,764.15,0.20858723514774458
119,774.7800000000001,0.20576435752190486
120,785.5600000000001,0.20290117028624619
121,794.65,0.20048730511121488
122,805.71,0.19754995020722738
123,815.04,0.19507228060648568
124,824.4799999999999,0.1925654327885434
125,831.763771,0.19062990278774242
126,835.95,0.18979842901739766
127,845.63,0.1878787434548769
128,855.4200000000001,0.18593557549903197
129,865.3199999999999,0.18397108714986302
130,875.34,0.18198248757343136
131,885.48,0.17996992029973707
132,895.73,0.17793554290271868
133,904.02,0.17629019375765698
134,914.49,0.1742278135939904
135,925.08,0.17217352690306112
136,935.79,0.17009635691486924
137,944.45,0.168449342384081
138,954.992586,0.16639014219102674
139,955.38,0.1663161340417545
140,964.2299999999999,0.16464457387731926
141,975.39,0.16235869911809914
142,984.4200000000001,0.16074498569303122
143,995.8100000000001,0.15852693745078061
144,1005.03,0.15676730450060058
145,1014.3299999999999,0.15495605673458382
146,1026.07,0.15255472323554764
147,1035.57,0.1508233131799391
148,1045.1499999999999,0.1490288654084939
149,1054.8200000000002,0.14715699495673235
150,1064.58,0.1452482552246546
151,1074.43,0.14336004791226048
152,1084.3700000000001,0.14140943151955007
153,1094.4099999999999,0.1395021443820439
154,1096.4782,0.13910017770476482
155,1104.53,0.13781890288591947
156,1114.75,0.1362033188221051
157,1125.07,0.1345527514948483
158,1135.48,0.13292797290049335
159,1145.98,0.13125585943904022
160,1153.93,0.13000606914536855
161,1164.6,0.12832258004606337
162,1175.38,0.12656135158697146
163,1186.26,0.12488786356443721
164,1194.48,0.12356249486947102
165,1205.53,0.12177345810908465
166,1213.8899999999999,0.12029532956529912
167,1225.12,0.1186920489707164
168,1233.61,0.11740384027445575
169,1245.03,0.11561205894933242
170,1253.66,0.11425738090425239
171,1258.92541,0.11342453436434993
172,1265.26,0.11271199185112214
173,1274.03,0.1117481256433128
174,1285.81,0.11043380162438529
175,1294.73,0.10941677768645375
176,1303.7,0.10841999130514816
177,1315.77,0.10709404623465113
178,1324.8899999999999,0.10607256152322339
179,1334.07,0.10504065385974676
180,1346.41,0.10368381555502981
181,1355.75,0.10264867425275623
182,1365.1399999999999,0.10160012900710857
183,1374.61,0.10055352549206244
184,1384.13,0.09950886253364223
185,1393.73,0.09840202470582353
186,1403.3899999999999,0.097328504525956
187,1416.3799999999999,0.09594691305737633
188,1426.19,0.0948615741473866
189,1436.0800000000002,0.09378350096799837
190,1442.71,0.09306611901659861
191,1445.43977,0.09277219211714818
192,1446.0300000000002,0.09272885931937956
193,1456.0600000000002,0.09196817017844633
194,1466.1499999999999,0.09120371105361921
195,1476.3100000000002,0.09044664911424914
196,1486.5500000000002,0.0896913435296872
197,1493.41,0.08919623070448263
198,1503.76,0.08842982898278183
199,1510.7,0.08790761251238535
200,1517.67,0.08738703555004193
201,1524.6799999999998,0.08688201426510257
202,1535.25,0.08608551226912407
203,1545.89,0.08527689145860266
204,1556.6,0.08452271983353839
205,1563.79,0.08406111559691726
206,1574.6299999999999,0.08336760817341615
207,1585.54,0.08267819193537213
208,1596.53,0.08193256505213621
209,1603.9,0.08135432186383332
210,1615.02,0.08065718718216058
211,1626.2199999999998,0.079864388855296
212,1633.7199999999998,0.07938682386855628
213,1645.0500000000002,0.07877931874325479
214,1656.4499999999998,0.07780144480341049
215,1659.58691,0.07779280233076859
216,1664.1000000000001,0.07788743907447122
217,1671.78,0.07726492914941331
218,1675.6299999999999,0.07766812960104442
219,1683.37,0.077472121160947
220,1695.03,0.07687356707160123
221,1706.78,0.0765029267096962
222,1714.66,0.07644327806783988
223,1726.55,0.076025349504176
224,1734.52,0.07603851358976041
225,1746.54,0.07551480941017757
226,1754.6000000000001,0.0755334102232027
227,1766.76,0.07454012984186101
228,1774.92,0.07465299079648693
229,1783.11,0.07457973299359315
230,1795.47,0.07446576789545305
231,1803.76,0.07479273923416008
232,1816.26,0.07442571293426109
233,1824.6499999999999,0.0738630264145689
234,1833.07,0.07383222813735696
235,1845.77,0.0725956881206596
236,1854.2900000000002,0.07279892798504846
237,1867.1499999999999,0.07281648759491242
238,1875.77,0.07256479060090208
239,1884.42,0.07238666184937201
240,1893.1200000000001,0.07246083216864231
241,1905.46072,0.07187041842956256
242,1906.2399999999998,0.07184468260399843
243,1915.04,0.07215895192230792
244,1923.88,0.07212369560115518
245,1937.22,0.07104629484050161
246,1946.16,0.07224519442069331
247,1955.1399999999999,0.07224215836142277
248,1968.6899999999998,0.0727064129935925
249,1977.7800000000002,0.0724030264258008
250,1982.34,0.07241745352710664
251,1996.0800000000002,0.07212971637183078
252,2005.3000000000002,0.07165271647578686
253,2014.55,0.07197101735014627
254,2023.8500000000001,0.0710352461751779
255,2033.19,0.0722401493607473
256,2047.29,0.07268162145031136
257,2056.74,0.07143504412735963
258,2066.23,0.07159341116494565
259,2075.77,0.0734302061532039
260,2085.35,0.0737679155019999
261,2094.97,0.07337700921133371
262,2104.6400000000003,0.07298404087133968
263,2114.36,0.0736328804820179
264,2124.12,0.0734315844532339
265,2133.92,0.07245203278498763
266,2143.77,0.0737933590674136
267,2153.67,0.07370392330051179
268,2163.61,0.07283212189414773
269,2173.59,0.07299977484832146
270,2183.63,0.07383770934330182
271,2187.7616199999998,0.07440229802626169
272,2193.71,0.0752933419409297
273,2203.83,0.07483665644788337
274,2214.0,0.07373985617473304
275,2224.2200000000003,0.07469467112147875
276,2234.4900000000002,0.07687252128812046
277,2244.8,0.07593682163067898
278,2255.17,0.07470141223711274
279,2265.57,0.07447804797548407
280,2276.03,0.07579979397773066
281,2286.54,0.07703063519987327
282,2297.09,0.07579771659793266
283,2302.39,0.07746515990691037
284,2313.01,0.0777635866128242
285,2323.69,0.07570971358261325
286,2334.42,0.0763370357722983
287,2345.19,0.0738605381379002
288,2356.02,0.07867006076737729
289,2366.8900000000003,0.07519916357277119
290,2372.35,0.07777846758541616
291,2383.2999999999997,0.0733880607426437
292,2394.3,0.07599607911976725
293,2405.35,0.07592606271678681
294,2416.45,0.07669888153370241
295,2427.61,0.08101309061449319
296,2433.2000000000003,0.0808659501988678
297,2444.43,0.08264634458751303
298,2455.7200000000003,0.08281932924003346
299,2467.05,0.08308985406847072
300,2472.74,0.08163416409263738
301,2484.15,0.07989179927290825
302,2495.62,0.07994915471705435
303,2507.14,0.08510708538109647
304,2511.88643,0.08064692375887383
305,2512.92,0.07968293514050961
306,2518.71,0.07772801797946083
307,2524.52,0.07778901108728581
308,2536.1699999999996,0.08024339270624639
309,2547.88,0.08124253513182822
310,2553.75,0.08512407904627445
311,2565.54,0.08448421254735128
312,2577.38,0.0875920917206125
313,2583.32,0.08759064157611685
314,2595.24,0.08703378182487309
315,2607.2200000000003,0.08582099288025055
316,2613.2300000000005,0.08452843867681305
317,2625.2999999999997,0.08908868594212242
318,2637.4199999999996,0.09249730887961617
319,2643.49,0.09903344548279991
320,2655.7,0.10183910463022554
321,2667.95,0.09760605431539868
322,2674.1,0.10062203199407743
323,2686.4500000000003,0.10277408302361932
324,2692.64,0.09855715124004559
325,2705.07,0.10108729334508249
326,2717.55,0.09697221112230378
327,2723.82,0.09727681041422503
328,2736.3900000000003,0.1002180844013782
329,2742.7000000000003,0.09272396423104698
330,2755.36,0.09669695442813203
331,2768.08,0.10159163543183833
332,2774.46,0.10459645120256525
333,2787.27,0.10003193841620343
334,2793.6899999999996,0.08208613472467785
335,2806.59,0.08652507814824792
336,2813.06,0.1078452001289067
337,2826.0400000000004,0.11124932462797178
338,2832.56,0.11077738228081496
339,2845.63,0.10793690298981193
340,2852.19,0.0995998911804026
341,2865.35,0.11198023809933144
342,2871.96,0.11406355196210652
343,2884.0315,0.11452996910730992
344,2885.22,0.11458304276829531
345,2891.8700000000003,0.11602276770750229
346,2911.91,0.12277245036640574
347,2932.1000000000004,0.12233144276078003
348,2952.42,0.12230315425922905
349,2972.8900000000003,0.12459899549314887
350,2986.61,0.1268278186308812
351,3007.3100000000004,0.12881420212585631
352,3028.16,0.13085075535630228
353,3049.15,0.133891643006521
354,3070.28,0.1346103250765125
355,3091.56,0.13557953688197485
356,3112.99,0.13755487842290803
357,3127.36,0.13814036708101396
358,3149.04,0.13941329151439852
359,3170.87,0.14304824568325392
360,3192.85,0.14020432958758017
361,3207.59,0.14477066492651416
362,3229.8199999999997,0.1429287317232918
363,3252.21,0.1514773835712383
364,3267.2200000000003,0.15805311243401976
365,3289.87,0.15932460249011576
366,3311.31121,0.16053971704257802
367,3312.6699999999996,0.1606224566357036
368,3320.3100000000004,0.16274686009214984
369,3327.9599999999996,0.15657466106620924
370,3335.63,0.16327885707549494
371,3343.32,0.16166734812000694
372,3351.0299999999997,0.15672643419974522
373,3358.75,0.1653589177970967
374,3366.5,0.15542979394728756
375,3374.26,0.14292826761509161
376,3382.04,0.15592453631812198
377,3389.83,0.16357090253876544
378,3397.6499999999996,0.16288956131224838
379,3405.48,0.16538561760334447
380,3413.33,0.16533696892966687
381,3421.2,0.17186821529121557
382,3429.09,0.16783335668799054
383,3436.99,0.17244639560237868
384,3444.91,0.16039512955199314
385,3452.8599999999997,0.182138656054447
386,3460.8100000000004,0.17365978255690087
387,3468.79,0.17056890161219423
388,3476.79,0.17356171570271384
389,3484.8,0.18195162731084663
390,3492.8399999999997,0.17797733147181888
391,3500.89,0.17583083315040424
392,3508.96,0.17788172986421594
393,3517.0499999999997,0.17229252161325392
394,3525.16,0.17501310839751819
395,3533.2799999999997,0.1850517926993956
396,3541.43,0.19071366955411248
397,3549.59,0.1918920439264425
398,3557.77,0.18734811333399884
399,3565.9800000000005,0.19545367529439459
400,3574.2000000000003,0.17474773477240352
401,3582.44,0.18406038928563873
402,3590.69,0.16600694131648713
403,3598.9700000000003,0.19011208590017492
404,3607.27,0.18861072551908903
405,3615.58,0.18825436265561632
406,3623.92,0.18827519234498302
407,3632.2700000000004,0.20544851955196292
408,3637.63,0.23320928899261106
409,3640.35,0.20809981378338774
410,3643.0699999999997,0.19708163857416441
411,3645.79,0.18067416336494108
412,3648.5099999999998,0.18208118815571775
413,3651.2299999999996,0.19168761294649445
414,3653.9500000000003,0.2022644377372711
415,3656.67,0.21368516252804778
416,3659.3900000000003,0.17437718731882446
417,3662.11,0.22190761210960114
418,3664.83,0.2056740369003778
419,3667.55,0.2054090616911545
420,3670.27,0.21161118648193117
421,3672.98,0.20888181375509468
422,3675.7000000000003,0.19254693854587135
423,3678.42,0.22698846333664802
424,3681.14,0.2090857881274247
425,3683.86,0.1976850129182014
426,3686.58,0.18967273770897805
427,3689.2999999999997,0.19035916249975474
428,3692.0199999999995,0.1784684872905314
429,3694.7400000000002,0.2110165120813081
430,3697.46,0.20464473687208476
431,3700.1800000000003,0.19575066166286142
432,3702.9,0.2017820864536381
433,3705.62,0.2166229112444148
434,3708.34,0.20935023603519148
435,3711.06,0.17955646082596816
436,3713.7799999999997,0.2006810856167448
437,3716.5,0.1887715104075215
438,3719.22,0.20262613519829814
439,3721.94,0.20291745998907484
440,3724.6600000000003,0.22053668477985153
441,3727.38,0.23579780957062818
442,3730.1,0.22870853436140487
443,3732.82,0.24054015915218155
444,3735.54,0.2641523839429582
445,3738.2599999999998,0.2716663087337349
446,3740.98,0.23283243352451158
447,3743.7,0.20613955831528824
448,3746.4199999999996,0.1969830831060649
449,3749.13,0.21022551037922846
450,3751.85,0.1997509351700051
451,3754.5699999999997,0.19730175996078178
452,3757.29,0.17492018475155846
453,3760.0099999999998,0.18389760954233514
454,3762.73,0.2279575343331118
455,3765.4500000000003,0.2355125591238885
456,3768.17,0.21202148391466516
457,3770.89,0.22673910870544184
458,3773.61,0.2351633334962185
459,3776.33,0.2179655582869952
460,3779.0499999999997,0.22605158307777187
461,3781.77,0.22871670786854856
462,3784.49,0.23662573265932524
463,3787.2099999999996,0.2526519574501019
464,3789.9300000000003,0.28036058224087856
465,3792.65,0.28589270703165526
466,3795.3700000000003,0.2670543318224319
467,3798.09,0.2588176566132086
468,3800.81,0.23893008140398525
469,3801.8939600000003,0.23063170000847075
470,3803.5299999999997,0.21811166898746395
471,3806.25,0.19835857841929427
472,3808.97,0.2206417878511246
473,3811.6899999999996,0.24363619728295494
474,3814.41,0.26138040671478524
475,3817.13,0.2597422161466156
476,3819.8500000000004,0.2514820255784459
477,3822.56,0.24383630776971804
478,3825.2799999999997,0.25680131720154836
479,3827.9999999999995,0.2431865266333787
480,3830.7200000000003,0.21607803606520903
481,3833.44,0.22308794549703936
482,3836.1600000000003,0.20688765492886968
483,3838.88,0.2155538643607
484,3841.6,0.19582917379253034
485,3844.32,0.16513308322436068
486,3847.04,0.186518692656191
487,3849.7599999999998,0.20867870208802133
488,3852.48,0.23459071151985167
489,3855.2,0.23641042095168197
490,3857.92,0.2447575303835123
491,3860.6400000000003,0.27843563981534264
492,3863.36,0.278305149247173
493,3866.08,0.28414245867900334
494,3868.8,0.2539236681108336
495,3871.52,0.273633977542664
496,3874.24,0.2992518869744943
497,3876.96,0.30387859640632464
498,3879.68,0.26706940583815497
499,3882.3999999999996,0.2552469152699853
500,3885.1200000000003,0.2528974247018156
501,3887.84,0.2503616341336459
502,3890.56,0.23567854356547627
503,3893.28,0.2192443529973066
504,3896.0,0.21533666242913693
505,3898.71,0.22102324462040907
506,3901.4300000000003,0.2189078540522394
507,3904.15,0.2387698634840697
508,3906.87,0.24145577291590004
509,3909.59,0.26350198234773037
510,3912.31,0.2679073917795607
511,3915.0299999999997,0.281634201211391
512,3917.75,0.29132451064322135
513,3920.47,0.29884342007505166
514,3923.1899999999996,0.29551412950688205
515,3925.9100000000003,0.27940223893871236
516,3928.63,0.2874584483705427
517,3931.35,0.271226557802373
518,3934.07,0.25788356723420336
519,3936.79,0.23318687666603366
520,3939.5099999999998,0.210667986097864
521,3942.23,0.1727335955296943
522,3944.95,0.18389690496152464
523,3947.6699999999996,0.21821671439335497
524,3950.39,0.2466984238251853
525,3953.11,0.2678784332570156
526,3955.8300000000004,0.27959494268884594
527,3958.55,0.2833966521206763
528,3961.27,0.2869611615525066
529,3963.9900000000002,0.28537357098433697
530,3966.71,0.2601932804161673
531,3969.43,0.24589898984799763
532,3972.1400000000003,0.21594367203926973
533,3974.86,0.18979918147110006
534,3977.58,0.16366109090293038
535,3980.2999999999997,0.1734084003347607
536,3983.02,0.19819190976659104
537,3985.74,0.23804341919842137
538,3988.4599999999996,0.26655362863025167
539,3991.18,0.292298038062082
540,3993.9,0.30838604749391235
541,3996.6200000000003,0.31870535692574264
542,3999.34,0.34081156635757304
543,4002.06,0.3504640757894033
544,4004.78,0.3347219852212337
545,4007.5,0.311289594653064
546,4010.22,0.33468230408489436
547,4012.94,0.33663491351672464
548,4015.66,0.352767022948555
549,4018.3799999999997,0.36074423238038533
550,4021.1000000000004,0.35721574181221566
551,4023.82,0.391649351244046
552,4026.54,0.3659632606758763
553,4029.26,0.36186597010770666
554,4031.98,0.367851679539537
555,4034.7,0.3887251889713673
556,4037.42,0.3791278984031976
557,4040.14,0.35859410783502793
558,4042.8599999999997,0.36341031726685824
559,4045.58,0.3510315266986886
560,4048.29,0.3832543088899607
561,4051.0099999999998,0.39271711832179107
562,4053.73,0.36978092775362137
563,4056.45,0.35518943718545176
564,4059.1699999999996,0.36708604661728206
565,4061.8900000000003,0.3669081560491124
566,4064.61,0.3697646654809427
567,4067.33,0.37265287491277305
568,4070.05,0.35420508434460335
569,4072.77,0.35269969377643373
570,4075.49,0.336496103208264
571,4078.21,0.3376458126400944
572,4080.93,0.3470770220719247
573,4083.6499999999996,0.362893131503755
574,4086.37,0.33192204093558536
575,4089.09,0.3363968503674156
576,4091.81,0.345480359799246
577,4094.53,0.3477995692310763
