,lambda (Angstroms),Total Flux (erg/s/cm^2/Angstrom)
0,100.05999999999999,0.00012789844002361077
1,101.92,0.0001537490819143162
2,104.06,0.00018349121828662918
3,104.712855,0.0001925647241128413
4,105.99000000000001,0.00017775446724479152
5,107.96,0.00015490960157241756
6,109.97,0.0001316008808988684
7,114.1,8.370783801575725e-05
8,118.11,3.7206361010535636e-05
9,120.22644299999999,1.266329301660426e-05
10,121.14,1.2173096798674275e-05
11,125.10000000000001,1.004823644838613e-05
12,127.14,8.953612018027998e-06
13,128.01999999999998,8.481422211865088e-06
14,131.0,6.882414437494964e-06
15,131.91,6.3941332127025114e-06
16,134.05,5.245854816099266e-06
17,136.86,3.738084227599825e-06
18,138.038426,3.1057696565994537e-06
19,140.05,3.06766313909516e-06
20,142.98,3.012374853542708e-06
21,146.98,2.937327817882705e-06
22,151.1,2.859582955806902e-06
23,154.98,2.786495510162699e-06
24,158.489319,2.7205024891968645e-06
25,158.95,2.7071557611457414e-06
26,161.91,2.6214698433917953e-06
27,166.06,2.50150081873677e-06
28,169.93,2.3897834560584695e-06
29,173.09,2.2986616223211488e-06
30,177.11999999999998,2.1826574696561495e-06
31,180.0,2.0999506298955533e-06
32,181.970086,2.043412163398999e-06
33,182.07999999999998,2.044488114853303e-06
34,185.89999999999998,2.0822094788411965e-06
35,191.1,2.1338065828561307e-06
36,194.21,2.1650692431996776e-06
37,197.82000000000002,2.201818076813891e-06
38,201.95999999999998,2.2441704238950114e-06
39,204.76999999999998,2.273413062276158e-06
40,208.929613,2.3156324087436976e-06
41,210.02,2.3785280850842166e-06
42,215.91,2.722786947242349e-06
43,219.92000000000002,2.9571915450613853e-06
44,222.98,3.135745194145235e-06
45,227.13,3.379570963883139e-06
46,229.76,3.5671851556447496e-06
47,234.03,3.8851624341702566e-06
48,239.88329199999998,4.286608065535794e-06
49,240.03,4.281445221098316e-06
50,246.19,4.009260857478212e-06
51,251.92,3.791870096838083e-06
52,257.2,3.522512213735137e-06
53,260.18,3.4454247047111247e-06
54,263.8,3.3209575098564528e-06
55,268.7,3.1262853433404623e-06
56,273.7,2.9278931040384294e-06
57,275.42287,2.860334099556114e-06
58,278.79,3.0546340060145167e-06
59,283.96999999999997,3.354875837929174e-06
60,289.90999999999997,3.675230087653706e-06
61,295.99,4.040009230132692e-06
62,300.79,4.317468653142415e-06
63,307.8,4.742587033204531e-06
64,316.227766,5.260920626412086e-06
65,317.88,5.219288993192011e-06
66,328.29999999999995,4.941676095854439e-06
67,338.27000000000004,4.678649010494014e-06
68,347.75,4.433527878175379e-06
69,356.66999999999996,4.207259120761643e-06
70,363.078055,4.05334489264468e-06
71,365.82000000000005,4.166438299301848e-06
72,375.21,4.533759387048095e-06
73,384.83000000000004,4.87168743647503e-06
74,394.7,5.322394618163577e-06
75,404.83,5.751449017404207e-06
76,414.26,6.117333446312312e-06
77,416.86938299999997,6.215160121033875e-06
78,421.96,6.347753412806447e-06
79,429.79999999999995,6.567622343874751e-06
80,440.83,6.896763945875187e-06
81,451.09999999999997,7.1678183096598146e-06
82,459.48,7.388165225776192e-06
83,470.19,7.679671095896287e-06
84,478.630092,7.936877328895765e-06
85,480.03,7.924003701892228e-06
86,490.08000000000004,7.74708137146938e-06
87,500.35,7.67572080794275e-06
88,506.14,7.645936354893169e-06
89,512.0,8.841915509492383e-06
90,520.32,8.90878487574929e-06
91,529.99,8.98243867523298e-06
92,539.85,8.7938284097634e-06
93,549.5408739999999,1.0015135329052335e-05
94,549.88,1.006302230750828e-05
95,560.11,1.1116830900205604e-05
96,570.52,1.2228707981337485e-05
97,579.7900000000001,1.2081328635717169e-05
98,590.5699999999999,1.4252121443075641e-05
99,600.16,1.514619407689454e-05
100,609.92,1.723553144979052e-05
101,619.83,1.968197006304863e-05
102,629.9000000000001,2.1662366666026348e-05
103,630.957344,2.1712906736914026e-05
104,640.13,2.2309110067672864e-05
105,650.53,2.596070707017117e-05
106,658.07,2.8681415146982443e-05
107,665.69,3.0503903123812933e-05
108,674.95,3.128974405103738e-05
109,684.3399999999999,3.209381856579306e-05
110,695.4599999999999,4.230927466846433e-05
111,705.1300000000001,4.2141023833287274e-05
112,716.59,5.0639607011040215e-05
113,724.43596,5.3434689960896275e-05
114,726.56,5.418232861204113e-05
115,734.97,5.7567964783804015e-05
116,745.19,6.712209927553014e-05
117,755.56,7.373684644570626e-05
118,764.31,8.014356268862246e-05
119,774.9399999999999,8.946237050144524e-05
120,785.72,9.881377099271801e-05
121,794.8199999999999,0.00010538601348535085
122,805.8800000000001,0.00011241964697639693
123,815.2099999999999,0.00011912866157598643
124,824.65,0.0001340564941397726
125,831.763771,0.00011623091144691367
126,834.1999999999999,0.00011008272132766949
127,845.8000000000001,0.00014608845394213215
128,855.6,0.00015332603149572992
129,865.51,0.00016871296185860278
130,875.5300000000001,0.00018528754503075072
131,885.6700000000001,0.00020727325854028963
132,895.9200000000001,0.00022320392485910363
133,904.21,0.00022360469566719805
134,914.68,0.0003795724676045622
135,925.27,0.0030594046698793173
136,935.99,0.0069398513800195795
137,944.65,0.013842987319367962
138,954.992586,0.020335716811677142
139,955.59,0.02071075949530912
140,964.4300000000001,0.022191582383052372
141,975.5999999999999,0.0030801057604383643
142,984.6199999999999,0.016757643299742005
143,996.02,0.019779071231899596
144,1005.24,0.032521163384048105
145,1014.5400000000001,0.032746685381334566
146,1023.93,0.014428857204401211
147,1035.79,0.021438184246102002
148,1045.3700000000001,0.04636133570137128
149,1055.04,0.04604209698242075
150,1064.8,0.034290018089250404
151,1074.66,0.0431675690025025
152,1084.6,0.03222338976089254
153,1094.64,0.047114580325705015
154,1096.4782,0.046748484342856306
155,1104.76,0.04509904659102232
156,1114.99,0.042379754611264635
157,1125.3,0.03751206214681677
158,1135.72,0.05201731901591989
159,1146.22,0.046898325400332834
160,1154.17,0.05154102723424548
161,1164.8500000000001,0.0534748925281055
162,1175.63,0.03444730721610278
163,1183.78,0.05335140783828997
164,1194.73,0.0340533414963206
165,1205.78,0.0224479545484885
166,1214.1399999999999,0.017749383898363946
167,1225.3799999999999,0.037945105799392656
168,1233.87,0.060835584361646544
169,1245.29,0.06670084517212232
170,1253.92,0.06253974288616838
171,1258.92541,0.058574901409202774
172,1265.52,0.05335129540216805
173,1274.29,0.07114594918156626
174,1286.09,0.07484247426673148
175,1295.0,0.054468638106462165
176,1303.9799999999998,0.05560848197635908
177,1316.04,0.07364330717357032
178,1325.1599999999999,0.06936773110379969
179,1334.35,0.05958401506419531
180,1343.6000000000001,0.0751879390504477
181,1356.03,0.07296846440710902
182,1365.43,0.06369996845800335
183,1374.9,0.0677872125390639
184,1384.43,0.06904436664598124
185,1394.02,0.05809504077875534
186,1403.6899999999998,0.061395314946005135
187,1413.4199999999998,0.0635526391391117
188,1426.49,0.0662428347715786
189,1436.3799999999999,0.06670151903363657
190,1443.0100000000002,0.0709814418908099
191,1445.43977,0.07170005653616825
192,1446.3400000000001,0.0719663032635131
193,1456.36,0.06968547688763414
194,1466.46,0.06355253054069027
195,1476.62,0.06458950421544774
196,1483.44,0.06608931668216485
197,1493.72,0.06747732040032495
198,1504.08,0.06253902414742014
199,1511.0199999999998,0.05459424665753991
200,1517.9899999999998,0.05944791917851034
201,1525.0,0.05836662171394831
202,1535.57,0.049561955536998145
203,1546.21,0.05446922938536619
204,1553.35,0.05213701196782369
205,1564.12,0.054093605863211276
206,1574.96,0.05796466978391707
207,1585.88,0.061537163733557956
208,1593.1999999999998,0.06239220638111943
209,1604.24,0.062392660374162974
210,1615.3600000000001,0.06355304439614161
211,1626.56,0.060138478447055346
212,1634.07,0.06518335116333768
213,1645.3899999999999,0.06608965525765405
214,1656.8,0.06167850938452242
215,1659.58691,0.06390413671851636
216,1664.45,0.06778781323761504
217,1672.13,0.06153691352314504
218,1675.98,0.06794104369232348
219,1683.72,0.07130990413633417
220,1695.3899999999999,0.0670127149608309
221,1703.22,0.06443640564256264
222,1715.02,0.05986168681043423
223,1726.91,0.05986119821602688
224,1734.88,0.06458962926754694
225,1746.91,0.06311693104292788
226,1754.9699999999998,0.06763019233216899
227,1763.07,0.06253984372706389
228,1775.29,0.06297026600430042
229,1783.49,0.06518396766332982
230,1795.85,0.06984959031035463
231,1804.1399999999999,0.0704948422071051
232,1816.6399999999999,0.06282916522391824
233,1825.03,0.0659367073848032
234,1833.45,0.06311748962492852
235,1846.16,0.05769888319642411
236,1854.6799999999998,0.05664612570068393
237,1863.24,0.058905058310597565
238,1876.16,0.0662430124367756
239,1884.8200000000002,0.059448285310823745
240,1893.52,0.05612443829052568
241,1905.46072,0.06130948175880684
242,1906.64,0.06182155581496542
243,1915.4399999999998,0.05782943585340164
244,1924.29,0.0569061757216017
245,1933.1699999999998,0.06069433548766007
246,1946.57,0.06239268986436975
247,1955.55,0.0574329392899558
248,1969.1100000000001,0.0645894931219098
249,1978.2,0.0673188221729763
250,1982.76,0.0628282666474387
251,1996.5,0.061254489866542514
252,2005.72,0.064588978474995
253,2014.98,0.061967616947258566
254,2024.28,0.0663954752833332
255,2033.62,0.061112913483218914
256,2043.01,0.06399440151286848
257,2057.17,0.06111260330198856
258,2066.66,0.0618204509911658
259,2076.2,0.06670122851010687
260,2085.79,0.06503603585881179
261,2095.41,0.061112903105375024
262,2105.09,0.06268074014765486
263,2114.8,0.063552747087793
264,2124.56,0.064736143857695
265,2134.37,0.061112430457360825
266,2144.22,0.06139555692083772
267,2154.12,0.06458894321407847
268,2164.06,0.06326400937113028
269,2174.0499999999997,0.06282799535794593
270,2184.09,0.06097647117452544
271,2187.7616199999998,0.06207570819085823
272,2194.17,0.06399433606960975
273,2204.2999999999997,0.06268018356810562
274,2214.4700000000003,0.0602743711751839
275,2224.69,0.0580944689179902
276,2234.96,0.06139540679652451
277,2245.28,0.05958352481078684
278,2255.64,0.057165792933631575
279,2266.05,0.059176281192204326
280,2276.5099999999998,0.060416219586505095
281,2287.02,0.06167876811653388
282,2297.5699999999997,0.05836688675514508
283,2302.87,0.05836685114231468
284,2313.5,0.0556110299980907
285,2324.1800000000003,0.042970368989594734
286,2334.91,0.05238062811682679
287,2345.69,0.052020417379786854
288,2356.51,0.05459867675132933
289,2367.39,0.051545016285745426
290,2372.85,0.052382921107244684
291,2383.8,0.05002611083168
292,2394.8,0.05299063069184332
293,2405.86,0.05084003071488028
294,2416.96,0.05202481084649964
295,2422.5299999999997,0.05397756596660053
296,2433.7200000000003,0.05178675634253032
297,2444.95,0.05460387682704251
298,2456.23,0.053979597447282736
299,2467.57,0.05373195823039657
300,2473.2599999999998,0.05202815367624469
301,2484.68,0.05385722467652335
302,2496.14,0.05003270578538443
303,2507.67,0.05498621708426472
304,2511.88643,0.051710740842146136
305,2513.45,0.050496096887321706
306,2519.24,0.0527549708043112
307,2525.0499999999997,0.05061342470028855
308,2536.7000000000003,0.051200162460725084
309,2542.55,0.04980487631467819
310,2554.29,0.05251388398056015
311,2566.08,0.0516754415939118
312,2577.92,0.05423592915473313
313,2583.86,0.05373960291413167
314,2595.79,0.05349298038039843
315,2607.77,0.05191617779413488
316,2613.78,0.05155913147999098
317,2625.85,0.05276084879917285
318,2637.9700000000003,0.053618706065824424
319,2644.05,0.05627557967813808
320,2656.2599999999998,0.05679836685023507
321,2662.3799999999997,0.05288442042052448
322,2674.67,0.054995987508572965
323,2687.01,0.054493044544091145
324,2693.2099999999996,0.052885958030332046
325,2705.6400000000003,0.05362259497129566
326,2718.13,0.05204174184922289
327,2724.39,0.0521625352724274
328,2736.9700000000003,0.05399605205580007
329,2743.28,0.04913253542647428
330,2755.94,0.04958773212579844
331,2762.29,0.05074295545444839
332,2775.0399999999995,0.05252703205921798
333,2787.85,0.05145003860095119
334,2794.28,0.045122501845552644
335,2807.1800000000003,0.04757692829273129
336,2813.6499999999996,0.05228732149530848
337,2826.6400000000003,0.053137677847932566
338,2833.1499999999996,0.05086394100848551
339,2846.23,0.050397877266555015
340,2852.79,0.049821590374577646
341,2865.96,0.05253191653809258
342,2872.56,0.05205075960409096
343,2884.0315,0.05194779819308636
344,2885.82,0.05193174751360637
345,2892.48,0.051574237370410406
346,2912.5299999999997,0.05388207693931747
347,2932.71,0.05265715650542941
348,2953.04,0.05181629606831622
349,2966.67,0.052296635775259025
350,2987.24,0.05205727533298562
351,3007.94,0.052298734887917094
352,3028.79,0.05230008443962343
353,3049.79,0.05194064398810465
354,3070.93,0.051823063533575735
355,3092.22,0.05170456307582168
356,3106.4900000000002,0.05146798276900391
357,3128.0200000000004,0.050880402306089645
358,3149.7000000000003,0.05088164183995024
359,3171.54,0.0504159913703707
360,3193.5200000000004,0.048818230897781034
361,3208.26,0.04972646058085784
362,3230.5,0.048484230102677946
363,3252.89,0.04950058962127291
364,3267.91,0.05007441929832947
365,3290.56,0.049616648811334194
366,3311.31121,0.04951412046656751
367,3313.37,0.04950394751897252
368,3321.0099999999998,0.049846744378823395
369,3328.66,0.05042513123456412
370,3336.3399999999997,0.050657808077974424
371,3344.03,0.048378234917274575
372,3351.7400000000002,0.04996359174835445
373,3359.46,0.04826778857532418
374,3367.21,0.04860294538996349
375,3374.97,0.046522672200492644
376,3382.75,0.04717037900280152
377,3390.5499999999997,0.04950763579689011
378,3398.36,0.049851572586868544
379,3406.2,0.047938049364516566
380,3414.05,0.04849373613805444
381,3421.92,0.04950946290337203
382,3429.81,0.04928235966046932
383,3437.71,0.04985390641345649
384,3445.64,0.046741153154113216
385,3453.58,0.04951124989065981
386,3461.54,0.046742446618986105
387,3469.52,0.04750224333909212
388,3477.52,0.04652831005097786
389,3485.54,0.0470672867546433
390,3493.5699999999997,0.0475034734541986
391,3501.63,0.04761299014142348
392,3509.7,0.046637056824538205
393,3517.79,0.04610362349943265
394,3525.9,0.04706950016610681
395,3534.03,0.04816616682456069
396,3542.17,0.049175353478904414
397,3550.34,0.04951613012091772
398,3558.52,0.048278596758820874
399,3566.73,0.04906301338439361
400,3574.9500000000003,0.04600060000585619
401,3583.19,0.0447469466190985
402,3591.45,0.04362886322412051
403,3599.73,0.046964869820922246
404,3608.0299999999997,0.04600223640950369
405,3616.34,0.046535202993975
406,3624.6800000000003,0.04783908956611587
407,3633.04,0.05020969613003646
408,3641.41,0.048729802689846904
409,3649.8,0.04751123924143706
410,3658.22,0.04963610578069679
411,3666.65,0.049068932315846386
412,3674.51,0.06255081908527411
413,3677.2500000000005,0.04902583795909497
414,3679.9900000000002,0.04172572683291584
415,3682.73,0.0602009757067367
416,3685.4700000000003,0.048680374580557566
417,3688.21,0.04729598345437843
418,3690.9500000000003,0.05067959232819929
419,3693.68,0.0424018912061303
420,3696.42,0.050661130079951155
421,3699.1600000000003,0.050197948953772026
422,3701.9,0.044263507827592884
423,3704.6400000000003,0.03856348670141375
424,3707.38,0.037878355575234605
425,3710.12,0.04459126444905547
426,3712.86,0.04805132332287634
427,3715.6,0.0426706521966972
428,3718.34,0.06744265107051807
429,3721.08,0.12731872994433893
430,3723.8100000000004,0.24099102882226994
431,3726.55,0.39079782769609084
432,3729.29,0.41654312656991166
433,3732.03,0.3244664254437325
434,3734.77,0.1692636243175534
435,3737.51,0.07162702319137423
436,3740.25,0.062465782065195104
437,3742.99,0.03578957093901597
438,3745.73,0.04170015981283683
439,3748.47,0.047640188686657696
440,3751.21,0.04370391756047856
441,3753.94,0.04451719643840956
442,3756.68,0.041213365312230424
443,3759.42,0.053590604186051286
444,3762.16,0.05258613305987215
445,3764.9,0.04903146193369302
446,3767.64,0.04309874080751388
447,3770.3799999999997,0.042921499681334734
448,3773.12,0.0455871585551556
449,3775.8599999999997,0.05407227742897646
450,3778.6,0.047731896302797325
451,3781.33,0.058423245180728334
452,3784.0699999999997,0.058723304054549195
453,3786.81,0.051325792928370056
454,3789.5499999999997,0.04311690180219092
455,3792.29,0.04247707067601178
456,3795.0299999999997,0.049807139549832645
457,3797.77,0.04856939842365351
458,3800.51,0.048292497297474375
459,3801.8939600000003,0.046585998284413475
460,3803.2500000000005,0.044913926287426124
461,3805.9900000000002,0.056068705395899816
462,3808.73,0.05769821450437351
463,3811.46,0.05393773361610096
464,3814.2,0.052024492724574656
465,3816.9399999999996,0.05329673183304835
466,3819.68,0.052010850941522045
467,3822.42,0.052371500049995745
468,3825.1600000000003,0.04868774915846944
469,3827.9,0.04489810826694313
470,3830.6400000000003,0.043744727375416834
471,3833.38,0.049938986483890536
472,3836.12,0.05331975559236423
473,3838.86,0.05188666470083793
474,3841.5899999999997,0.049372953812565366
475,3844.3300000000004,0.05298306292103906
476,3847.07,0.045860162029512756
477,3849.8100000000004,0.051662051137986456
478,3852.55,0.05986691024646015
479,3855.29,0.05195132935493385
480,3858.03,0.05703016846340755
481,3860.77,0.06122571757188124
482,3863.51,0.06490035668035495
483,3866.25,0.07445218578882865
484,3868.98,0.08276445490055608
485,3871.7200000000003,0.07519423400902978
486,3874.46,0.06393235311750346
487,3877.2000000000003,0.06108996222597717
488,3879.94,0.05773233133445087
489,3882.68,0.05867220044292456
490,3885.42,0.06616873955139826
491,3888.16,0.06932812865987195
492,3890.9,0.06876189776834565
493,3893.64,0.05752835687681935
494,3896.3799999999997,0.05161601598529305
495,3899.11,0.04915099509702049
496,3901.85,0.05249894420549418
497,3904.59,0.05388725331396788
498,3907.33,0.057103842422441584
499,3910.0699999999997,0.055817961530915276
500,3912.81,0.052676630639388974
501,3915.5499999999997,0.05528397974786267
502,3918.29,0.04840569885633637
503,3921.0299999999997,0.05307289796481006
504,3923.77,0.056404977073283756
505,3926.5099999999998,0.05600578618175746
506,3929.24,0.0463431552934849
507,3931.98,0.0455940444019586
508,3934.72,0.04619023351043229
509,3937.46,0.04854846261890599
510,3940.2,0.05294898172737968
511,3942.9399999999996,0.05469004083585339
512,3945.68,0.057041469944327086
513,3948.42,0.05990077905280078
514,3951.1600000000003,0.05407392816127447
515,3953.9,0.05612922726974817
516,3956.6400000000003,0.057386736378221864
517,3959.37,0.0564957854899493
518,3962.1099999999997,0.04619136459842301
519,3964.85,0.048009433706896705
520,3967.5899999999997,0.056298092815370404
521,3970.3300000000004,0.0562686319238441
522,3973.07,0.05901753103231779
523,3975.8100000000004,0.04975608014079149
524,3978.55,0.04973057924926518
525,3981.29,0.053819688357738885
526,3984.03,0.05495603746621258
527,3986.7599999999998,0.057851296577940026
528,3989.5000000000005,0.05847409568641372
529,3992.2400000000002,0.05804941479488741
530,3994.98,0.05469518390336111
531,3997.7200000000003,0.05289292301183481
532,4000.46,0.06103324212030851
533,4003.2000000000003,0.057018811228782204
534,4005.94,0.0589778503372559
535,4008.68,0.06634981944572961
536,4011.42,0.06128224855420329
537,4014.16,0.05760189766267699
538,4016.8900000000003,0.06646328677440443
539,4019.63,0.06888662588287812
540,4022.37,0.06807124499135182
541,4025.11,0.06988873409982552
542,4027.85,0.06945272320829922
543,4030.59,0.06535335231677292
544,4033.33,0.06605543142524661
545,4036.0699999999997,0.06026878053372031
546,4038.81,0.05705836964219401
547,4041.5499999999997,0.061135008750667706
548,4044.29,0.0688013978591414
549,4047.02,0.06688225697086884
550,4049.76,0.062244996079342536
551,4052.5,0.06275455518781624
552,4055.24,0.06311689429628993
553,4057.98,0.06094829340476363
554,4060.72,0.06280542251323733
555,4063.46,0.058422961621711025
556,4066.2,0.06410197073018473
557,4068.9399999999996,0.06505316983865841
558,4071.68,0.06906752894713211
559,4074.41,0.06815057805885955
560,4077.15,0.06453814716733325
561,4079.89,0.06060299627580695
562,4082.6299999999997,0.06024058538428065
563,4085.37,0.05723400449275434
564,4088.1099999999997,0.060036693601228035
