,lambda (Angstroms),Total Flux (erg/s/cm^2/Angstrom)
0,100.05999999999999,1.1866333471179744
1,101.92,1.183332290257547
2,104.06,1.179534300106306
3,104.712855,1.1783756380221184
4,105.99000000000001,1.166469372070718
5,107.96,1.1481039210653914
6,109.97,1.1293655675017202
7,114.1,1.0908633783386483
8,118.11,1.0534798968514836
9,120.22644299999999,1.0337492216179933
10,121.14,1.0266088681727634
11,125.10000000000001,0.9956575431354276
12,127.14,0.9797129211470957
13,128.01999999999998,0.9728348489179596
14,131.0,0.9495431952315443
15,131.91,0.9424306432732851
16,134.05,0.9257044221719719
17,136.86,0.9037414870030678
18,138.038426,0.8945309197976473
19,140.05,0.8832927734389111
20,142.98,0.8669236175463225
21,146.98,0.8445766474763472
22,151.1,0.8215592678578574
23,154.98,0.7998827065981603
24,158.489319,0.7802770447813875
25,158.95,0.7783312757552747
26,161.91,0.7658291836680102
27,166.06,0.7483009128322327
28,169.93,0.7319552724752714
29,173.09,0.7186084447898378
30,177.11999999999998,0.7015870160162843
31,180.0,0.6894228189729988
32,181.970086,0.681101807102369
33,182.07999999999998,0.6807476351628976
34,185.89999999999998,0.6684385865175061
35,191.1,0.6516828137410162
36,194.21,0.6416615731187002
37,197.82000000000002,0.6300292010235582
38,201.95999999999998,0.6166890293553902
39,204.76999999999998,0.607634468888452
40,208.929613,0.5942310986289295
41,210.02,0.5915895882745313
42,215.91,0.577320809329486
43,219.92000000000002,0.5676064114679262
44,222.98,0.5601934292399187
45,227.13,0.5501398765807622
46,229.76,0.5437686220852296
47,234.03,0.5334244313900658
48,239.88329199999998,0.519244638489951
49,240.03,0.5189707606733185
50,246.19,0.5074710777728765
51,251.92,0.4967741682712184
52,257.2,0.48691726115669676
53,260.18,0.4813541574565395
54,263.8,0.4745962624061946
55,268.7,0.46544880920987497
56,273.7,0.4561146735480916
57,275.42287,0.45289837388837123
58,278.79,0.44807427184757903
59,283.96999999999997,0.44065286427153083
60,289.90999999999997,0.43214257759137736
61,295.99,0.42343174863833616
62,300.79,0.4165547678881404
63,307.8,0.40651153049622313
64,316.227766,0.3944370648897652
65,317.88,0.39266903568960465
66,328.29999999999995,0.38151874514630196
67,338.27000000000004,0.3708499956589343
68,347.75,0.36070559290054255
69,356.66999999999996,0.35116044193512347
70,363.078055,0.3443032922331075
71,365.82000000000005,0.34210596484187994
72,375.21,0.33458102944875745
73,384.83000000000004,0.3268717388240163
74,394.7,0.3189622068060377
75,404.83,0.31084428479601206
76,414.26,0.3032872912986515
77,416.86938299999997,0.3011961860398828
78,421.96,0.29808082554066884
79,429.79999999999995,0.29328291075416524
80,440.83,0.28653280300170547
81,451.09999999999997,0.2802477624602383
82,459.48,0.2751193643871873
83,470.19,0.2685650612298297
84,478.630092,0.26339992329317286
85,480.03,0.2627410383352185
86,490.08000000000004,0.2580107902600056
87,500.35,0.25317710390042686
88,506.14,0.25045198834729826
89,512.0,0.24769515278855322
90,520.32,0.24377937965871724
91,529.99,0.23922823062113632
92,539.85,0.23458739508873938
93,549.5408739999999,0.23002756927589568
94,549.88,0.229905854752356
95,560.11,0.2262338505836771
96,570.52,0.22249727589737625
97,579.7900000000001,0.21916875633334756
98,590.5699999999999,0.21530039291354622
99,600.16,0.21185801953730074
100,609.92,0.20835580331669015
101,619.83,0.204800087042228
102,629.9000000000001,0.20118645709365746
103,630.957344,0.20080687070177133
104,640.13,0.19819649249890914
105,650.53,0.19523980918044045
106,658.07,0.1930962870748006
107,665.69,0.19092909494201873
108,674.95,0.1882940441178245
109,684.3399999999999,0.18562200734077441
110,695.4599999999999,0.1824669416180271
111,705.1300000000001,0.17971423119097968
112,716.59,0.1764606684153786
113,724.43596,0.17423012990857936
114,726.56,0.17378208899884162
115,734.97,0.17200852519340668
116,745.19,0.16985869486972704
117,755.56,0.16767423164906586
118,764.31,0.16583185030180594
119,774.9399999999999,0.1635951557250433
120,785.72,0.16132680023129906
121,794.8199999999999,0.1594106328877487
122,805.8800000000001,0.15708079840897213
123,815.2099999999999,0.15511617112271672
124,824.65,0.1531365207473414
125,831.763771,0.15161562603192938
126,834.1999999999999,0.15122475464341525
127,845.8000000000001,0.14942891735085403
128,855.6,0.14788856340713852
129,865.51,0.1463389878909936
130,875.5300000000001,0.14477322910241913
131,885.6700000000001,0.14319393134392164
132,895.9200000000001,0.1415912076129947
133,904.21,0.1402824722908109
134,914.68,0.13878504381502504
135,925.27,0.13979252966931616
136,935.99,0.1419801007561906
137,944.65,0.14751567112674407
138,954.992586,0.15237512527195154
139,955.59,0.1526578576937679
140,964.4300000000001,0.15277275558736947
141,975.5999999999999,0.13193533075383213
142,984.6199999999999,0.1442191303466247
143,996.02,0.14547907129538692
144,1005.24,0.1567965222206139
145,1014.5400000000001,0.15558504167881465
146,1023.93,0.13581630448661094
147,1035.79,0.14099306699997233
148,1045.3700000000001,0.16443595132358124
149,1055.04,0.16262253899678572
150,1064.8,0.14936238001958568
151,1074.66,0.15671639920860278
152,1084.6,0.14423632693059374
153,1094.64,0.15757617281880185
154,1096.4782,0.15692604478570074
155,1104.76,0.15422890912015647
156,1114.99,0.1502154601144797
157,1125.3,0.1440434901390616
158,1135.72,0.15723055383024911
159,1146.22,0.15078324655169528
160,1154.17,0.15442022518364734
161,1164.8500000000001,0.15500300572317544
162,1175.63,0.13461168505052684
163,1183.78,0.15248476125812555
164,1194.73,0.1318014535247765
165,1205.78,0.11879817457925082
166,1214.1399999999999,0.11304201324127844
167,1225.3799999999999,0.13181580699261697
168,1233.87,0.1536322490788149
169,1245.29,0.15805281064823537
170,1253.92,0.15279996103738586
171,1258.92541,0.1482019048469202
172,1265.52,0.1423835405717512
173,1274.29,0.15938723842947156
174,1286.09,0.16201953547862774
175,1295.0,0.14084211696235505
176,1303.9799999999998,0.14117206525908582
177,1316.04,0.1581192133279692
178,1325.1599999999999,0.15302111525070689
179,1334.35,0.14240856398644802
180,1343.6000000000001,0.1571782414190493
181,1356.03,0.15383771978523675
182,1365.43,0.14372144895998828
183,1374.9,0.14695460494774332
184,1384.43,0.14735225963235848
185,1394.02,0.13553802301383375
186,1403.6899999999998,0.13796617132445585
187,1413.4199999999998,0.13924595833193806
188,1426.49,0.14075738613130007
189,1436.3799999999999,0.14032410299707593
190,1443.0100000000002,0.14400607400011875
191,1445.43977,0.1445055505645404
192,1446.3400000000001,0.14471512518495006
193,1456.36,0.14180351055330273
194,1466.46,0.13503473971701146
195,1476.62,0.13543211172723735
196,1483.44,0.13650258528134562
197,1493.72,0.13724343298460565
198,1504.08,0.1316529444832218
199,1511.0199999999998,0.12327127373036424
200,1517.9899999999998,0.12768616440076525
201,1525.0,0.1261635669688443
202,1535.57,0.11669348843027019
203,1546.21,0.1209309432126327
204,1553.35,0.11814924194816542
205,1564.12,0.11942783289798162
206,1574.96,0.12261648716873438
207,1585.88,0.12550153523484325
208,1593.1999999999998,0.12589576250992726
209,1604.24,0.1252012162690703
210,1615.3600000000001,0.12566156382356947
211,1626.56,0.12154192517342474
212,1634.07,0.12611402146247946
213,1645.3899999999999,0.1263076985053689
214,1656.8,0.12117825981803396
215,1659.58691,0.12322844303048264
216,1664.45,0.12689768825158992
217,1672.13,0.12030814944786311
218,1675.98,0.126542519136099
219,1683.72,0.12957009487296808
220,1695.3899999999999,0.12475833301886757
221,1703.22,0.12183677056663045
222,1715.02,0.11674174688382102
223,1726.91,0.11621698501190542
224,1734.88,0.1205939898210587
225,1746.91,0.11859084521053348
226,1754.9699999999998,0.12274871183058061
227,1763.07,0.11730120481102499
228,1775.29,0.11719280291238673
229,1783.49,0.11904493679382425
230,1795.85,0.1231655621565764
231,1804.1399999999999,0.12344527784890773
232,1816.6399999999999,0.11522843047305029
233,1825.03,0.11796602706637477
234,1833.45,0.11477554092999717
235,1846.16,0.10879650444622531
236,1854.6799999999998,0.10736806921084088
237,1863.24,0.10924956033585369
238,1876.16,0.11601782474416741
239,1884.8200000000002,0.10884124677017337
240,1893.52,0.10513378515657659
241,1905.46072,0.10979231891836419
242,1906.64,0.11026629371953267
243,1915.4399999999998,0.10598987024742598
244,1924.29,0.10478069124422777
245,1933.1699999999998,0.10828196292237466
246,1946.57,0.10954740058984858
247,1955.55,0.10429753120581242
248,1969.1100000000001,0.11101599917379348
249,1978.2,0.113451655621356
250,1982.76,0.10881377918580983
251,1996.5,0.10679610124186142
252,2005.72,0.10983271730858601
253,2014.98,0.10691219095043739
254,2024.28,0.11103959216741555
255,2033.62,0.1054552809595205
256,2043.01,0.10803340422053392
257,2057.17,0.10469413581541681
258,2066.66,0.10509538801424721
259,2076.2,0.10966795468198609
260,2085.79,0.10769293581863346
261,2095.41,0.10345900763662594
262,2105.09,0.10471411081730855
263,2114.8,0.1052724146793363
264,2124.56,0.10614049301027254
265,2134.37,0.10219984581011723
266,2144.22,0.10216474618508872
267,2154.12,0.10503829102896871
268,2164.06,0.10339222344797547
269,2174.0499999999997,0.10263346033589071
270,2184.09,0.10045757169271444
271,2187.7616199999998,0.1014381888845723
272,2194.17,0.10321671406731296
273,2204.2999999999997,0.10168109524973677
274,2214.4700000000003,0.09905294204393716
275,2224.69,0.09664960585285831
276,2234.96,0.09972601667650022
277,2245.28,0.09768851451486286
278,2255.64,0.09504428796500211
279,2266.05,0.09682718842986211
280,2276.5099999999998,0.09783844590944285
281,2287.02,0.09887122040374435
282,2297.5699999999997,0.09532869050982246
283,2302.87,0.09521278407022188
284,2313.5,0.09222456539985316
285,2324.1800000000003,0.0793504137442052
286,2334.91,0.088526089103278
287,2345.69,0.08793020147707153
288,2356.51,0.09027190946264169
289,2367.39,0.08698038586587672
290,2372.85,0.08769892187338255
291,2383.8,0.08510271809722664
292,2394.8,0.08782675133579146
293,2405.86,0.0854343529920212
294,2416.96,0.08637646026002754
295,2422.5299999999997,0.08820744169991904
296,2433.7200000000003,0.0857719915944227
297,2444.95,0.08834359710070298
298,2456.23,0.08747270962170403
299,2467.57,0.08697715056036995
300,2473.2599999999998,0.08514894883559124
301,2484.68,0.08672835099781036
302,2496.14,0.08265328877180608
303,2507.67,0.08735472636641087
304,2511.88643,0.08398706876011897
305,2513.45,0.08274696005918761
306,2519.24,0.08491153638799168
307,2525.0499999999997,0.08267536697009037
308,2536.7000000000003,0.08307236951422978
309,2542.55,0.0815818086029178
310,2554.29,0.08409961528688319
311,2566.08,0.0830691576040852
312,2577.92,0.08543681555452388
313,2583.86,0.08484374878303788
314,2595.79,0.08440283087330253
315,2607.77,0.08263091859680381
316,2613.78,0.08217599171184913
317,2625.85,0.0831811335751764
318,2637.9700000000003,0.0838416010717403
319,2644.05,0.08639945407331692
320,2656.2599999999998,0.08672338570970681
321,2662.3799999999997,0.08270976721787275
322,2674.67,0.08462117586744126
323,2687.01,0.08391726015024643
324,2693.2099999999996,0.08220919867159102
325,2705.6400000000003,0.08274339709422215
326,2718.13,0.08095912827673729
327,2724.39,0.08097796955796584
328,2736.9700000000003,0.08260660488030692
329,2743.28,0.07764032179477215
330,2755.94,0.07788933413029187
331,2762.29,0.0789411395513464
332,2775.0399999999995,0.0805175660266921
333,2787.85,0.07923194526192179
334,2794.28,0.07279968769615494
335,2807.1800000000003,0.0750440210712106
336,2813.6499999999996,0.07964904201203309
337,2826.6400000000003,0.0802878395269147
338,2833.1499999999996,0.07790807897432653
339,2846.23,0.0772289906290341
340,2852.79,0.07654586570968255
341,2865.96,0.07904170150421612
342,2872.56,0.0784530550914539
343,2884.0315,0.0781632655659641
344,2885.82,0.07812664221834811
345,2892.48,0.07769252376104213
346,2912.5299999999997,0.07976973319512853
347,2932.71,0.07831268726893716
348,2953.04,0.07723797592704071
349,2966.67,0.07756153315330491
350,2987.24,0.07708556114628032
351,3007.94,0.07708891377897797
352,3028.79,0.07685043099597054
353,3049.79,0.07624943279725802
354,3070.93,0.07588868421055409
355,3092.22,0.07552529020814507
356,3106.4900000000002,0.07512456566073422
357,3128.0200000000004,0.07428933099319704
358,3149.7000000000003,0.07404119090995478
359,3171.54,0.07332432038329377
360,3193.5200000000004,0.07147372946864133
361,3208.26,0.07221240861868787
362,3230.5,0.07071435698347996
363,3252.89,0.07147316993256694
364,3267.91,0.07187422830663065
365,3290.56,0.07115592053516215
366,3311.31121,0.07081469621234097
367,3313.37,0.07078774989010388
368,3321.0099999999998,0.0710683021391563
369,3328.66,0.07158436291209493
370,3336.3399999999997,0.07175446925669213
371,3344.03,0.06941224412517552
372,3351.7400000000002,0.07093478604143132
373,3359.46,0.0691760864815733
374,3367.21,0.06944810249337387
375,3374.97,0.06730460702906063
376,3382.75,0.06788892861251977
377,3390.5499999999997,0.07016263724375132
378,3398.36,0.07044294439886904
379,3406.2,0.06846554712564536
380,3414.05,0.06895727837630786
381,3421.92,0.06990888667474277
382,3429.81,0.06961750202095005
383,3437.71,0.07012468589104354
384,3445.64,0.06694732533279558
385,3453.58,0.06965273329843386
386,3461.54,0.0668190783118445
387,3469.52,0.06751386037302752
388,3477.52,0.06647474948198295
389,3485.54,0.06694838563871076
390,3493.5699999999997,0.06731915031932477
391,3501.63,0.06736300057159736
392,3509.7,0.06632131934775613
393,3517.79,0.0657219751716873
394,3525.9,0.06662177804339087
395,3534.03,0.0676522079628668
396,3542.17,0.06859507640622896
397,3550.34,0.06886929042124967
398,3558.52,0.0675651129601566
399,3566.73,0.0682826410707221
400,3574.9500000000003,0.0651532577051738
401,3583.19,0.06383247138739788
402,3591.45,0.06264709211739436
403,3599.73,0.06591563989516322
404,3608.0299999999997,0.06488538472070447
405,3616.34,0.06535064807013191
406,3624.6800000000003,0.06658658699121794
407,3633.04,0.06888908296007637
408,3641.41,0.06734099745282097
409,3649.8,0.06605407899333797
410,3658.22,0.06811034610551356
411,3666.65,0.06747449174157533
412,3674.51,0.08089234151612404
413,3677.2500000000005,0.06734503706094126
414,3679.9900000000002,0.06002260260575849
415,3682.73,0.07847552815057574
416,3685.4700000000003,0.06693260369539296
417,3688.21,0.06552588924021019
418,3690.9500000000003,0.06888717478502743
419,3693.68,0.06058723180595847
420,3696.42,0.06882414735077569
421,3699.1600000000003,0.06833864289559294
422,3701.9,0.062381878440410155
423,3704.6400000000003,0.05665953398522739
424,3707.38,0.05595207953004462
425,3710.12,0.06264266507486185
426,3712.86,0.0660804006196791
427,3715.6,0.06067740616449632
428,3718.34,0.08542708170931357
429,3721.08,0.1452808372541308
430,3723.8100000000004,0.25893089427506183
431,3726.55,0.4087153698198791
432,3729.29,0.4344383453646963
433,3732.03,0.3423393209095135
434,3734.77,0.18711419645433078
435,3737.51,0.08945527199914798
436,3740.25,0.08027170754396522
437,3742.99,0.053573173088782455
438,3745.73,0.059461438633599685
439,3748.47,0.06537914417841692
440,3751.21,0.06142054972323415
441,3753.94,0.06221158674416519
442,3756.68,0.05888543228898242
443,3759.42,0.07124034783379965
444,3762.16,0.07021355337861689
445,3764.9,0.06663655892343412
446,3767.64,0.060681514468251346
447,3770.3799999999997,0.06048195001306858
448,3773.12,0.06312528555788581
449,3775.8599999999997,0.07158808110270304
450,3778.6,0.06522537664752028
451,3781.33,0.0758944836684513
452,3784.0699999999997,0.07617221921326854
453,3786.81,0.06875238475808579
454,3789.5499999999997,0.06052117030290301
455,3792.29,0.05985901584772024
456,3795.0299999999997,0.06716676139253747
457,3797.77,0.06590669693735471
458,3800.51,0.06560747248217194
459,3801.8939600000003,0.06388969806969211
460,3803.2500000000005,0.06220978241732583
461,3805.9900000000002,0.07334871271917269
462,3808.73,0.07496237302101955
463,3811.46,0.07118610116848012
464,3814.2,0.06925701147032698
465,3816.9399999999996,0.07051340177217383
466,3819.68,0.06921167207402068
467,3822.42,0.06955647237586755
468,3825.1600000000003,0.06585687267771441
469,3827.9,0.06205138297956127
470,3830.6400000000003,0.06088215328140813
471,3833.38,0.06706056358325499
472,3836.12,0.07042548388510185
473,3838.86,0.06897654418694871
474,3841.5899999999997,0.06644704233440926
475,3844.3300000000004,0.07004130263625612
476,3847.07,0.06290255293810298
477,3849.8100000000004,0.06868859323994984
478,3852.55,0.07687760354179671
479,3855.29,0.06894617384364357
480,3858.03,0.07400916414549043
481,3860.77,0.07818886444733728
482,3863.51,0.08184765474918415
483,3866.25,0.091383635051031
484,3868.98,0.09968011319849156
485,3871.7200000000003,0.09209404350033841
486,3874.46,0.08081631380218528
487,3877.2000000000003,0.07795807410403213
488,3879.94,0.074584594405879
489,3882.68,0.07550861470772585
490,3885.42,0.08298930500957272
491,3888.16,0.08613284531141957
492,3890.9,0.08555076561326644
493,3893.64,0.0743013759151133
494,3896.3799999999997,0.06837318621696016
495,3899.11,0.06589237436442072
496,3901.85,0.06922447466626758
497,3904.59,0.07059693496811444
498,3907.33,0.0737976752699613
499,3910.0699999999997,0.07249594557180816
500,3912.81,0.06933876587365502
501,3915.5499999999997,0.07193026617550188
502,3918.29,0.06503613647734874
503,3921.0299999999997,0.06968748677919559
504,3923.77,0.07300371708104245
505,3926.5099999999998,0.07258867738288931
506,3929.24,0.06291025553034987
507,3931.98,0.06214529583219673
508,3934.72,0.06272563613404358
509,3937.46,0.06506801643589046
510,3940.2,0.06945268673773732
511,3942.9399999999996,0.07117789703958417
512,3945.68,0.07351347734143103
513,3948.42,0.07635693764327789
514,3951.1600000000003,0.07051423794512475
515,3953.9,0.07255368824697161
516,3956.6400000000003,0.07379534854881847
517,3959.37,0.07288860669627903
518,3962.1099999999997,0.06256833699812589
519,3964.85,0.06437055729997275
520,3967.5899999999997,0.07264336760181961
521,3970.3300000000004,0.07259805790366647
522,3973.07,0.07533110820551332
523,3975.8100000000004,0.06605380850736019
524,3978.55,0.06601245880920704
525,3981.29,0.0700857191110539
526,3984.03,0.07120621941290076
527,3986.7599999999998,0.07408568756036132
528,3989.5000000000005,0.07469263786220817
529,3992.2400000000002,0.07425210816405503
530,3994.98,0.0708820284659019
531,3997.7200000000003,0.06906391876774876
532,4000.46,0.07718838906959562
533,4003.2000000000003,0.07315810937144247
534,4005.94,0.07510129967328934
535,4008.68,0.08245741997513621
536,4011.42,0.07737400027698306
537,4014.16,0.07367780057882992
538,4016.8900000000003,0.08252339872629047
539,4019.63,0.08493088902813734
540,4022.37,0.0840996593299842
541,4025.11,0.08590129963183105
542,4027.85,0.0854494399336779
543,4030.59,0.08133422023552478
544,4033.33,0.08202045053737163
545,4036.0699999999997,0.07621795083921849
546,4038.81,0.07299169114106535
547,4041.5499999999997,0.07705248144291221
548,4044.29,0.08470302174475908
549,4047.02,0.08276808989221962
550,4049.76,0.07811498019406649
551,4052.5,0.07860869049591335
552,4055.24,0.0789551807977602
553,4057.98,0.07677073109960707
554,4060.72,0.07861201140145394
555,4063.46,0.0742137017033008
556,4066.2,0.07987686200514765
557,4068.9399999999996,0.08081221230699451
558,4071.68,0.08481072260884137
559,4074.41,0.08387798075630193
560,4077.15,0.08024970105814878
561,4079.89,0.07629870135999564
562,4082.6299999999997,0.0759204416618425
563,4085.37,0.07289801196368936
564,4088.1099999999997,0.07568485226553623
565,4090.85,0.07349475256738308
566,4093.5899999999997,0.07197049286922995
567,4096.33,0.0739895631710768
568,4099.070000000001,0.08546199347292366
569,4101.81,0.09390519377477052
570,4104.54,0.09564499192223108
571,4107.28,0.08894221222407794
572,4110.0199999999995,0.0831680025259248
573,4112.759999999999,0.07435328282777166
574,4115.5,0.06988022312961853
575,4118.24,0.06980942343146537
576,4120.9800000000005,0.07362620373331223
577,4123.72,0.0751220940351591
578,4126.46,0.07481179433700595
579,4129.2,0.07476760463885282
