,lambda (Angstroms),Total Flux (erg/s/cm^2/Angstrom)
0,100.05,130.55037812268648
1,101.91000000000001,130.18720968737668
2,104.04,129.77132325339227
3,104.712855,129.63994707191975
4,105.97,128.35058219982903
5,107.94,126.3300922817883
6,109.94999999999999,124.26857718776381
7,114.08,120.03272776570216
8,118.09,115.91995387166159
9,120.22644299999999,113.72875511967406
10,121.11999999999999,112.960401022671
11,125.08,109.55526601245326
12,127.11999999999999,107.80110555268436
13,128.0,107.04440888380304
14,130.98,104.48195880052074
15,131.89,103.69946565446224
16,134.03,101.85931693702975
17,137.15,99.1764832933133
18,138.038426,98.41254125400175
19,140.02,97.19460640959103
20,142.95000000000002,95.39374048779266
21,146.96,92.92907416048777
22,151.08,90.39679852992951
23,154.95,88.01818040353336
24,158.489319,85.84280874429305
25,158.93,85.63803681900832
26,161.88000000000002,84.2672557351372
27,166.03,82.33886878917907
28,169.9,80.54058988230699
29,173.05999999999997,79.07222777956542
30,177.09,77.1996014318559
31,179.97,75.86134737177089
32,181.970086,74.93196431383205
33,182.04999999999998,74.90363479870835
34,185.87,73.549444704764
35,191.07,71.70604458386158
36,194.18,70.60354952014684
37,197.79000000000002,69.32380446157882
38,201.92999999999998,67.85617439709908
39,205.21,66.69341435213457
40,208.929613,65.37481150096603
41,209.99,65.09219908501683
42,215.86999999999998,63.5250722488414
43,219.89000000000001,62.453669216919934
44,222.95,61.638123628797885
45,227.09,60.53473845674079
46,230.25,59.69254176019229
47,233.99,58.69576550565899
48,239.88329199999998,57.12509755225552
49,239.99,57.10318175610038
50,246.15,55.83803372065139
51,251.88,54.661200233495485
52,257.15999999999997,53.57678663168821
53,260.13,52.966805868401416
54,263.75,52.2233267730471
55,269.28000000000003,51.08756936466913
56,274.28000000000003,50.06066407297575
57,275.42287,49.82594026776739
58,278.74,49.303091882660055
59,283.92,48.486616495164114
60,289.87,47.54877263389378
61,295.94,46.59201534883068
62,300.75,45.83385950634659
63,307.75,44.73051511555207
64,316.227766,43.394244537992485
65,317.83,43.205618266646724
66,328.25,41.97890214921905
67,338.21999999999997,40.805163435422855
68,347.70000000000005,39.68911136664466
69,356.60999999999996,38.64016374242769
70,363.078055,37.87869911203788
71,365.76,37.64224562882853
72,375.14,36.815258363105215
73,384.77,35.966229024138435
74,394.64,35.09604273244473
75,404.76,34.203814052807544
76,414.19,33.372418805701535
77,416.86938299999997,33.136191225444776
78,421.89,32.79816255614366
79,429.72999999999996,32.27031009748592
80,440.76,31.527681657640436
81,451.02000000000004,30.836894923240266
82,460.46999999999997,30.200644137839593
83,470.10999999999996,29.551601136614096
84,478.630092,28.977959909757978
85,479.95000000000005,28.909613302650026
86,490.0,28.389209606959188
87,500.26,27.85793282615325
88,506.06,27.55760179359356
89,511.92,27.254174391906698
90,520.23,26.823871288993764
91,529.9100000000001,26.322627789943798
92,539.76,25.81257909400019
93,549.5408739999999,25.306117003982784
94,549.79,25.296276339630104
95,560.01,24.892579544855337
96,570.4200000000001,24.48137524306548
97,579.6899999999999,24.115196847066162
98,590.47,23.68937996443113
99,600.0699999999999,23.310166649226655
100,609.82,22.925028131747105
101,619.72,22.53398521849249
102,629.79,22.136211562192802
103,630.957344,22.090100319816717
104,640.0300000000001,21.80600000176644
105,650.4300000000001,21.480340893075898
106,657.9599999999999,21.244548211294383
107,665.58,21.005942055700732
108,674.84,20.7159779665305
109,684.2199999999999,20.422247186310763
110,695.34,20.074063351223177
111,705.02,19.770932076029673
112,716.47,19.41241833123095
113,724.43596,19.162977721636526
114,726.44,19.1163972279487
115,734.8499999999999,18.920922078896766
116,745.07,18.6833885157491
117,755.44,18.44236079565926
118,764.19,18.23898257416503
119,774.8199999999999,17.99192817874873
120,785.59,17.741612561079716
121,794.6899999999999,17.530107987353723
122,805.7499999999999,17.273044876989815
123,815.0799999999999,17.0561922199058
124,824.51,16.83703709102699
125,831.763771,16.668384760677192
126,834.06,16.628475297320485
127,845.6700000000001,16.42685033728635
128,855.4599999999999,16.25677646368832
129,865.36,16.084809844015027
130,875.38,15.91075941497782
131,885.5200000000001,15.734632399576688
132,895.77,15.556584293800304
133,904.0600000000001,15.412568980501252
134,914.5300000000001,15.231052837474348
135,925.12,15.052953238183525
136,935.83,14.875262945628783
137,944.49,14.739498367249317
138,954.992586,14.568623710933975
139,955.4300000000001,14.561671251350946
140,964.27,14.420549157845796
141,975.44,14.190029763303656
142,984.46,14.078529937057452
143,995.8599999999999,13.885345656790632
144,1005.0699999999999,13.745907393206647
145,1014.37,13.582809368252132
146,1026.12,13.344913227099928
147,1035.6200000000001,13.206930810210908
148,1045.2,13.084225146548087
149,1054.87,12.920473251514743
150,1064.63,12.740931635110865
151,1074.48,12.586693207336461
152,1084.42,12.40397068819153
153,1094.46,12.252444723079345
154,1096.4782,12.21765527030086
155,1104.58,12.102960231613565
156,1114.8,11.96028504626551
157,1125.1200000000001,11.809784157597017
158,1135.53,11.682464778940142
159,1146.04,11.528763616962836
160,1153.98,11.423768731320603
161,1164.66,11.279702932698562
162,1175.4299999999998,11.103759894088137
163,1186.31,10.975932518825234
164,1194.53,10.834993059885797
165,1205.59,10.663016664646118
166,1213.94,10.52003958239012
167,1225.18,10.402342077173662
168,1233.67,10.318461158269065
169,1245.08,10.17180607640788
170,1253.71,10.050336960854674
171,1258.92541,9.97201941256594
172,1265.31,9.901658799431353
173,1274.09,9.839470239514291
174,1285.8700000000001,9.728999735434218
175,1294.7900000000002,9.62108737478955
176,1303.76,9.531280106742166
177,1315.8300000000002,9.433620279726338
178,1324.95,9.339690389470803
179,1334.13,9.238500070332007
180,1346.4799999999998,9.13303434186097
181,1355.8100000000002,9.038203500514019
182,1365.21,8.93507040880327
183,1374.67,8.846671388209261
184,1384.1999999999998,8.754927117251448
185,1393.79,8.646260317410372
186,1403.45,8.555648667205494
187,1416.4399999999998,8.430372763979683
188,1426.26,8.335403870086108
189,1436.1499999999999,8.237590025828737
190,1442.77,8.178611905709037
191,1445.43977,8.153707078110628
192,1446.1,8.149526447084193
193,1456.12,8.07782916662663
194,1466.22,8.000562324049646
195,1476.3799999999999,7.9301975348830975
196,1486.62,7.861142683597126
197,1493.48,7.816168756856718
198,1503.83,7.740085370156542
199,1510.77,7.6810333812967135
200,1517.74,7.639774419142102
201,1524.75,7.58884732592778
202,1535.32,7.503556868399195
203,1545.96,7.439610706516114
204,1556.68,7.359428682513611
205,1563.86,7.311930407295519
206,1574.7,7.244688890113885
207,1585.6200000000001,7.1742427108128295
208,1596.61,7.102237127157281
209,1603.98,7.0480255544055606
210,1615.1,6.971635219805951
211,1626.29,6.888591180851847
212,1633.8,6.844027199391139
213,1645.12,6.768201609492976
214,1656.53,6.679756499710462
215,1659.58691,6.663538538885009
216,1664.17,6.6487339027479
217,1671.85,6.598500281702654
218,1675.71,6.5957725570627215
219,1683.4399999999998,6.563447900724212
220,1695.11,6.498983963276548
221,1706.8600000000001,6.438375769359663
222,1714.7399999999998,6.397578307141361
223,1726.63,6.339902514403339
224,1734.6000000000001,6.309776388657163
225,1746.6200000000001,6.2487924041566565
226,1754.68,6.218944314882607
227,1766.8500000000001,6.1477043245023095
228,1775.0,6.114484671700386
229,1783.19,6.0771596906638505
230,1795.55,6.027550866169154
231,1803.84,5.985871214546093
232,1816.35,5.918392884171607
233,1824.73,5.879150769020671
234,1833.15,5.834125225635124
235,1845.86,5.761238154087585
236,1854.3799999999999,5.723453740115512
237,1862.9399999999998,5.687914597908828
238,1875.85,5.632959085188235
239,1884.51,5.582946072395025
240,1893.2099999999998,5.538397531367204
241,1905.46072,5.484046202754585
242,1906.33,5.481316180523412
243,1915.1299999999999,5.448310304058702
244,1923.97,5.414178040428242
245,1932.8500000000001,5.3802810896320326
246,1946.25,5.3468547891062235
247,1955.23,5.308529770395643
248,1968.79,5.27302162120684
249,1977.87,5.243026034581889
250,1982.43,5.221550597686538
251,1996.1699999999998,5.169406006251865
252,2005.3899999999999,5.1380905645467925
253,2014.64,5.103020482467409
254,2023.9399999999998,5.072151866430841
255,2033.2900000000002,5.038914116437085
256,2042.67,5.012307426069019
257,2056.83,4.9563361693939845
258,2066.32,4.922603464320108
259,2075.86,4.900941725289047
260,2085.44,4.873779999092236
261,2095.07,4.831473638938241
262,2104.74,4.795919191618497
263,2114.45,4.765369457133003
264,2124.22,4.731037941898887
265,2134.02,4.684177886290459
266,2143.87,4.6591874967248454
267,2153.77,4.628014573202045
268,2163.71,4.585517362513497
269,2173.69,4.5500415646592
270,2183.73,4.51829528605628
271,2187.7616199999998,4.507397966874706
272,2193.81,4.49800364189004
273,2203.93,4.468301820747372
274,2214.11,4.43241900481532
275,2224.33,4.407080092357013
276,2234.5899999999997,4.39951908337245
277,2244.91,4.366527479598503
278,2255.27,4.3311684792983005
279,2265.68,4.307954533340279
280,2276.1400000000003,4.2902848417244375
281,2286.64,4.275358753582341
282,2297.2000000000003,4.2386904706508615
283,2302.4900000000002,4.232658580053556
284,2313.12,4.20038935320113
285,2323.8,4.144379580690883
286,2334.52,4.1340857116543805
287,2345.2999999999997,4.095495847828495
288,2356.13,4.095485438344789
289,2367.0,4.0468767323348285
290,2372.46,4.045611406500938
291,2383.41,3.9985245074384648
292,2394.41,3.9844939627181737
293,2405.46,3.954593672340062
294,2416.57,3.9335259871725667
295,2427.72,3.929525905478817
296,2433.3199999999997,3.911136991803033
297,2444.55,3.89777311705677
298,2455.83,3.8707819966526897
299,2467.17,3.8415379814592248
300,2472.85,3.818322574730929
301,2484.27,3.7866511664849534
302,2495.73,3.754997661712722
303,2507.26,3.756719613019543
304,2511.88643,3.716906297234161
305,2513.03,3.7077662283449833
306,2518.8300000000004,3.692578215187452
307,2524.63,3.6796137020299216
308,2536.29,3.668554063854609
309,2542.13,3.6602046761235774
310,2553.87,3.6643681888012645
311,2565.6600000000003,3.632436008262076
312,2577.5,3.6280690345060127
313,2583.44,3.613738560341231
314,2595.3599999999997,3.588188737438167
315,2607.34,3.5580691026748523
316,2613.36,3.5415080793630693
317,2625.42,3.540178995452755
318,2637.54,3.5426219996821904
319,2643.62,3.5676673645101573
320,2655.8199999999997,3.571044519592592
321,2661.94,3.516938709847059
322,2674.23,3.511907097139118
323,2686.5699999999997,3.501279391214302
324,2692.76,3.4614051509651427
325,2705.19,3.458434177249951
326,2717.6800000000003,3.408669991674509
327,2723.95,3.391617802278351
328,2736.52,3.390020767555908
329,2742.83,3.3271839035862496
330,2755.49,3.3229948010734316
331,2761.8399999999997,3.3331379625302726
332,2774.59,3.3252506922270784
333,2787.4,3.2655684100636346
334,2793.82,3.18951014101685
335,2806.72,3.1818430910630315
336,2813.19,3.2544971287993714
337,2826.17,3.267531529698551
338,2832.69,3.2480363742180165
339,2845.7599999999998,3.2043907073268216
340,2852.3199999999997,3.158029877272786
341,2865.49,3.1984896239478404
342,2872.09,3.2072436193203044
343,2884.0315,3.1799097229403195
344,2885.35,3.177585727149449
345,2892.0,3.1814430407428054
346,2912.0499999999997,3.2115493328551064
347,2932.23,3.1658238116993056
348,2952.5600000000004,3.132391467541852
349,2973.02,3.120766310116299
350,2986.7500000000005,3.109403778031605
351,3007.45,3.0924249038034066
352,3028.2999999999997,3.0755061065735543
353,3049.29,3.0613141412088245
354,3070.4199999999996,3.049196807709219
355,3091.7099999999996,3.027964396341183
356,3113.14,3.0201540168382692
357,3127.51,2.9917425732798524
358,3149.19,2.969272422107517
359,3171.02,2.9636627479335274
360,3192.9999999999995,2.905523150757885
361,3207.7299999999996,2.9168193319955
362,3229.97,2.8555501082836567
363,3252.36,2.9011600615701605
364,3267.37,2.928098806538022
365,3290.02,2.8984420332883265
366,3311.31121,2.8671958981231898
367,3312.83,2.8655275988985514
368,3320.46,2.840609825988399
369,3328.12,2.865811462096949
370,3335.79,2.8891109345450663
371,3343.4799999999996,2.8331717796723184
372,3351.19,2.824748397478704
373,3358.91,2.862149351624658
374,3366.65,2.7938874784497463
375,3374.41,2.7364176779539693
376,3382.19,2.7691067501373263
377,3389.99,2.8265192949998186
378,3397.81,2.7775254125414452
379,3405.64,2.8246952664226392
380,3413.4900000000002,2.7981236929829674
381,3421.36,2.8244029922224305
382,3429.2400000000002,2.807732927801461
383,3437.15,2.8055702723991933
384,3445.07,2.6842168533364927
385,3453.02,2.8232699432924946
386,3460.97,2.7624372332484963
387,3468.9500000000003,2.762634532223199
388,3476.95,2.7386141038770373
389,3484.97,2.7632832482100103
390,3493.0,2.7362216288825496
391,3501.05,2.7364038822342236
392,3509.12,2.7553426082650336
393,3517.21,2.6959498069749768
394,3525.32,2.7110673783640546
395,3533.4500000000003,2.765894322432268
396,3535.45,2.4992993903457275
397,3538.15,3.0100226020288976
398,3540.85,3.0465811137120684
399,3543.5499999999997,2.6770432253952388
400,3546.2500000000005,2.7364619370784085
401,3548.9500000000003,2.5502721487615787
402,3551.65,2.6778728604447495
403,3554.35,2.3875622721279197
404,3557.0499999999997,2.7727666838110903
405,3559.76,2.6635354318338273
406,3562.46,2.750592443516998
407,3565.16,2.7936973552001687
408,3567.86,2.4081316668833384
409,3570.56,2.764635578566509
410,3573.2599999999998,2.3679929902496797
411,3575.96,2.6918924019328494
412,3578.6600000000003,2.8203435136160193
413,3581.36,2.5841362252991904
414,3584.0699999999997,2.4624448733219277
415,3586.7700000000004,2.641935885005098
416,3589.4700000000003,3.0314428966882683
417,3592.17,2.7389287083714384
418,3594.87,2.7978431200546092
419,3597.5699999999997,2.67847343173778
420,3600.27,2.71703354342095
421,3602.97,2.7721029551041205
422,3605.67,2.6837125667872903
423,3608.3700000000003,2.6508699784704604
424,3611.08,2.869025926493198
425,3613.7799999999997,2.736856938176369
426,3616.4800000000005,2.6353361498595382
427,3619.1800000000003,2.8035853615427087
428,3621.88,2.6968046732258797
429,3624.58,2.74343868490905
430,3627.2799999999997,2.5418907965922206
431,3629.98,2.5343917082753906
432,3632.68,2.4704266199585607
433,3635.39,2.5506697679812986
434,3638.09,2.5600260796644685
435,3640.79,2.720938491347639
436,3643.49,2.6308252030308092
437,3646.19,2.5654307147139797
438,3648.8900000000003,2.63408972639715
439,3651.59,2.76373703808032
440,3654.29,2.6658128497634905
441,3656.99,2.6640928614466612
442,3659.69,2.5231717731298313
443,3662.4,2.7411251211525687
444,3665.1,2.738208632835739
445,3667.7999999999997,2.7190989445189095
446,3670.5,2.6667448562020795
447,3673.2,2.6834229678852504
448,3675.8999999999996,2.6709500795684207
449,3678.6000000000004,2.6474532912515905
450,3681.3,2.658465102934761
451,3684.0,2.6477831146179307
452,3686.7,2.6531064263011017
453,3689.4100000000003,2.671592874323839
454,3692.11,2.656644286007009
455,3694.81,2.6993352976901797
456,3697.5099999999998,2.7432682093733503
457,3700.21,2.7880061210565206
458,3702.91,2.7536814327396906
459,3705.6099999999997,2.648804244422861
460,3708.3100000000004,2.6362259561060313
461,3711.01,2.6786312677892017
462,3713.72,2.6772598158119396
463,3716.4199999999996,2.69687242749511
464,3719.1200000000003,2.8080011391782795
465,3721.82,2.93598545086145
466,3724.52,3.1196535625446202
467,3727.22,3.359305374227791
468,3729.92,3.377128185910961
469,3732.62,2.9963629975941317
470,3735.3199999999997,2.789269009277302
471,3738.0200000000004,2.670312920960472
472,3740.73,2.55918536898321
473,3743.43,2.59019058066638
474,3746.1299999999997,2.5931733923495504
475,3748.8300000000004,2.6032898040327206
476,3751.53,2.559416115715891
477,3754.23,2.7337154273990616
478,3756.93,2.8053395390822318
479,3759.63,2.714804650765402
480,3762.33,2.7626503624485723
481,3765.04,2.60653191047131
482,3767.74,2.6346851221544805
483,3770.44,2.5743774338376504
484,3773.14,2.605977045520821
485,3775.8399999999997,2.6328510572039914
486,3778.5400000000004,2.8266771688871613
487,3781.2400000000002,2.759393980570332
488,3783.94,2.760059392253502
489,3786.64,2.757940703936672
490,3789.34,2.7716991156198425
491,3792.05,2.72231156364258
492,3794.75,2.603371075325751
493,3797.45,2.575750887008921
494,3800.15,2.671107898692091
495,3801.8939600000003,2.6360619965805956
496,3802.85,2.6170983548231104
497,3805.5499999999997,2.683697893213523
498,3808.2500000000005,2.7991408316039355
499,3810.9500000000003,2.8573955699943476
500,3813.65,2.7902875083847603
501,3816.35,2.864569946775173
502,3819.0600000000004,2.8070824212336976
503,3821.76,2.7940775596241103
504,3824.46,2.7066526980145227
505,3827.16,2.564966836404935
506,3829.86,2.5652203747953477
507,3832.56,2.4717455131857604
508,3835.2599999999998,2.5958191515761726
509,3837.96,2.593898189966585
510,3840.6600000000003,2.5664606283569973
511,3843.37,2.5849668028155226
512,3846.0699999999997,2.7510659412059355
513,3848.7700000000004,2.8958555795963474
514,3851.4700000000003,2.84477511798676
515,3854.17,2.811980056377173
516,3856.87,2.877909794767585
517,3859.57,2.8982395331579975
518,3862.27,2.80645047154841
519,3864.97,2.9413830099388223
520,3867.67,2.9281517483292356
521,3870.38,2.7313812227877605
522,3873.08,2.7779721611781727
523,3875.7799999999997,2.826519899568585
524,3878.4800000000005,2.6602355379589975
525,3881.1800000000003,2.61404637634941
526,3883.88,2.6096197147398223
527,3886.58,2.610309653130235
528,3889.2799999999997,2.532162591520648
529,3891.98,2.54483962991106
530,3894.68,2.6202809683014725
531,3897.39,2.6586597427599976
532,3900.09,2.6323357811504096
533,3902.79,2.8425906195408226
534,3905.49,2.8252965579312352
535,3908.19,2.8637610963216478
536,3910.8900000000003,2.88273683471206
537,3913.59,2.956868573102472
538,3916.29,2.882913311492885
539,3918.99,2.8179870498832975
540,3921.7000000000003,2.9010614243418225
541,3924.4,2.792868962732235
542,3927.1,2.665939101122648
543,3929.8,2.5718474395130597
544,3932.5,2.6330064779034723
545,3935.2,2.569028716293885
546,3937.8999999999996,2.6203153546842977
547,3940.6000000000004,2.6320668930747093
548,3943.3,2.703339331465122
549,3946.0,2.8134400698555346
550,3948.7100000000005,2.89696644431406
551,3951.4100000000003,2.8162381827044722
552,3954.11,2.707217721094885
553,3956.81,2.753884159485297
554,3959.5099999999998,2.5973066978757102
555,3962.21,2.6495415362661228
556,3964.91,2.499427574656535
557,3967.6099999999997,2.4916673130469476
558,3970.3100000000004,2.4209847514373593
559,3973.02,2.462396625895885
560,3975.72,2.584656664286298
561,3978.4199999999996,2.7049152026767103
562,3981.1200000000003,2.811402941067122
563,3983.82,2.789519679457535
564,3986.52,2.8589854178479475
565,3989.22,2.9821791562383604
566,3991.92,3.0172578946287723
567,3994.62,3.0226136330191853
568,3997.3199999999997,2.9375963714095974
569,4000.03,2.960547745868122
570,4002.73,2.9740304842585346
571,4005.43,3.024685222648947
572,4008.1299999999997,3.02266596103936
573,4010.8300000000004,2.986936699429772
574,4013.53,3.0203594378201846
575,4016.23,3.0316601762105972
576,4018.93,3.0103029146010103
577,4021.63,3.0769856529914223
578,4024.33,3.020863391381835
579,4027.04,2.8907607658403602
580,4029.74,2.8585685042307727
581,4032.44,2.902826242621185
582,4035.14,2.9123959810115974
583,4037.8399999999997,2.88042871940201
584,4040.5400000000004,2.934394457792422
585,4043.2400000000002,2.9122091961828342
586,4045.94,2.8496159345732472
587,4048.64,2.92788667296366
588,4051.3500000000004,2.9988460474221843
589,4054.05,2.937231785812597
590,4056.75,2.91399352420301
591,4059.45,2.9138562625934226
592,4062.15,2.907699000983835
593,4064.85,2.9027447393742474
594,4067.5499999999997,2.91991447776466
595,4070.2500000000005,2.939567216155072
596,4072.9500000000003,2.924756954545485
597,4075.65,2.868785692935897
598,4078.3599999999997,2.8505760673944227
