,lambda (Angstroms),Total Flux (erg/s/cm^2/Angstrom)
0,100.1,0.01598249158847531
1,101.96000000000001,0.019200138222155775
2,104.10000000000001,0.022901194394884885
3,104.712855,0.023961516444936895
4,106.03,0.022065041130065865
5,108.01,0.01921551360327325
6,110.01,0.016342425412674656
7,113.88000000000001,0.010777459921216362
8,117.88,0.00502714126001919
9,120.22644299999999,0.001784553862945555
10,120.91,0.0017799394008994741
11,124.87,0.001573546286586773
12,126.9,0.001462490467633545
13,128.07,0.0014033999315866117
14,131.05,0.0012403468884927096
15,131.96,0.001249550693789539
16,134.10999999999999,0.0011332094865238065
17,136.91,0.001072038325898664
18,138.038426,0.0010154067026300903
19,140.1,0.0010446305820430704
20,143.04000000000002,0.0022609713674419875
21,147.04,0.005215200041454119
22,151.16,0.005492781955686616
23,155.04,0.005850839389478385
24,158.489319,0.006195188719122334
25,159.01999999999998,0.006247496349223012
26,161.97,0.006515725037142621
27,166.13,0.007004673986886885
28,170.0,0.0073869898656153225
29,173.16000000000003,0.0077103142601326
30,177.19,0.008099753867697354
31,180.07,0.008382736986751077
32,181.970086,0.008600127071907835
33,182.16,0.008622764091246866
34,185.97,0.00904270696418797
35,191.18,0.00959054691904969
36,193.83999999999997,0.009988414974698859
37,197.89999999999998,0.010380357112268646
38,202.04,0.01088690045451961
39,204.85,0.011212274268945988
40,208.929613,0.011255822359899676
41,210.10999999999999,0.011275398689556886
42,216.0,0.012487841411205331
43,220.01,0.013030732822718112
44,223.07,0.0132287128275134
45,227.22,0.01383222476212139
46,229.85,0.020882802445981393
47,234.11999999999998,0.03543535340038527
48,239.88329199999998,0.04263031209387149
49,240.13,0.042935121768891256
50,245.72,0.04025514191395139
51,252.03,0.04218803572706935
52,256.71,0.035457719569445274
53,260.28,0.040355642756898694
54,263.9,0.0419270545324117
55,268.81,0.04151718787986165
56,273.81,0.04092289668581884
57,275.42287,0.040766649275411515
58,278.90000000000003,0.040471702785493245
59,284.08,0.040137115111700254
60,290.03000000000003,0.03786093872964075
61,296.1,0.038072649042396836
62,300.92,0.037412301284157026
63,307.93,0.03720308070630203
64,316.227766,0.037185425204264176
65,318.01000000000005,0.03716242016864131
66,327.68,0.036201306448930284
67,337.63,0.03510572655119245
68,347.89,0.03388225374206782
69,356.82,0.03292628277857045
70,363.078055,0.0323910489973162
71,365.96999999999997,0.032167177059419017
72,375.36,0.03126302878970529
73,384.99,0.02943604423833755
74,394.86,0.029337183405315777
75,404.99,0.028586687433835477
76,414.42,0.027729641450512755
77,416.86938299999997,0.02744452364392519
78,422.13,0.026824681794253187
79,429.98,0.026125445694397828
80,441.01,0.02527967652479214
81,451.28000000000003,0.024354745321541884
82,459.67,0.023566191719276094
83,470.38000000000005,0.022809639588135852
84,478.630092,0.02227919000591257
85,480.23,0.02216843032003476
86,490.28000000000003,0.021172477128901575
87,500.55,0.020676848305723687
88,506.34,0.020113445989638
89,512.21,0.020232469807354245
90,520.53,0.019673447722754436
91,530.21,0.01891119991278735
92,540.06,0.01797535638714936
93,549.5408739999999,0.017351965117612562
94,550.1,0.017316256549363113
95,560.33,0.017037259145586788
96,569.44,0.016725761829027422
97,580.02,0.016019435647995798
98,589.4499999999999,0.015620826877945871
99,600.41,0.014860114595894208
100,610.16,0.013045564372353722
101,620.08,0.014255409314146377
102,630.15,0.013683767637115332
103,630.957344,0.013661533626843823
104,640.39,0.013421932725658592
105,649.3000000000001,0.01299064147537489
106,658.33,0.012574857548319688
107,664.42,0.012498804202166182
108,675.22,0.012209833292731393
109,684.6099999999999,0.0115888113353617
110,695.74,0.011551185564805291
111,705.42,0.010943179638571145
112,715.23,0.010955283312501212
113,724.43596,0.01070259178560272
114,725.18,0.010681775136781778
115,735.27,0.010457000197536764
116,745.5,0.010126513051007873
117,755.87,0.00987196069719511
118,764.62,0.008957958741952902
119,775.26,0.00938271798837838
120,784.23,0.009010709707404368
121,795.14,0.008901894554068084
122,804.35,0.008737063917750287
123,815.54,0.008558829349846253
124,824.98,0.008383492372990659
125,831.763771,0.007958949540248597
126,834.54,0.007779040313739159
127,844.1999999999999,0.007949266019165516
128,855.94,0.007730097290563594
129,865.86,0.007567365066736418
130,875.88,0.007423675562427111
131,883.99,0.007253822615326465
132,894.22,0.007099772322004688
133,904.5799999999999,0.006888706064056145
134,915.0500000000001,0.007841407297577258
135,925.65,0.013517325566471606
136,934.21,0.020406360357201378
137,945.0300000000001,0.029226023609035045
138,954.992586,0.03577962988538722
139,955.97,0.03642384727865524
140,964.8199999999999,0.039536347148515325
141,975.99,0.014929578611378277
142,985.0200000000001,0.033934485156557545
143,994.13,0.03439927244632313
144,1005.65,0.04522204966675117
145,1014.95,0.043898891224909226
146,1024.34,0.02264339112072687
147,1033.82,0.033845399354204116
148,1045.79,0.054533718262930124
149,1055.47,0.05317634835787313
150,1065.23,0.04328951919740244
151,1075.09,0.049532935967664636
152,1085.04,0.039417081075586426
153,1095.08,0.050790064521167806
154,1096.4782,0.05047632000540545
155,1105.21,0.048512500105921015
156,1115.44,0.046548473596420926
157,1125.76,0.041802349287717026
158,1136.18,0.05099115964656444
159,1144.05,0.04674067098285323
160,1154.6399999999999,0.04869680327653788
161,1165.32,0.04924915777101873
162,1176.1000000000001,0.03510646693305089
163,1184.26,0.0471401798052385
164,1195.21,0.0348523309021079
165,1206.27,0.026862489133283762
166,1214.63,0.01866218134057401
167,1225.8700000000001,0.033733233973342235
168,1234.3700000000001,0.04677918071520434
169,1245.79,0.05021355774956494
170,1254.43,0.04784915902599888
171,1258.92541,0.04565078783187795
172,1266.03,0.042182193212213864
173,1274.8100000000002,0.052081063675156004
174,1283.65,0.053780047353106854
175,1295.52,0.04326055338899788
176,1304.5,0.042670064568635736
177,1313.55,0.051842959499117096
178,1325.7,0.04940901053838213
179,1334.8899999999999,0.044061902970550494
180,1344.14,0.05113748861772758
181,1353.46,0.04929736801574816
182,1365.98,0.044265938880900274
183,1375.45,0.04581301631644265
184,1384.99,0.04591918750282852
185,1394.59,0.03929934190422312
186,1404.25,0.04011711952062643
187,1413.99,0.04199712142370802
188,1423.79,0.042578126541798336
189,1433.6599999999999,0.04238471541073215
190,1443.59,0.044169367494674684
191,1445.43977,0.04445128712583997
192,1446.9199999999998,0.04467687318078361
193,1453.6,0.043269133594168514
194,1463.68,0.03993703691256968
195,1473.8200000000002,0.03966481292929466
196,1484.0400000000002,0.040214072543784736
197,1494.3300000000002,0.040489905306319254
198,1504.6799999999998,0.0382408007671776
199,1511.6299999999999,0.03418641332301967
200,1518.61,0.03628079722802365
201,1525.6200000000001,0.03513752248218954
202,1536.19,0.03056666783690188
203,1543.28,0.03251153668883285
204,1553.98,0.030848107889913462
205,1564.75,0.03156156223903852
206,1575.6000000000001,0.03341629018592866
207,1586.52,0.03466261128086325
208,1593.84,0.035221420476368864
209,1604.8899999999999,0.034346497417671734
210,1616.01,0.03419103750701905
211,1623.4699999999998,0.03236681299861357
212,1634.73,0.03419151938404979
213,1646.06,0.03450615891753047
214,1653.66,0.03200051070521388
215,1659.58691,0.03329685179398182
216,1665.12,0.034508624442173126
217,1672.8100000000002,0.030857000011663995
218,1676.66,0.03475059443852223
219,1684.4,0.035881996429141125
220,1696.0800000000002,0.033662162404648706
221,1703.9,0.03238301066907245
222,1715.72,0.030730802623738517
223,1723.6399999999999,0.030454193730418317
224,1735.58,0.032319325095791655
225,1743.59,0.031593205760501904
226,1755.68,0.033604546389259325
227,1763.78,0.03074692661200003
228,1776.01,0.03138776321991594
229,1784.21,0.0319692162849127
230,1796.5700000000002,0.03431698558776148
231,1804.8700000000001,0.0336978714950143
232,1813.2,0.030972587254943937
233,1825.77,0.031692725526530435
234,1834.19,0.030421360844490528
235,1846.9099999999999,0.027648318379461113
236,1855.43,0.028352896539677267
237,1864.0,0.029541581121021444
238,1876.92,0.031491884340504143
239,1885.58,0.029282368479878775
240,1894.29,0.028952019040381437
241,1903.03,0.030098319453560913
242,1905.46072,0.029949758397817793
243,1916.2199999999998,0.029284082919651837
244,1925.0600000000002,0.028041110591093744
245,1933.95,0.027343167095518924
246,1942.8799999999999,0.030917556666330715
247,1956.34,0.02926718850542665
248,1965.37,0.03264622574220498
249,1974.45,0.032419821811966586
250,1983.56,0.03241605518151814
251,1992.72,0.031971917384052966
252,2006.53,0.032038761054031785
253,2015.7900000000002,0.031527000922533154
254,2025.09,0.030952403857421134
255,2034.44,0.032027005625292385
256,2043.8300000000002,0.03405909045955025
257,2053.27,0.03223816412679138
258,2062.7400000000002,0.031942475093822476
259,2072.27,0.034754680660433496
260,2077.04,0.04765451132703733
261,2086.6299999999997,0.05619623149322827
262,2096.26,0.05197982472580582
263,2105.94,0.050450586791366644
264,2115.66,0.05453430192331408
265,2125.42,0.05032605012164813
266,2135.23,0.04708753715296546
267,2145.09,0.05643036301726605
268,2154.99,0.057075891947953254
269,2164.94,0.050889689711623734
270,2174.93,0.05135370054168081
271,2184.97,0.060569990204721175
272,2187.7616199999998,0.060530469966928256
273,2195.06,0.060432701792981346
274,2205.19,0.05852601093219031
275,2215.37,0.04718140694770336
276,2225.59,0.052432016464259684
277,2235.86,0.0667089628571201
278,2246.1800000000003,0.06324343612628461
279,2256.5499999999997,0.0502552162717532
280,2266.9700000000003,0.04786617329352589
281,2277.43,0.052430563816341855
282,2282.68,0.06698953582827148
283,2293.22,0.05649970335317398
284,2303.8,0.06675541437911976
285,2314.44,0.05669127565663045
286,2325.12,0.04444334043518442
287,2335.85,0.041660222090042484
288,2346.63,0.03136134062120463
289,2357.4700000000003,0.051839059403931693
290,2362.9,0.03363280217055604
291,2373.81,0.04100898458010883
292,2384.7599999999998,0.028247030490704886
293,2395.77,0.03342327665286586
294,2406.83,0.03294905969133091
295,2412.38,0.03786323296108508
296,2423.51,0.05966499962637587
297,2434.7,0.06003899654323158
298,2445.94,0.07076490033639136
299,2457.23,0.07489096100585525
300,2462.89,0.06450214140347843
301,2474.26,0.05787920907502885
302,2485.6800000000003,0.03894015362288337
303,2497.15,0.045458805047041986
304,2502.91,0.06845957919727334
305,2511.88643,0.040951094514658545
306,2514.46,0.03306312278726183
307,2520.2599999999998,0.028501645124677222
308,2526.07,0.03029708615577782
309,2537.7300000000005,0.045240832992719804
310,2543.58,0.0477742687985612
311,2555.3199999999997,0.08406319518498477
312,2567.11,0.062493025039834345
313,2573.03,0.07910593170147212
314,2584.9100000000003,0.0698389797994885
315,2596.84,0.06265936136593085
316,2602.83,0.05434273888336503
317,2614.84,0.04943695999928898
318,2626.91,0.06667989327732411
319,2632.9700000000003,0.11507228165055469
320,2645.1200000000003,0.15607329447807142
321,2657.33,0.21614969946769935
322,2663.45,0.13426110000304112
323,2675.75,0.15433949323583585
324,2681.92,0.1779038872396036
325,2694.3,0.1306483700218799
326,2706.73,0.16202034627258222
327,2712.9700000000003,0.11713593113214636
328,2725.49,0.09410380562601546
329,2738.08,0.11883995097568094
330,2744.39,0.06541212669104149
331,2757.06,0.08846780159018856
332,2763.41,0.11621624208028991
333,2776.17,0.12468907522260378
334,2782.5699999999997,0.07452855918113112
335,2795.41,0.035546471872926574
336,2801.8500000000004,0.042367820606194706
337,2814.79,0.10936173023484216
338,2827.7799999999997,0.1641019333319156
339,2834.3,0.15738758161466535
340,2847.38,0.11664507295490557
341,2853.9399999999996,0.06829983601239609
342,2867.1200000000003,0.16292939428948833
343,2873.73,0.21659353081540483
344,2884.0315,0.19819149976076267
345,2886.99,0.1929069772059507
346,2893.6499999999996,0.23498095940108887
347,2907.0,0.3173342237111631
348,2927.15,0.2754325698420992
349,2947.44,0.25554541559875876
350,2967.8700000000003,0.27093716098114207
351,2988.4500000000003,0.27432710596251497
352,3009.1600000000003,0.2790584505963455
353,3030.02,0.29517509482916565
354,3051.02,0.30722423868770943
355,3072.17,0.33329218214524275
356,3093.47,0.32826052520176574
357,3107.7500000000005,0.37650148702557545
358,3129.29,0.3500860294404818
359,3150.98,0.34877797145437767
360,3172.82,0.3827308130672632
361,3187.4599999999996,0.328497373928648
362,3209.5600000000004,0.3671503148464488
363,3231.81,0.3049839553632392
364,3246.7200000000003,0.42926891550280527
365,3269.23,0.5012437553245109
366,3291.89,0.48909929474520625
367,3307.0899999999997,0.4612792541094856
368,3311.31121,0.4551372992887115
369,3322.35,0.4390750786853536
370,3330.0099999999998,0.48116648721982197
371,3337.6899999999996,0.45298359473218713
372,3345.38,0.4632980017335007
373,3353.09,0.42918770771271103
374,3360.8199999999997,0.47796251266981815
375,3368.57,0.4766225166048221
376,3376.3300000000004,0.37585152002877437
377,3384.12,0.39698122191957186
378,3391.92,0.48138252329931774
379,3399.74,0.5003221236569604
380,3407.58,0.4710209229924998
381,3415.43,0.45375232181698766
382,3423.3,0.5389446196193722
383,3431.2,0.513251215888602
384,3439.1,0.5036176121578319
385,3447.0299999999997,0.3647135068939068
386,3454.9800000000005,0.4620138006078785
387,3462.94,0.3994549938107987
388,3470.93,0.459395685480564
389,3478.9300000000003,0.3639379766392777
390,3486.95,0.4342415667758882
391,3494.9900000000002,0.39402615589039547
392,3503.04,0.5274917444938512
393,3511.12,0.503487131564152
394,3519.21,0.4963121181234012
395,3527.3199999999997,0.37634870366054723
396,3535.4600000000005,0.4878408876645384
397,3543.6099999999997,0.5597681711574781
398,3551.77,0.546729054139366
399,3559.9599999999996,0.5158793355880992
400,3568.17,0.40305951601472917
401,3576.39,0.4237515959303074
402,3584.64,0.318390374312731
403,3592.9,0.39231985218410287
404,3601.18,0.5745296290333716
405,3609.4900000000002,0.4519758043494854
406,3617.8100000000004,0.5079763791545476
407,3626.15,0.5230982529375068
408,3634.51,0.44194622569836256
409,3642.88,0.6252589979481668
410,3651.28,0.46651476866481617
411,3659.7000000000003,0.6645720383593623
412,3668.13,0.638709407542857
413,3676.59,0.6714957751931967
414,3685.0699999999997,0.5621109418214332
415,3693.5600000000004,0.6230780079386182
416,3702.08,0.6765223725226482
417,3710.6099999999997,0.4519715365956268
418,3719.1600000000003,0.6851353996465019
419,3727.74,0.5464486611642225
420,3736.33,0.37444552217089133
421,3744.94,0.570214982155457
422,3753.5800000000004,0.37658824060686774
423,3762.2299999999996,0.45873579854722696
424,3770.8999999999996,0.48898135546548294
425,3779.6000000000004,0.6179945108505841
426,3788.31,0.6834413657246337
427,3790.06,0.38384067629060226
428,3791.79,0.2400802878786741
429,3793.5200000000004,0.42834339946674593
430,3795.25,0.2222440110548178
431,3796.9700000000003,0.08075358315394124
432,3798.7,0.601359234742013
433,3800.4300000000003,0.569203546330085
434,3801.8939600000003,0.5137792998656032
435,3802.16,0.5037072607510488
436,3803.88,0.8219193911653667
437,3805.6099999999997,1.0840031211751164
438,3807.34,0.7679374511848663
439,3809.07,0.6048899811946163
440,3810.7999999999997,0.6159760112043662
441,3812.52,0.7358443416186841
442,3814.25,0.6997147716284339
443,3815.98,0.5733644016381839
444,3817.7100000000005,0.3545699316479337
445,3819.43,0.38387256206225157
446,3821.1600000000003,0.43033129207200144
447,3822.89,0.39650402208175134
448,3824.6200000000003,0.46502265209150123
449,3826.35,0.4913742821012511
450,3828.07,0.316359612515569
451,3829.7999999999997,0.3532614425253189
452,3831.53,0.2599494725350688
453,3833.26,0.20164720254481866
454,3834.99,0.08033544255456855
455,3836.71,0.40396166296888636
456,3838.44,0.3061079929786363
457,3840.17,0.5779054229883861
458,3841.8999999999996,0.7620525529981361
459,3843.62,0.5594251834124538
460,3845.3500000000004,0.47742001342220375
461,3847.08,0.5400430434319536
462,3848.81,0.5882806734417035
463,3850.54,0.5037371034514535
464,3852.26,0.4026686338657713
465,3853.99,0.4593305638755212
466,3855.7200000000003,0.47336579388527106
467,3857.45,0.338073623895021
468,3859.18,0.5196322539047709
469,3860.9,0.2850225843190887
470,3862.63,0.15541891432883861
471,3864.36,0.4235625443385885
472,3866.0899999999997,0.4801138743483384
473,3867.81,0.5939767047626562
474,3869.5400000000004,0.510489234772406
475,3871.27,0.43515276478215603
476,3873.0,0.6179434947919059
477,3874.73,0.7073279248016558
478,3876.4500000000003,0.5157397552159736
479,3878.18,0.3723257852257235
480,3879.91,0.6391247152354734
481,3881.64,0.6040044452452232
482,3883.37,0.4992248752549732
483,3885.09,0.5470580056692911
484,3886.82,0.44810023567904095
485,3888.55,0.5391092656887908
486,3890.2799999999997,0.5871604956985408
487,3892.0,0.4783648261128586
488,3893.7300000000005,0.5206916561226085
489,3895.46,0.8254772861323584
490,3897.1899999999996,0.6983700161421083
491,3898.92,0.5238738461518582
492,3900.6400000000003,0.602159276566176
493,3902.37,0.6353078065759258
494,3904.1,0.4588554365856758
495,3905.83,0.5669408665954256
496,3907.55,0.7369295970097436
497,3909.28,0.8312504270194934
498,3911.0099999999998,0.6797465570292434
499,3912.7400000000002,0.6710095870389932
500,3914.47,0.8375574170487431
501,3916.19,0.5626397474630609
502,3917.9199999999996,0.6096157774728108
503,3919.65,0.5417253074825608
504,3921.3799999999997,0.6145355374923106
505,3923.11,0.6346892675020605
506,3924.8300000000004,0.4870520979163783
507,3926.56,0.33299332792612824
508,3928.29,0.3613478579358781
509,3930.02,0.44745038794562797
510,3931.7400000000002,0.13875361835994585
511,3933.47,0.23849804836969574
512,3935.2,0.6184473783794456
513,3936.9300000000003,0.2444115083891955
514,3938.66,0.47101203839894545
515,3940.38,0.5407499688132633
516,3942.1099999999997,0.47829739882301314
517,3943.84,0.843106628832763
518,3945.5699999999997,0.600956558842513
519,3947.29,0.5228181892568308
520,3949.0199999999995,0.7742888192665807
521,3950.75,0.8745865492763305
522,3952.48,0.8019607792860804
523,3954.21,0.8141349092958303
524,3955.93,0.5976620397101481
525,3957.66,0.5113676697198981
526,3959.39,0.6115076997296479
527,3961.1200000000003,0.512739129739398
528,3962.85,0.6529193597491477
529,3964.57,0.5757244901634655
530,3966.2999999999997,0.3772259201732155
531,3968.03,0.2892600501829654
532,3969.7599999999998,0.3638524801927153
533,3971.48,0.3451191106070331
534,3973.2099999999996,0.469151340616783
535,3974.94,0.6452878706265329
536,3976.67,0.6571278006362827
537,3978.4,0.7999096306460327
538,3980.12,0.8935720610603505
539,3981.85,0.8091857910701005
540,3983.58,0.7338829210798503
541,3985.3100000000004,0.7167878510896003
542,3987.04,0.8143098810993501
543,3988.76,0.9308507115136679
544,3990.49,0.8615880415234178
545,3992.2200000000003,0.9017227715331677
546,3993.95,0.7961099015429176
547,3995.67,0.9425238319572354
548,3997.3999999999996,0.9373507619669853
549,3999.13,0.8600723919767352
550,4000.86,0.9627037219864851
551,4002.5899999999997,1.062307151996235
552,4004.31,0.9516210824105529
553,4006.04,1.0534800124203028
554,4007.77,1.0091809424300526
555,4009.4999999999995,1.0138488724398025
556,4011.22,0.8353940028541204
557,4012.9500000000003,0.8324917328638702
558,4014.68,1.08180166287362
559,4016.4100000000003,0.9307072928833701
560,4018.14,0.8700395228931199
561,4019.86,1.0143564533074376
562,4021.5899999999997,1.0029333833171876
563,4023.32,1.0229293133269377
564,4025.05,1.0758532433366876
565,4026.7799999999997,1.0189381733464373
566,4028.5,1.0734921037607552
567,4030.23,1.1004590337705051
568,4031.96,0.948371063780255
569,4033.6899999999996,0.9085940937900049
570,4035.41,0.8169894242043227
571,4037.1400000000003,0.8637159542140725
572,4038.87,1.0625926842238225
573,4040.6,1.1553986142335724
574,4042.33,1.2760875442433224
575,4044.05,1.08073247465764
