,lambda (Angstroms),Total Flux (erg/s/cm^2/Angstrom)
0,100.05,43.51679270756974
1,101.91000000000001,43.39573656246973
2,104.04,43.25710775114487
3,104.712855,43.21331569065574
4,105.97,42.783527399962004
5,107.94,42.1100307606219
6,109.94999999999999,41.42285906263206
7,114.08,40.01090925530829
8,118.09,38.639984624003525
9,120.22644299999999,37.90958504020228
10,121.11999999999999,37.65346700794931
11,125.08,36.518422004760176
12,127.11999999999999,35.933701851642354
13,128.0,35.681469628767395
14,130.98,34.82731960127931
15,131.89,34.56648855279556
16,134.03,33.953105647242154
17,137.15,33.05882776663914
18,138.038426,32.80418042040445
19,140.02,32.39820213938582
20,142.95000000000002,31.797913501473303
21,146.96,30.97635806440126
22,151.08,30.132266191389
23,154.95,29.339393487736274
24,158.489319,28.614269607276043
25,158.93,28.546012299589034
26,161.88000000000002,28.089085277756674
27,166.03,27.446289639412385
28,169.9,26.84686334951998
29,173.05999999999997,26.357409326792812
30,177.09,25.733200562139636
31,179.97,25.28711589143483
32,181.970086,24.977321550623742
33,182.04999999999998,24.967878379388715
34,185.87,24.516481709059605
35,191.07,23.90201504438733
36,194.18,23.53451672084102
37,197.79000000000002,23.107935080925074
38,201.92999999999998,22.618725114290097
39,205.21,22.23113848017846
40,208.929613,21.791604255919257
41,209.99,21.697400134221414
42,215.86999999999998,21.175024667308268
43,219.89000000000001,20.81789042865798
44,222.95,20.54604198168263
45,227.09,20.178247059412264
46,230.25,19.8975153844401
47,233.99,19.565257857975
48,239.88329199999998,19.041702980500524
49,239.99,19.034397735159462
50,246.15,18.612682179137128
51,251.88,18.220405202876496
52,257.15999999999997,17.858933726292072
53,260.13,17.65560790844314
54,263.75,17.407782315609033
55,269.28000000000003,17.02919724671638
56,274.28000000000003,16.686896240271917
57,275.42287,16.608655174960035
58,278.74,16.43437296938669
59,283.92,16.162215353574705
60,289.87,15.849601365184595
61,295.94,15.530683631110229
62,300.75,15.277965719475532
63,307.75,14.91018588501069
64,316.227766,14.464764476944936
65,317.83,14.40188945340891
66,328.25,13.992986465759683
67,338.21999999999997,13.601742656367618
68,347.70000000000005,13.229727868808222
69,356.60999999999996,12.880081107002566
70,363.078055,12.626261419331486
71,365.76,12.54744436108951
72,375.14,12.271784458975073
73,384.77,11.988776709726146
74,394.64,11.69871846481491
75,404.76,11.401312058069184
76,414.19,11.124183019793847
77,416.86938299999997,11.045441278075295
78,421.89,10.932766525967889
79,429.72999999999996,10.756817968921974
80,440.76,10.509278819226813
81,451.02000000000004,10.279019384640089
82,460.46999999999997,10.066938480646531
83,470.10999999999996,9.850593644158034
84,478.630092,9.659382725578924
85,479.95000000000005,9.636600960650009
86,490.0,9.463135584826398
87,500.26,9.28604658131775
88,506.06,9.185938658731189
89,511.92,9.084805640568902
90,520.23,8.941373924531256
91,529.9100000000001,8.774295891781266
92,539.76,8.604281270533399
93,549.5408739999999,8.43546694095311
94,549.79,8.432186881676703
95,560.01,8.297628530418447
96,570.4200000000001,8.160566224421828
97,579.6899999999999,8.038508510555388
98,590.47,7.896577383410378
99,600.0699999999999,7.7701751306088855
100,609.82,7.641797848382371
101,619.72,7.511466343230831
102,629.79,7.378880957597601
103,630.957344,7.36351111905795
104,640.0300000000001,7.268815486522148
105,650.4300000000001,7.1602712700253
106,657.9599999999999,7.081678120764796
107,665.58,7.002150376566911
108,674.84,6.905502047176834
109,684.2199999999999,6.807592198570256
110,695.34,6.6915542866743944
111,705.02,6.590506872676558
112,716.47,6.471028273610317
113,724.43596,6.38788848580621
114,726.44,6.372363436249568
115,734.8499999999999,6.307213173498923
116,745.07,6.228053015583035
117,755.44,6.147723163619753
118,764.19,6.079938610988344
119,774.8199999999999,5.997611152716244
120,785.59,5.914191970893239
121,794.6899999999999,5.8437048127845745
122,805.7499999999999,5.758032099863272
123,815.0799999999999,5.685761034835267
124,824.51,5.612737139942331
125,831.763771,5.556492286504616
126,834.06,5.5431804552401625
127,845.6700000000001,5.476036206228784
128,855.4599999999999,5.419361657429441
129,865.36,5.362068512271676
130,875.38,5.304081539259274
131,885.5200000000001,5.245407961392231
132,895.77,5.186087442866769
133,904.0600000000001,5.138096685500419
134,914.5300000000001,5.077856429158116
135,925.12,5.022422698061177
136,935.83,4.968788255209595
137,944.49,4.933334009083106
138,954.992586,4.884112688931213
139,955.4300000000001,4.882117430450315
140,964.27,4.841178819281933
141,975.44,4.737248734434553
142,984.46,4.727972325685817
143,995.8599999999999,4.663983938930211
144,1005.0699999999999,4.62892235773555
145,1014.37,4.571220982750711
146,1026.12,4.466487275699977
147,1035.6200000000001,4.436168103403636
148,1045.2,4.422032322182696
149,1054.87,4.367870277171582
150,1064.63,4.298938478370288
151,1074.48,4.256329835778821
152,1084.42,4.186257069397177
153,1094.46,4.148514154359782
154,1096.4782,4.136596907922026
155,1104.58,4.097077570537856
156,1114.8,4.04923262875517
157,1125.1200000000001,3.9944898725323394
158,1135.53,3.963763726313381
159,1146.04,3.9075836856542785
160,1153.98,3.8762631771068676
161,1164.66,3.831295910899521
162,1175.4299999999998,3.755286504696046
163,1186.31,3.728413439608411
164,1194.53,3.6637464466285996
165,1205.59,3.594394561548707
166,1213.94,3.5288962007967073
167,1225.18,3.515493405724555
168,1233.67,3.5103902527563555
169,1245.08,3.4696072921359598
170,1253.71,3.4282149869515584
171,1258.92541,3.3982906481142217
172,1265.31,3.3701625998104507
173,1274.09,3.3660516798380975
174,1285.8700000000001,3.3335031118114062
175,1294.7900000000002,3.284594458263183
176,1303.76,3.254121635580722
177,1315.8300000000002,3.236302026575446
178,1324.95,3.2026987964902682
179,1334.13,3.1622320234440027
180,1346.4799999999998,3.13845864728699
181,1355.8100000000002,3.1053435668380067
182,1365.21,3.06438926960109
183,1374.67,3.038565929403087
184,1384.1999999999998,3.0098603724171493
185,1393.79,2.9646291724701244
186,1403.45,2.937916155735165
187,1416.4399999999998,2.898566054659895
188,1426.26,2.86855415669537
189,1436.1499999999999,2.8361603419429127
190,1442.77,2.8209719685696792
191,1445.43977,2.8137270431119514
192,1446.1,2.8125948156947316
193,1456.12,2.787161722208877
194,1466.22,2.7565284413498823
195,1476.3799999999999,2.7330742449610326
196,1486.62,2.7112993611990426
197,1493.48,2.69799931895224
198,1503.83,2.669703790052181
199,1510.77,2.642695060432238
200,1517.74,2.633617873047368
201,1524.75,2.6150572419759275
202,1535.32,2.5785704227997317
203,1545.96,2.5637511021720383
204,1556.68,2.5330652941712044
205,1563.86,2.51871840243184
206,1574.7,2.501527163371295
207,1585.6200000000001,2.4815006369376102
208,1596.61,2.4602379090524273
209,1603.98,2.4400549848018542
210,1615.1,2.415007739935317
211,1626.29,2.3836299936172827
212,1633.8,2.3737410664637135
213,1645.12,2.350182003164326
214,1656.53,2.314418966570154
215,1659.58691,2.3123153226903783
216,1664.17,2.3123315009159673
217,1671.85,2.286933493900885
218,1675.71,2.296688252354241
219,1683.4399999999998,2.289360900241404
220,1695.11,2.2626354544255163
221,1706.8600000000001,2.2400244564532215
222,1714.7399999999998,2.2247093690471207
223,1726.63,2.2054835048011134
224,1734.6000000000001,2.2011307962190543
225,1746.6200000000001,2.179017134718886
226,1754.68,2.1752335049608686
227,1766.8500000000001,2.143348908167437
228,1775.0,2.1364847572334624
229,1783.19,2.125644630221284
230,1795.55,2.116005622056385
231,1803.84,2.101134204848698
232,1816.35,2.0741107613905356
233,1824.73,2.06196792300689
234,1833.15,2.0441710085450415
235,1845.86,2.0123855846958616
236,1854.3799999999999,2.002153180038504
237,1862.9399999999998,1.9942953993029433
238,1875.85,1.9810882950627453
239,1884.51,1.959080024131675
240,1893.2099999999998,1.9426655771224017
241,1905.46072,1.9279306747482763
242,1906.33,1.927260660174471
243,1915.1299999999999,1.9151089013529008
244,1923.97,1.901925546809414
245,1932.8500000000001,1.8890722965440112
246,1946.25,1.887401129702075
247,1955.23,1.8703567901318814
248,1968.79,1.8669829404022802
249,1977.87,1.8585050115272965
250,1982.43,1.8478357992288463
251,1996.1699999999998,1.828252068750622
252,2005.3899999999999,1.8187860548489312
253,2014.64,1.8056364941558034
254,2023.9399999999998,1.7968068888102806
255,2033.2900000000002,1.7857266388123616
256,2042.67,1.7813485420230064
257,2056.83,1.7589334564646615
258,2066.32,1.7476900214400364
259,2075.86,1.748636041763016
260,2085.44,1.744176866364079
261,2095.07,1.724691546312747
262,2104.74,1.712052930539499
263,2114.45,1.7045138190443345
264,2124.22,1.6933351139662958
265,2134.02,1.66969896209682
266,2143.87,1.6680509655749487
267,2153.77,1.6603389244006819
268,2163.71,1.6413973875044992
269,2173.69,1.6295720548864001
270,2183.73,1.621618428685427
271,2187.7616199999998,1.6202751865234468
272,2193.81,1.6205780806300139
273,2203.93,1.6071014069157907
274,2214.11,1.58753993493844
275,2224.33,1.5785864974523378
276,2234.5899999999997,1.5874750944574834
277,2244.91,1.5710292931995014
278,2255.27,1.552280226432767
279,2265.68,1.5457563777800933
280,2276.1400000000003,1.5448569472414793
281,2286.64,1.546765251194114
282,2297.2000000000003,1.5270275568836205
283,2302.4900000000002,1.5294769933511856
284,2313.12,1.5142505844003766
285,2323.8,1.4753637935636277
286,2334.52,1.4822570372181267
287,2345.2999999999997,1.4609504826094986
288,2356.13,1.4783035461149296
289,2367.0,1.4471224441116095
290,2372.46,1.4546110021669794
291,2383.41,1.4250799691461553
292,2394.41,1.4286854542393914
293,2405.46,1.4165013574466876
294,2416.57,1.4132460623908558
295,2427.72,1.4271225018262728
296,2433.3199999999997,1.417711930601011
297,2444.55,1.4223528390189235
298,2455.83,1.4134466655508968
299,2467.17,1.4023837938197417
300,2472.85,1.3882749915769763
301,2484.27,1.3749129888283178
302,2495.73,1.3616330205709075
303,2507.26,1.3818407376731812
304,2511.88643,1.3494448634705445
305,2513.03,1.3416708761149947
306,2518.8300000000004,1.3334114050624841
307,2524.63,1.3273754340099742
308,2536.29,1.3302445546182033
309,2542.13,1.3288714920411926
310,2553.87,1.3470593296004219
311,2565.6600000000003,1.3292112027540255
312,2577.5,1.3389880115020043
313,2583.44,1.3317533201137437
314,2595.3599999999997,1.3204428458127226
315,2607.34,1.3046342342249508
316,2613.36,1.29526455978769
317,2625.42,1.3083420651509183
318,2637.54,1.3252633332273969
319,2643.62,1.357571721503386
320,2655.8199999999997,1.3755227065308642
321,2661.94,1.3287277032823532
322,2674.23,1.3383774323797062
323,2686.5699999999997,1.3424907970714344
324,2692.76,1.3100109836550478
325,2705.19,1.3218885924166506
326,2717.6800000000003,1.2870446638915032
327,2723.95,1.2774824674261172
328,2736.52,1.2909012558519692
329,2742.83,1.2356021678620832
330,2755.49,1.2465364003578105
331,2761.8399999999997,1.2642651208434241
332,2774.59,1.2716086974090264
333,2787.4,1.2272289366878781
334,2793.82,1.158839847005617
335,2806.72,1.166582830354344
336,2813.19,1.246965776266457
337,2826.17,1.275505776566184
338,2832.69,1.2637992580726722
339,2845.7599999999998,1.235766702442274
340,2852.3199999999997,1.1972422924242623
341,2865.49,1.2534346079826137
342,2872.09,1.2700728064401015
343,2884.0315,1.2570039420509964
344,2885.35,1.2557923090498164
345,2892.0,1.2652599469142685
346,2912.0499999999997,1.3122815776183687
347,2932.23,1.2835810705664352
348,2952.5600000000004,1.2673002891806173
349,2973.02,1.2729363700387666
350,2986.7500000000005,1.2731572593438685
351,3007.45,1.2736421012678023
352,3028.2999999999997,1.2743135688578515
353,3049.29,1.2778299804029416
354,3070.4199999999996,1.2835391359030732
355,3091.7099999999996,1.2802681987803943
356,3113.14,1.2905374056127565
357,3127.51,1.2742493244266178
358,3149.19,1.270069674035839
359,3171.02,1.2828770493111759
360,3192.9999999999995,1.2432810502526286
361,3207.7299999999996,1.2670043106651667
362,3229.97,1.2244980360945523
363,3252.36,1.2889974871900536
364,3267.37,1.328599535512674
365,3290.02,1.318051611096109
366,3311.31121,1.30476797100225
367,3312.83,1.3040072662995172
368,3320.46,1.2836490086627999
369,3328.12,1.3134280873656499
370,3335.79,1.341310978181689
371,3343.4799999999996,1.2899671932241064
372,3351.19,1.2861511324929016
373,3358.91,1.3281653838748861
374,3366.65,1.2645287594832488
375,3374.41,1.2116961593179898
376,3382.19,1.2490343833791089
377,3389.99,1.3111080316666062
378,3397.81,1.2667872041804817
379,3405.64,1.3186360888075466
380,3413.4900000000002,1.2967554976609892
381,3421.36,1.3277377307408103
382,3429.2400000000002,1.3157765759338205
383,3437.15,1.3183407574663977
384,3445.07,1.2017201511121645
385,3453.02,1.3455239810974984
386,3460.97,1.2894420110828322
387,3468.9500000000003,1.294407977407733
388,3476.95,1.2751681679590126
389,3484.97,1.3046298827366702
390,3493.0,1.2823668096275167
391,3501.05,1.2873595607447414
392,3509.12,1.3111207360883448
393,3517.21,1.2565623356583258
394,3525.32,1.276526259454685
395,3533.4500000000003,1.3362115074774228
396,3535.45,1.0708117301152427
397,3538.15,1.5831484006762993
398,3540.85,1.6213203712373563
399,3543.5499999999997,1.253395941798413
400,3546.2500000000005,1.3144281123594697
401,3548.9500000000003,1.1298517829205263
402,3551.65,1.2590659534815831
403,3554.35,0.97036882404264
404,3557.0499999999997,1.3571866946036968
405,3559.76,1.2495748772779427
406,3562.46,1.3382453478389995
407,3565.16,1.382963718400056
408,3567.86,0.9990114889611128
409,3570.56,1.3571288595221698
410,3573.2599999999998,0.9620997300832266
411,3575.96,1.2876126006442832
412,3578.6600000000003,1.41767717120534
413,3581.36,1.1830833417663968
414,3584.0699999999997,1.0630114244406428
415,3586.7700000000004,1.2441158950016993
416,3589.4700000000003,1.6352363655627562
417,3592.17,1.3443356361238128
418,3594.87,1.4048635066848698
419,3597.5699999999997,1.2871072772459267
420,3600.27,1.3272808478069833
421,3602.97,1.3839637183680402
422,3605.67,1.2971867889290967
423,3608.3700000000003,1.2659576594901534
424,3611.08,1.4857330421643993
425,3613.7799999999997,1.3551775127254562
426,3616.4800000000005,1.255270183286513
427,3619.1800000000003,1.4251328538475696
428,3621.88,1.3199656244086266
429,3624.58,1.3682130949696836
430,3627.2799999999997,1.1682786655307402
431,3629.98,1.162393036091797
432,3632.68,1.1000414066528537
433,3635.39,1.1819039893270995
434,3638.09,1.1928737598881562
435,3640.79,1.355399630449213
436,3643.49,1.2668998010102699
437,3646.19,1.2031187715713267
438,3648.8900000000003,1.2733912421323832
439,3651.59,1.40465201269344
440,3654.29,1.308341283254497
441,3656.99,1.3082347538155539
442,3659.69,1.1689271243766106
443,3662.4,1.3884999070508561
444,3665.1,1.387196877611913
445,3667.7999999999997,1.3697006481729699
446,3670.5,1.3189600187340265
447,3673.2,1.3372515892950836
448,3675.8999999999996,1.3263921598561401
449,3678.6000000000004,1.3045088304171968
450,3681.3,1.3171341009782536
451,3684.0,1.3080655715393104
452,3686.7,1.3150023421003674
453,3689.4100000000003,1.335108224774613
454,3692.11,1.32177309533567
455,3694.81,1.3660775658967268
456,3697.5099999999998,1.4116239364577834
457,3700.21,1.4579753070188404
458,3702.91,1.425264077579897
459,3705.6099999999997,1.322000348140954
460,3708.3100000000004,1.3110355187020104
461,3711.01,1.3550542892630673
462,3713.72,1.3553022719373131
463,3716.4199999999996,1.37652834249837
464,3719.1200000000003,1.4892705130594266
465,3721.82,1.6188682836204835
466,3724.52,1.8041498541815404
467,3727.22,2.045415124742597
468,3729.92,2.064851395303654
469,3732.62,1.6856996658647105
470,3735.3199999999997,1.4802191364257675
471,3738.0200000000004,1.362876506986824
472,3740.73,1.2533683896610701
473,3743.43,1.2859870602221268
474,3746.1299999999997,1.2905833307831838
475,3748.8300000000004,1.3023132013442402
476,3751.53,1.260052971905297
477,3754.23,1.435965742466354
478,3756.93,1.5092033130274105
479,3759.63,1.4202818835884674
480,3762.33,1.4697410541495242
481,3765.04,1.3152420368237698
482,3767.74,1.345008707384827
483,3770.44,1.2863144779458837
484,3773.14,1.3195275485069404
485,3775.8399999999997,1.3480150190679971
486,3778.5400000000004,1.5434545896290537
487,3781.2400000000002,1.4777848601901105
488,3783.94,1.4800637307511675
489,3786.64,1.479558501312224
490,3789.34,1.494930371873281
491,3792.05,1.4471622545475267
492,3794.75,1.3298352251085839
493,3797.45,1.3038284956696407
494,3800.15,1.4007989662306972
495,3801.8939600000003,1.3667952151357494
496,3802.85,1.3482371849410368
497,3805.5499999999997,1.4159822310711743
498,3808.2500000000005,1.5325706772013117
499,3810.9500000000003,1.5919709233314492
500,3813.65,1.5260083694615867
501,3816.35,1.6014363155917244
502,3819.0600000000004,1.5450985404112325
503,3821.76,1.5332391865413701
504,3824.46,1.4469598326715079
505,3827.16,1.3064194788016452
506,3829.86,1.3078185249317826
507,3832.56,1.2154891710619202
508,3835.2599999999998,1.3407083171920577
509,3837.96,1.3399328633221952
510,3840.6600000000003,1.3136408094523326
511,3843.37,1.333296734271841
512,3846.0699999999997,1.5005413804019785
513,3848.7700000000004,1.646476526532116
514,3851.4700000000003,1.5965415726622534
515,3854.17,1.5648920187923911
516,3856.87,1.6319672649225285
517,3859.57,1.653442511052666
518,3862.27,1.5627989571828034
519,3864.97,1.698877003312941
520,3867.67,1.6867912494430786
521,3870.38,1.4911704742625869
522,3873.08,1.5389069203927241
523,3875.7799999999997,1.5886001665228617
524,3878.4800000000005,1.4234613126529991
525,3881.1800000000003,1.3784176587831367
526,3883.88,1.3751365049132742
527,3886.58,1.3769719510434117
528,3889.2799999999997,1.2999703971735495
529,3891.98,1.3137929433036866
530,3894.68,1.3903797894338243
531,3897.39,1.4299083142533329
532,3900.09,1.40472986038347
533,3902.79,1.6161302065136076
534,3905.49,1.5999816526437451
535,3908.19,1.6395916987738826
536,3910.8900000000003,1.65971294490402
537,3913.59,1.7349901910341574
538,3916.29,1.6621804371642952
539,3918.99,1.5983996832944325
540,3921.7000000000003,1.6826238081139406
541,3924.4,1.5755768542440785
542,3927.1,1.449792500374216
543,3929.8,1.3568463465043534
544,3932.5,1.419150892634491
545,3935.2,1.3563186387646284
546,3937.8999999999996,1.408750784894766
547,3940.6000000000004,1.4216478310249032
548,3943.3,1.4940657771550407
549,3946.0,1.6053120232851783
550,3948.7100000000005,1.6899881481046868
551,3951.4100000000003,1.6104053942348242
552,3954.11,1.5025304403649615
553,3956.81,1.5503423864950991
554,3959.5099999999998,1.3949104326252368
555,3962.21,1.4482907787553745
556,3964.91,1.299322324885512
557,3967.6099999999997,1.2927075710156493
558,3970.3100000000004,1.2231705171457867
559,3973.02,1.265732141965295
560,3975.72,1.3891376880954325
561,3978.4199999999996,1.5105417342255703
562,3981.1200000000003,1.6181749803557075
563,3983.82,1.597437226485845
564,3986.52,1.6680484726159825
565,3989.22,1.7923877187461201
566,3991.92,1.8286119648762575
567,3994.62,1.835113211006395
568,3997.3199999999997,1.7512414571365325
569,4000.03,1.7753425819560409
570,4002.73,1.7899708280861784
571,4005.43,1.8417710742163158
572,4008.1299999999997,1.8408973203464534
573,4010.8300000000004,1.8063135664765908
574,4013.53,1.8408818126067281
575,4016.23,1.853328058736866
576,4018.93,1.8331163048670036
577,4021.63,1.9009445509971408
578,4024.33,1.8459677971272783
579,4027.04,1.7170149219467867
580,4029.74,1.6859681680769243
581,4032.44,1.7313714142070618
582,4035.14,1.7420866603371994
583,4037.8399999999997,1.7112649064673369
584,4040.5400000000004,1.766376152597474
585,4043.2400000000002,1.7453363987276116
586,4045.94,1.683888644857749
587,4048.64,1.7633048909878868
588,4051.3500000000004,1.8354140158073948
589,4054.05,1.7749452619375323
590,4056.75,1.75285250806767
591,4059.45,1.7538607541978077
592,4062.15,1.748849000327945
593,4064.85,1.7450402464580823
594,4067.5499999999997,1.76335549258822
595,4070.2500000000005,1.7841537387183575
