,lambda (Angstroms),Total Flux (erg/s/cm^2/Angstrom)
0,100.05,0.007853409839900224
1,101.91000000000001,0.009442456071947389
2,104.04,0.011262170304768206
3,104.712855,0.01183700777999994
4,105.97,0.010940873777651672
5,107.94,0.009536593459008348
6,109.94999999999999,0.008103799851457379
7,114.08,0.0051598010346107625
8,118.09,0.002301342154233623
9,120.22644299999999,0.0007784161118018532
10,121.11999999999999,0.0007489432455004044
11,125.08,0.0006183273547931676
12,127.11999999999999,0.000551040421005825
13,128.0,0.0005220147234741275
14,130.98,0.0004237231316643131
15,131.89,0.00039370809276272886
16,134.03,0.0003231229480987606
17,137.15,0.00022021415597147108
18,138.038426,0.00019091071166498204
19,140.02,0.00018860302644044448
20,142.95000000000002,0.0001851938597671473
21,146.96,0.0001805306002968567
22,151.08,0.00017573691666680744
23,154.95,0.0001712364197066641
24,158.489319,0.00016712234839556253
25,158.93,0.00016633470255040083
26,161.88000000000002,0.00016106379988966305
27,166.03,0.00015365133973438796
28,169.9,0.00014674317543450494
29,173.05999999999997,0.00014110449498222317
30,177.09,0.00013391823050640174
31,179.97,0.00012878741637951206
32,181.970086,0.0001252252934098122
33,182.04999999999998,0.00012527203134829606
34,185.87,0.00012751374175280127
35,191.07,0.0001305722646322324
36,194.18,0.00013241009081050762
37,197.79000000000002,0.00013455877765795887
38,201.92999999999998,0.00013702560958273676
39,205.21,0.0001389861287405318
40,208.929613,0.0001412177355118888
41,209.99,0.00014495217606127125
42,215.86999999999998,0.00016573690851287204
43,219.89000000000001,0.00017995601593794622
44,222.95,0.00019078285615255474
45,227.09,0.00020546633626643707
46,230.25,0.00021735517363838586
47,233.99,0.0002322744831229075
48,239.88329199999998,0.00025454848024516064
49,239.99,0.00025427108405911436
50,246.15,0.00023720571302362348
51,251.88,0.00022197481472112948
52,257.15999999999997,0.0002063473599764231
53,260.13,0.00019944464649502563
54,263.75,0.00019017261720793516
55,269.28000000000003,0.00017533965015334668
56,274.28000000000003,0.00016206912395570796
57,275.42287,0.00015908076184801992
58,278.74,0.00017016922073400412
59,283.92,0.00018737413840705407
60,289.87,0.0002066257755990708
61,295.94,0.0002273399307680694
62,300.75,0.0002431904021787586
63,307.75,0.0002671677341693666
64,316.227766,0.00029642400006234704
65,317.83,0.00029341412509923916
66,328.25,0.0002735124347734293
67,338.21999999999997,0.0002546902797687919
68,347.70000000000005,0.00023718246033609726
69,356.60999999999996,0.0002207753469768878
70,363.078055,0.00020898484978515533
71,365.76,0.00021485549112830438
72,375.14,0.0002351306083391163
73,384.77,0.00025511128913230596
74,394.64,0.00027824689776457823
75,404.76,0.00030077336997922825
76,414.19,0.00032142286590651573
77,416.86938299999997,0.0003273123106208435
78,421.89,0.0003348161750366169
79,429.72999999999996,0.0003464821095012708
80,440.76,0.00036361551046366024
81,451.02000000000004,0.0003786564057196997
82,460.46999999999997,0.00039266404029763077
83,470.10999999999996,0.00040708131849141434
84,478.630092,0.00042030663394152694
85,479.95000000000005,0.0004191367996710469
86,490.0,0.0004090174796537156
87,500.26,0.0003997086702031861
88,506.06,0.00039531720014343265
89,511.92,0.00040138392453133685
90,520.23,0.00039386505553193145
91,529.9100000000001,0.0003851738930873773
92,539.76,0.00037396324824452026
93,549.5408739999999,0.00036998277237056056
94,549.79,0.000370113859197656
95,560.01,0.0003763825613652484
96,570.4200000000001,0.00038038711151834397
97,579.6899999999999,0.00037884027375842047
98,590.47,0.00038573692262012745
99,600.0699999999999,0.0003846926945192358
100,609.82,0.0003836379253542677
101,619.72,0.0004033791151252232
102,629.79,0.00040759455835689203
103,630.957344,0.0004079323125504538
104,640.0300000000001,0.00042014911182433086
105,650.4300000000001,0.0004396909107589451
106,657.9599999999999,0.00045087818556448786
107,665.58,0.00046696458516850344
108,674.84,0.0004821353699891311
109,684.2199999999999,0.000488445687874389
110,695.34,0.0005302445851967843
111,705.02,0.0005306363857436175
112,716.47,0.0005765596739937457
113,724.43596,0.0005920176423738423
114,726.44,0.0005953822088799632
115,734.8499999999999,0.0006104668443509639
116,745.07,0.0006405408293109671
117,755.44,0.0006632040139523793
118,764.19,0.0006785074620345736
119,774.8199999999999,0.0007181886327904283
120,785.59,0.0007509439499155979
121,794.6899999999999,0.0007756361639210802
122,805.7499999999999,0.000801941327096974
123,815.0799999999999,0.0008248942672806168
124,824.51,0.0008698728405851989
125,831.763771,0.000831262812423555
126,834.06,0.000816518905380235
127,845.6700000000001,0.0009038849548393478
128,855.4599999999999,0.0009216282696717954
129,865.36,0.0009577672723113488
130,875.38,0.0009949788343768364
131,885.5200000000001,0.0010404859558682579
132,895.77,0.0010760444651667857
133,904.0600000000001,0.0010913240371750582
134,914.5300000000001,0.0014811288220877982
135,925.12,0.007372359266426473
136,935.83,0.01575777837019108
137,944.49,0.030452178792095982
138,954.992586,0.042049619974855706
139,955.4300000000001,0.04253290999596441
140,964.27,0.05168498810072781
141,975.44,0.011048228952561193
142,984.46,0.05288245563864331
143,995.8599999999999,0.053490659122161714
144,1005.0699999999999,0.07061632319963579
145,1014.37,0.06561216656776923
146,1026.12,0.027458278403851805
147,1035.6200000000001,0.05096959797345048
148,1045.2,0.09111761802363524
149,1054.87,0.09174934736447937
150,1064.63,0.07812129599598285
151,1074.48,0.09132637391814569
152,1084.42,0.07757730113096788
153,1094.46,0.09672471644452268
154,1096.4782,0.09624333302611707
155,1104.58,0.09430882897637256
156,1114.8,0.09387520278748515
157,1125.1200000000001,0.08700766935604504
158,1135.53,0.10457426240630746
159,1146.04,0.0971508682140172
160,1153.98,0.10266459115533166
161,1164.66,0.10724261365070177
162,1175.4299999999998,0.08119601262777444
163,1186.31,0.10479605063803911
164,1194.53,0.07826222930020599
165,1205.59,0.06021848027387578
166,1213.94,0.03345637052072414
167,1225.18,0.07219674445779904
168,1233.67,0.10647931256507359
169,1245.08,0.11862816318980887
170,1253.71,0.11727104915750962
171,1258.92541,0.11154137269405309
172,1265.31,0.1045297759359347
173,1274.09,0.1294579085215101
174,1285.8700000000001,0.13587062057823884
175,1294.7900000000002,0.11646405687246805
176,1303.76,0.1156586944912165
177,1315.8300000000002,0.13775951423015673
178,1324.95,0.1343198558224628
179,1334.13,0.12421509900419199
180,1346.4799999999998,0.14128822616043987
181,1355.8100000000002,0.13903127331572668
182,1365.21,0.12916662232534043
183,1374.67,0.13463137292437727
184,1384.1999999999998,0.137445425377741
185,1393.79,0.12393227942052779
186,1403.45,0.12916883531764148
187,1416.4399999999998,0.1327819794277354
188,1426.26,0.13524883956331063
189,1436.1499999999999,0.13556530155321272
190,1442.77,0.14227197691955776
191,1445.43977,0.14385707325540406
192,1446.1,0.14424906232175616
193,1456.12,0.14194828509749596
194,1466.22,0.13463200965188435
195,1476.3799999999999,0.13463333554025922
196,1486.62,0.1364986632072827
197,1493.48,0.13903571572640197
198,1503.83,0.1346343458390673
199,1510.77,0.12364740013683519
200,1517.74,0.13066125510159632
201,1524.75,0.12828401095568173
202,1535.32,0.11619924595963078
203,1545.96,0.12594358251989737
204,1556.68,0.1200061208588126
205,1563.86,0.12223508049252634
206,1574.7,0.13006922149941447
207,1585.6200000000001,0.13525276428495125
208,1596.61,0.13936170862680558
209,1603.98,0.13619327248480978
210,1615.1,0.13681781971696813
211,1626.29,0.131273468505444
212,1633.8,0.13872223547608328
213,1645.12,0.14129668715486315
214,1656.53,0.13187494083462276
215,1659.58691,0.13682852339229498
216,1664.17,0.1442558529290807
217,1671.85,0.13127689988631622
218,1675.71,0.14727352661221843
219,1683.4399999999998,0.1524460816876651
220,1695.11,0.1445917764781519
221,1706.8600000000001,0.14098128425777653
222,1714.7399999999998,0.13840866368785676
223,1726.63,0.13840969419847268
224,1734.6000000000001,0.14694498824133295
225,1746.6200000000001,0.1442684398592979
226,1754.68,0.1535183485149383
227,1766.8500000000001,0.14131342448753678
228,1775.0,0.1476283477559573
229,1783.19,0.1500319775189467
230,1795.55,0.1603798843407476
231,1803.84,0.1589139303401594
232,1816.35,0.15211996151659382
233,1824.73,0.1535281221287857
234,1833.15,0.14934688923554648
235,1845.86,0.1381143528848256
236,1854.3799999999999,0.14165933622800872
237,1862.9399999999998,0.1476436260657608
238,1875.85,0.15531282218788459
239,1884.51,0.147308328262059
240,1893.2099999999998,0.14496234083080237
241,1905.46072,0.15003764065456293
242,1906.33,0.1503974479784466
243,1915.1299999999999,0.14867090623269108
244,1923.97,0.14596015611536398
245,1932.8500000000001,0.14362689762646524
246,1946.25,0.1578304931499739
247,1955.23,0.15142461373214613
248,1968.79,0.16411507576936835
249,1977.87,0.16639407542261153
250,1982.43,0.1611270210634473
251,1996.1699999999998,0.15782084542859726
252,2005.3899999999999,0.15927761578133978
253,2014.64,0.1570863798554036
254,2023.9399999999998,0.15927433346500292
255,2033.2900000000002,0.1592708766101377
256,2042.67,0.16600511347659375
257,2056.83,0.16036514994024173
258,2066.32,0.16036436378487584
259,2075.86,0.17261226716504546
260,2085.44,0.17950236217364343
261,2095.07,0.17142554671777693
262,2104.74,0.17024282289033876
263,2114.45,0.174206990691329
264,2124.22,0.17460264593496183
265,2134.02,0.16257639489991593
266,2143.87,0.1725975334004055
267,2153.77,0.17661386143643057
268,2163.71,0.16944808110088402
269,2173.69,0.16944589239376587
270,2183.73,0.17338649112929025
271,2187.7616199999998,0.17681944370221855
272,2193.81,0.18197195661603302
273,2203.93,0.1766095452876629
274,2214.11,0.16521044397117995
275,2224.33,0.1644514493292884
276,2234.5899999999997,0.18156656136198826
277,2244.91,0.17339538340657526
278,2255.27,0.1629530121257537
279,2265.68,0.1647759491881714
280,2276.1400000000003,0.1722633945938284
281,2286.64,0.1825906466740768
282,2297.2000000000003,0.17132000876621234
283,2302.4900000000002,0.17801099148092794
284,2313.12,0.1713077652535985
285,2323.8,0.14098424736950832
286,2334.52,0.15647283616000954
287,2345.2999999999997,0.1438097349623979
288,2356.13,0.16984634210802554
289,2367.0,0.1473808559282446
290,2372.46,0.15924726700997377
291,2383.41,0.1384959941793757
292,2394.41,0.15092132969201688
293,2405.46,0.14759717354789736
294,2416.57,0.15324992741566495
295,2427.72,0.17606648795802396
296,2433.3199999999997,0.1711460224008231
297,2444.55,0.18479119629236498
298,2455.83,0.18492937852714614
299,2467.17,0.1829589707738144
300,2472.85,0.17340441856579641
301,2484.27,0.16919902416164753
302,2495.73,0.1651077364320901
303,2507.26,0.19456026038306762
304,2511.88643,0.16587387896005348
305,2513.03,0.1587828585183487
306,2518.8300000000004,0.15398728394817024
307,2524.63,0.15141520937799177
308,2536.29,0.16124795636277092
309,2542.13,0.16336267920934985
310,2553.87,0.18856192102764377
311,2565.6600000000003,0.17775505961688445
312,2577.5,0.19460299497707184
313,2583.44,0.19091581136554425
314,2595.3599999999997,0.18672424155924647
315,2607.34,0.17807036787808472
316,2613.36,0.1722959791000719
317,2625.42,0.19257600025242494
318,2637.54,0.21673561752991408
319,2643.62,0.25267512487703736
320,2655.8199999999997,0.27791223698804124
321,2661.94,0.2347722417519219
322,2674.23,0.25176184805062995
323,2686.5699999999997,0.26324495112028473
324,2692.76,0.23446195136349082
325,2705.19,0.25376304862084975
326,2717.6800000000003,0.22637844200334473
327,2723.95,0.22056083708006557
328,2736.52,0.24148672529607534
329,2742.83,0.1899561177895536
330,2755.49,0.20845120019326752
331,2761.8399999999997,0.22997229010350317
332,2774.59,0.2449304666949212
333,2787.4,0.2082011394114753
334,2793.82,0.1436462248010364
335,2806.72,0.15909339170529463
336,2813.19,0.24334037386580243
337,2826.17,0.2796323356035754
338,2832.69,0.27181971453503
339,2845.7599999999998,0.25159287046050716
340,2852.3199999999997,0.21698624680871909
341,2865.49,0.2810439962760897
342,2872.09,0.30162387004105906
343,2884.0315,0.2956867504526031
344,2885.35,0.2950312971036516
345,2892.0,0.3073040883145724
346,2912.0499999999997,0.362783361815168
347,2932.23,0.342595335143947
348,2952.5600000000004,0.3348903082744762
349,2973.02,0.34915698123318867
350,2986.7500000000005,0.3551695630867138
351,3007.45,0.3643862357282265
352,3028.2999999999997,0.37385280817148925
353,3049.29,0.38622338042971877
354,3070.4199999999996,0.4008457525029151
355,3091.7099999999996,0.40655552436464476
356,3113.14,0.42586449604134125
357,3127.51,0.4156380770490001
358,3149.19,0.42060364839528
359,3171.02,0.44261951954331
360,3192.9999999999995,0.4122952904930902
361,3207.7299999999996,0.4422320710249492
362,3229.97,0.4091072416310962
363,3252.36,0.48305141203899327
364,3267.37,0.5289850922007857
365,3290.02,0.5279915622650496
366,3311.31121,0.5236891415669601
367,3312.83,0.5233821957527022
368,3320.46,0.5053035029795035
369,3328.12,0.5373711094483499
370,3335.79,0.5675455156645447
371,3343.4799999999996,0.5184992213754361
372,3351.19,0.5169866265810245
373,3358.91,0.561307331533961
374,3366.65,0.4999831359815943
375,3374.41,0.4494689399239243
376,3382.19,0.48913154336095105
377,3389.99,0.5535355462926744
378,3397.81,0.5115510487190947
379,3405.64,0.5657392508928634
380,3413.4900000000002,0.5462039525613286
381,3421.36,0.5795374537244906
382,3429.2400000000002,0.5699305546350011
383,3437.15,0.5748579547875564
384,3445.07,0.46060355468746034
385,3453.02,0.6067825538294093
386,3460.97,0.5530757529713582
387,3468.9500000000003,0.5604258513553523
388,3476.95,0.543576149234043
389,3484.97,0.5754339466074304
390,3493.0,0.5555699437281664
391,3501.05,0.5629677403435989
392,3509.12,0.5891399364537282
393,3517.21,0.5369985320585542
394,3525.32,0.5593854271580769
395,3533.4500000000003,0.6214996217522964
396,3535.45,0.3566973712219691
397,3538.15,0.8698407030060272
398,3540.85,0.9088193347900854
399,3543.5499999999997,0.5417015665741435
400,3546.2500000000005,0.6035403983582016
401,3548.9500000000003,0.41977073014225974
402,3551.65,0.549791561926318
403,3554.35,0.261901093710376
404,3557.0499999999997,0.6495256254944342
405,3559.76,0.5427234570258407
406,3562.46,0.6322005888098987
407,3565.16,0.6777256205939568
408,3567.86,0.29458005237801493
409,3570.56,0.6535040841620731
410,3573.2599999999998,0.25928161594613125
411,3575.96,0.5856011477301893
412,3578.6600000000003,0.7164723795142475
413,3581.36,0.4826852112983056
414,3584.0699999999997,0.36342294282971216
415,3586.7700000000004,0.5453340746137703
416,3589.4700000000003,0.9372612063978284
417,3592.17,0.6471671381818864
418,3594.87,0.7085016699659447
419,3597.5699999999997,0.5915521017500027
420,3600.27,0.6325323335340609
421,3602.97,0.6900218653181189
422,3605.67,0.604051597102177
423,3608.3700000000003,0.5736291288862353
424,3611.08,0.7942141604176417
425,3613.7799999999997,0.6644652922016998
426,3616.4800000000005,0.565364623985758
427,3619.1800000000003,0.7360339557698161
428,3621.88,0.6316733875538743
429,3624.58,0.6807275193379324
430,3627.2799999999997,0.4815997511219905
431,3629.98,0.47652078290604866
432,3632.68,0.4149758146901068
433,3635.39,0.49764804622151326
434,3638.09,0.5094244780055714
435,3640.79,0.6727570097896295
436,3643.49,0.5850638415736876
437,3646.19,0.5220894733577457
438,3648.8900000000003,0.5931686051418039
439,3651.59,0.725236036925862
440,3654.29,0.6297319687099202
441,3656.99,0.6304321004939782
442,3659.69,0.4919311322780364
443,3662.4,0.7123135638094429
444,3665.1,0.711817195593501
445,3667.7999999999997,0.6951276273775592
446,3670.5,0.6451936591616173
447,3673.2,0.6642918909456754
448,3675.8999999999996,0.6542391227297335
449,3678.6000000000004,0.6331624545137916
450,3681.3,0.6465943862978497
451,3684.0,0.6383325180819079
452,3686.7,0.6460759498659661
453,3689.4100000000003,0.6669914813973725
454,3692.11,0.6544630131814307
455,3694.81,0.6995741449654889
456,3697.5099999999998,0.7459271767495469
457,3700.21,0.7930852085336051
458,3702.91,0.7611806403176633
459,3705.6099999999997,0.6587235721017214
460,3708.3100000000004,0.6485654038857794
461,3711.01,0.6933908356698376
462,3713.72,0.6944484672012441
463,3716.4199999999996,0.7164811989853022
464,3719.1200000000003,0.8300300307693603
465,3721.82,0.9604344625534185
466,3724.52,1.1465226943374767
467,3727.22,1.3885946261215347
468,3729.92,1.408837557905593
469,3732.62,1.030492489689651
470,3735.3199999999997,0.8258186214737091
471,3738.0200000000004,0.7092826532577673
472,3740.73,0.6005841847891737
473,3743.43,0.6340095165732318
474,3746.1299999999997,0.63941244835729
475,3748.8300000000004,0.6519489801413482
476,3751.53,0.6104954119254062
477,3754.23,0.7872148437094644
478,3756.93,0.8612590754935224
479,3759.63,0.7731443072775807
480,3762.33,0.8234101390616387
481,3765.04,0.6697207705930451
482,3767.74,0.7002941023771034
483,3770.44,0.6424065341611616
484,3773.14,0.6764262659452196
485,3775.8399999999997,0.7057203977292777
486,3778.5400000000004,0.9019666295133358
487,3781.2400000000002,0.837103561297394
488,3783.94,0.8401890930814522
489,3786.64,0.8404905248655102
490,3789.34,0.8566690566495684
491,3792.05,0.8097105881809749
492,3794.75,0.693190219965033
493,3797.45,0.6679901517490912
494,3800.15,0.7657672835331493
495,3801.8939600000003,0.7322845638850408
496,3802.85,0.7139293203500865
497,3805.5499999999997,0.7822470663477485
498,3808.2500000000005,0.8994082123454105
499,3810.9500000000003,0.9593811583430724
500,3813.65,0.8939913043407344
501,3816.35,0.9699919503383964
502,3819.0600000000004,0.9142289961360496
503,3821.76,0.9029423421337115
504,3824.46,0.8172356881313735
505,3827.16,0.6772680341290355
506,3829.86,0.6792397801266974
507,3832.56,0.5874831261243594
508,3835.2599999999998,0.7132749721220213
509,3837.96,0.7130722181196832
510,3840.6600000000003,0.6873528641173451
511,3843.37,0.7075836099149985
512,3846.0699999999997,0.8754009559126603
513,3848.7700000000004,1.0219088019103224
514,3851.4700000000003,0.9725465479079842
515,3854.17,0.9414696939056462
516,3856.87,1.0091176399033082
517,3859.57,1.0311655859009703
518,3862.27,0.941094731898632
519,3864.97,1.0777454778962938
520,3867.67,1.066232423893956
521,3870.38,0.8711864696916093
522,3873.08,0.9194956156892712
523,3875.7799999999997,0.9697615616869332
524,3878.4800000000005,0.8051954076845951
525,3881.1800000000003,0.760724453682257
526,3883.88,0.7580159996799191
527,3886.58,0.760424145677581
528,3889.2799999999997,0.6839952916752429
529,3891.98,0.6983905376729048
530,3894.68,0.7755500836705668
531,3897.39,0.8156534294682201
532,3900.09,0.791047675465882
533,3902.79,1.0030207214635438
534,3905.49,0.9874448674612059
535,3908.19,1.0276276134588678
536,3910.8900000000003,1.0483215594565298
537,3913.59,1.1241715054541916
538,3916.29,1.0519344514518536
539,3918.99,0.9887263974495156
540,3921.7000000000003,1.0735253432471688
541,3924.4,0.9670510892448309
542,3927.1,0.8418394352424928
543,3929.8,0.7494659812401547
544,3932.5,0.8123432272378167
545,3935.2,0.7500836732354785
546,3937.8999999999996,0.8030885192331405
547,3940.6000000000004,0.8165582652308024
548,3943.3,0.8895489112284645
549,3946.0,1.0013678572261264
550,3948.7100000000005,1.0866188030237798
551,3951.4100000000003,1.0076087490214418
552,3954.11,0.9003064950191035
553,3956.81,0.9486911410167655
554,3959.5099999999998,0.7938318870144275
555,3962.21,0.8477849330120895
556,3964.91,0.6993891790097514
557,3967.6099999999997,0.6933471250074134
558,3970.3100000000004,0.6243827710050753
559,3973.02,0.6675192168027286
560,3975.72,0.7914974628003906
561,3978.4199999999996,0.9134742087980525
562,3981.1200000000003,1.0216801547957144
563,3983.82,1.0015151007933762
564,3986.52,1.0726990467910384
565,3989.22,1.1976109927887002
566,3991.92,1.2344079387863622
567,3994.62,1.241481884784024
568,3997.3199999999997,1.1581828307816862
569,4000.03,1.1828587765793392
570,4002.73,1.1980597225770013
571,4005.43,1.2504326685746632
