,lambda (Angstroms),Total Flux (erg/s/cm^2/Angstrom)
0,100.1,1.058653e-05
1,101.96000000000001,1.39867e-05
2,104.10000000000001,1.693135e-05
3,104.712855,1.8185111611761655e-05
4,106.03,2.087969e-05
5,108.01,2.628187e-05
6,110.01,3.696106e-05
7,113.88000000000001,5.208545e-05
8,117.88,6.930155e-05
9,120.22644299999999,0.00021001204484331643
10,120.91,0.0002510033
11,124.87,0.0003088144
12,126.9,0.0003331966
13,128.07,0.0003521664
14,131.05,0.0003879337
15,131.96,0.0004578511
16,134.10999999999999,0.0004849541
17,136.91,0.000610594
18,138.038426,0.000629248968837492
19,140.1,0.0006633306
20,143.04000000000002,0.001886599
21,147.04,0.004850253
22,151.16,0.005137543
23,155.04,0.005504743
24,158.489319,0.005857220068646735
25,159.01999999999998,0.005911449
26,161.97,0.006190358
27,166.13,0.006694368
28,170.0,0.007090695
29,173.16000000000003,0.00742546
30,177.19,0.00782949
31,180.07,0.0081229
32,181.970086,0.008347169241583734
33,182.16,0.008369585
34,185.97,0.008785089
35,191.18,0.009326859
36,193.83999999999997,0.009721628
37,197.89999999999998,0.01010884
38,202.04,0.01061056
39,204.85,0.01093266
40,208.929613,0.010971455103091254
41,210.10999999999999,0.01098268
42,216.0,0.01215345
43,220.01,0.01266797
44,223.07,0.0128443
45,227.22,0.01341845
46,229.85,0.02045042
47,234.11999999999998,0.03497276
48,239.88329199999998,0.04212694245184025
49,240.13,0.04243319
50,245.72,0.03978579
51,252.03,0.04175546
52,256.71,0.03505242
53,260.28,0.03997115
54,263.9,0.04156366
55,268.81,0.04118241
56,273.81,0.04061726
57,275.42287,0.04047041278111985
58,278.90000000000003,0.04015383
59,284.08,0.03978701
60,290.03000000000003,0.03747381
61,296.1,0.03764775
62,300.92,0.03695741
63,307.93,0.03670457
64,316.227766,0.03663528200751785
65,318.01000000000005,0.0366204
66,327.68,0.03570336
67,337.63,0.03465313
68,347.89,0.03347642
69,356.82,0.03256115
70,363.078055,0.0320544390483224
71,365.96999999999997,0.03182028
72,375.36,0.03088273
73,384.99,0.02902149
74,394.86,0.02888752
75,404.99,0.02810099
76,414.42,0.0272104
77,416.86938299999997,0.02691656934673152
78,422.13,0.0262855
79,429.98,0.02556951
80,441.01,0.0247002
81,451.28000000000003,0.02375335
82,459.67,0.02294689
83,470.38000000000005,0.02216748
84,478.630092,0.02161942261936244
85,480.23,0.02151314
86,490.28000000000003,0.02054531
87,500.55,0.02007842
88,506.34,0.01953122
89,512.21,0.01966667
90,520.53,0.01913093
91,530.21,0.01839577
92,540.06,0.01748749
93,549.5408739999999,0.016890629320673315
94,550.1,0.01685543
95,560.33,0.01658575
96,569.44,0.01628255
97,580.02,0.01558586
98,589.4499999999999,0.01519584
99,600.41,0.01444511
100,610.16,0.01263944
101,620.08,0.01385832
102,630.15,0.01329585
103,630.957344,0.013274351312312499
104,640.39,0.01302317
105,649.3000000000001,0.01258094
106,658.33,0.01215407
107,664.42,0.01207054
108,675.22,0.01176831
109,684.6099999999999,0.01113576
110,695.74,0.01108447
111,705.42,0.01046458
112,715.23,0.01046464
113,724.43596,0.01020064637519598
114,725.18,0.01017931
115,735.27,0.009947487
116,745.5,0.009609854
117,755.87,0.009348058
118,764.62,0.008427944
119,775.26,0.008845271
120,784.23,0.008466997
121,795.14,0.008350561
122,804.35,0.008179297
123,815.54,0.007993246
124,824.98,0.007811315
125,831.763771,0.00738203357160324
126,834.54,0.007206352
127,844.1999999999999,0.007391288
128,855.94,0.007189997
129,865.86,0.007042371
130,875.88,0.00691394
131,883.99,0.006756437
132,894.22,0.006617965
133,904.5799999999999,0.006422675
134,915.0500000000001,0.00739132
135,925.65,0.01308338
136,934.21,0.01998545
137,945.0300000000001,0.02882159
138,954.992586,0.035390367350345474
139,955.97,0.03603482
140,964.8199999999999,0.03914945
141,975.99,0.01454537
142,985.0200000000001,0.03355245
143,994.13,0.03401943
144,1005.65,0.04484498
145,1014.95,0.04352406
146,1024.34,0.02227082
147,1033.82,0.03347511
148,1045.79,0.05416631
149,1055.47,0.05281127
150,1065.23,0.04292679
151,1075.09,0.04917258
152,1085.04,0.03905912
153,1095.08,0.05043452
154,1096.4782,0.05012111202073048
155,1105.21,0.04816387
156,1115.44,0.04620755
157,1125.76,0.0414692
158,1136.18,0.05066586
159,1144.05,0.0464213
160,1154.6399999999999,0.04838541
161,1165.32,0.04894581
162,1176.1000000000001,0.03481124
163,1184.26,0.0468511
164,1195.21,0.0345715
165,1206.27,0.02658999
166,1214.63,0.01839598
167,1225.8700000000001,0.0334755
168,1234.3700000000001,0.04652785
169,1245.79,0.04997083
170,1254.43,0.04761294
171,1258.92541,0.04541795530831033
172,1266.03,0.04194898
173,1274.8100000000002,0.05184738
174,1283.65,0.05354589
175,1295.52,0.04302576
176,1304.5,0.04243479
177,1313.55,0.0516072
178,1325.7,0.0491726
179,1334.8899999999999,0.043825
180,1344.14,0.05090009
181,1353.46,0.04905947
182,1365.98,0.04402737
183,1375.45,0.04557394
184,1384.99,0.0456796
185,1394.59,0.03905924
186,1404.25,0.0398765
187,1413.99,0.04175598
188,1423.79,0.04233646
189,1433.6599999999999,0.04214252
190,1443.59,0.04392664
191,1445.43977,0.04420846051405407
192,1446.9199999999998,0.04443398
193,1453.6,0.04302594
194,1463.68,0.03969339
195,1473.8200000000002,0.03942071
196,1484.0400000000002,0.03996951
197,1494.3300000000002,0.04024488
198,1504.6799999999998,0.03799531
199,1511.6299999999999,0.03394061
200,1518.61,0.03603468
201,1525.6200000000001,0.03489109
202,1536.19,0.03031976
203,1543.28,0.03226431
204,1553.98,0.0306004
205,1564.75,0.03131337
206,1575.6000000000001,0.03316761
207,1586.52,0.03441344
208,1593.84,0.03497192
209,1604.8899999999999,0.0340965
210,1616.01,0.03394054
211,1623.4699999999998,0.03211598
212,1634.73,0.03394018
213,1646.06,0.03425431
214,1653.66,0.03174832
215,1659.58691,0.03304439454339442
216,1665.12,0.03425435
217,1672.8100000000002,0.0306002
218,1676.66,0.03449253
219,1684.4,0.03562139
220,1696.0800000000002,0.03339772
221,1703.9,0.032116
222,1715.72,0.03045991
223,1723.6399999999999,0.0301807
224,1735.58,0.03204191
225,1743.59,0.03131316
226,1755.68,0.03332053
227,1763.78,0.03046025
228,1776.01,0.03109707
229,1784.21,0.03167583
230,1796.5700000000002,0.03401954
231,1804.8700000000001,0.0333977
232,1813.2,0.03066968
233,1825.77,0.03138569
234,1834.19,0.03011156
235,1846.9099999999999,0.02733434
236,1855.43,0.02803612
237,1864.0,0.02922199
238,1876.92,0.03116805
239,1885.58,0.02895569
240,1894.29,0.02862248
241,1903.03,0.02976591
242,1905.46072,0.029616550640970424
243,1916.2199999999998,0.02895543
244,1925.0600000000002,0.0277162
245,1933.95,0.02702202
246,1942.8799999999999,0.03060019
247,1956.34,0.02895552
248,1965.37,0.03233838
249,1974.45,0.03211582
250,1983.56,0.03211591
251,1992.72,0.03167565
252,2006.53,0.03174834
253,2015.7900000000002,0.0312405
254,2025.09,0.03066984
255,2034.44,0.0317484
256,2043.8300000000002,0.03378446
257,2053.27,0.03196753
258,2062.7400000000002,0.03167585
259,2072.27,0.03449209
260,2077.04,0.04739394
261,2086.6299999999997,0.05593972
262,2096.26,0.05172739
263,2105.94,0.05020225
264,2115.66,0.05429008
265,2125.42,0.05008596
266,2135.23,0.0468516
267,2145.09,0.0561986
268,2154.99,0.05684832
269,2164.94,0.05066633
270,2174.93,0.05113457
271,2184.97,0.06035511
272,2187.7616199999998,0.06031677156755203
273,2195.06,0.06021654
274,2205.19,0.05830643
275,2215.37,0.04695839
276,2225.59,0.05220555
277,2235.86,0.06647903
278,2246.1800000000003,0.06301002
279,2256.5499999999997,0.0500183
280,2266.9700000000003,0.04762574
281,2277.43,0.0521866
282,2282.68,0.0667438
283,2293.22,0.05625041
284,2303.8,0.06650255
285,2314.44,0.05643482
286,2325.12,0.04418328
287,2335.85,0.04139654
288,2346.63,0.03109402
289,2357.4700000000003,0.05156808
290,2362.9,0.03335999
291,2373.81,0.04073249
292,2384.7599999999998,0.02796684
293,2395.77,0.03313937
294,2406.83,0.03266142
295,2412.38,0.03757372
296,2423.51,0.05937173
297,2434.7,0.05974195
298,2445.94,0.07046406
299,2457.23,0.07458631
300,2462.89,0.06419558
301,2474.26,0.05756881
302,2485.6800000000003,0.0386259
303,2497.15,0.04514068
304,2502.91,0.06813951
305,2511.88643,0.040627995538138464
306,2514.46,0.03274036
307,2520.2599999999998,0.02817964
308,2526.07,0.02997584
309,2537.7300000000005,0.04492111
310,2543.58,0.04745531
311,2555.3199999999997,0.08374577
312,2567.11,0.06217714
313,2573.03,0.07879082
314,2584.9100000000003,0.06952542
315,2596.84,0.06234736
316,2602.83,0.05403152
317,2614.84,0.04912731
318,2626.91,0.06637182
319,2632.9700000000003,0.114765
320,2645.1200000000003,0.1557676
321,2657.33,0.2158456
322,2663.45,0.1339578
323,2675.75,0.1540378
324,2681.92,0.177603
325,2694.3,0.1303491
326,2706.73,0.1617227
327,2712.9700000000003,0.1168391
328,2725.49,0.09380861
329,2738.08,0.1185464
330,2744.39,0.0651194
331,2757.06,0.08817673
332,2763.41,0.115926
333,2776.17,0.1244005
334,2782.5699999999997,0.07424082
335,2795.41,0.03526041
336,2801.8500000000004,0.0420826
337,2814.79,0.1090782
338,2827.7799999999997,0.1638201
339,2834.3,0.1571066
340,2847.38,0.1163658
341,2853.9399999999996,0.06802142
342,2867.1200000000003,0.1626527
343,2873.73,0.2163177
344,2884.0315,0.19791701464555014
345,2886.99,0.1926325
346,2893.6499999999996,0.2347065
347,2907.0,0.3170598
348,2927.15,0.2751582
349,2947.44,0.2552711
350,2967.8700000000003,0.2706629
351,2988.4500000000003,0.2740529
352,3009.1600000000003,0.2787843
353,3030.02,0.294901
354,3051.02,0.3069502
355,3072.17,0.3330182
356,3093.47,0.3279866
357,3107.7500000000005,0.3762276
358,3129.29,0.3498122
359,3150.98,0.3485042
360,3172.82,0.3824571
361,3187.4599999999996,0.3282237
362,3209.5600000000004,0.3668767
363,3231.81,0.3047104
364,3246.7200000000003,0.4289954
365,3269.23,0.5009703
366,3291.89,0.4888259
367,3307.0899999999997,0.4610059
368,3311.31121,0.45486395646422007
369,3322.35,0.4388023
370,3330.0099999999998,0.4808941
371,3337.6899999999996,0.4527116
372,3345.38,0.4630264
373,3353.09,0.4289165
374,3360.8199999999997,0.4776917
375,3368.57,0.4763521
376,3376.3300000000004,0.3755815
377,3384.12,0.3967116
378,3391.92,0.4811133
379,3399.74,0.5000533
380,3407.58,0.4707525
381,3415.43,0.4534843
382,3423.3,0.538677
383,3431.2,0.512984
384,3439.1,0.5033508
385,3447.0299999999997,0.3644471
386,3454.9800000000005,0.4617478
387,3462.94,0.3991894
388,3470.93,0.4591305
389,3478.9300000000003,0.3636732
390,3486.95,0.4339772
391,3494.9900000000002,0.3937622
392,3503.04,0.5272282
393,3511.12,0.503224
394,3519.21,0.4960494
395,3527.3199999999997,0.3760864
396,3535.4600000000005,0.487579
397,3543.6099999999997,0.5595067
398,3551.77,0.546468
399,3559.9599999999996,0.5156187
400,3568.17,0.4027993
401,3576.39,0.4234918
402,3584.64,0.318131
403,3592.9,0.3920609
404,3601.18,0.5742711
405,3609.4900000000002,0.4517177
406,3617.8100000000004,0.5077187
407,3626.15,0.522841
408,3634.51,0.4416894
409,3642.88,0.6250026
410,3651.28,0.4662588
411,3659.7000000000003,0.6643165
412,3668.13,0.6384543
413,3676.59,0.6712411
414,3685.0699999999997,0.5618567
415,3693.5600000000004,0.6228242
416,3702.08,0.676269
417,3710.6099999999997,0.4517186
418,3719.1600000000003,0.6848829
419,3727.74,0.5461966
420,3736.33,0.3741939
421,3744.94,0.5699638
422,3753.5800000000004,0.3763375
423,3762.2299999999996,0.4584855
424,3770.8999999999996,0.4887315
425,3779.6000000000004,0.6177451
426,3788.31,0.6831924
427,3790.06,0.3835918
428,3791.79,0.2398315
429,3793.5200000000004,0.4280947
430,3795.25,0.2219954
431,3796.9700000000003,0.08050506
432,3798.7,0.6011108
433,3800.4300000000003,0.5689552
434,3801.8939600000003,0.5135310283514295
435,3802.16,0.503459
436,3803.88,0.8216712
437,3805.6099999999997,1.083755
438,3807.34,0.7676894
439,3809.07,0.604642
440,3810.7999999999997,0.6157281
441,3812.52,0.7355965
442,3814.25,0.699467
443,3815.98,0.5731167
444,3817.7100000000005,0.3543223
445,3819.43,0.383625
446,3821.1600000000003,0.4300838
447,3822.89,0.3962566
448,3824.6200000000003,0.4647753
449,3826.35,0.491127
450,3828.07,0.3161124
451,3829.7999999999997,0.3530143
452,3831.53,0.2597024
453,3833.26,0.2014002
454,3834.99,0.08008851
455,3836.71,0.4037148
456,3838.44,0.3058612
457,3840.17,0.5776587
458,3841.8999999999996,0.7618059
459,3843.62,0.5591786
460,3845.3500000000004,0.4771735
461,3847.08,0.5397966
462,3848.81,0.5880343
463,3850.54,0.5034908
464,3852.26,0.4024224
465,3853.99,0.4590844
466,3855.7200000000003,0.4731197
467,3857.45,0.3378276
468,3859.18,0.5193863
469,3860.9,0.2847767
470,3862.63,0.1551731
471,3864.36,0.4233168
472,3866.0899999999997,0.4798682
473,3867.81,0.5937311
474,3869.5400000000004,0.5102437
475,3871.27,0.4349073
476,3873.0,0.6176981
477,3874.73,0.7070826
478,3876.4500000000003,0.5154945
479,3878.18,0.3720806
480,3879.91,0.6388796
481,3881.64,0.6037594
482,3883.37,0.4989799
483,3885.09,0.5468131
484,3886.82,0.4478554
485,3888.55,0.5388645
486,3890.2799999999997,0.5869158
487,3892.0,0.4781202
488,3893.7300000000005,0.5204471
489,3895.46,0.8252328
490,3897.1899999999996,0.6981256
491,3898.92,0.5236295
492,3900.6400000000003,0.601915
493,3902.37,0.6350636
494,3904.1,0.4586113
495,3905.83,0.5666968
496,3907.55,0.7366856
497,3909.28,0.8310065
498,3911.0099999999998,0.6795027
499,3912.7400000000002,0.6707658
500,3914.47,0.8373137
501,3916.19,0.5623961
502,3917.9199999999996,0.6093722
503,3919.65,0.5414818
504,3921.3799999999997,0.6142921
505,3923.11,0.6344459
506,3924.8300000000004,0.4868088
507,3926.56,0.3327501
508,3928.29,0.3611047
509,3930.02,0.4472073
510,3931.7400000000002,0.1385106
511,3933.47,0.2382551
512,3935.2,0.6182045
513,3936.9300000000003,0.2441687
514,3938.66,0.4707693
515,3940.38,0.5405073
516,3942.1099999999997,0.4780548
517,3943.84,0.8428641
518,3945.5699999999997,0.6007141
519,3947.29,0.5225758
520,3949.0199999999995,0.7740465
521,3950.75,0.8743443
522,3952.48,0.8017186
523,3954.21,0.8138928
524,3955.93,0.59742
525,3957.66,0.5111257
526,3959.39,0.6112658
527,3961.1200000000003,0.5124973
528,3962.85,0.6526776
529,3964.57,0.5754828
530,3966.2999999999997,0.3769843
531,3968.03,0.2890185
532,3969.7599999999998,0.363611
533,3971.48,0.3448777
534,3973.2099999999996,0.46891
535,3974.94,0.6450466
536,3976.67,0.6568866
537,3978.4,0.7996685
538,3980.12,0.893331
539,3981.85,0.8089448
540,3983.58,0.733642
541,3985.3100000000004,0.716547
542,3987.04,0.8140691
543,3988.76,0.93061
544,3990.49,0.8613474
545,3992.2200000000003,0.9014822
546,3993.95,0.7958694
547,3995.67,0.9422834
548,3997.3999999999996,0.9371104
549,3999.13,0.8598321
550,4000.86,0.9624635
551,4002.5899999999997,1.062067
552,4004.31,0.951381
553,4006.04,1.05324
554,4007.77,1.008941
555,4009.4999999999995,1.013609
556,4011.22,0.8351542
557,4012.9500000000003,0.832252
558,4014.68,1.081562
559,4016.4100000000003,0.9304677
560,4018.14,0.8698
561,4019.86,1.014117
562,4021.5899999999997,1.002694
563,4023.32,1.02269
564,4025.05,1.075614
565,4026.7799999999997,1.018699
566,4028.5,1.073253
567,4030.23,1.10022
568,4031.96,0.9481321
569,4033.6899999999996,0.9083552
570,4035.41,0.8167506
571,4037.1400000000003,0.8634772
572,4038.87,1.062354
573,4040.6,1.15516
574,4042.33,1.275849
575,4044.05,1.080494
576,4045.7799999999997,0.9762476
577,4047.51,1.023605
578,4049.2400000000002,0.965823
579,4050.96,0.9778915
580,4052.69,1.072875
581,4054.42,1.057751
582,4056.15,0.9336869
583,4057.8799999999997,1.015056
584,4059.6,1.063159
585,4061.3300000000004,0.8718041
586,4063.06,0.8671357
587,4064.79,1.055699
588,4066.52,1.065712
589,4068.2400000000002,1.000519
590,4069.97,1.018196
591,4071.7,1.081576
592,4073.4300000000003,1.033461
593,4075.15,0.9271593
594,4076.88,0.9598819
595,4078.6099999999997,0.9361948
596,4080.34,0.9833109
597,4082.0699999999997,1.073925
598,4083.79,1.099415
599,4085.5200000000004,1.213827
600,4087.25,1.184888
601,4088.98,1.165222
602,4090.71,1.119646
603,4092.4300000000003,1.027738
604,4094.16,1.061565
605,4095.89,1.074275
606,4097.62,1.016098
607,4099.34,1.103076
608,4101.07,0.994813
609,4102.8,0.8425678
610,4104.53,0.9015278
611,4106.26,1.053157
612,4107.98,1.04105
613,4109.71,0.9640439
614,4111.4400000000005,1.078708
615,4113.17,1.187474
616,4114.900000000001,1.035256
617,4116.62,0.9157387
618,4118.35,0.9810582
619,4120.08,1.100926
620,4121.81,1.106887
621,4123.530000000001,1.16685
622,4125.26,1.134032
623,4126.99,1.098433
624,4128.72,1.109724
625,4130.45,1.05005
626,4132.17,1.110439
627,4133.9,1.082431
628,4135.63,0.9517117
629,4137.36,0.948368
630,4139.09,0.9834674
631,4140.8099999999995,1.039613
632,4142.54,1.026019
633,4144.2699999999995,1.006732
634,4146.0,0.916164
635,4147.719999999999,0.9769934
636,4149.45,0.9856825
637,4151.18,0.9216984
638,4152.91,1.013354
639,4154.64,1.05751
640,4156.36,1.054392
641,4158.09,1.079624
642,4159.820000000001,1.106322
643,4161.55,1.062618
644,4163.27,1.030089
645,4165.0,0.9649421
646,4166.7300000000005,1.136946
647,4168.46,1.113149
648,4170.19,1.044312
649,4171.91,1.013013
650,4173.64,0.9152015
651,4175.37,0.900819
652,4177.1,1.030685
653,4178.83,0.9795268
654,4180.55,0.8708907
655,4182.28,0.9865487
656,4184.01,0.9979344
657,4185.74,0.9326569
658,4187.46,0.9988167
659,4189.19,0.9745148
660,4190.92,0.9393943
661,4192.65,0.9886599
662,4194.38,0.9667548
663,4196.099999999999,0.9915183
664,4197.83,0.9155962
665,4199.56,0.9020492
666,4201.29,0.8675912
667,4203.01,0.9497735
668,4204.74,0.955324
669,4206.47,0.9598971
670,4208.200000000001,1.080029
671,4209.93,1.102674
672,4211.650000000001,1.164057
673,4213.38,1.18656
674,4215.110000000001,1.162652
675,4216.84,1.124898
676,4218.57,1.105027
677,4220.29,1.052197
678,4222.02,0.9136408
679,4223.75,0.9388253
680,4225.48,0.8219214
681,4227.2,0.8898942
682,4228.93,0.9342555
683,4230.66,0.9542674
684,4232.389999999999,0.9590884
685,4234.12,0.9757727
686,4235.84,1.255902
687,4237.57,1.210231
688,4239.3,1.160902
689,4241.03,1.091765
690,4242.75,1.173596
691,4244.48,1.150982
692,4246.21,1.149041
693,4247.94,1.100296
694,4249.67,1.026507
695,4251.39,1.081534
696,4253.12,1.039017
697,4254.85,0.9729824
698,4256.58,1.015183
699,4258.31,1.052195
700,4260.030000000001,0.9733803
701,4261.76,1.021006
702,4263.49,1.09492
703,4265.22,1.113418
704,4266.9400000000005,1.142198
705,4268.67,1.049659
706,4270.4,1.025988
707,4272.13,0.9385579
708,4273.86,0.9545798
709,4275.58,1.001832
710,4277.3099999999995,1.088425
711,4279.04,1.144419
712,4280.7699999999995,1.03447
713,4282.5,0.9891622
714,4284.22,1.002902
715,4285.95,1.006687
716,4287.679999999999,1.025279
717,4289.41,1.076243
718,4291.13,0.9294123
719,4292.86,1.015911
720,4294.59,0.9774316
721,4296.32,0.9443141
722,4298.05,0.86898
723,4299.7699999999995,0.8952726
724,4301.5,0.907774
725,4303.2300000000005,0.8072392
726,4304.96,0.7555763
727,4306.68,0.7799916
728,4308.41,0.7049885
729,4310.14,0.7655141
730,4311.87,0.9612843
731,4313.6,0.9558232
732,4315.320000000001,1.138209
733,4317.05,1.236882
734,4318.78,1.323665
735,4320.51,1.33606
736,4322.24,1.150019
737,4323.96,1.071993
738,4325.69,1.013323
739,4327.42,1.139957
740,4329.15,1.214959
741,4330.87,1.286576
742,4332.599999999999,1.261659
743,4334.33,1.1375
744,4336.0599999999995,1.153801
745,4337.79,1.135996
746,4339.509999999999,0.972276
747,4341.24,1.105486
748,4342.97,1.071043
749,4344.7,1.235005
750,4346.43,1.226236
751,4348.15,1.263611
752,4349.88,1.187883
753,4351.610000000001,1.279949
754,4353.34,1.324388
755,4355.06,1.083126
756,4356.79,1.171013
757,4358.52,1.229299
758,4360.25,1.279363
759,4361.98,1.34301
760,4363.7,1.450962
761,4365.15832,1.2699566703353429
762,4365.43,1.236236
763,4367.16,1.219299
764,4368.89,1.291777
765,4370.61,1.142513
766,4372.34,1.22365
767,4374.07,1.298952
768,4375.8,1.256798
769,4377.53,1.240255
770,4379.25,1.14545
771,4380.98,1.087967
772,4382.71,1.013196
773,4384.44,1.005326
774,4386.16,1.045387
775,4387.889999999999,1.230922
776,4389.62,1.177966
777,4391.35,1.100439
778,4393.08,1.107725
779,4394.8,1.161375
780,4396.53,1.264243
781,4398.26,1.274556
782,4399.99,1.368545
783,4401.72,1.179982
784,4403.4400000000005,1.118436
785,4405.17,1.168632
786,4406.900000000001,1.238898
787,4408.63,1.171386
788,4410.35,1.214033
789,4412.08,1.233052
790,4413.81,1.208954
791,4415.54,1.193893
792,4417.2699999999995,1.257457
793,4418.99,1.36973
794,4420.72,1.361481
795,4422.45,1.298101
796,4424.179999999999,1.399297
797,4425.91,1.414909
798,4427.63,1.417864
799,4429.36,1.365737
