,lambda (Angstroms),Total Flux (erg/s/cm^2/Angstrom)
0,100.05999999999999,0.0044276067076339755
1,101.92,0.005322507968883279
2,104.05,0.0063473142519268454
3,104.712855,0.006666233486080323
4,105.99000000000001,0.006153529867952666
5,107.96,0.005362682996445259
6,109.96000000000001,0.004559792771565008
7,114.09,0.002901824457187951
8,118.1,0.001292029556306023
9,120.22644299999999,0.0004383794070949433
10,121.13000000000001,0.0004215953845279674
11,125.10000000000001,0.00034785065166544895
12,127.13000000000001,0.0003101423877678926
13,128.01,0.0002937959482534312
14,130.99,0.00023844095990245757
15,131.9,0.00022153725544571336
16,134.05,0.00018159993166910735
17,136.85,0.00012958853340558246
18,138.038426,0.00010751292698287919
19,140.04000000000002,0.00010619980847654995
20,142.97,0.00010427760445539213
21,146.98,0.00010164687882651419
22,151.1,9.894398712811535e-05
23,154.97,9.640510920921864e-05
24,158.489319,9.409629604950865e-05
25,158.95,9.363193396163089e-05
26,161.9,9.065836563214843e-05
27,166.05,8.647521672924825e-05
28,169.92,8.257431497423123e-05
29,173.08,7.93890898920014e-05
30,177.11,7.5326935240734e-05
31,179.99,7.242397231944735e-05
32,181.970086,7.04281030401052e-05
33,182.07999999999998,7.046375859902983e-05
34,185.89000000000001,7.169973561010424e-05
35,191.1,7.338991662756423e-05
36,194.2,7.439563212956805e-05
37,197.81,7.556687757448736e-05
38,201.95000000000002,7.691011962057765e-05
39,205.23,7.797437284888106e-05
40,208.929613,7.917485411467356e-05
41,210.02,8.13228763628655e-05
42,215.9,9.290673496643131e-05
43,219.91,0.00010080676270081034
44,222.97,0.00010683526535620686
45,227.12,0.00011501148128955179
46,229.75,0.00012019703285212459
47,234.01999999999998,0.00012861856805758306
48,239.88329199999998,0.00014018103931159748
49,240.01999999999998,0.0001399595014749513
50,246.18,0.00012997098727873362
51,251.91000000000003,0.00012068712010585582
52,257.19,0.00011212003939624079
53,260.16999999999996,0.00010730102341774595
54,263.79,0.00010144221995172187
55,269.31,9.250150196303337e-05
56,273.69,8.541233510994357e-05
57,275.42287,8.260759049152859e-05
58,278.77,8.842010092020207e-05
59,283.96000000000004,9.743558121812166e-05
60,289.9,0.0001077503841174745
61,295.96999999999997,0.00011830525302640923
62,300.78000000000003,0.0001266666967809359
63,307.79,0.00013886867641300056
64,316.227766,0.00015356995594288506
65,317.87,0.00015150224665592117
66,328.28999999999996,0.00013838939607480874
67,338.26,0.00012586144922963676
68,347.74,0.00011397517226582231
69,356.66,0.000102809383337845
70,363.078055,9.479702612429864e-05
71,365.81,9.755882827562352e-05
72,375.18999999999994,0.00010703374226855825
73,384.81,0.00011674499206941469
74,394.69,0.00012684893416218607
75,404.81000000000006,0.00013718801806287913
76,414.24,0.00014680276176579752
77,416.86938299999997,0.00014949030580856595
78,421.94,0.00015266430182234557
79,429.78000000000003,0.00015759206541162953
80,440.81,0.0001646063057432369
81,451.08000000000004,0.00017110895512996479
82,460.52000000000004,0.00017707048265583735
83,470.17,0.00018326269392963712
84,478.630092,0.0001887572681269725
85,480.01000000000005,0.00018775842781360353
86,490.06,0.00018035368077681671
87,500.32,0.0001730173452586642
88,506.11999999999995,0.00016908551796380216
89,511.98,0.00016783309953140703
90,520.3,0.00016227012846015666
91,529.97,0.00015590104929441248
92,539.82,0.0001488176417160691
93,549.5408739999999,0.00014494468961850397
94,549.86,0.0001449852524862733
95,560.08,0.00014600733351056237
96,570.49,0.00014692987430927557
97,579.76,0.00014550463646144385
98,590.5400000000001,0.00014884230261035149
99,600.14,0.00014926362331809854
100,609.89,0.00015317966700565416
101,619.8,0.00015960270787167226
102,629.87,0.00016371610591615275
103,630.957344,0.00016388425895955602
104,640.1,0.00017074158669171796
105,650.51,0.00018547059831750787
106,658.04,0.0001957646945079208
107,665.66,0.00020612399368068917
108,674.92,0.00021537830275415845
109,684.3100000000001,0.0002226204772465857
110,695.43,0.00025841434462206927
111,705.1,0.00026215905617071373
112,716.56,0.00029954730925731816
113,724.43596,0.0003141141657260283
114,726.53,0.0003176786467563714
115,734.94,0.0003340678215694388
116,745.16,0.00036987600475487856
117,755.53,0.0003979298599048796
118,764.28,0.00042562935783761914
119,774.9100000000001,0.000466181777726193
120,785.69,0.0005071318695793281
121,794.79,0.0005400929354293772
122,805.84,0.0005749031368187227
123,815.18,0.0006082487778120698
124,824.61,0.0006738805219841536
125,831.763771,0.0006220209121604206
126,834.1600000000001,0.0006031680446288933
127,845.77,0.0007381956955624072
128,855.56,0.0007734840808887723
129,865.47,0.0008410772892222023
130,875.49,0.0009133062603121083
131,885.63,0.001003738954409079
132,895.88,0.0010770822112625255
133,904.17,0.0011081434590005817
134,914.64,0.0017092558413669802
135,925.2299999999999,0.011760195946740444
136,935.9499999999999,0.02691654093537156
137,944.61,0.0537761793123814
138,954.992586,0.07716656228689221
139,955.55,0.0784225300021303
140,964.39,0.09222716760754929
141,975.5500000000001,0.015329669742897262
142,984.58,0.08481785461585355
143,995.98,0.09130696066809071
144,1005.1999999999999,0.13513511280858428
145,1014.5,0.13218638958804094
146,1023.89,0.05662801033633102
147,1035.74,0.09719881623273545
148,1045.32,0.19133192424856282
149,1055.0,0.19236417556309404
150,1064.76,0.1561296215165883
151,1074.61,0.18998616143891603
152,1084.55,0.15418369533007723
153,1094.59,0.20806802251994222
154,1096.4782,0.20729317479554482
155,1104.72,0.20390986736380787
156,1114.94,0.20028562383696913
157,1125.26,0.1840042593362866
158,1135.67,0.23710347595914463
159,1146.18,0.21932737160815882
160,1154.1200000000001,0.2375069062849593
161,1164.8,0.250467266278439
162,1175.58,0.17777080529807487
163,1183.73,0.2508132959298033
164,1194.68,0.17557289929390468
165,1205.73,0.12809248168416226
166,1214.09,0.08301190827081864
167,1225.32,0.17860407290815733
168,1233.8200000000002,0.2775121901314324
169,1245.23,0.3113002970158522
170,1253.87,0.30241478487574586
171,1258.92541,0.2853794334047061
172,1265.47,0.2633274221977939
173,1274.24,0.3450261530335484
174,1286.03,0.3670139289233483
175,1294.94,0.29514396184770086
176,1303.92,0.2960547958163525
177,1315.99,0.37334307588334864
178,1325.11,0.3625890119405984
179,1334.29,0.3263589488929617
180,1343.54,0.391693986889624
181,1355.97,0.3842453723273011
182,1365.37,0.34820261256174717
183,1374.84,0.36986535384049224
184,1384.3700000000001,0.37863309601435086
185,1393.9599999999998,0.33528393908332293
186,1403.62,0.35282358319659407
187,1416.6100000000001,0.36312747698866366
188,1426.4299999999998,0.3768471234889041
189,1436.3200000000002,0.37779767103344364
190,1442.95,0.4017527699434838
191,1445.43977,0.4082977619368116
192,1446.28,0.41050651760777584
193,1456.3000000000002,0.40213264306812246
194,1466.3999999999999,0.3753202695301485
195,1476.5600000000002,0.37793619674343415
196,1483.3799999999999,0.3882115821366042
197,1493.66,0.398144910852409
198,1504.01,0.3810677404446832
199,1510.95,0.34170522734037245
200,1517.93,0.3666489147369013
201,1524.9299999999998,0.3588073023838501
202,1535.5,0.3160559347307428
203,1546.15,0.3512549680793148
204,1553.29,0.3343449574792025
205,1564.05,0.34277999220508376
206,1574.8899999999999,0.3679819279326444
207,1585.81,0.38779886466188446
208,1596.8,0.399349702267594
209,1604.17,0.3943282945473101
210,1615.29,0.39863813378074864
211,1626.4899999999998,0.37955967401586665
212,1634.0,0.40616986804852173
213,1645.3200000000002,0.41530670978615886
214,1656.7299999999998,0.3854900526506853
215,1659.58691,0.4002492962795513
216,1664.38,0.4250115266948281
217,1672.06,0.3817710289422415
218,1675.9099999999999,0.4285385809803328
219,1683.6499999999999,0.4491237887140541
220,1695.32,0.42452565580094404
221,1703.1399999999999,0.41044627084974256
222,1714.95,0.39152405073801755
223,1726.8400000000001,0.3910470379413698
224,1734.81,0.4192835667059381
225,1746.8300000000002,0.4110897657962908
226,1754.9,0.4407515037047057
227,1762.99,0.4059339434418899
228,1775.22,0.4186028617343203
229,1783.41,0.42757971061535094
230,1795.7699999999998,0.4563668407947819
231,1804.0600000000002,0.4555108988196591
232,1816.5700000000002,0.4224227427148598
233,1824.9499999999998,0.4334016089691989
234,1833.37,0.4188203788810766
235,1846.08,0.3865590410639704
236,1854.6000000000001,0.3893133201196946
237,1863.16,0.40307740283295745
238,1876.08,0.4359830842179289
239,1884.74,0.4041233760750383
240,1893.44,0.38864367158968627
241,1905.46072,0.4106063146733139
242,1906.56,0.41261454117901863
243,1915.3600000000001,0.3995273039652666
244,1924.2,0.3931062620369066
245,1933.0900000000001,0.4050047142152865
246,1946.4899999999998,0.4239912348216186
247,1955.47,0.3983577763921307
248,1969.02,0.43561517931868293
249,1978.11,0.44870420792402316
250,1982.67,0.4254867704587152
251,1996.4199999999998,0.4146160498122276
252,2005.6299999999999,0.4270224642737439
253,2014.89,0.4142376728420003
254,2024.1899999999998,0.43353767669564863
255,2033.53,0.41284067583468903
256,2042.92,0.4290587690804695
257,2057.08,0.41124120010925025
258,2066.57,0.41379928156851087
259,2076.1099999999997,0.4410118571345114
260,2085.7000000000003,0.4366043268072521
261,2095.32,0.41374049294403675
262,2105.0,0.41815645200890944
263,2114.71,0.4225899075378262
264,2124.47,0.42902275717348304
265,2134.28,0.40089850091587986
266,2144.13,0.4097776399436687
267,2154.03,0.42564487307819765
268,2163.9700000000003,0.4125987014981186
269,2173.96,0.4092398240247796
270,2183.9900000000002,0.40310104183683265
271,2187.7616199999998,0.40999252192365343
272,2194.0699999999997,0.421520490111746
273,2204.2000000000003,0.41038674205865644
274,2214.38,0.39224989870421895
275,2224.6,0.37923085910870313
276,2234.86,0.40477092327210895
277,2245.18,0.3877094930738973
278,2255.54,0.37371026663460727
279,2265.95,0.3837958448939693
280,2276.4100000000003,0.39688772785198345
281,2286.92,0.4085491155086497
282,2297.48,0.3897828078639679
283,2302.77,0.39274970498135753
284,2313.4,0.37904510391478874
285,2324.08,0.3064083075468719
286,2334.81,0.3604731158776073
287,2345.58,0.3511226279672643
288,2356.41,0.38022404569530377
289,2367.29,0.35451856812199534
290,2372.75,0.366378181214802
291,2383.7,0.3439896102196064
292,2394.7,0.36824264392306294
293,2405.75,0.3562298823251716
294,2416.86,0.3658789263656627
295,2422.4300000000003,0.3869288497955039
296,2433.61,0.3743166004141079
297,2444.84,0.397057455731364
298,2456.13,0.3930560166870026
299,2467.47,0.39361608234129325
300,2473.15,0.38140931610816897
301,2484.57,0.39445718928030293
302,2496.04,0.375507567151089
303,2507.56,0.41613554972052713
304,2511.88643,0.3876324174647842
305,2513.34,0.3780559034219123
306,2519.13,0.38802719283937376
307,2524.94,0.37341308152943437
308,2536.59,0.37914655781845447
309,2542.44,0.3750766450537134
310,2554.18,0.4015628180694298
311,2565.9700000000003,0.395715789266644
312,2577.81,0.41880575864535624
313,2583.75,0.41718564260731156
314,2595.6800000000003,0.41493140871272005
315,2607.66,0.4032820729996265
316,2613.67,0.3998821544156789
317,2625.74,0.41838321542928164
318,2637.86,0.43074447462438237
319,2643.94,0.4640290534945319
320,2656.1400000000003,0.4733583097800293
321,2662.26,0.4380470871953771
322,2674.55,0.4583222402075708
323,2686.8999999999996,0.460084391037562
324,2693.09,0.442757065907007
325,2705.52,0.45481131382739487
326,2718.01,0.4380143595655803
327,2724.28,0.43937003152542203
328,2736.85,0.4607818743540042
329,2743.16,0.4100440448590442
330,2755.8199999999997,0.41928828441432264
331,2762.1800000000003,0.43535535310086065
332,2774.92,0.4555241897465358
333,2787.73,0.437720623846308
334,2794.16,0.36270428998694315
335,2807.06,0.38924582081341164
336,2813.53,0.4608481854992451
337,2826.5099999999998,0.47999421341611037
338,2833.03,0.46514247628344174
339,2846.11,0.4573776005633029
340,2852.67,0.44526676197583265
341,2865.84,0.48229738298239005
342,2872.44,0.48267774294011817
343,2884.0315,0.48432670613808276
344,2885.7,0.4845641201148859
345,2892.3500000000004,0.4838532151651506
346,2912.4,0.5209132002415128
347,2932.59,0.50794798521367
348,2952.92,0.5045330700816223
349,2973.38,0.5163672548528128
350,2987.11,0.5196095446332842
351,3007.82,0.5293715292183945
352,3028.6600000000003,0.533150413706743
353,3049.6600000000003,0.5369661980760001
354,3070.8,0.5420566823410523
355,3092.08,0.5484744665018995
356,3113.52,0.5511462505436553
357,3127.89,0.5482919398477613
358,3149.5699999999997,0.5547966237108801
359,3171.3999999999996,0.5600975074623508
360,3193.38,0.5400142911021731
361,3208.12,0.5586859801308803
362,3230.3599999999997,0.5436489635771793
363,3252.75,0.5720960469118301
364,3267.77,0.5905273357321273
365,3290.42,0.5921071188732546
366,3311.31121,0.5948208541007772
367,3313.2299999999996,0.5950700760218833
368,3320.86,0.5997445674580317
369,3328.52,0.6100337584673238
370,3336.19,0.6205116493343301
371,3343.88,0.5904020399167655
372,3351.5899999999997,0.6047077302146298
373,3359.32,0.6038538202279231
374,3367.06,0.5988744100989309
375,3374.82,0.5632994996853676
376,3382.6,0.5782619889872332
377,3390.4,0.615921578004528
378,3398.2200000000003,0.6193320667372515
379,3406.0499999999997,0.6016291553276897
380,3413.9,0.6063576436335567
381,3421.77,0.6296820316548527
382,3429.66,0.6216280193915777
383,3437.5699999999997,0.6294009068437316
384,3445.49,0.5772106941536002
385,3453.4300000000003,0.6422964811788975
386,3461.4,0.5958640677773382
387,3469.37,0.6086777543757791
388,3477.3700000000003,0.5893788405473634
389,3485.39,0.6087024264343766
390,3493.42,0.6045381121791044
391,3501.48,0.6115406974969755
392,3509.55,0.608760482672561
393,3517.6400000000003,0.5935444675635757
394,3525.7500000000005,0.6101853521700192
395,3533.87,0.6345631366341772
396,3542.02,0.6493577206714788
397,3550.1899999999996,0.6538873044242092
398,3558.3700000000003,0.639023288034654
399,3566.57,0.6539153713605279
400,3570.41,0.5611978167228884
401,3573.0899999999997,0.537898078590369
402,3575.77,0.46271514045784984
403,3578.44,0.488896402467616
404,3581.12,0.6758015643350967
405,3583.7999999999997,0.6005904262025775
406,3586.47,0.5675744882123438
407,3589.1499999999996,0.5407226500798246
408,3591.83,0.5222618119473051
409,3594.5,0.5233264739570714
410,3597.18,0.6592293358245521
411,3599.85,0.6023414978343185
412,3602.5299999999997,0.6105074597017992
413,3605.2099999999996,0.6811572215692799
414,3607.88,0.545283383579046
415,3610.56,0.5240813454465268
416,3613.24,0.6664031073140075
417,3615.91,0.6899279693237739
418,3618.5899999999997,0.5717552311912546
419,3621.27,0.4959987930587353
420,3623.94,0.5982154550685015
421,3626.62,0.5945083169359823
422,3629.2999999999997,0.587682578803463
423,3631.97,0.6105638408132292
424,3634.6499999999996,0.63944120268071
425,3637.33,0.6692134645481908
426,3640.0,0.6566855265579569
427,3642.68,0.5586090884254377
428,3645.36,0.6608083502929184
429,3648.0299999999997,0.6769073123026846
430,3650.7099999999996,0.6568798741701654
431,3653.3900000000003,0.6734365360376462
432,3656.06,0.6240305980474125
433,3658.74,0.612813659914893
434,3661.42,0.7137684217823738
435,3664.0899999999997,0.7065406837921401
436,3666.7699999999995,0.7284814456596208
437,3669.4500000000003,0.7801397075271015
438,3672.12,0.7740170695368678
439,3674.7999999999997,0.6006325314043485
440,3677.48,0.5715431932718292
441,3680.1499999999996,0.6311903552815955
442,3682.8300000000004,0.7616249171490762
443,3685.51,0.6927766790165569
444,3688.18,0.6127303410263232
445,3690.86,0.6269375028938038
446,3693.54,0.6094554647612845
447,3696.2099999999996,0.6781089267710508
448,3698.8900000000003,0.7070420886385316
449,3701.57,0.7316817505060124
450,3704.24,0.7914274125157786
451,3706.92,0.7496394743832593
452,3709.6,0.70876063625074
453,3712.2699999999995,0.5929271982605062
454,3714.9500000000003,0.572522260127987
455,3717.63,0.6831685219954677
456,3720.3,0.897151884005234
457,3722.98,0.8958915458727147
458,3725.6600000000003,1.1600612077401955
459,3728.3300000000004,1.3845771697499616
460,3731.01,1.4757411316174425
461,3733.68,1.3173130936272086
462,3736.36,1.0608850554946894
463,3739.04,0.7367587173621701
464,3741.7099999999996,0.7645071793719364
465,3744.3900000000003,0.814305541239417
466,3747.07,0.6860498031068978
467,3749.74,0.6784584651166641
468,3752.42,0.6289511269841448
469,3755.1,0.5703118888516255
470,3757.7700000000004,0.6922472508613917
471,3760.4500000000003,0.7354031127288725
472,3763.13,0.8518107745963532
473,3765.8,0.7178532366061194
474,3768.48,0.7597642984736002
475,3771.16,0.7504490603410809
476,3773.8300000000004,0.7338936223508471
477,3776.51,0.8261078842183278
478,3779.19,0.9902732460858086
479,3781.86,0.9193598080955748
480,3784.54,0.9644869699630556
481,3787.2200000000003,0.9619958318305364
482,3789.8900000000003,0.9073326938403026
483,3792.57,0.8483151557077833
484,3795.25,0.792290817575264
485,3797.92,0.6646124795850302
486,3800.6,0.7066353414525111
487,3801.8939600000003,0.6786201716816262
488,3803.28,0.6486114074291682
489,3805.9500000000003,0.7147896773546522
490,3808.63,0.7262558471674972
491,3811.31,0.8590256169803424
492,3813.98,0.9143524869058264
493,3816.66,0.8471679567186716
494,3819.34,0.8375169265315167
495,3822.01,0.8592800964570005
496,3824.69,0.7692586662698458
497,3827.37,0.740196936082691
498,3830.04,0.5819756060081748
499,3832.72,0.68694427582102
500,3835.4,0.5755685456338653
501,3838.07,0.5604109155593491
502,3840.75,0.6817137853721943
503,3843.43,0.6728882551850395
504,3846.1,0.7202009251105234
505,3848.78,0.7575249949233686
506,3851.46,0.8477111647362138
507,3854.13,0.9603894346616977
508,3856.81,0.8882823044745429
509,3859.49,0.8719464742873881
510,3862.16,0.9931136442128718
511,3864.84,0.9925943140257171
512,3867.52,0.9614206838385624
513,3870.19,1.0224673537640463
514,3872.87,1.0042013235768914
515,3875.54,1.0816382935023752
516,3878.22,0.9270770633152203
517,3880.9,0.8472505331280656
518,3883.57,0.7961388030535494
519,3886.25,0.8249880728663948
520,3888.93,0.7668519426792398
521,3891.6,0.7706444126047237
522,3894.2799999999997,0.7415407824175689
523,3896.96,0.7693830522304141
524,3899.63,0.8226957221558979
525,3902.31,0.8748153919687431
526,3904.99,0.8799322617815885
527,3907.66,0.9424893317070722
528,3910.34,1.0249279015199175
529,3913.02,0.9961732713327627
530,3915.69,0.9833106412582465
531,3918.37,1.0744898110710916
532,3921.0499999999997,0.9531420808839369
533,3923.72,0.9182951508094208
534,3926.4,0.838440520622266
535,3929.08,0.9436742904351112
536,3931.75,0.737024160360595
537,3934.43,0.6544847301734402
538,3937.1099999999997,0.6497846999862855
539,3939.7799999999997,0.6612543699117692
540,3942.46,0.6587080397246144
541,3945.14,0.7562644095374597
542,3947.81,0.8545658794629435
543,3950.49,0.9373123492757888
544,3953.1699999999996,0.997109519088634
545,3955.8399999999997,0.9277061890141178
546,3958.52,0.919047958826963
547,3961.2000000000003,0.8004977286398082
548,3963.87,0.7861659985652921
549,3966.5499999999997,0.7356656683781373
550,3969.2300000000005,0.6478682381909825
551,3971.9,0.6244459081164663
552,3974.58,0.6587772779293115
553,3977.26,0.6816271477421568
554,3979.93,0.8483560176676406
555,3982.6099999999997,0.8781279874804858
556,3985.2900000000004,0.919521357293331
557,3987.96,0.9793092272188147
558,3990.64,1.11276399703166
559,3993.32,1.1211529668445053
560,3995.99,1.152468936769989
561,3998.6699999999996,1.0868079065828342
562,4001.3399999999997,1.1213398765083182
563,4004.02,1.1116468463211633
564,4006.7000000000003,1.1223148161340084
565,4009.37,1.1165427860594925
566,4012.0499999999997,1.1874717558723378
567,4014.73,1.2142087256851828
568,4017.3999999999996,1.1574906956106668
569,4020.08,1.189303665423512
570,4022.76,1.1529696352363572
571,4025.43,1.138037605161841
572,4028.1099999999997,1.1130305749746863
573,4030.7900000000004,1.1568425447875315
574,4033.46,1.0798185147130153
575,4036.14,1.0895784845258605
576,4038.82,1.1650794543387057
577,4041.49,1.1628454242641895
578,4044.17,1.2283203940770346
