,lambda (Angstroms),Total Flux (erg/s/cm^2/Angstrom)
0,100.05999999999999,56.927380037695116
1,101.92,56.76901560366101
2,104.05,56.58766278404133
3,104.712855,56.531225871717844
4,105.99000000000001,55.960036356190706
5,107.96,55.07897481220904
6,109.96000000000001,54.18449608735455
7,114.09,52.33739752053004
8,118.1,50.54396767719681
9,120.22644299999999,49.59293866563896
10,121.13000000000001,49.254137993710884
11,125.10000000000001,47.76553387957697
12,127.13000000000001,47.00435847612816
13,128.01,46.67439081354939
14,130.99,45.55700031981665
15,131.9,45.215783759649995
16,134.05,44.40961276584959
17,136.85,43.35971565764455
18,138.038426,42.91409957881752
19,140.04000000000002,42.37764251328634
20,142.97,41.59235093675573
21,146.98,40.517600349084816
22,151.1,39.41336782509223
23,154.97,38.3761397018307
24,158.489319,37.43290025957896
25,158.95,37.33955420883375
26,161.9,36.74180685286152
27,166.05,35.900908030059675
28,169.92,35.11674454952978
29,173.08,34.47644568688221
30,177.11,33.65986201079952
31,179.99,33.076298490438894
32,181.970086,32.67508114434026
33,182.07999999999998,32.6580901476985
34,185.89000000000001,32.06912334454682
35,191.1,31.26373829355711
36,194.2,30.78452645903667
37,197.81,30.226476548587993
38,201.95000000000002,29.586496872934298
39,205.23,29.07945983526047
40,208.929613,28.507557147514692
41,210.02,28.380833663433478
42,215.9,27.69746703683254
43,219.91,27.23142959265231
44,222.97,26.875800021834188
45,227.12,26.39349194406932
46,229.75,26.087836467459557
47,234.01999999999998,25.59158214092295
48,239.88329199999998,24.91015730979526
49,240.01999999999998,24.897913844759028
50,246.18,24.346228899767095
51,251.91000000000003,23.83305443722827
52,257.19,23.36018162173808
53,260.16999999999996,23.093295086763725
54,263.79,22.769090633406776
55,269.31,22.27472361480615
56,273.69,21.882454137754163
57,275.42287,21.727259615179744
58,278.77,21.497202258376763
59,283.96000000000004,21.14047943232817
60,289.9,20.732207061450612
61,295.96999999999997,20.314999450986118
62,300.78000000000003,19.984395065271112
63,307.79,19.502578710580703
64,316.227766,18.922628131788976
65,317.87,18.838321423526292
66,328.28999999999996,18.303394069120362
67,338.26,17.791568202564413
68,347.74,17.30489729421982
69,356.66,16.846974896696373
70,363.078055,16.517493849542088
71,365.81,16.41246242728054
72,375.18999999999994,16.051842150674105
73,384.81,15.68199490993813
74,394.69,15.302151928056993
75,404.81000000000006,14.913081980852322
76,414.24,14.550539510645319
77,416.86938299999997,14.44945118135119
78,421.94,14.300580500364608
79,429.78000000000003,14.070402193412669
80,440.81,13.746567233301947
81,451.08000000000004,13.445045442516578
82,460.52000000000004,13.167891998978467
83,470.17,12.884573163765655
84,478.630092,12.636189456483862
85,480.01000000000005,12.60503098848605
86,490.06,12.378100799732477
87,500.32,12.146429009276854
88,506.11999999999995,12.01546466478907
89,511.98,11.883148236820558
90,520.3,11.695282219826167
91,529.97,11.476933231707877
92,539.82,11.254519240592396
93,549.5408739999999,11.035024045147093
94,549.86,11.029527139932238
95,560.08,10.853488648315547
96,570.49,10.67417730690398
97,579.76,10.514500119241688
98,590.5400000000001,10.328817942459564
99,600.14,10.163458350913533
100,609.89,9.995518503889441
101,619.8,9.824825163648082
102,629.87,9.651373513549455
103,630.957344,9.632644179845146
104,640.1,9.507803395951969
105,650.51,9.365664253582054
106,658.04,9.26284854849448
107,665.66,9.158803912603707
108,674.92,9.032363133387989
109,684.3100000000001,8.90414512558432
110,695.43,8.752331635132508
111,705.1,8.620286586735556
112,716.56,8.46383181686833
113,724.43596,8.356296123893276
114,726.53,8.335073819256452
115,734.94,8.249843718736157
116,745.16,8.14628628973932
117,755.53,8.04120065772785
118,764.28,7.952535517174395
119,774.9100000000001,7.8448269393375645
120,785.69,7.735598310486106
121,794.79,7.643390717898512
122,805.84,7.531419141520716
123,815.18,7.436779215609712
124,824.61,7.3412593065899285
125,831.763771,7.2686945021724165
126,834.1600000000001,7.250521637627725
127,845.77,7.162698429412298
128,855.56,7.088563939233312
129,865.47,7.013552624824449
130,875.49,6.937712577879868
131,885.63,6.860981605605412
132,895.88,6.783400175595237
133,904.17,6.720625571439691
134,914.64,6.641905173958078
135,925.2299999999999,6.57172547514659
136,935.9499999999999,6.505666291411069
137,944.61,6.46691711647174
138,954.992586,6.411648244640845
139,955.55,6.408772228444791
140,964.39,6.357047945399084
141,975.5500000000001,6.197423891599299
142,984.58,6.199974728793562
143,995.98,6.121958213191633
144,1005.1999999999999,6.097440590625862
145,1014.5,6.02555307079271
146,1023.89,5.880388745283752
147,1035.74,5.833118181302799
148,1045.32,5.856236916033811
149,1055.0,5.785513516680593
150,1064.76,5.676930290059994
151,1074.61,5.637771007763591
152,1084.55,5.528285569791383
153,1094.59,5.507745647734948
154,1096.4782,5.492974000466042
155,1104.72,5.439570674244176
156,1114.94,5.373920587814679
157,1125.26,5.295006473925013
158,1135.67,5.284926725321192
159,1146.18,5.203364749257199
160,1154.1200000000001,5.173355908919607
161,1164.8,5.121498656173326
162,1175.58,4.983377675966872
163,1183.73,5.006957287962918
164,1194.68,4.8652606310741735
165,1205.73,4.750717046725258
166,1214.09,4.654899091054945
167,1225.32,4.682335657277722
168,1233.8200000000002,4.72965672316317
169,1245.23,4.694196799957638
170,1253.87,4.632874567398847
171,1258.92541,4.585157604727364
172,1265.47,4.534789117591114
173,1274.24,4.578542691602636
174,1286.03,4.549518677417442
175,1294.94,4.439097815552294
176,1303.92,4.401154885748813
177,1315.99,4.426219899810281
178,1325.11,4.376006334130131
179,1334.29,4.300057167359979
180,1343.54,4.325370232651494
181,1355.97,4.264140740172955
182,1365.37,4.187427002739468
183,1374.84,4.168115897367644
184,1384.3700000000001,4.13565019090582
185,1393.9599999999998,4.050807983353996
186,1403.62,4.026551707863836
187,1416.6100000000001,3.980651771878622
188,1426.4299999999998,3.9518832268151276
189,1436.3200000000002,3.9100427138132963
190,1442.95,3.9053117933681882
191,1445.43977,3.9010842981202085
192,1446.28,3.9007554838898795
193,1456.3000000000002,3.862120311359256
194,1466.3999999999999,3.8048050326607243
195,1476.5600000000002,3.776736849336259
196,1483.3799999999999,3.766415223522003
197,1493.66,3.745302030945674
198,1504.01,3.696966932972426
199,1510.95,3.636644997906306
200,1517.93,3.6405084597562314
201,1524.9299999999998,3.6115262200641793
202,1535.5,3.53685250512918
203,1546.15,3.539887584026272
204,1553.29,3.5014141335403792
205,1564.05,3.4773530039565963
206,1574.8899999999999,3.4698171682049033
207,1585.81,3.456654726285302
208,1596.8,3.43501477896878
209,1604.17,3.407735310750147
210,1615.29,3.3784617534107735
211,1626.4899999999998,3.3255582899034906
212,1634.0,3.3294876108910167
213,1645.3200000000002,3.304437038131869
214,1656.7299999999998,3.2401611584338257
215,1659.58691,3.246292277826824
216,1664.38,3.2609156545389757
217,1672.06,3.201429604034407
218,1675.9099999999999,3.240053226633029
219,1683.6499999999999,3.2442659632338926
220,1695.32,3.1949822052406223
221,1703.1399999999999,3.164361124648731
222,1714.95,3.1204571365681373
223,1726.8400000000001,3.0948291312947873
224,1734.81,3.106206668466479
225,1746.8300000000002,3.0725868852549003
226,1754.9,3.0851781009356465
227,1762.99,3.033247712318204
228,1775.22,3.020046433975642
229,1783.41,3.011698923867254
230,1795.7699999999998,3.0143408675864642
231,1804.0600000000002,2.995949035987131
232,1816.5700000000002,2.9363983974699233
233,1824.9499999999998,2.9296509965287405
234,1833.37,2.897258886991179
235,1846.08,2.8381120054920816
236,1854.6000000000001,2.822843874463575
237,1863.16,2.8185009348386916
238,1876.08,2.8240768582086098
239,1884.74,2.773898597092781
240,1893.44,2.740015727380574
241,1905.46072,2.7365508651417008
242,1906.56,2.7368552655489307
243,1915.3600000000001,2.7101284918507718
244,1924.2,2.690005915544894
245,1933.0900000000001,2.6881253359793673
246,1946.4899999999998,2.686342562393535
247,1955.47,2.6467905769606404
248,1969.02,2.663046193595861
249,1978.11,2.6620462009917403
250,1982.67,2.631761003711785
251,1996.4199999999998,2.599578507308412
252,2005.6299999999999,2.5977099068811342
253,2014.89,2.5705726031942073
254,2024.1899999999998,2.5754580968995624
255,2033.53,2.5402845879971983
256,2042.92,2.5419486758351852
257,2057.08,2.502183852702693
258,2066.57,2.4900329340213827
259,2076.1099999999997,2.5024590120804246
260,2085.7000000000003,2.483187486879817
261,2095.32,2.44541315972342
262,2105.0,2.4348256286554455
263,2114.71,2.424209095631682
264,2124.47,2.415514459348269
265,2134.28,2.372185219805207
266,2144.13,2.365797377654427
267,2154.03,2.366320132243998
268,2163.9700000000003,2.3378674842258502
269,2173.96,2.3190246329480537
270,2183.9900000000002,2.2973398790625383
271,2187.7616199999998,2.298385546808983
272,2194.0699999999997,2.303297359286717
273,2204.2000000000003,2.2815393848322483
274,2214.38,2.252725875656879
275,2224.6,2.228988218704789
276,2234.86,2.2437677139759793
277,2245.18,2.215882787582088
278,2255.54,2.1910181134114763
279,2265.95,2.190185804519965
280,2276.4100000000003,2.192307360907551
281,2286.92,2.1929459825742383
282,2297.48,2.1631044695200243
283,2302.77,2.160523276048737
284,2313.4,2.1356700543852623
285,2324.08,2.051832198000887
286,2334.81,2.0946435068956104
287,2345.58,2.073997568013614
288,2356.41,2.0917406074665363
289,2367.29,2.054624312198558
290,2372.75,2.060757540676209
291,2383.7,2.02688473679897
292,2394.7,2.0396010982008304
293,2405.75,2.01599922488179
294,2416.86,2.013996229897669
295,2422.4300000000003,2.029204401989338
296,2433.61,2.004866698395956
297,2444.84,2.015829660081674
298,2456.13,1.9999874001023104
299,2467.47,1.9886542054020468
300,2473.15,1.9704903211077345
301,2484.57,1.9715610308540297
302,2496.04,1.940581805879424
303,2507.56,1.969127746183918
304,2511.88643,1.936087104369466
305,2513.34,1.9253748725599062
306,2519.13,1.9308222616016555
307,2524.94,1.911668623317124
308,2536.59,1.9082996057586403
309,2542.44,1.8996589128215478
310,2554.18,1.9169722722948013
311,2565.9700000000003,1.9019133634523526
312,2577.81,1.9157523862942032
313,2583.75,1.9094911703888473
314,2595.6800000000003,1.897915670262434
315,2607.66,1.8769060018203199
316,2613.67,1.8688102902729817
317,2625.74,1.8778806988626042
318,2637.86,1.8807722391365251
319,2643.94,1.9093063319472048
320,2656.1400000000003,1.9091033629160026
321,2662.26,1.8690104010741213
322,2674.55,1.8796830090746564
323,2686.8999999999996,1.8717957350963499
324,2693.09,1.8496319776124859
325,2705.52,1.8519742943290567
326,2718.01,1.825418529066785
327,2724.28,1.8218752622777985
328,2736.85,1.8334657877104048
329,2743.16,1.7777977662688569
330,2755.8199999999997,1.7771503687332002
331,2762.1800000000003,1.7882481789759501
332,2774.92,1.798462872135171
333,2787.73,1.770650469652409
334,2794.16,1.6906101842531773
335,2807.06,1.7070725588021523
336,2813.53,1.7736197187503588
337,2826.5099999999998,1.7826240839942118
338,2833.03,1.7626780756267169
339,2846.11,1.744693404239166
340,2852.67,1.72745704121911
341,2865.84,1.7541975468632962
342,2872.44,1.7494211291906787
343,2884.0315,1.742013306342863
344,2885.7,1.7413299893297667
345,2892.3500000000004,1.7369494043783331
346,2912.4,1.762945166291681
347,2932.59,1.7388384716797356
348,2952.92,1.7242048205424971
349,2973.38,1.7247485312032
350,2987.11,1.7204141734012182
351,3007.82,1.7187477259810404
352,3028.6600000000003,1.7110264403588045
353,3049.6600000000003,1.7032537615648047
354,3070.8,1.6966785262455115
355,3092.08,1.691353334400925
356,3113.52,1.682193849384575
357,3127.89,1.6714097188955384
358,3149.5699999999997,1.6659506941215425
359,3171.3999999999996,1.659205094499018
360,3193.38,1.6269926200279645
361,3208.12,1.6375303115792237
362,3230.3599999999997,1.6102205607040547
363,3252.75,1.6263121349803566
364,3267.77,1.6364549134810291
365,3290.42,1.6255357113532152
366,3311.31121,1.6167210171749824
367,3313.2299999999996,1.6162202644339831
368,3320.86,1.6179125083746448
369,3328.52,1.6252077261446938
370,3336.19,1.6326877351912041
371,3343.88,1.5995724267906395
372,3351.5899999999997,1.6108646009429994
373,3359.32,1.6069893576482834
374,3367.06,1.5989847056300297
375,3374.82,1.5603767361647
376,3382.6,1.572298349252295
377,3390.4,1.6069092448928148
378,3398.2200000000003,1.6072632230862585
379,3406.0499999999997,1.5864998925561649
380,3413.9,1.5881601445789952
381,3421.77,1.6084084791547502
382,3429.66,1.5972705962834295
383,3437.5699999999997,1.6019517959650331
384,3445.49,1.5466659869230992
385,3453.4300000000003,1.6086483604340893
386,3461.4,1.5591008077744664
387,3469.37,1.5687993551148434
388,3477.3700000000003,1.546373576284607
389,3485.39,1.562562480007295
390,3493.42,1.555259575006445
391,3501.48,1.559111843834982
392,3509.55,1.5531774039399808
393,3517.6400000000003,1.5347993465979044
394,3525.7500000000005,1.5482703718087523
395,3533.87,1.5694743882960622
396,3542.02,1.5810834786127588
397,3550.1899999999996,1.5824197514823801
398,3558.3700000000003,1.564358515628463
399,3566.57,1.5760455623274707
400,3570.41,1.4818271124889575
401,3573.0899999999997,1.4574798745808282
402,3575.77,1.3812494366726988
403,3578.44,1.4063871074881074
404,3581.12,1.5922447695799784
405,3583.7999999999997,1.5159861316718493
406,3586.47,1.4819266024872577
407,3589.1499999999996,1.4540272645791288
408,3591.83,1.4345189266709992
409,3594.5,1.4345399974864077
410,3597.18,1.5693953595782786
411,3599.85,1.5114639303936874
412,3602.5299999999997,1.5185823924855582
413,3605.2099999999996,1.5881846545774292
414,3607.88,1.4512672253928374
415,3610.56,1.4290176874847083
416,3613.24,1.570291949576579
417,3615.91,1.5927732203919878
418,3618.5899999999997,1.4735529824838585
419,3621.27,1.3967490445757293
420,3623.94,1.4979221153911377
421,3626.62,1.4931674774830088
422,3629.2999999999997,1.4852942395748796
423,3631.97,1.5071319103902878
424,3634.6499999999996,1.534961772482159
425,3637.33,1.5636865345740296
426,3640.0,1.5501150053894381
427,3642.68,1.450991067481309
428,3645.36,1.5521428295731798
429,3648.0299999999997,1.5671982003885883
430,3650.7099999999996,1.5461232624804593
431,3653.3900000000003,1.5616324245723299
432,3656.06,1.5111828953877384
433,3658.74,1.4989184574796095
434,3661.42,1.59882571957148
435,3664.0899999999997,1.5905543903868888
436,3666.7699999999995,1.6114476524787598
437,3669.4500000000003,1.66205841457063
438,3672.12,1.654892185386039
439,3674.7999999999997,1.48046014747791
440,3677.48,1.4503233095697805
441,3680.1499999999996,1.5089268803851894
442,3682.8300000000004,1.6383139424770596
443,3685.51,1.5684182045689306
444,3688.18,1.4873282753843393
445,3690.86,1.5004879374762101
446,3693.54,1.481958399568081
447,3696.2099999999996,1.5495682703834897
448,3698.8900000000003,1.5774539324753603
449,3701.57,1.6010460945672311
450,3704.24,1.6597481653826398
451,3706.92,1.6169127274745105
452,3709.6,1.5749863895663814
453,3712.2699999999995,1.45810936038179
454,3714.9500000000003,1.4366569224736607
455,3717.63,1.5462556845655313
456,3720.3,1.75919545538094
457,3722.98,1.756887617472811
458,3725.6600000000003,2.0200097795646816
459,3728.3300000000004,2.24348215038009
460,3731.01,2.333598612471961
461,3733.68,2.17412698328737
462,3736.36,1.9166514453792405
463,3739.04,1.5914776074711112
464,3741.7099999999996,1.6181824782865202
465,3744.3900000000003,1.6669333403783906
466,3747.07,1.5376301024702614
467,3749.74,1.52899517328567
468,3752.42,1.4784403353775408
469,3755.1,1.4187535974694117
470,3757.7700000000004,1.5396453682848201
471,3760.4500000000003,1.581753730376691
472,3763.13,1.6971138924685616
473,3765.8,1.5621127632839702
474,3768.48,1.6029763253758411
475,3771.16,1.592613587467712
476,3773.8300000000004,1.5750145582831203
477,3776.51,1.6661813203749913
478,3779.19,1.829299182466862
479,3781.86,1.7573421532822708
480,3784.54,1.8014218153741415
481,3787.2200000000003,1.7978831774660122
482,3789.8900000000003,1.7421764482814208
483,3792.57,1.6821114103732917
484,3795.25,1.6250395724651625
485,3797.92,1.4963176432805712
486,3800.6,1.537293005372442
487,3801.8939600000003,1.5087720808218377
488,3803.28,1.4783786953710225
489,3805.9500000000003,1.5438160497387927
490,3808.63,1.5545385290292888
491,3811.31,1.6865646083197845
492,3813.98,1.7411505626875547
493,3816.66,1.6732223419780508
494,3819.34,1.6628276212685467
495,3822.01,1.6838498756363167
496,3824.69,1.5930847549268128
497,3827.37,1.5632793342173088
498,3830.04,1.4043170885850789
499,3832.72,1.508542067875575
500,3835.4,1.3964226471660708
501,3838.07,1.380524101533841
502,3840.75,1.5010832808243368
503,3843.43,1.491514060114833
504,3846.1,1.538085814482603
505,3848.78,1.574666193773099
506,3851.46,1.6641086730635948
507,3854.13,1.7760460274313652
508,3856.81,1.703195206721861
509,3859.49,1.686115686012357
510,3862.16,1.8065419403801273
511,3864.84,1.8052789196706232
512,3867.52,1.7733615989611191
513,3870.19,1.8336673533288894
514,3872.87,1.8146576326193853
515,3875.54,1.8913536869871552
516,3878.22,1.7360487662776511
517,3880.9,1.6554785455681473
518,3883.57,1.6036258999359174
519,3886.25,1.6317314792264135
520,3888.93,1.5728516585169094
521,3891.6,1.5759032128846795
522,3894.2799999999997,1.5460558921751755
523,3896.96,1.5731544714656711
524,3899.63,1.6257262258334415
525,3902.31,1.6771022051239375
526,3904.99,1.6814753844144334
527,3907.66,1.7432915387822037
528,3910.34,1.8249864180726996
529,3913.02,1.7954880973631955
530,3915.69,1.7818845517309656
531,3918.37,1.8723200310214616
532,3921.0499999999997,1.7502286103119575
533,3923.72,1.7146407646797277
534,3926.4,1.6340424439702237
535,3929.08,1.7385325232607196
536,3931.75,1.53114147762849
537,3934.43,1.4478583569189856
538,3937.1099999999997,1.4424146362094818
539,3939.7799999999997,1.453143390577252
540,3942.46,1.4498533698677478
541,3945.14,1.5466660491582438
542,3947.81,1.644226603526014
543,3950.49,1.72622938281651
544,3953.1699999999996,1.7852828621070058
545,3955.8399999999997,1.7151386164747762
546,3958.52,1.705736695765272
547,3961.2000000000003,1.586442775055768
548,3963.87,1.5713701294235383
549,3966.5499999999997,1.520126108714034
550,3969.2300000000005,1.4315849880045297
551,3971.9,1.4074217423722999
552,3974.58,1.441009421662796
553,3977.26,1.4631156009532922
554,3979.93,1.6291035553210622
555,3982.6099999999997,1.658131834611558
556,3985.2900000000004,1.698781513902054
557,3987.96,1.7578284682698242
558,3990.64,1.8905395475603204
559,3993.32,1.898184826850816
560,3995.99,1.9287598812185862
561,3998.6699999999996,1.8623551605090825
562,4001.3399999999997,1.8961462148768526
563,4004.02,1.8857094941673485
564,4006.7000000000003,1.8956337734578441
565,4009.37,1.8891208278256146
566,4012.0499999999997,1.9593061071161106
567,4014.73,1.9852993864066064
568,4017.3999999999996,1.9278404407743768
569,4020.08,1.9589097200648726
570,4022.76,1.9218319993553683
571,4025.43,1.906159053723139
572,4028.1099999999997,1.8804083330136347
573,4030.7900000000004,1.9234766123041305
574,4033.46,1.8457116666719007
575,4036.14,1.8547279459623969
576,4038.82,1.9294852252528927
577,4041.49,1.926510279620663
578,4044.17,1.9912415589111587
579,4046.8500000000004,1.8898758382016547
580,4049.52,1.9162128925694248
581,4052.2000000000003,1.9045451718599207
582,4054.88,1.8959124511504166
583,4057.5499999999997,1.858227505518187
584,4060.23,1.782592784808683
585,4062.9100000000003,1.9478190640991786
586,4065.58,1.928957118466949
587,4068.26,1.8593363977574449
588,4070.94,1.8450676770479408
589,4073.6099999999997,1.8653777314157112
590,4076.29,1.8513880107062068
591,4078.9700000000003,1.8347142899967026
592,4081.6400000000003,1.863233344364473
593,4084.32,1.8583196236549688
594,4087.0,1.864706902945465
595,4089.67,1.927305957313235
596,4092.3500000000004,1.900297236603731
597,4095.03,1.819335515894227
598,4097.7,1.7739445702619974
599,4100.38,1.7462224495524932
600,4103.06,1.6958590288429891
601,4105.7300000000005,1.6764654832107593
