,lambda (Angstroms),Total Flux (erg/s/cm^2/Angstrom)
0,100.05999999999999,0.022138033538169566
1,101.92,0.026612539844415816
2,104.05,0.03173657125963326
3,104.712855,0.03333116743040042
4,105.99000000000001,0.03076764933976169
5,107.96,0.026813414982223505
6,109.96000000000001,0.022798963857819578
7,114.09,0.014509122285926178
8,118.1,0.006460147781499334
9,120.22644299999999,0.002191897035355371
10,121.13000000000001,0.002107976922482859
11,125.10000000000001,0.0017392532580056534
12,127.13000000000001,0.001550711938395801
13,128.01,0.00146897974074005
14,130.99,0.0011922047986833403
15,131.9,0.0011076862761486704
16,134.05,0.0009079996569132283
17,136.85,0.0006479426645637793
18,138.038426,0.0005375646319992337
19,140.04000000000002,0.0005309990387079534
20,142.97,0.0005213880102316886
21,146.98,0.0005082343542052069
22,151.1,0.0004947198731706168
23,154.97,0.00048202544895777316
24,158.489319,0.000470481336824506
25,158.95,0.00046815952031987443
26,161.9,0.0004532916248325022
27,166.05,0.00043237577840240116
28,169.92,0.0004128711322063561
29,173.08,0.000396944865151607
30,177.11,0.00037663385001006995
31,179.99,0.00036211879820243674
32,181.970086,0.00035213927106385486
33,182.07999999999998,0.00035231753882554917
34,185.89000000000001,0.0003584969488165211
35,191.1,0.0003669470473734211
36,194.2,0.00037197497868584023
37,197.81,0.0003778301593164368
38,201.95000000000002,0.0003845450057028882
39,205.23,0.0003898650227564053
40,208.929613,0.0003958657110870423
41,210.02,0.0004066053159823275
42,215.9,0.0004645199782041565
43,219.91,0.0005040163533040516
44,222.97,0.0005341557843730342
45,227.12,0.000575031462043759
46,229.75,0.0006009398050206228
47,234.01999999999998,0.0006430063285679153
48,239.88329199999998,0.0007007679546192996
49,240.01999999999998,0.0006996590826147564
50,246.18,0.0006496876963536682
51,251.91000000000003,0.0006032119692892791
52,257.19,0.0005603738553812039
53,260.16999999999996,0.0005362124759687297
54,263.79,0.0005068572444386093
55,269.31,0.00046208771901516676
56,273.69,0.0004265691723497178
57,275.42287,0.0004125168433944438
58,278.77,0.00044152414180101033
59,283.96000000000004,0.0004865050460906083
60,289.9,0.0005379825885873724
61,295.96999999999997,0.0005906010651320462
62,300.78000000000003,0.0006322946263046795
63,307.79,0.0006930741824650029
64,316.227766,0.0007662471058739939
65,317.87,0.0007558436556796057
66,328.28999999999996,0.0006898404007740437
67,338.26,0.0006267061841481837
68,347.74,0.0005667008061291115
69,356.66,0.000510258394689225
70,363.078055,0.0004696689238550877
71,365.81,0.0004832533173781176
72,375.18999999999994,0.0005298870713427912
73,384.81,0.0005777079203470734
74,394.69,0.0006269514508109303
75,404.81000000000006,0.0006773808823143956
76,414.24,0.0007243525408289875
77,416.86938299999997,0.0007374563772087932
78,421.94,0.0007526824811117278
79,429.78000000000003,0.0007762447670581476
80,440.81,0.0008094756887161845
81,451.08000000000004,0.0008403886116498239
82,460.52000000000004,0.0008687876252791866
83,470.17,0.0008979164616481854
84,478.630092,0.0009235194253247843
85,480.01000000000005,0.0009182202270680176
86,490.06,0.0008794955678840836
87,500.32,0.0008401848742933209
88,506.11999999999995,0.0008181778738190109
89,511.98,0.000798663297657035
90,520.3,0.0007671718023007832
91,529.97,0.0007306670464720623
92,539.82,0.0006928870085803454
93,549.5408739999999,0.0006587198356197471
94,549.86,0.0006584367024313664
95,560.08,0.0006490924275528117
96,570.49,0.000639455891546378
97,579.76,0.0006286279023072193
98,590.5400000000001,0.0006210311930517574
99,600.14,0.0006117150365904928
100,609.89,0.0006057414550282708
101,619.8,0.0006021125793583611
102,629.87,0.0005960117695807636
103,630.957344,0.0005950770072726188
104,640.1,0.0006144345734585899
105,650.51,0.0006433965915875393
106,658.04,0.0006639860325396039
107,665.66,0.000684763728403446
108,674.92,0.0007066787137707922
109,684.3100000000001,0.0007267593062329286
110,695.43,0.0007777569231103463
111,705.1,0.0007947228808535686
112,716.56,0.0008477797462865909
113,724.43596,0.0008731149591336513
114,726.53,0.0008783084337818567
115,734.94,0.0009012399078471939
116,745.16,0.0009449984237743926
117,755.53,0.0009811192995243978
118,764.28,0.0010156255891880955
119,774.9100000000001,0.001064447288630965
120,785.69,0.0011137833478966404
121,794.79,0.001153823477146886
122,805.84,0.001197229684093613
123,815.18,0.0012378410890603487
124,824.61,0.001310808609920768
125,831.763771,0.0012645140548728027
126,834.1600000000001,0.0012415974231444668
127,845.77,0.0013569356778120358
128,855.56,0.0013756212044438618
129,865.47,0.0014264080461110114
130,875.49,0.001481644101560541
131,885.63,0.0015548803720453945
132,895.88,0.001610840656312628
133,904.17,0.0016278428950029077
134,914.64,0.0022111992068349013
135,925.2299999999999,0.01224417973370222
136,935.9499999999999,0.027382344676857802
137,944.61,0.054227296561906994
138,954.992586,0.07760007171126543
139,955.55,0.07885589001065149
140,964.39,0.09265815803774646
141,975.5500000000001,0.01575766871448631
142,984.58,0.08524343307926774
143,995.98,0.09172948334045358
144,1005.1999999999999,0.13555516404292142
145,1014.5,0.13260394794020464
146,1023.89,0.05704305168165509
147,1035.74,0.09761068116367723
148,1045.32,0.19174122124281412
149,1055.0,0.19277087781547017
150,1064.76,0.15653370758294155
151,1074.61,0.1903876071945802
152,1084.55,0.15458247665038613
153,1094.59,0.2084641125997112
154,1096.4782,0.20768875873981704
155,1104.72,0.20429853681903926
156,1114.94,0.2006657191848457
157,1125.26,0.18437569668143303
158,1135.67,0.23746617979572315
159,1146.18,0.21968125804079416
160,1154.1200000000001,0.23785413142479644
161,1164.8,0.25080553139219497
162,1175.58,0.17810002649037437
163,1183.73,0.2511356796490165
164,1194.68,0.17588609646952344
165,1205.73,0.12839640842081124
166,1214.09,0.08330882135409322
167,1225.32,0.1788915645407866
168,1233.8200000000002,0.27779255065716185
169,1245.23,0.31157108507926085
170,1253.87,0.30267832437872927
171,1258.92541,0.28563873165249754
172,1265.47,0.2635871109889697
173,1274.24,0.34528636516774197
174,1286.03,0.36727484461674137
175,1294.94,0.2954054092385043
176,1303.92,0.2963167790817625
177,1315.99,0.3736057794167432
178,1325.11,0.3628522597029921
179,1334.29,0.3266227444648085
180,1343.54,0.3919583344481201
181,1355.97,0.38451046163650543
182,1365.37,0.3484682628087357
183,1374.84,0.37013156920246126
184,1384.3700000000001,0.3788998800717543
185,1393.9599999999998,0.33555129541661466
186,1403.62,0.3530915159829704
187,1416.6100000000001,0.3633961849433184
188,1426.4299999999998,0.37711641744452057
189,1436.3200000000002,0.3780675551672182
190,1442.95,0.40202304971741887
191,1445.43977,0.40856819028586017
192,1446.28,0.41077698803887913
193,1456.3000000000002,0.40240361534061236
194,1466.3999999999999,0.3755917476507427
195,1476.5600000000002,0.37820818371717085
196,1483.3799999999999,0.38848391068302124
197,1493.66,0.398417754262045
198,1504.01,0.3813411022234162
199,1510.95,0.34197893670186225
200,1517.93,0.3669229736845067
201,1524.9299999999998,0.35908171191925053
202,1535.5,0.3163308736537137
203,1546.15,0.3515304403965739
204,1553.29,0.3346207873960126
205,1564.05,0.34305636102541875
206,1574.8899999999999,0.368258839663222
207,1585.81,0.3880763233094223
208,1596.8,0.3996277113379701
209,1604.17,0.39460667273655037
210,1615.29,0.39891706890374334
211,1626.4899999999998,0.37983917007933343
212,1634.0,0.4064497402426086
213,1645.3200000000002,0.4155871489307943
214,1656.7299999999998,0.38577106325342664
215,1659.58691,0.40053044996768944
216,1664.38,0.42529443347414053
217,1672.06,0.3820567447112075
218,1675.9099999999999,0.4288257049016642
219,1683.6499999999999,0.4494137435702707
220,1695.32,0.4248198790047201
221,1703.1399999999999,0.4107433542487128
222,1714.95,0.3918254536900878
223,1726.8400000000001,0.391352789706849
224,1734.81,0.4195922335296906
225,1746.8300000000002,0.41140282898145425
226,1754.9,0.44106751852352855
227,1762.99,0.4062529172094493
228,1775.22,0.41892630867160147
229,1783.41,0.42790615307675484
230,1795.7699999999998,0.4566978039739095
231,1804.0600000000002,0.45584489409829554
232,1816.5700000000002,0.4227613135742991
233,1824.9499999999998,0.4337432448459945
234,1833.37,0.419165094405383
235,1846.08,0.3869084053198519
236,1854.6000000000001,0.38966580059847306
237,1863.16,0.4034330141647873
238,1876.08,0.43634342108964463
239,1884.74,0.4044868803751915
240,1893.44,0.38901035794843136
241,1905.46072,0.4109773976568126
242,1906.56,0.41298510589509313
243,1915.3600000000001,0.3998937198263328
244,1924.2,0.39346851018453266
245,1933.0900000000001,0.40536277107643265
246,1946.4899999999998,0.4243429741080931
247,1955.47,0.3987052819606535
248,1969.02,0.4359562965934146
249,1978.11,0.4490410396201156
250,1982.67,0.4258214522935761
251,1996.4199999999998,0.4149442490611381
252,2005.6299999999999,0.42734632136871953
253,2014.89,0.4145571642100013
254,2024.1899999999998,0.4338527834782432
255,2033.53,0.4131513791734453
256,2042.92,0.4293650454023476
257,2057.08,0.4115408005462514
258,2066.57,0.4140944078425542
259,2076.1099999999997,0.44130248567255714
260,2085.7000000000003,0.4368904340362604
261,2095.32,0.4140220647201837
262,2105.0,0.41843346004454735
263,2114.71,0.4228623376891311
264,2124.47,0.4292905858674151
265,2134.28,0.40116170457939926
266,2144.13,0.41003619971834365
267,2154.03,0.42589876539098825
268,2163.9700000000003,0.4128479074905931
269,2173.96,0.40948432012389807
270,2183.9900000000002,0.40334080918416326
271,2187.7616199999998,0.4102305111000151
272,2194.0699999999997,0.42176085055872997
273,2204.2000000000003,0.4106309102932822
274,2214.38,0.3924978935210947
275,2224.6,0.3794826955435156
276,2234.86,0.4050266163605447
277,2245.18,0.3879690653694864
278,2255.54,0.3739737331730363
279,2265.95,0.38406322446984653
280,2276.4100000000003,0.39715903925991725
281,2286.92,0.4088243775432483
282,2297.48,0.3900620393198397
283,2302.77,0.3930309249067875
284,2313.4,0.3793303195739435
285,2324.08,0.30669753773435976
286,2334.81,0.36076637938803646
287,2345.58,0.3514199398363214
288,2356.41,0.3805254284765189
289,2367.29,0.3548240406099767
290,2372.75,0.3666857060740098
291,2383.7,0.3443012510980321
292,2394.7,0.3685584196153148
293,2405.75,0.35654981162585797
294,2416.86,0.36620303182831354
295,2422.4300000000003,0.38725504897751944
296,2433.61,0.3746470020705395
297,2444.84,0.39739207865681997
298,2456.13,0.3933948834350129
299,2467.47,0.39395921170646614
300,2473.15,0.3817545805408449
301,2484.57,0.39480674640151475
302,2496.04,0.375861435755445
303,2507.56,0.41649374860263566
304,2511.88643,0.38799224261803655
305,2513.34,0.3784155171095615
306,2519.13,0.3883859641968688
307,2524.94,0.373771007647172
308,2536.59,0.37950278909227225
309,2542.44,0.3754320252685672
310,2554.18,0.40191649034714894
311,2565.9700000000003,0.3960677463332203
312,2577.81,0.4191559932267814
313,2583.75,0.41753501303655777
314,2595.6800000000003,0.41527904356360035
315,2607.66,0.4036279649981326
316,2613.67,0.4002271720783946
317,2625.74,0.4187264771464083
318,2637.86,0.43108597312191177
319,2643.94,0.46436966747265934
320,2656.1400000000003,0.4736971489001463
321,2662.26,0.4383850359768856
322,2674.55,0.458658401037854
323,2686.8999999999996,0.46041875518781
324,2693.09,0.44309052953503497
325,2705.52,0.4551429691369745
326,2718.01,0.4383441978279017
327,2724.28,0.43969895762711014
328,2736.85,0.46110897177002086
329,2743.16,0.4103702242952211
330,2755.8199999999997,0.41961262207161326
331,2762.1800000000003,0.4356787655043032
332,2774.92,0.45584574873267886
333,2787.73,0.43804031923154013
334,2794.16,0.3630230499347157
335,2807.06,0.38956270406705834
336,2813.53,0.46116412749622565
337,2826.5099999999998,0.4803082670805519
338,2833.03,0.46545558141720883
339,2846.11,0.4576888028165145
340,2852.67,0.4455770098791632
341,2865.84,0.4826057149119503
342,2872.44,0.4829851147005908
343,2884.0315,0.48463239156522525
344,2885.7,0.4848698005744294
345,2892.3500000000004,0.4841588758257532
346,2912.4,0.521218801207564
347,2932.59,0.5082535260683501
348,2952.92,0.5048385504081113
349,2973.38,0.5166726742640639
350,2987.11,0.5199149231664212
351,3007.82,0.5296768460919723
352,3028.6600000000003,0.5334556685337148
353,3049.6600000000003,0.5372713903800006
354,3070.8,0.5423618117052614
355,3092.08,0.5487795325094975
356,3113.52,0.5514512527182768
357,3127.89,0.5485968992388065
358,3149.5699999999997,0.5551015185544005
359,3171.3999999999996,0.5604023373117536
360,3193.38,0.5403190555108659
361,3208.12,0.5589907006544017
362,3230.3599999999997,0.5439536178858965
363,3252.75,0.5724006345591506
364,3267.77,0.5908318786606367
365,3290.42,0.5924115943662734
366,3311.31121,0.5951252673947233
367,3313.2299999999996,0.5953743801094165
368,3320.86,0.6000484372901588
369,3328.52,0.6103371923366185
370,3336.19,0.6208146466716505
371,3343.88,0.5907045995838275
372,3351.5899999999997,0.605009851073149
373,3359.32,0.6041555011396156
374,3367.06,0.5991756504946544
375,3374.82,0.5636002984268381
376,3382.6,0.5785623449361665
377,3390.4,0.6162214900226398
378,3398.2200000000003,0.6196315336862579
379,3406.0499999999997,0.6019281766384484
380,3413.9,0.6066562181677837
381,3421.77,0.6299801582742638
382,3429.66,0.6219256969578887
383,3437.5699999999997,0.6296981342186583
384,3445.49,0.5775074707680005
385,3453.4300000000003,0.6425928058944873
386,3461.4,0.5961599388866915
387,3469.37,0.6089731718788955
388,3477.3700000000003,0.5896738027368169
389,3485.39,0.608996932171883
390,3493.42,0.6048321608955215
391,3501.48,0.6118342874848772
392,3509.55,0.6090536133628053
393,3517.6400000000003,0.5938371378178783
394,3525.7500000000005,0.6104775608500961
395,3533.87,0.6348548831708861
396,3542.02,0.6496490033573935
397,3550.1899999999996,0.6541781221210456
398,3558.3700000000003,0.6393136401732701
399,3566.57,0.6542052568026395
400,3570.41,0.5614874836144417
401,3573.0899999999997,0.5381875929518453
402,3575.77,0.463004502289249
403,3578.44,0.4891856123380802
404,3581.12,0.6760906216754838
405,3583.7999999999997,0.6008793310128875
406,3586.47,0.5678632410617188
407,3589.1499999999996,0.5410112503991225
408,3591.83,0.522550259736526
409,3594.5,0.5236147697853573
410,3597.18,0.6595174791227608
411,3599.85,0.6026294891715922
412,3602.5299999999997,0.6107952985089958
413,3605.2099999999996,0.6814449078463994
414,3607.88,0.5455709178952306
415,3610.56,0.5243687272326343
416,3613.24,0.6666903365700378
417,3615.91,0.6902150466188692
418,3618.5899999999997,0.5720421559562728
419,3621.27,0.49628556529367646
420,3623.94,0.5985020753425077
421,3626.62,0.5947947846799113
422,3629.2999999999997,0.587968894017315
423,3631.97,0.6108500040661462
424,3634.6499999999996,0.6397272134035499
425,3637.33,0.6694993227409535
426,3640.0,0.6569712327897846
427,3642.68,0.5588946421271884
428,3645.36,0.661093751464592
429,3648.0299999999997,0.6771925615134232
430,3650.7099999999996,0.6571649708508268
431,3653.3900000000003,0.6737214801882305
432,3656.06,0.6243153902370618
433,3658.74,0.6130982995744654
434,3661.42,0.714052908911869
435,3664.0899999999997,0.7068250189607003
436,3666.7699999999995,0.7287656282981039
437,3669.4500000000003,0.7804237376355075
438,3672.12,0.7743009476843388
439,3674.7999999999997,0.6009162570217425
440,3677.48,0.5718267663591461
441,3680.1499999999996,0.6314737764079773
442,3682.8300000000004,0.761908185745381
443,3685.51,0.6930597950827846
444,3688.18,0.6130133051316158
445,3690.86,0.6272203144690194
446,3693.54,0.609738123806423
447,3696.2099999999996,0.6783914338552544
448,3698.8900000000003,0.707324443192658
449,3701.57,0.7319639525300616
450,3704.24,0.7917094625788929
451,3706.92,0.7499213719162965
452,3709.6,0.7090423812537001
453,3712.2699999999995,0.5932087913025313
454,3714.9500000000003,0.572803700639935
455,3717.63,0.6834498099773386
456,3720.3,0.8974330200261699
457,3722.98,0.8961725293635735
458,3725.6600000000003,1.160342038700977
459,3728.3300000000004,1.3848578487498082
460,3731.01,1.476021658087212
461,3733.68,1.3175934681360433
462,3736.36,1.061165277473447
463,3739.04,0.7370387868108506
464,3741.7099999999996,0.7647870968596818
465,3744.3900000000003,0.8145853061970854
466,3747.07,0.686329415534489
467,3749.74,0.6787379255833204
468,3752.42,0.629230434920724
469,3755.1,0.5705910442581276
470,3757.7700000000004,0.6925262543069588
471,3760.4500000000003,0.7356819636443624
472,3763.13,0.8520894729817661
473,3765.8,0.7181317830305973
474,3768.48,0.7600426923680009
475,3771.16,0.7507273017054046
476,3773.8300000000004,0.7341717117542358
477,3776.51,0.8263858210916394
478,3779.19,0.9905510304290431
479,3781.86,0.9196374404778743
480,3784.54,0.964764449815278
481,3787.2200000000003,0.9622731591526816
482,3789.8900000000003,0.9076098692015129
483,3792.57,0.8485921785389166
484,3795.25,0.7925676878763201
485,3797.92,0.6648891979251513
486,3800.6,0.706911907262555
487,3801.8939600000003,0.6788966638469619
488,3803.28,0.6488878371458411
489,3805.9500000000003,0.7150659867732604
490,3808.63,0.7265320358374864
491,3811.31,0.8593016849017123
492,3813.98,0.9146284345291317
493,3816.66,0.8474437835933577
494,3819.34,0.8377926326575836
495,3822.01,0.8595556822850029
496,3824.69,0.769534131349229
497,3827.37,0.7404722804134549
498,3830.04,0.5822508300408742
499,3832.72,0.6872193791051002
500,3835.4,0.5758435281693263
501,3838.07,0.5606857777967456
502,3840.75,0.6819885268609716
503,3843.43,0.6731628759251975
504,3846.1,0.7204754255526168
505,3848.78,0.7577993746168429
506,3851.46,0.8479854236810689
507,3854.13,0.9606635733084882
508,3856.81,0.8885563223727142
509,3859.49,0.8722203714369403
510,3862.16,0.9933874210643594
511,3864.84,0.9928679701285854
512,3867.52,0.9616942191928116
513,3870.19,1.0227407688202308
514,3872.87,1.0044746178844568
515,3875.54,1.081911467511876
516,3878.22,0.927350116576102
517,3880.9,0.8475234656403281
518,3883.57,0.7964116152677473
519,3886.25,0.8252607643319734
520,3888.93,0.7671245133961994
521,3891.6,0.7709168630236186
522,3894.2799999999997,0.7418131120878446
523,3896.96,0.7696552611520706
524,3899.63,0.8229678107794899
525,3902.31,0.8750873598437159
526,3904.99,0.880204108907942
527,3907.66,0.9427610585353612
528,3910.34,1.0251995075995874
529,3913.02,0.9964447566638133
530,3915.69,0.9835820062912325
531,3918.37,1.0747610553554585
532,3921.0499999999997,0.9534132044196847
533,3923.72,0.9185661540471038
534,3926.4,0.8387114031113299
535,3929.08,0.9439450521755559
536,3931.75,0.7372948018029751
537,3934.43,0.6547552508672011
538,3937.1099999999997,0.6500550999314273
539,3939.7799999999997,0.6615246495588464
540,3942.46,0.6589781986230724
541,3945.14,0.7565344476872985
542,3947.81,0.8548357973147177
543,3950.49,0.9375821463789438
544,3953.1699999999996,0.9973791954431699
545,3955.8399999999997,0.927975745070589
546,3958.52,0.9193173941348151
547,3961.2000000000003,0.8007670431990411
548,3963.87,0.7864351928264603
549,3966.5499999999997,0.7359347418906863
550,3969.2300000000005,0.6481371909549124
551,3971.9,0.6247147405823316
552,3974.58,0.6590459896465577
553,3977.26,0.6818957387107838
554,3979.93,0.8486244883382029
555,3982.6099999999997,0.8783963374024291
556,3985.2900000000004,0.919789586466655
557,3987.96,0.9795773360940742
558,3990.64,1.1130319851583004
559,3993.32,1.1214208342225263
560,3995.99,1.1527366838499455
561,3998.6699999999996,1.0870755329141715
562,4001.3399999999997,1.1216073825415909
563,4004.02,1.1119142316058168
564,4006.7000000000003,1.1225820806700428
565,4009.37,1.1168099302974621
566,4012.0499999999997,1.1877387793616883
567,4014.73,1.2144756284259142
568,4017.3999999999996,1.1577574780533335
569,4020.08,1.1895703271175595
570,4022.76,1.1532361761817855
571,4025.43,1.1383040258092048
572,4028.1099999999997,1.1132968748734309
573,4030.7900000000004,1.1571087239376567
574,4033.46,1.0800845735650761
575,4036.14,1.089844422629302
576,4038.82,1.1653452716935282
577,4041.49,1.1631111213209473
578,4044.17,1.2285859703851734
579,4046.8500000000004,1.1279638194493993
