,lambda (Angstroms),Total Flux (erg/s/cm^2/Angstrom)
0,100.05999999999999,24.39744858758362
1,101.92,24.32957811585472
2,104.05,24.251855478874855
3,104.712855,24.227668230736217
4,105.99000000000001,23.982872724081734
5,107.96,23.605274919518163
6,109.96000000000001,23.221926894580523
7,114.09,22.430313223084305
8,118.1,21.661700433084352
9,120.22644299999999,21.254116570988145
10,121.13000000000001,21.108916283018974
11,125.10000000000001,20.470943091247324
12,127.13000000000001,20.144725061197846
13,128.01,20.003310348664098
14,130.99,19.52442870849297
15,131.9,19.378193039850153
16,134.05,19.032691185364317
17,136.85,18.582735281848013
18,138.038426,18.391756962350783
19,140.04000000000002,18.16184679140896
20,142.97,17.82529325861132
21,146.98,17.364685863899197
22,151.1,16.89144335361988
23,154.97,16.44691701508417
24,158.489319,16.042671539840043
25,158.95,16.002666089521533
26,161.9,15.746488651255415
27,166.05,15.386103441497754
28,169.92,15.050033378433142
29,173.08,14.775619580175846
30,177.11,14.425655147603536
31,179.99,14.175556496054298
32,181.970086,14.00360620489499
33,182.07999999999998,13.996324349192813
34,185.89000000000001,13.743910005052811
35,191.1,13.3987449833153
36,194.2,13.193368482898851
37,197.81,12.95420423571322
38,201.95000000000002,12.67992723205647
39,205.23,12.462625644660415
40,208.929613,12.217524493014796
41,210.02,12.163214428480895
42,215.9,11.870343017742035
43,219.91,11.670612685059593
44,222.97,11.51820001229214
45,227.12,11.311496551164625
46,229.75,11.180501349676845
47,234.01999999999998,10.967820929897224
48,239.88329199999998,10.675781723803961
49,240.01999999999998,10.670534524671693
50,246.18,10.434098123791617
51,251.91000000000003,10.214166219330865
52,257.19,10.011506441650834
53,260.16999999999996,9.897126507561756
54,263.79,9.758181750582237
55,269.31,9.546310180601322
56,273.69,9.378194700823668
57,275.42287,9.311682766664044
58,278.77,9.213086764499014
59,283.96000000000004,9.060205567120644
60,289.9,8.885231707669119
61,295.96999999999997,8.706428468308337
62,300.78000000000003,8.564740890667276
63,307.79,8.35824820013453
64,316.227766,8.10969799972011
65,317.87,8.073566562593781
66,328.28999999999996,7.84431204484867
67,338.26,7.624958172679321
68,347.74,7.416385008244952
69,356.66,7.220132639801591
70,363.078055,7.078926552119005
71,365.81,7.033913117523662
72,375.18999999999994,6.879361676237473
73,384.81,6.720855820979199
74,394.69,6.558066153912998
75,404.81000000000006,6.39132207168071
76,414.24,6.235946884743422
77,416.86938299999997,6.19262336274363
78,421.94,6.128821734303118
79,429.78000000000003,6.030174042256858
80,440.81,5.891387893677977
81,451.08000000000004,5.762164497673391
82,460.52000000000004,5.643384651674773
83,470.17,5.521962555472138
84,478.630092,5.415512662338129
85,480.01000000000005,5.402159076767164
86,490.06,5.304903524576204
87,500.32,5.205615989954652
88,506.11999999999995,5.149488749154744
89,511.98,5.0927836018088115
90,520.3,5.012270119759786
91,529.97,4.918692647617662
92,539.82,4.823372703282455
93,549.5408739999999,4.729305448436251
94,549.86,4.726949701336674
95,560.08,4.651506698455235
96,570.49,4.574661016313135
97,579.76,4.506228464715011
98,590.5400000000001,4.42665385824267
99,600.14,4.355787093688657
100,609.89,4.283816524078333
101,619.8,4.210667341700607
102,629.87,4.136334729915482
103,630.957344,4.128308126260423
104,640.1,4.074807065887986
105,650.51,4.0138966738780235
106,658.04,3.9698372118462055
107,665.66,3.925251084864446
108,674.92,3.8710656589948527
109,684.3100000000001,3.8161173885475654
110,695.43,3.751072745742504
111,705.1,3.6944822618009527
112,716.56,3.6274493439149995
113,724.43596,3.5813694039356174
114,726.53,3.5722759346527657
115,734.94,3.535757179344068
116,745.16,3.4913947501168514
117,755.53,3.4463729290262224
118,764.28,3.408388438960455
119,774.9100000000001,3.362249611373242
120,785.69,3.3154595439226173
121,794.79,3.275959827842219
122,805.84,3.22799067293745
123,815.18,3.1874487213755907
124,824.61,3.1465480733956834
125,831.763771,3.115418442431883
126,834.1600000000001,3.1076198793833107
127,845.77,3.070061333005271
128,855.56,3.0383119452714196
129,865.47,3.006205264696193
130,875.49,2.9737460886913722
131,885.63,2.9409155187451765
132,895.88,2.9077107281693872
133,904.17,2.880827084102725
134,914.64,2.8474358002677476
135,925.2299999999999,2.8231047464913956
136,935.9499999999999,2.803457033461887
137,944.61,2.802200707059318
138,954.992586,2.7918824962351043
139,955.55,2.7913676350477674
140,964.39,2.7770887880281787
141,975.5500000000001,2.664737479256843
142,984.58,2.7055385751972403
143,995.98,2.6758114227964143
144,1005.1999999999999,2.690348881696798
145,1014.5,2.6578553160540186
146,1023.89,2.5524661765501797
147,1035.74,2.5553911348440574
148,1045.32,2.619089878300205
149,1055.0,2.589370078577397
150,1064.76,2.5221293243114262
151,1074.61,2.5246937461843966
152,1084.55,2.4573132441963073
153,1094.59,2.4793018490292633
154,1096.4782,2.472528445233719
155,1104.72,2.447708974676075
156,1114.94,2.417503451920577
157,1125.26,2.374380717396434
158,1135.67,2.400404482280511
159,1146.18,2.355292835395943
160,1154.1200000000001,2.3528211609655463
161,1164.8,2.3380038240742826
162,1175.58,2.2372695754143734
163,1183.73,2.289114666269822
164,1194.68,2.185394327603217
165,1205.73,2.109173877167968
166,1214.09,2.0423497133092625
167,1225.32,2.1087336816904525
168,1233.8200000000002,2.1855340813556445
169,1245.23,2.189645828553273
170,1253.87,2.158288471742363
171,1258.92541,2.1281044642218756
172,1265.47,2.093916764681906
173,1274.24,2.1593532106868443
174,1286.03,2.1594786903217607
175,1294.94,2.071086835236698
176,1303.92,2.0553459796066345
177,1315.99,2.110252757061549
178,1325.11,2.0825874003414846
179,1334.29,2.02933478601142
180,1343.54,2.0775174711363547
181,1355.97,2.0470198029312665
182,1365.37,1.9935465440312008
183,1374.84,1.9976489845861334
184,1384.3700000000001,1.988745167531066
185,1393.9599999999998,1.9276131928659985
186,1403.62,1.92724021765593
187,1416.6100000000001,1.9134566450908381
188,1426.4299999999998,1.9089669829207692
189,1436.3200000000002,1.8915784202056987
190,1442.95,1.903239454300652
191,1445.43977,1.905167644822689
192,1446.28,1.9062888645242342
193,1456.3000000000002,1.8849457905825384
194,1466.3999999999999,1.8450606711403106
195,1476.5600000000002,1.8345261925726826
196,1483.3799999999999,1.835974238652287
197,1493.66,1.8326018418338605
198,1504.01,1.8021283427024684
199,1510.95,1.7537831705312743
200,1517.93,1.7696924256098132
201,1524.9299999999998,1.7527904943132198
202,1535.5,1.696358045055363
203,1546.15,1.7177724502969738
204,1553.29,1.6916209143744483
205,1564.05,1.686128944552827
206,1574.8899999999999,1.697300329230673
207,1585.81,1.7029831684079868
208,1596.8,1.7003093052723344
209,1604.17,1.6857486760357774
210,1615.29,1.6756655514617602
211,1626.4899999999998,1.6420905813872104
212,1634.0,1.6589803475247216
213,1645.3200000000002,1.6534653591993724
214,1656.7299999999998,1.6088803821859252
215,1659.58691,1.6199418378443629
216,1664.38,1.6403585948024184
217,1672.06,1.5901553160147461
218,1675.9099999999999,1.6334324114141554
219,1683.6499999999999,1.6470004413859543
220,1695.32,1.6118221451031238
221,1703.1399999999999,1.5906530534208845
222,1714.95,1.5610237442434873
223,1726.8400000000001,1.5497671134120516
224,1734.81,1.5707779436284908
225,1746.8300000000002,1.551686665109243
226,1754.9,1.5740320432581343
227,1762.99,1.5318799909935161
228,1775.22,1.5334610431324183
229,1783.41,1.5350127388002517
230,1795.7699999999998,1.552594143251342
231,1804.0600000000002,1.5442223868516276
232,1816.5700000000002,1.4997925132013956
233,1824.9499999999998,1.5031739699408888
234,1833.37,1.4809590658533627
235,1846.08,1.4371746880680352
236,1854.6000000000001,1.4322046319129609
237,1863.16,1.4382081149308679
238,1876.08,1.4594003678036898
239,1884.74,1.4196893987540489
240,1893.44,1.3963221688773888
241,1905.46072,1.4073866815906941
242,1906.56,1.408664770949542
243,1915.3600000000001,1.3897326107931878
244,1924.2,1.3774400780906688
245,1933.0900000000001,1.3834338297054432
246,1946.4899999999998,1.3935201267400865
247,1955.47,1.3619221901259886
248,1969.02,1.390179740112512
249,1978.11,1.3972312289964601
250,1982.67,1.3709850587336223
251,1996.4199999999998,1.3509816459893194
252,2005.6299999999999,1.3572708172347718
253,2014.89,1.3383355727975177
254,2024.1899999999998,1.3514585558140984
255,2033.53,1.3245579662845137
256,2042.92,1.3345392610722222
257,2057.08,1.3073166797297255
258,2066.57,1.3035715431520212
259,2076.1099999999997,1.3244476908916107
260,2085.7000000000003,1.3136705229484928
261,2095.32,1.2844171255957515
262,2105.0,1.2824036694237624
263,2114.71,1.2803877838421494
264,2124.47,1.2803380825778297
265,2134.28,1.245698065630803
266,2144.13,1.2480348761376117
267,2154.03,1.2573265709617134
268,2163.9700000000003,1.2376782932396502
269,2173.96,1.2276840998348804
270,2183.9900000000002,1.2148834338839452
271,2187.7616199999998,1.2192698198493144
272,2194.0699999999997,1.2279619539800217
273,2204.2000000000003,1.2122744220709634
274,2214.38,1.1895613181386624
275,2224.6,1.171948036587767
276,2234.86,1.1928758774182768
277,2245.18,1.171175251820895
278,2255.54,1.1525188486049185
279,2265.95,1.157924773365699
280,2276.4100000000003,1.1663145261032364
281,2286.92,1.1732513068175308
282,2297.48,1.1497379155085818
283,2302.77,1.1503267754494588
284,2313.4,1.1318436233079696
285,2324.08,1.0544057991432372
286,2334.81,1.1036471029552617
287,2345.58,1.0894551291486918
288,2356.41,1.11368808891423
289,2367.29,1.083091676656525
290,2372.75,1.0924968317183752
291,2383.7,1.0651858586281302
292,2394.7,1.0844940135146417
293,2405.75,1.06751389637791
294,2416.86,1.0721686128132868
295,2422.4300000000003,1.090714629424002
296,2433.61,1.0730765850268384
297,2444.84,1.0907691686064316
298,2456.13,1.0816924857581331
299,2467.47,1.0771548308865917
300,2473.15,1.062394709046172
301,2484.57,1.0703088989374412
302,2496.04,1.0462031168054675
303,2507.56,1.0816524626502506
304,2511.88643,1.051204451116326
305,2513.34,1.0411412310971027
306,2519.13,1.0491738264007096
307,2524.94,1.0326143242787675
308,2536.59,1.0344469738965603
309,2542.44,1.0284182769235204
310,2554.18,1.0509734881263433
311,2565.9700000000003,1.041178755765294
312,2577.81,1.0603042798403728
313,2583.75,1.0566952444523632
314,2595.6800000000003,1.0504464301124719
315,2607.66,1.0347857722087084
316,2613.67,1.029373495831278
317,2625.74,1.0438330995125447
318,2637.86,1.0521361596299394
319,2643.94,1.083384942263088
320,2656.1400000000003,1.0886292126782868
321,2662.26,1.0512688004603377
322,2674.55,1.067428832460567
323,2686.8999999999996,1.06505577218415
324,2693.09,1.0456558189767797
325,2705.52,1.053548068998167
326,2718.01,1.032569026742908
327,2724.28,1.0318252838333422
328,2736.85,1.0490282518758878
329,2743.16,0.9961776141152244
330,2755.8199999999997,1.0011828437428
331,2762.1800000000003,1.0151203624182643
332,2774.92,1.0310234023436446
333,2787.73,1.0089306012796038
334,2794.16,0.9317612789656475
335,2807.06,0.9539834394866367
336,2813.53,1.0234194223215825
337,2826.5099999999998,1.0382192931403764
338,2833.03,1.02118443241145
339,2846.11,1.0090399161024997
340,2852.67,0.9947325605224757
341,2865.84,1.0273534057985556
342,2872.44,1.0255238553674337
343,2884.0315,1.023291579736254
344,2885.7,1.0231343954270429
345,2892.3500000000004,1.0208507733049998
346,2912.4,1.053168956982149
347,2932.59,1.0354288307198867
348,2952.92,1.027205894518213
349,2973.38,1.0342013133728
350,2987.11,1.0341964743148078
351,3007.82,1.0390605682775886
352,3028.6600000000003,1.0379108172966305
353,3049.6600000000003,1.0367601263849164
354,3070.8,1.0368510255337906
355,3092.08,1.0382361147432537
356,3113.52,1.0358373640219607
357,3127.89,1.029584565240945
358,3149.5699999999997,1.030961954623518
359,3171.3999999999996,1.0311000690710077
360,3193.38,1.0058186085834133
361,3208.12,1.0210043049625246
362,3230.3599999999997,1.000707554587452
363,3252.75,1.0238594292772958
364,3267.77,1.038738505777584
365,3290.42,1.0349615905799494
366,3311.31121,1.0327345792334444
367,3313.2299999999996,1.0326623990431356
368,3320.86,1.0360588464462763
369,3328.52,1.045064968347726
370,3336.19,1.0542581150819448
371,3343.88,1.0228604114817026
372,3351.5899999999997,1.0358746575469997
373,3359.32,1.0337259532778358
374,3367.06,1.0274500738414414
375,3374.82,0.9905753440705858
376,3382.6,1.0042346639652693
377,3390.4,1.040587733525492
378,3398.2200000000003,1.0426883527512536
379,3406.0499999999997,1.0236738968097852
380,3413.9,1.0270874905338552
381,3421.77,1.0490936339234644
382,3429.66,1.0397180269786128
383,3437.5699999999997,1.0461659696993
384,3445.49,0.9926491372527568
385,3453.4300000000003,1.0564049544717526
386,3461.4,1.008637546189057
387,3469.37,1.0201162379063615
388,3477.3700000000003,0.9994773041219744
389,3485.39,1.0174575200031264
390,3493.42,1.011948160717048
391,3501.48,1.0176006759292782
392,3509.55,1.0134687159742775
393,3517.6400000000003,0.9968976056848162
394,3525.7500000000005,1.0121800450608938
395,3533.87,1.0351977092697409
396,3542.02,1.0486271479768967
397,3550.1899999999996,1.0517882363495914
398,3558.3700000000003,1.0355540495550555
399,3566.57,1.049072612426059
400,3570.41,0.9557118482095532
401,3573.0899999999997,0.9319632033917835
402,3575.77,0.8563313585740138
403,3578.44,0.8820653889234746
404,3581.12,1.068521644105705
405,3583.7999999999997,0.9928615992879353
406,3586.47,0.9593984296373962
407,3589.1499999999996,0.9320976848196265
408,3591.83,0.9131879400018568
409,3594.5,0.9138053703513176
410,3597.18,1.0492593255335478
411,3599.85,0.9919242558830088
412,3602.5299999999997,0.9996413110652392
413,3605.2099999999996,1.0698421662474695
414,3607.88,0.9335210965969303
415,3610.56,0.9118701517791608
416,3613.24,1.053743006961391
417,3615.91,1.076820637310852
418,3618.5899999999997,0.9581989924930823
419,3621.27,0.8819936476753125
420,3623.94,0.9837630780247734
421,3626.62,0.9796070332070037
422,3629.2999999999997,0.9723323883892341
423,3631.97,0.9947664187386949
424,3634.6499999999996,1.0231948739209253
425,3637.33,1.0525182291031556
426,3640.0,1.0395430594526163
427,3642.68,0.9410177146348467
428,3645.36,1.0427680698170771
429,3648.0299999999997,1.058419800166538
430,3650.7099999999996,1.0379434553487683
431,3653.3900000000003,1.0540512105309987
432,3656.06,1.0041980408804594
433,3658.74,0.9925321960626898
434,3661.42,1.09303805124492
435,3664.0899999999997,1.085363081594381
436,3666.7699999999995,1.1068549367766114
437,3669.4500000000003,1.1580642919588415
438,3672.12,1.1514944223083026
439,3674.7999999999997,0.9776609774905329
440,3677.48,0.9481227326727631
441,3680.1499999999996,1.007322663022224
442,3682.8300000000004,1.137308318204454
443,3685.51,1.0680111733866846
444,3688.18,0.9875176037361455
445,3690.86,1.0012758589183757
446,3693.54,0.9833449141006061
447,3696.2099999999996,1.051551144450067
448,3698.8900000000003,1.0800353996322973
449,3701.57,1.1042261548145276
450,3704.24,1.1635245851639886
451,3706.92,1.121287740346219
452,3709.6,1.0799599955284491
453,3712.2699999999995,0.9636793258779099
454,3714.9500000000003,0.9428254810601402
455,3717.63,1.0530228362423706
456,3720.3,1.2665589665918313
457,3722.98,1.2648497217740617
458,3725.6600000000003,1.528570476956292
459,3728.3300000000004,1.7526392073057528
460,3731.01,1.8433542624879833
461,3733.68,1.6844789928374442
462,3736.36,1.4276020480196745
463,3739.04,1.1030268032019048
464,3741.7099999999996,1.1303280335513657
465,3744.3900000000003,1.179677488733596
466,3747.07,1.0509728439158263
467,3749.74,1.0429342742652872
468,3752.42,0.9929780294475175
469,3755.1,0.9338898846297479
470,3757.7700000000004,1.0553780149792087
471,3760.4500000000003,1.098084970161439
472,3763.13,1.2140437253436693
473,3765.8,1.07963895569313
474,3768.48,1.1211011108753604
475,3771.16,1.111336966057591
476,3773.8300000000004,1.0943342964070517
477,3776.51,1.1860996515892819
478,3779.19,1.3498161067715122
479,3781.86,1.278455437120973
480,3784.54,1.3231336923032035
481,3787.2200000000003,1.3201936474854339
482,3789.8900000000003,1.2650832778348948
483,3792.57,1.205616833017125
484,3795.25,1.1491435881993555
485,3797.92,1.0210180185488162
486,3800.6,1.0625919737310467
487,3801.8939600000003,1.0343600624323832
488,3803.28,1.004186469444724
489,3805.9500000000003,1.0700472213166254
490,3808.63,1.081194683869695
491,3811.31,1.2136457464227648
492,3813.98,1.2686550982946665
493,3816.66,1.201151860847736
494,3819.34,1.1911821234008058
495,3822.01,1.2126277752727073
496,3824.69,1.122287637825777
497,3827.37,1.0929072003788467
498,3830.04,0.9343683522507481
499,3832.72,1.039018314803818
500,3835.4,0.9273238773568875
501,3838.07,0.911848729228789
502,3840.75,1.0328328917818586
503,3843.43,1.0236886543349284
504,3846.1,1.07068380620683
505,3848.78,1.1076891687598995
506,3851.46,1.1975566313129693
507,3854.13,1.3099173831848707
508,3856.81,1.2374915457379405
509,3859.49,1.22083700829101
510,3862.16,1.3416866601629116
511,3864.84,1.3408486227159813
512,3867.52,1.3093562852690512
513,3870.19,1.3700854371409525
514,3872.87,1.3515006996940222
515,3875.54,1.4286201515659236
516,3878.22,1.2737402141189933
517,3880.9,1.1935949766720633
518,3883.57,1.1421657285439646
519,3886.25,1.1706962910970344
520,3888.93,1.1122414536501042
521,3891.6,1.1157164055220055
522,3894.2799999999997,1.0862940680750752
523,3896.96,1.1138176306281449
524,3899.63,1.1668127825000463
525,3902.31,1.218613745053116
526,3904.99,1.2234119076061858
527,3907.66,1.2856514594780872
528,3910.34,1.3677713220311571
529,3913.02,1.3386979845842266
530,3915.69,1.3255178364561282
531,3918.37,1.4163782990091978
532,3921.0499999999997,1.2947118615622677
533,3923.72,1.259547413434169
534,3926.4,1.1793740759872389
535,3929.08,1.2842891385403084
536,3931.75,1.07732149041221
537,3934.43,0.9944633529652795
538,3937.1099999999997,0.9894446155183494
539,3939.7799999999997,1.0005967673902507
540,3942.46,0.9977317299433205
541,3945.14,1.0949693924963901
542,3947.81,1.1929533443682918
543,3950.49,1.2753811069213614
544,3953.1699999999996,1.3348595694744312
545,3955.8399999999997,1.2651387213463325
546,3958.52,1.2561617838994024
547,3961.2000000000003,1.1372928464524719
548,3963.87,1.1226435983243737
549,3966.5499999999997,1.071824560877443
550,3969.2300000000005,0.9837084234305127
551,3971.9,0.9599685753024143
552,3974.58,0.993981237855484
553,3977.26,1.0165124004085537
554,3979.93,1.1829237522804552
555,3982.6099999999997,1.212377014833525
556,3985.2900000000004,1.2534516773865945
557,3987.96,1.312922029258496
558,3990.64,1.446058091811566
559,3993.32,1.4541283543646355
560,3995.99,1.4851268062365368
561,3998.6699999999996,1.4191470687896066
562,4001.3399999999997,1.4533615206615083
563,4004.02,1.443349783214578
564,4006.7000000000003,1.4536990457676473
565,4009.37,1.447609497639549
566,4012.0499999999997,1.5182197601926188
567,4014.73,1.5446380227456884
568,4017.3999999999996,1.48760247461759
569,4020.08,1.5190967371706598
570,4022.76,1.4824439997237293
571,4025.43,1.467194451595631
572,4028.1099999999997,1.4418687141487005
573,4030.7900000000004,1.4853619767017703
574,4033.46,1.4080204285736717
575,4036.14,1.4174616911267415
576,4038.82,1.4926439536798113
577,4041.49,1.4900924055517126
578,4044.17,1.5552486681047824
579,4046.8500000000004,1.454307930657852
580,4049.52,1.4810683825297535
581,4052.2000000000003,1.469825645082823
582,4054.88,1.4616179076358928
583,4057.5499999999997,1.4243563595077946
584,4060.23,1.349146622060864
585,4062.9100000000003,1.5147978846139338
586,4065.58,1.4963593364858352
587,4068.26,1.4271635990389049
588,4070.94,1.4133198615919746
589,4073.6099999999997,1.4340533134638762
590,4076.29,1.420488576016946
591,4078.9700000000003,1.4042398385700154
592,4081.6400000000003,1.433182290441917
593,4084.32,1.4286935529949867
594,4087.0,1.4355058155480565
595,4089.67,1.4985282674199578
596,4092.3500000000004,1.4719445299730276
597,4095.03,1.3914077925260973
598,4097.7,1.3464402443979988
