,lambda (Angstroms),Total Flux (erg/s/cm^2/Angstrom)
0,102.00000000000001,154.9106769445588
1,103.9,154.46918741509157
2,104.712855,154.28031006184258
3,106.07000000000001,152.62382177173308
4,108.03999999999999,150.2193020409797
5,110.05,147.76595957769462
6,113.91999999999999,143.04235990836315
7,117.92,138.1600863513735
8,120.22644299999999,135.3449150347176
9,120.95,134.60448583493442
10,124.91,130.5521448105321
11,126.94,128.47480837355846
12,128.10999999999999,127.27752580213074
13,131.1,124.21780366951019
14,132.01,123.28658395312037
15,134.15,121.09668249912984
16,136.96,118.22115781361069
17,138.038426,117.11758461891621
18,140.15,115.57307113633253
19,143.09,113.42260583439015
20,147.10000000000002,110.48948950321075
21,150.87,107.73191905390297
22,155.1,104.63788120432484
23,158.489319,102.15876057331435
24,159.07000000000002,101.83764964038444
25,162.02999999999997,100.20079851980904
26,166.19,97.90035936734834
27,170.06,95.76028743103764
28,172.82,94.23403483478661
29,176.85,92.00548471996281
30,180.14,90.18614721209214
31,181.8,89.26818392323867
32,181.970086,89.1741280587582
33,186.04,87.45711893897462
34,190.81,85.44475916778565
35,193.91,84.13693641426582
36,197.97,82.424110333212
37,202.12,80.67331557081498
38,204.93,79.48783796556543
39,208.929613,77.80048698729935
40,210.17999999999998,77.40389645229344
41,216.07000000000002,75.53574459046163
42,220.09,74.26070655698622
43,223.15,73.29015442926853
44,226.78,72.13881489285968
45,229.93,71.13974016466969
46,234.21,69.78227655039322
47,239.88329199999998,67.98288916560757
48,240.21,67.90303811975042
49,245.80999999999997,66.53429850013468
50,252.11999999999998,64.99204414390731
51,256.8,63.84814701998132
52,259.78000000000003,63.11981278784935
53,264.0,62.08838608151822
54,268.91,60.88830374254479
55,273.90000000000003,59.668666262293996
56,275.42287,59.29645213507981
57,279.0,58.62546046113024
58,284.18,57.65380596248425
59,290.13,56.53770535173548
60,296.21000000000004,55.397233344488825
61,301.02,54.494977494467555
62,308.03000000000003,53.18005774466689
63,316.227766,51.64233841782407
64,318.13,51.37583197908074
65,327.79,50.02244424482621
66,337.75,48.62702105730911
67,348.02,47.188165249087376
68,356.93999999999994,45.93845109394717
69,363.078055,45.07849900180982
70,366.09999999999997,44.76143389932751
71,374.63000000000005,43.86644807492061
72,385.12,42.765802530395625
73,395.0,41.7291896629431
74,405.13,40.66633978289695
75,413.62,39.77554790572105
76,416.86938299999997,39.434612589695824
77,422.28000000000003,39.001082105988715
78,430.13000000000005,38.3720971377294
79,441.16,37.48832528903115
80,451.43999999999994,36.66463700244302
81,459.83000000000004,35.99237792588841
82,469.46000000000004,35.22077303592239
83,478.630092,34.48602402725609
84,480.4,34.376957242423686
85,490.46,33.75700934944258
86,499.57,33.19563561809777
87,506.52000000000004,32.76737870093756
88,512.39,32.40617526641967
89,519.52,31.96685821793575
90,530.39,31.297076237047925
91,540.26,30.688819438514084
92,549.5408739999999,30.117389462949895
93,550.3000000000001,30.08174352882275
94,560.53,29.601178747000453
95,569.64,29.173263970879113
96,580.23,28.675329567224345
97,589.66,28.232729150474164
98,600.62,27.717748291686043
99,610.38,27.2596515590061
100,620.3000000000001,26.793901355511743
101,630.38,26.320579030202964
102,630.957344,26.29343915520736
103,640.6199999999999,25.933360541172167
104,649.53,25.602237182321435
105,658.5699999999999,25.266031124951002
106,664.66,25.03944734652778
107,675.4599999999999,24.63697450089053
108,684.86,24.286708406465518
109,694.38,23.934521422022318
110,705.6700000000001,23.513505893810784
111,715.48,23.149845878823623
112,724.43596,22.816624065219493
113,725.4399999999999,22.78890970762824
114,735.53,22.51042098163058
115,745.76,22.229527120227605
116,754.4,21.991799122356475
117,764.89,21.70288454377219
118,775.53,21.410308422967923
119,784.5100000000001,21.16369314339815
120,795.4200000000001,20.86288554859791
121,804.64,20.60903725547617
122,815.83,20.300478489865288
123,825.2800000000001,20.041818190006236
124,831.763771,19.858759963348426
125,834.83,19.793609448888944
126,844.5,19.60074282121495
127,854.2800000000001,19.39947398695935
128,864.17,19.197677336122144
129,874.18,18.993486917195916
130,884.3,18.787968041688078
131,894.5400000000001,18.578735038091207
132,904.9,18.36389928640532
133,915.38,18.175712916630406
134,925.98,18.447449848766464
135,934.54,18.95944943841596
136,945.3599999999999,19.940689667388806
137,954.11,20.93916759839734
138,954.992586,20.933444725813843
139,965.1600000000001,20.8720582904301
140,974.0899999999999,17.41444065931587
141,985.37,19.411046735803147
142,994.49,19.72367150828223
143,1006.0,21.59159436806668
144,1015.31,21.396267344139076
145,1024.71,18.216505574545142
146,1034.19,19.062207364358922
147,1046.16,22.75073719073771
148,1055.84,22.42832287907077
149,1065.6100000000001,20.292870821737502
150,1075.47,21.41173701873791
151,1085.42,19.450882470071996
152,1095.47,21.472704870665716
153,1096.4782,21.42451499673417
154,1105.6000000000001,21.021959181733955
155,1115.83,20.407671933308322
156,1126.1599999999999,19.465999309042754
157,1133.96,21.450700993527605
158,1144.46,20.43514753033414
159,1155.05,20.904938328884736
160,1165.73,20.943087389179382
161,1173.81,18.04234722131241
162,1184.67,20.400614805095167
163,1195.64,17.329380375453997
164,1203.92,15.598114455907151
165,1215.06,14.818946187338089
166,1226.31,17.27256590534509
167,1234.81,20.28594395895038
168,1246.23,20.951478838029487
169,1254.87,20.196674965458868
170,1258.92541,19.45973812061417
171,1263.57,18.637825686913438
172,1275.26,21.130545843805507
173,1284.1,21.604890879470684
174,1295.98,18.63345951111122
175,1304.97,18.43387334263044
176,1314.01,20.84223577276768
177,1326.17,20.157984156669098
178,1335.36,18.577416382660388
179,1344.62,20.641534046716895
180,1353.9399999999998,20.159836229115022
181,1366.4699999999998,18.688849642789762
182,1375.94,19.15342762104193
183,1385.48,19.13041103735933
184,1395.08,17.753020972018344
185,1404.75,17.95070234474258
186,1414.49,17.91613715553204
187,1424.29,18.185886484663122
188,1434.1599999999999,17.94228125185942
189,1440.7900000000002,18.4472510286083
190,1445.43977,18.53057114257974
191,1447.44,18.573546234817428
192,1454.1200000000001,18.142301721515068
193,1464.2,17.211255922998937
194,1474.3500000000001,17.152235174493107
195,1484.56,17.294877897424684
196,1494.8600000000001,17.386005827512363
197,1505.2199999999998,16.719922229037454
198,1512.1599999999999,15.60373175863051
199,1515.65,16.209898680572838
200,1526.16,15.786056760691435
201,1536.74,14.592617890820334
202,1543.83,15.327303099006903
203,1554.53,14.831191172010612
204,1565.31,14.832981873597523
205,1576.16,15.16711762519474
206,1583.43,15.546726247693522
207,1594.41,15.560721520738447
208,1605.46,15.374845843793679
209,1616.59,15.354075795432117
210,1624.05,14.80239441081601
211,1635.3100000000002,15.246711883902154
212,1646.64,15.242256406998603
213,1654.2399999999998,14.554670122403106
214,1659.58691,14.831917252756277
215,1665.71,15.164531559962626
216,1673.3999999999999,14.153511741210036
217,1677.2599999999998,15.033993241810165
218,1685.0,15.434930789645653
219,1696.68,14.833218024622209
220,1704.51,14.420362032316252
221,1716.3200000000002,13.820497820421826
222,1724.25,13.738030561292039
223,1736.2,14.157446175844253
224,1744.21,13.932353103255398
225,1756.3000000000002,14.375084544254246
226,1764.4099999999999,13.644833204841564
227,1776.6399999999999,13.682616472287052
228,1784.8400000000001,13.811608592732918
229,1793.08,14.289293806449257
230,1805.51,14.187056540247081
231,1813.84,13.38618021382197
232,1826.41,13.51397777406643
233,1834.8400000000001,13.155291180817485
234,1843.31,12.495717680839014
235,1856.09,12.344547980753429
236,1864.6599999999999,12.488034213951124
237,1873.27,13.135066540419288
238,1886.2499999999998,12.384932306686043
239,1894.96,12.021747366330372
240,1903.7,12.420268245927554
241,1905.46072,12.363347873743365
242,1916.9,12.011183507406642
243,1925.75,11.887592275106343
244,1934.6399999999999,12.134413830456666
245,1943.56,12.23996947654495
246,1957.04,11.715510914803929
247,1966.07,12.335892226931422
248,1975.1499999999999,12.50813002362219
249,1984.26,12.01655091105092
250,1993.4199999999998,11.765879283042928
251,2007.2400000000002,11.967259416332178
252,2016.5,11.621131757450737
253,2025.8100000000002,11.969418583132567
254,2035.16,11.460173196465021
255,2044.56,11.67865729436075
256,2053.99,11.338237482994442
257,2063.47,11.315804156191412
258,2073.0,11.697509313951652
259,2077.7799999999997,11.216796438200756
260,2087.37,11.44479577743693
261,2097.0,11.029690904323722
262,2106.68,11.056651515773792
263,2116.41,11.058533611787137
264,2126.18,11.0994454954511
265,2135.9900000000002,10.634092166765683
266,2145.85,10.669530322643542
267,2155.75,10.883400266172021
268,2165.7000000000003,10.668087694263775
269,2175.7000000000003,10.555311606918805
270,2185.74,10.322947307224455
271,2187.7616199999998,10.368925675047517
272,2195.83,10.56346745105996
273,2205.97,10.365806675721476
274,2216.15,10.080177420006905
275,2226.38,9.826685063822222
276,2236.66,10.094975607167427
277,2246.98,9.836642670136543
278,2257.35,9.59916863263555
279,2262.55,9.73625118374402
280,2273.0,9.817782185490849
281,2283.49,9.89051970686159
282,2294.0299999999997,9.579761127762222
283,2304.62,9.495118448192738
284,2315.26,9.213016668153145
285,2325.94,8.106507407737466
286,2336.68,8.846801426757652
287,2347.46,8.759063965401749
288,2352.88,8.984149874441732
289,2363.74,8.647358452333652
290,2374.65,8.69969192975546
291,2385.61,8.43101830670716
292,2396.62,8.664732583188746
293,2407.6800000000003,8.429908759200222
294,2413.23,8.504992607017918
295,2424.3700000000003,8.632232822277215
296,2435.56,8.413132937066404
297,2446.8,8.615700951385481
298,2452.44,8.513192218356977
299,2463.76,8.461836271923875
300,2475.1400000000003,8.280609604926644
301,2486.56,8.415022457553322
302,2492.29,8.123677143678618
303,2503.7999999999997,8.461254415459097
304,2511.88643,8.172238259978242
305,2515.35,8.050974122176887
306,2526.9599999999996,7.9908574958516745
307,2532.79,8.004561371693534
308,2544.48,7.866622150182617
309,2556.23,8.052188982282424
310,2562.12,7.967900911735006
311,2573.95,8.151753148649107
312,2585.83,8.079785763572144
313,2597.76,8.017217756504117
314,2603.7500000000005,7.869382441974569
315,2615.77,7.8083775153226265
316,2627.84,7.888736966679618
317,2633.9,7.89375638136258
318,2646.06,8.090735913135655
319,2652.16,8.058508030225767
320,2664.4,7.747482966813139
321,2676.7000000000003,7.874479957011232
322,2682.87,7.797251803313854
323,2695.25,7.654525198326244
324,2707.6899999999996,7.671818646949357
325,2713.93,7.535782222464488
326,2726.46,7.525968751503685
327,2732.7400000000002,7.662492029425962
328,2745.36,7.234535638881242
329,2758.03,7.215212626345457
330,2764.39,7.275194309082034
331,2777.15,7.390713376962332
332,2783.55,7.308900762106056
333,2796.4,6.707494910402438
334,2802.85,6.899243673555098
335,2815.7799999999997,7.281701226665778
336,2822.27,7.310644692225585
337,2835.3,7.089134001354134
338,2841.84,7.026228844922876
339,2854.95,6.981889558865724
340,2868.1299999999997,7.10113800202108
341,2874.7400000000002,7.012220574802331
342,2884.0315,6.997791458959379
343,2888.0099999999998,6.994105330381048
344,2894.6699999999996,6.918963271913594
345,2908.0299999999997,7.054916914387288
346,2928.19,6.932543656323639
347,2948.4900000000002,6.844309556190105
348,2968.92,6.813057674134534
349,2989.5,6.765144889861226
350,3010.23,6.741337203370184
351,3031.09,6.6773937349571035
352,3052.1,6.597324364326289
353,3073.2599999999998,6.5257300914777385
354,3087.45,6.4961547416799625
355,3108.8500000000004,6.3942220252830335
356,3130.3900000000003,6.323370466816219
357,3152.09,6.282482945983821
358,3166.64,6.20802943086348
359,3188.59,6.072742406334855
360,3210.7000000000003,6.074536419440648
361,3232.95,5.9759525904765525
362,3247.87,5.953228849885797
363,3270.3900000000003,5.911346396929777
364,3293.06,5.855427041756023
365,3308.26,5.811012617025494
366,3311.31121,5.8076972793884245
367,3323.53,5.7997882234211575
368,3331.19,5.78444802374092
369,3338.87,5.667080489335667
370,3346.56,5.712455287567909
371,3354.28,5.6234870837126305
372,3362.01,5.628054212494845
373,3369.7599999999998,5.599800006552046
374,3377.53,5.551792465884232
375,3385.32,5.642649590491406
376,3393.12,5.6545690477360715
377,3400.94,5.700822170255725
378,3408.78,5.5238419580503635
379,3416.6400000000003,5.574644411119989
380,3424.52,5.5928805294646
381,3432.4100000000003,5.611122980446705
382,3440.32,5.574761096703796
383,3448.25,5.472007878235875
384,3456.2,5.378442325042938
385,3464.1699999999996,5.355850437124989
386,3472.1600000000003,5.396258214482024
387,3480.16,5.373391324476554
388,3488.1800000000003,5.388668099746069
389,3496.22,5.378553540290572
390,3504.28,5.29871664611006
391,3512.36,5.2695944172045355
392,3520.46,5.303231853573997
393,3528.5699999999997,5.2740916225809515
394,3536.71,5.307925389500385
395,3544.86,5.316664489057311
396,3550.7300000000005,5.0257337472657975
397,3553.3799999999997,5.386247896201486
398,3556.03,5.330640045137173
399,3558.69,5.121257526710355
400,3561.34,5.206586675646043
401,3564.0,5.333145157219224
402,3566.65,5.442818306154912
403,3569.31,4.762630787728094
404,3571.96,4.943641936663781
405,3574.6099999999997,4.987279085599469
406,3577.27,5.15781056717265
407,3579.9199999999996,4.839829716108339
408,3582.5800000000004,4.948606197681519
409,3585.23,4.910013346617207
410,3587.88,4.862553495552895
411,3590.54,5.132381977126077
412,3593.19,4.988342126061764
413,3595.85,4.928045607634944
414,3598.5,4.586258756570633
415,3601.16,5.551545238143815
416,3603.81,5.612275387079502
417,3606.46,5.483637536015189
418,3609.12,5.180211017588371
419,3611.7700000000004,5.217109166524058
420,3614.4300000000003,4.732490648097239
421,3617.08,4.810130797032928
422,3619.73,5.143789945968615
423,3622.39,5.038188427541797
424,3625.04,4.877953576477485
425,3627.7,5.253664058050665
426,3630.35,5.227012206986354
427,3633.0099999999998,5.085535688559535
428,3635.66,4.949824837495223
429,3638.31,4.558939986430911
430,3640.9700000000003,4.937059468004092
431,3643.6200000000003,5.13213961693978
432,3646.28,5.236918098512961
433,3648.9300000000003,4.977183247448648
434,3651.58,4.758420396384336
435,3654.2400000000002,5.123624877957518
436,3656.89,5.117986026893206
437,3659.5499999999997,5.071064508466387
438,3662.2,5.1225696574020745
439,3664.8599999999997,4.793032138975256
440,3667.5099999999998,4.919437287910943
441,3670.1600000000003,5.069238436846631
442,3672.82,5.263703918419813
443,3675.4700000000003,4.918355067355501
444,3678.13,4.924401548928682
445,3680.78,4.995635697864369
446,3683.44,4.472889179437551
447,3686.09,4.803727328373238
448,3688.74,4.8303234773089265
449,3691.4,4.8833409588821075
450,3694.0499999999997,5.113962107817796
451,3696.7100000000005,4.9448115893909765
452,3699.3599999999997,4.890483738326665
453,3702.01,4.416497887262352
454,3704.67,4.570734368835534
455,3707.32,5.107495517771222
456,3709.98,4.760379999344403
457,3712.63,5.39882214828009
458,3715.29,5.491554629853272
459,3717.94,6.046588778788959
460,3720.5899999999997,7.768326927724648
461,3723.25,11.760129409297829
462,3725.8999999999996,15.565955558233517
463,3728.5600000000004,16.625218039806697
464,3731.2099999999996,13.875181188742387
465,3733.86,9.871049337678073
466,3736.52,6.642019819251255
467,3739.17,5.726442968186943
468,3741.83,5.3053974497601235
469,3744.48,5.2141715986958115
470,3747.14,5.383524080268993
471,3749.79,4.876739229204681
472,3752.44,4.957635378140369
473,3755.1,5.138519859713551
474,3757.7500000000005,5.233843008649237
475,3760.4100000000003,5.326320490222418
476,3763.06,5.604604639158106
477,3765.7200000000003,5.473121120731287
478,3768.37,5.352170269666976
479,3771.02,5.082339418602663
480,3773.68,5.0515619001758445
481,3776.33,5.2539960491115325
482,3778.99,5.304961530684714
483,3781.64,5.633471679620402
484,3784.29,5.588883828556089
485,3786.95,5.607304310129271
486,3789.6000000000004,5.191667459064957
487,3792.26,5.27286994063814
488,3794.9100000000003,5.0850390895738276
489,3797.57,4.505070571147008
490,3800.2200000000003,4.701610720082696
491,3801.8939600000003,4.763101997634551
492,3802.87,4.799257841436708
493,3805.5299999999997,5.241647287880939
494,3808.18,5.559190307834777
495,3810.8399999999997,5.575358754279009
496,3813.49,5.088280774232848
497,3816.14,5.346372794186687
498,3818.8,5.456585240630917
499,3821.4500000000003,5.216017260584756
500,3824.11,4.867545707028986
501,3826.76,5.195849726982826
502,3829.42,5.148983173427057
503,3832.07,4.816421193380896
504,3834.72,4.5230392133347355
505,3837.38,5.085302659778966
506,3840.0299999999997,4.825514679732805
507,3842.69,5.354183126177036
508,3845.3399999999997,5.305545146130875
509,3847.9900000000002,5.278176166084714
510,3850.65,5.569300612528945
511,3853.3,5.572425632482783
512,3855.96,5.870212078927015
513,3858.61,6.138043098880853
514,3861.27,5.857987545325084
515,3863.92,6.312367565278924
516,3866.5699999999997,6.5107565852327625
517,3869.23,6.5528040316769935
518,3871.8799999999997,6.392188051630833
519,3874.5400000000004,5.973757498075063
520,3877.1899999999996,5.659391518028903
521,3879.8500000000004,5.153069964473134
522,3882.5,5.348892984426972
523,3885.15,5.519093004380812
524,3887.81,5.8773534508250425
525,3890.46,5.886116470778882
526,3893.12,5.686266917223112
527,3895.77,5.049283937176951
528,3898.42,5.10647695713079
529,3901.08,5.825792403575022
530,3903.7300000000005,5.734875423528861
531,3906.3900000000003,5.726699869973091
532,3909.04,5.92303688992693
533,3911.7000000000003,6.2774533363711615
534,3914.35,5.8411123563250005
535,3917.0,5.677933376278839
536,3919.66,5.8352958227230705
537,3922.31,5.5721778426769095
538,3924.97,5.8064142891211405
539,3927.62,5.149699309074979
540,3930.27,5.270954329028818
541,3932.93,5.167712775473049
542,3935.5800000000004,5.381217795426888
543,3938.2400000000002,5.4839992418711185
544,3940.8900000000003,5.398718261824958
545,3943.55,5.6137367082691885
546,3946.2000000000003,5.832366728223027
547,3948.85,5.558999748176866
548,3951.5099999999998,5.552106194621098
549,3954.16,5.035815214574937
550,3956.8199999999997,5.186259661019168
551,3959.47,5.503801680973007
552,3962.1299999999997,5.213242127417239
553,3964.7799999999997,5.401377147371077
554,3967.4300000000003,5.610527167324916
555,3970.09,5.368397613769147
556,3972.7400000000002,5.290803633722986
557,3975.4,5.167319080167217
558,3978.05,5.162755100121055
559,3980.7,5.124880120074895
560,3983.36,4.961676566519126
561,3986.0099999999998,5.415029586472965
562,3988.67,5.405575032917195
563,3991.3199999999997,5.435862052871035
564,3993.9799999999996,5.931215499315266
565,3996.63,5.485393519269104
566,3999.28,5.521574539222944
567,4001.94,5.562855985667174
568,4004.59,5.541638005621014
569,4007.25,5.6536434520652445
570,4009.9,5.750299472019083
571,4012.5499999999997,5.787762491972923
572,4015.21,5.556394938417153
573,4017.8599999999997,6.028711958370993
574,4020.52,6.031299404815224
575,4023.1699999999996,5.917832424769063
576,4025.8300000000004,5.722338871213292
577,4028.48,5.716239891167133
578,4031.13,5.8157149111209705
579,4033.79,5.793958357565202
580,4036.44,5.936740377519041
581,4039.1,5.863733823963273
582,4041.75,5.780502843917111
583,4044.4,5.858453863870951
584,4047.06,5.960209310315181
585,4049.71,5.95821033026902
586,4052.3700000000003,5.8380537767132505
587,4055.0199999999995,5.93624779666709
588,4057.6800000000003,6.099502243111321
589,4060.33,5.728249263065161
590,4062.98,5.793131283018999
591,4065.64,5.888223729463229
592,4068.29,6.090455749417069
593,4070.95,5.9515931958612995
594,4073.6,5.856575215815139
595,4076.2599999999998,5.74846366225937
596,4078.91,5.4000166822132085
597,4081.5600000000004,5.721914702167048
598,4084.2200000000003,5.697083148611279
599,4086.8700000000003,5.533135168565117
600,4089.53,5.420410615009349
