,lambda (Angstroms),Total Flux (erg/s/cm^2/Angstrom)
0,102.00000000000001,0.0912320040224005
1,103.9,0.10678869899019297
2,104.712855,0.11344413982708997
3,106.07000000000001,0.10417255698194271
4,108.03999999999999,0.09071414488706474
5,110.05,0.07698246865967434
6,113.91999999999999,0.0505438669467498
7,117.92,0.023217149872869106
8,120.22644299999999,0.00746037179092319
9,120.95,0.0072316803537573185
10,124.91,0.005979945461708016
11,126.94,0.005338270534965569
12,128.10999999999999,0.004968443735269187
13,131.1,0.004023325164145088
14,132.01,0.003735743484981233
15,134.15,0.003059309583359634
16,136.96,0.002171215863119596
17,138.038426,0.0018303489790825924
18,140.15,0.0018068476967767627
19,143.09,0.0017755561305296094
20,147.10000000000002,0.0017341846818193767
21,150.87,0.0016930616046354425
22,155.1,0.001647002465609437
23,158.489319,0.0016103339088754845
24,159.07000000000002,0.001600573672431905
25,162.02999999999997,0.0015508486526315973
26,166.19,0.0014812250809122446
27,170.06,0.0014165187702983276
28,172.82,0.0013706291859845266
29,176.85,0.0013034954733814035
30,180.14,0.0012486198249783583
31,181.8,0.001221248749340347
32,181.970086,0.0012184255406573173
33,186.04,0.0012431507866068794
34,190.81,0.0012726931779289098
35,193.91,0.0012920512092493065
36,197.97,0.0013172517353011812
37,202.12,0.0013433806083591319
38,204.93,0.0013613667971043952
39,208.929613,0.001385327662428476
40,210.17999999999998,0.001427832112165764
41,216.07000000000002,0.0016324090419509044
42,220.09,0.0017714356381030704
43,223.15,0.0018764730495024807
44,226.78,0.0020027893918488394
45,229.93,0.002133966481818821
46,234.21,0.0023215504905081917
47,239.88329199999998,0.0025490446818585383
48,240.21,0.0025421715573322426
49,245.80999999999997,0.0023866310053684585
50,252.11999999999998,0.0022332638659235504
51,256.8,0.002081406014639529
52,259.78000000000003,0.0020294159559159424
53,264.0,0.0019285692049718054
54,268.91,0.0018011995535178427
55,273.90000000000003,0.0016698897541786838
56,275.42287,0.0016299833406756405
57,279.0,0.0017404872235865414
58,284.18,0.0019011815317998726
59,290.13,0.002074778906098968
60,296.21000000000004,0.0022661641616852726
61,301.02,0.002410136169311936
62,308.03000000000003,0.002630251737183645
63,316.227766,0.0028865131343933583
64,318.13,0.0028488163112274875
65,327.79,0.0026531956183053823
66,337.75,0.00244672146287017
67,348.02,0.002233046396171411
68,356.93999999999994,0.002050325310781642
69,363.078055,0.0019292495924286034
70,366.09999999999997,0.001985830588589249
71,374.63000000000005,0.0021347488959005474
72,385.12,0.0023055526794521883
73,395.0,0.0024958807739698446
74,405.13,0.00268409494759979
75,413.62,0.0028293766982531205
76,416.86938299999997,0.002882995688838874
77,422.28000000000003,0.0029358007271185925
78,430.13000000000005,0.003015653846077558
79,441.16,0.003139980918831365
80,451.43999999999994,0.0032461355751241235
81,459.83000000000004,0.0033251292579350444
82,469.46000000000004,0.0034265106132948956
83,478.630092,0.0035287485714951077
84,480.4,0.0035071173954505565
85,490.46,0.003362200491660577
86,499.57,0.0032613431095008636
87,506.52000000000004,0.00319833089336365
88,512.39,0.0036493168102376882
89,519.52,0.003616087355265267
90,530.39,0.003541695926716849
91,540.26,0.003381853047252922
92,549.5408739999999,0.0037524068864906836
93,550.3000000000001,0.0037895052239511886
94,560.53,0.004090116120119295
95,569.64,0.004394668216315916
96,580.23,0.004247606583903427
97,589.66,0.004908250765806187
98,600.62,0.00510673745124142
99,610.38,0.005782852565278635
100,620.3000000000001,0.0063263632221689185
101,630.38,0.006818618421912271
102,630.957344,0.006817037589912036
103,640.6199999999999,0.006888484142655096
104,649.53,0.00786191522613838
105,658.5699999999999,0.0085980554993919
106,664.66,0.009002992081705389
107,675.4599999999999,0.009071710001079064
108,684.86,0.009165865338311707
109,694.38,0.011811814696870725
110,705.6700000000001,0.011601309869993762
111,715.48,0.013583215113424849
112,724.43596,0.014171229430642402
113,725.4399999999999,0.014234633513142726
114,735.53,0.014895757410130826
115,745.76,0.01702498465157664
116,754.4,0.01833114962382413
117,764.89,0.019632817362119984
118,775.53,0.021422841540906245
119,784.5100000000001,0.023248161778265324
120,795.4200000000001,0.024276529549934322
121,804.64,0.025508674092078056
122,815.83,0.02653234855266248
123,825.2800000000001,0.02931566430355817
124,831.763771,0.025637388230611662
125,834.83,0.023865629897384215
126,844.5,0.030877279984407476
127,854.2800000000001,0.031760416411614034
128,864.17,0.03438942917900391
129,874.18,0.03710506613568465
130,884.3,0.040765939432548706
131,894.5400000000001,0.04319307691870364
132,904.9,0.042497858594149444
133,915.38,0.07093241445888612
134,925.98,0.5617706645129137
135,934.54,1.2507049033489963
136,945.3599999999999,2.4555938360833904
137,954.11,3.634933704052517
138,954.992586,3.647453827296938
139,965.1600000000001,3.7917477411134817
140,974.0899999999999,0.5147783572682708
141,985.37,2.739571693463794
142,994.49,3.2366882929410257
143,1006.0,5.337451166842663
144,1015.31,5.330459549642337
145,1024.71,2.340853829805273
146,1034.19,3.378330018735553
147,1046.16,7.309005368049419
148,1055.84,7.18241132889806
149,1065.6100000000001,5.244600187109962
150,1075.47,6.5629279426851275
151,1085.42,4.803355595623555
152,1095.47,7.028483134521161
153,1096.4782,7.00068850839439
154,1105.6000000000001,6.749191426583529
155,1115.83,6.304314912939091
156,1126.1599999999999,5.533709042367533
157,1133.96,7.647580202052125
158,1144.46,6.805908724704461
159,1155.05,7.45107192612239
160,1165.73,7.666083806305909
161,1173.81,4.899149966594565
162,1184.67,7.437261204309267
163,1195.64,4.547692049404137
164,1203.92,2.9535444958385506
165,1215.06,2.3588567341573152
166,1226.31,4.998778579856247
167,1234.81,8.152918241050996
168,1246.23,9.007570479973824
169,1254.87,8.395846641470602
170,1258.92541,7.7260681532181845
171,1263.57,6.95900034578064
172,1275.26,9.589759313637012
173,1284.1,10.168489557935585
174,1295.98,7.337340574029143
175,1304.97,7.2439108564097054
176,1314.01,9.759020151484265
177,1326.17,9.218357238664202
178,1335.36,7.746307571820751
179,1344.62,9.919769922748893
180,1353.9399999999998,9.548125288909834
181,1366.4699999999998,8.225096470025345
182,1375.94,8.801498874268274
183,1385.48,8.891133296282797
184,1395.08,7.6271027335301165
185,1404.75,7.938970188549031
186,1414.49,8.019417661339538
187,1424.29,8.404888149362845
188,1434.1599999999999,8.277830655157745
189,1440.7900000000002,8.861089338381674
190,1445.43977,8.999315245514573
191,1447.44,9.0587769450716
192,1454.1200000000001,8.682591368438107
193,1464.2,7.834628516272599
194,1474.3500000000001,7.859267679022609
195,1484.56,8.086064854557348
196,1494.8600000000001,8.262089049269179
197,1505.2199999999998,7.681396256765741
198,1512.1599999999999,6.622407735532741
199,1515.65,7.257340479177818
200,1526.16,6.920125718636203
201,1536.74,5.813890973010104
202,1543.83,6.607014483738928
203,1554.53,6.199095763682288
204,1565.31,6.289739060671953
205,1576.16,6.713304372577135
206,1583.43,7.152834921660147
207,1594.41,7.257331261265576
208,1605.46,7.162533615786522
209,1616.59,7.233500987353773
210,1624.05,6.743307576921761
211,1635.3100000000002,7.280433976189259
212,1646.64,7.369364390372274
213,1654.2399999999998,6.744420009771296
214,1659.58691,7.0657382747149065
215,1665.71,7.433708677070111
216,1673.3999999999999,6.467092643284698
217,1677.2599999999998,7.369862649733112
218,1685.0,7.815492693751434
219,1696.68,7.281222868704149
220,1704.51,6.9135790527691965
221,1716.3200000000002,6.381908430011624
222,1724.25,6.345230769684143
223,1736.2,6.833648364777032
224,1744.21,6.654806828935528
225,1756.3000000000002,7.167348641878877
226,1764.4099999999999,6.4839262616448465
227,1776.6399999999999,6.592328292438656
228,1784.8400000000001,6.768669052251349
229,1793.08,7.29393387430703
230,1805.51,7.263470216315784
231,1813.84,6.51069317841819
232,1826.41,6.711072738277404
233,1834.8400000000001,6.401062855987282
234,1843.31,5.79039703594015
235,1856.09,5.713021922575055
236,1864.6599999999999,5.905993258135394
237,1873.27,6.602741655938723
238,1886.2499999999998,5.927556853788571
239,1894.96,5.61466540719937
240,1903.7,6.063653007292412
241,1905.46072,6.016899427340655
242,1916.9,5.713103802223631
243,1925.75,5.626933050914647
244,1934.6399999999999,5.911344219373759
245,1943.56,6.05461632765894
246,1957.04,5.587155289506951
247,1966.07,6.245718177154394
248,1975.1499999999999,6.456348964511957
249,1984.26,6.00328969169559
250,1993.4199999999998,5.791349318589342
251,2007.2400000000002,6.05116459846616
252,2016.5,5.74419102478015
253,2025.8100000000002,6.131843350804258
254,2035.16,5.662132596596462
255,2044.56,5.920362742098784
256,2053.99,5.619815827427177
257,2063.47,5.637466812465689
258,2073.0,6.059467697214321
259,2077.7799999999997,5.598966109501671
260,2087.37,5.8675148739024445
261,2097.0,5.493128558071312
262,2106.68,5.5610191419502994
263,2116.41,5.604042625539405
264,2126.18,5.686265028896606
265,2135.9900000000002,5.262391352021902
266,2145.85,5.339520574857316
267,2155.75,5.595250717460825
268,2165.7000000000003,5.422009759774453
269,2175.7000000000003,5.351516701798201
270,2185.74,5.161604563590042
271,2187.7616199999998,5.216130953196344
272,2195.83,5.433777411642784
273,2205.97,5.2651536276062405
274,2216.15,5.008675907537995
275,2226.38,4.784478267430122
276,2236.66,5.08220670728262
277,2246.98,4.853426211103416
278,2257.35,4.645647794884584
279,2262.55,4.797621110763281
280,2273.0,4.909076822481045
281,2283.49,5.0118535981671055
282,2294.0299999999997,4.731277453813539
283,2304.62,4.676960389420344
284,2315.26,4.425327404987522
285,2325.94,3.349401484522997
286,2336.68,4.120450660010919
287,2347.46,4.063582899467138
288,2352.88,4.304189567171472
289,2363.74,3.998496934564286
290,2374.65,4.082072381917472
291,2385.61,3.8447839092310314
292,2396.62,4.110026516504962
293,2407.6800000000003,3.906874203739265
294,2413.23,3.9978510793405655
295,2424.3700000000003,4.156991894511464
296,2435.56,3.969935789642734
297,2446.8,4.2046907647343765
298,2452.44,4.1183327842643465
299,2463.76,4.099392887292584
300,2475.1400000000003,3.950754086273269
301,2486.56,4.117869349222251
302,2492.29,3.84293251268089
303,2503.7999999999997,4.213469919558542
304,2511.88643,3.9476101346470918
305,2515.35,3.833729707711545
306,2526.9599999999996,3.798363521871736
307,2532.79,3.8244959134784478
308,2544.48,3.711477678123808
309,2556.23,3.9220934056330456
310,2562.12,3.850361760103634
311,2573.95,4.059433438098041
312,2585.83,4.012792085145679
313,2597.76,3.9756567012465474
314,2603.7500000000005,3.8405909938235974
315,2615.77,3.8052105542202814
316,2627.84,3.911301083670196
317,2633.9,3.929239332921769
318,2646.06,4.152141806667499
319,2652.16,4.1329180311616565
320,2664.4,3.8479864553925567
321,2676.7000000000003,4.001204842487333
322,2682.87,3.9371300236560134
323,2695.25,3.8207953612359593
324,2707.6899999999996,3.8646086616797817
325,2713.93,3.7418747995229857
326,2726.46,3.758773044262624
327,2732.7400000000002,3.9086841573484126
328,2745.36,3.507631346383866
329,2758.03,3.51531850447255
330,2764.39,3.588858568043508
331,2777.15,3.7315796704280078
332,2783.55,3.66341070924155
333,2796.4,3.0893987559218656
334,2802.85,3.2948977637886383
335,2815.7799999999997,3.704919760954123
336,2822.27,3.747698744063481
337,2835.3,3.553965679335427
338,2841.84,3.5050026314980154
339,2854.95,3.4886115172551313
340,2868.1299999999997,3.6359573596867696
341,2874.7400000000002,3.561131268523881
342,2884.0315,3.5665099664423545
343,2888.0099999999998,3.5688154672914854
344,2894.6699999999996,3.5037033829315822
345,2908.0299999999997,3.6597772137051097
346,2928.19,3.5677649583454034
347,2948.4900000000002,3.5101027012123653
348,2968.92,3.509618442432663
349,2989.5,3.4926991817529625
350,3010.23,3.500110919173264
351,3031.09,3.467582654946901
352,3052.1,3.41915438882054
353,3073.2599999999998,3.3794271207941815
354,3087.45,3.371221941054388
355,3108.8500000000004,3.3015176699880326
356,3130.3900000000003,3.263105397148346
357,3152.09,3.2548981222819955
358,3166.64,3.202356937982207
359,3188.59,3.1001266599491935
360,3210.7000000000003,3.1352183798895155
361,3232.95,3.0701430980565054
362,3247.87,3.069888909070056
363,3270.3900000000003,3.061921623817051
364,3293.06,3.0401433366640473
365,3308.26,3.018620144130935
366,3311.31121,3.0198999352170937
367,3323.53,3.0250221468539054
368,3331.19,3.0178512920799334
369,3338.87,2.90867443246321
370,3346.56,2.962250570425111
371,3354.28,2.8815157011228845
372,3362.01,2.894326829399281
373,3369.7599999999998,2.8743379528329265
374,3377.53,2.8346170714238195
375,3385.32,2.9337821851719608
376,3393.12,2.9540202964987263
377,3400.94,3.0086134029827396
378,3408.78,2.839994504624001
379,3416.6400000000003,2.899179601422511
380,3424.52,2.9258196933782687
381,3432.4100000000003,2.9524767829126506
382,3440.32,2.924550867604281
383,3448.25,2.830254947453159
384,3456.2,2.7451680224592847
385,3464.1699999999996,2.731076092622659
386,3472.1600000000003,2.780005157943282
387,3480.16,2.765670220842529
388,3488.1800000000003,2.789500278899023
389,3496.22,2.7879603321127657
390,3504.28,2.716719380483757
391,3512.36,2.6962144240119956
392,3520.46,2.7384904626974826
393,3528.5699999999997,2.717999498961594
394,3536.71,2.7605145279615777
395,3544.86,2.777945554540185
396,3550.7300000000005,2.493275133192507
397,3553.3799999999997,2.8566154915278825
398,3556.03,2.803833849863258
399,3558.69,2.5972882057772573
400,3561.34,2.685443564112633
401,3564.0,2.814838920026632
402,3566.65,2.927338278362008
403,3569.31,2.2499876342760072
404,3571.96,2.4338249926113824
405,3574.6099999999997,2.480288350946758
406,3577.27,2.6536567068607577
407,3579.9199999999996,2.338502065196133
408,3582.5800000000004,2.4501154211101324
409,3585.23,2.414348779445508
410,3587.88,2.3697151377808834
411,3590.54,2.642380493694883
412,3593.19,2.5011668520302583
413,3595.85,2.4437072079442577
414,3598.5,2.1047465662796334
415,3601.16,3.072869922193633
416,3603.81,3.136426280529008
417,3606.46,3.0106146388643835
418,3609.12,2.710024994778383
419,3611.7700000000004,2.7497493531137582
420,3614.4300000000003,2.267967709027758
421,3617.08,2.348434067363133
422,3619.73,2.6849194256985083
423,3622.39,2.582154781612508
424,3625.04,2.4247461399478833
425,3627.7,2.8032934958618827
426,3630.35,2.779467854197258
427,3633.0099999999998,2.6408282101112577
428,3635.66,2.5079435684466334
429,3638.31,2.119884926782009
430,3640.9700000000003,2.5008412826960082
431,3643.6200000000003,2.6987476410313835
432,3646.28,2.806362996945383
433,3648.9300000000003,2.5494543552807585
434,3651.58,2.333517713616134
435,3654.2400000000002,2.7015590695301333
436,3656.89,2.6987464278655087
437,3659.5499999999997,2.6546617837795083
438,3662.2,2.708993142114884
439,3664.8599999999997,2.382292498028883
440,3667.5099999999998,2.5115238563642586
441,3670.1600000000003,2.664151214699634
442,3672.82,2.8614535706136337
443,3675.4700000000003,2.518930928949009
444,3678.13,2.5278142848630085
445,3680.78,2.601874643198384
446,3683.44,2.0819649991123836
447,3686.09,2.415629357447759
448,3688.74,2.445051715783134
449,3691.4,2.500906071697133
450,3694.0499999999997,2.7343534300325087
451,3696.7100000000005,2.5680397859465085
452,3699.3599999999997,2.516538144281884
453,3702.01,2.0453785026172593
454,3704.67,2.202451858531259
455,3707.32,2.742039216866634
456,3709.98,2.3977605727806335
457,3712.63,3.0390289311160092
458,3715.29,3.1345982870300086
459,3717.94,3.692458645365384
460,3720.5899999999997,5.41702300370076
461,3723.25,9.411662359614759
462,3725.8999999999996,13.220314717950135
463,3728.5600000000004,14.282414073864134
464,3731.2099999999996,11.53520343219951
465,3733.86,7.533897790534884
466,3736.52,4.307705146448884
467,3739.17,3.3949545047842595
468,3741.83,2.976745860698259
469,3744.48,2.8883462190336346
470,3747.14,3.060535574947634
471,3749.79,2.5565769332830097
472,3752.44,2.640299291618385
473,3755.1,2.8240206475323846
474,3757.7500000000005,2.92217000586776
475,3760.4100000000003,3.0174843617817593
476,3763.06,3.2985947201171344
477,3765.7200000000003,3.1699480760311345
478,3768.37,3.051823434366509
479,3771.02,2.7848187927018846
480,3773.68,2.756878148615884
481,3776.33,2.9621385069512596
482,3778.99,3.0159408628652593
483,3781.64,3.3472772212006348
484,3784.29,3.30551557953601
485,3786.95,3.3267729354500095
486,3789.6000000000004,2.913962293785385
487,3792.26,2.9980016496993844
488,3794.9100000000003,2.8129970080347597
489,3797.57,2.235865363948759
490,3800.2200000000003,2.4352317222841346
491,3801.8939600000003,2.498508268321537
492,3802.87,2.5354031298629254
493,3805.5299999999997,2.979806619979913
494,3808.18,3.2993561120137542
495,3810.8399999999997,3.3175386021307416
496,3813.49,2.8324670941645826
497,3816.14,3.0925655861984236
498,3818.8,3.2047920763154116
499,3821.4500000000003,2.9662305683492525
500,3824.11,2.6197730584662398
501,3826.76,2.950083550500081
502,3829.42,2.9052310406170685
503,3832.07,2.5746755326509096
504,3834.72,2.2833000246847504
505,3837.38,2.847577514801738
506,3840.0299999999997,2.589796006835579
507,3842.69,3.120478496952567
508,3845.3399999999997,3.0738469889864075
509,3847.9900000000002,3.0484844810202487
510,3850.65,3.3416229711372365
511,3853.3,3.3467544631710773
512,3855.96,3.646554953288065
513,3858.61,3.9163924453219057
514,3861.27,3.6383509354388934
515,3863.92,4.094737427472735
516,3866.5699999999997,4.2951329195065755
517,3869.23,4.3391944096235635
518,3871.8799999999997,4.180584901657404
519,3874.5400000000004,3.7641683917743918
520,3877.1899999999996,3.451808883808233
521,3879.8500000000004,2.9475013739252205
522,3882.5,3.1453308659590613
523,3885.15,3.3175373579929026
524,3887.81,3.67781184810989
525,3890.46,3.688581340143731
526,3893.12,3.490745830260719
527,3895.77,2.8557693222945595
528,3898.42,2.9149688143284007
529,3901.08,3.636298304445388
530,3903.7300000000005,3.5473877964792293
531,3906.3900000000003,3.541226286596217
532,3909.04,3.739569778630058
533,3911.7000000000003,4.096000268747046
534,3914.35,3.6616657607808865
535,3917.0,3.5004932528147275
536,3919.66,3.6598697429317153
537,3922.31,3.3987582349655563
538,3924.97,3.635008725082544
539,3927.62,2.9803002171163846
540,3930.27,3.1035617091502257
541,3932.93,3.0023341992672137
542,3935.5800000000004,3.2178456913010547
543,3938.2400000000002,3.322641181418042
544,3940.8900000000003,3.239366673451883
545,3943.55,3.4563991635688707
546,3946.2000000000003,3.6770356556027117
547,3948.85,3.4056751476365523
548,3951.5099999999998,3.40079563775354
549,3954.16,2.8865111297873813
550,3956.8199999999997,3.038969619904369
551,3959.47,3.3585181119382095
552,3962.1299999999997,3.0699726020551976
553,3964.7799999999997,3.2601140940890385
554,3967.4300000000003,3.4712705861228796
555,3970.09,3.231155076239867
556,3972.7400000000002,3.155567568273708
557,3975.4,3.034097058390696
558,3978.05,3.0315395504245366
559,3980.7,2.995671042458378
560,3983.36,2.8344815325753654
561,3986.0099999999998,3.2898410246092062
562,3988.67,3.282400514726194
563,3991.3199999999997,3.314694006760035
564,3993.9799999999996,3.8120614968770226
565,3996.63,3.3682459889108634
566,3999.28,3.4064334809447048
567,4001.94,3.4497289710616923
568,4004.59,3.430517463095533
569,4007.25,3.544536953212521
570,4009.9,3.6431994452463616
571,4012.5499999999997,3.682668937280203
572,4015.21,3.45331542739719
573,4017.8599999999997,3.9276389194310313
574,4020.52,3.9322404095480192
575,4023.1699999999996,3.82077990158186
576,4025.8300000000004,3.6273003916988475
577,4028.48,3.6232078837326887
578,4031.13,3.7246893757665296
579,4033.79,3.7049468658835174
580,4036.44,3.8497353579173583
581,4039.1,3.7787428480343457
582,4041.75,3.6975183400681866
583,4044.4,3.777475832102028
584,4047.06,3.8812453222190157
585,4049.71,3.881252814252856
586,4052.3700000000003,3.763110304369844
587,4055.0199999999995,3.863310796403685
