,lambda (Angstroms),Total Flux (erg/s/cm^2/Angstrom)
0,102.00000000000001,0.0342120045158452
1,103.9,0.040045766039642994
2,104.712855,0.042541556842530345
3,106.07000000000001,0.03906471409212102
4,108.03999999999999,0.034017811442905534
5,110.05,0.028868436731140378
6,113.91999999999999,0.018953967787106174
7,117.92,0.008706457709494665
8,120.22644299999999,0.002797733983072687
9,120.95,0.002711996043533995
10,124.91,0.002242640218515506
11,126.94,0.0020020333488620884
12,128.10999999999999,0.0018633640007884452
13,131.1,0.001508981139366908
14,132.01,0.0014011885892429624
15,134.15,0.001147555496572363
16,136.96,0.0008146348011698486
17,138.038426,0.0006868330504009658
18,140.15,0.000678065751478786
19,143.09,0.0006672886976986037
20,147.10000000000002,0.0006538979275572663
21,150.87,0.000639080874863291
22,155.1,0.0006225375139785389
23,158.489319,0.0006095186942786137
24,159.07000000000002,0.0006059839977869644
25,162.02999999999997,0.0005879934384868491
26,166.19,0.0005629696490920917
27,170.06,0.0005397540013618728
28,172.82,0.0005234546572441975
29,176.85,0.0004995269837680264
30,180.14,0.0004799237593668844
31,181.8,0.00047034971225263014
32,181.970086,0.00046935001284278825
33,186.04,0.00048003385747757976
34,190.81,0.0004931195167233412
35,193.91,0.00050178239721849
36,197.97,0.0005129757257379431
37,202.12,0.0005247868968846746
38,204.93,0.0005330784489141482
39,208.929613,0.0005432404547938344
40,210.17999999999998,0.0005595474858121615
41,216.07000000000002,0.0006407203844815891
42,220.09,0.0006955221580386515
43,223.15,0.0007364481373134303
44,226.78,0.000786710721943315
45,229.93,0.0008518907494320579
46,234.21,0.0009498025589405719
47,239.88329199999998,0.001058433065656535
48,240.21,0.0010571985839995912
49,245.80999999999997,0.000998308252013172
50,252.11999999999998,0.0009538451997213314
51,256.8,0.0008827593179898234
52,259.78000000000003,0.0008822009834684785
53,264.0,0.0008541870768644271
54,268.91,0.0008115589575691911
55,273.90000000000003,0.0007663714078170066
56,275.42287,0.0007527481586884143
57,279.0,0.0007973385838449532
58,284.18,0.0008625843869249523
59,290.13,0.0009265449647871131
60,296.21000000000004,0.0010058979981319772
61,301.02,0.001061239250991976
62,308.03000000000003,0.001152186088943867
63,316.227766,0.0012573925614175095
64,318.13,0.0012453698042103078
65,327.79,0.0011801281693645184
66,337.75,0.0011080821110763138
67,348.02,0.0010330191485642792
68,356.93999999999994,0.000970689491543116
69,363.078055,0.0009324578549002871
70,366.09999999999997,0.0009572065957209684
71,374.63000000000005,0.0010162724609627054
72,385.12,0.0010765777547945706
73,395.0,0.0011628329152386918
74,405.13,0.0012443407303499214
75,413.62,0.0013001913868449203
76,416.86938299999997,0.001319582358934858
77,422.28000000000003,0.001338191772669472
78,430.13000000000005,0.0013684321297790843
79,441.16,0.001423048532061762
80,451.43999999999994,0.0014642325906715466
81,459.83000000000004,0.0014902006592256416
82,469.46000000000004,0.0015307194799855858
83,478.630092,0.0015750015667803639
84,480.4,0.0015680368982939588
85,490.46,0.0015064831218727166
86,499.57,0.001481116603562824
87,506.52000000000004,0.0014756962100113688
88,512.39,0.001975324428839133
89,519.52,0.0020011783832244753
90,530.39,0.0020168622225188184
91,540.26,0.0019388080177198458
92,549.5408739999999,0.0023862686841300924
93,550.3000000000001,0.002425414458981696
94,560.53,0.002753616670044736
95,569.64,0.0030827393311184687
96,580.23,0.0029642399689637855
97,589.66,0.00365031778717732
98,600.62,0.003878364669215533
99,610.38,0.004580803461979488
100,620.3000000000001,0.005151069333313345
101,630.38,0.005670511283217101
102,630.957344,0.005670487604697482
103,640.6199999999999,0.0057068053034956615
104,649.53,0.006647843834801892
105,658.5699999999999,0.007351118937271962
106,664.66,0.007733915155639521
107,675.4599999999999,0.007763369375404649
108,684.86,0.00782335075186689
109,694.38,0.010434689886326523
110,705.6700000000001,0.01018313995124766
111,715.48,0.012129380667534318
112,724.43596,0.01268483534371982
113,725.4399999999999,0.012746162567428523
114,735.53,0.013386415278799059
115,745.76,0.015494481744341239
116,754.4,0.01678277485893405
117,764.89,0.018062744010794992
118,775.53,0.019830759327839842
119,784.5100000000001,0.021637504416849498
120,795.4200000000001,0.022643304831225373
121,804.64,0.02385637778452927
122,815.83,0.02485690570724843
123,825.2800000000001,0.027620674113834315
124,831.763771,0.02392898634732559
125,834.83,0.02217105496151908
126,844.5,0.029226311244152803
127,854.2800000000001,0.030153549904355263
128,864.17,0.03282716094212647
129,874.18,0.03558793730088174
130,884.3,0.03929444603720577
131,894.5400000000001,0.04176776009451386
132,904.9,0.041119259472806036
133,915.38,0.06960107417208229
134,925.98,0.5604871241923427
135,934.54,1.2494599637558736
136,945.3599999999999,2.4543976885312713
137,954.11,3.633777014019694
138,954.992586,3.6463011172245867
139,965.1600000000001,3.790602277917556
140,974.0899999999999,0.5136392589756015
141,985.37,2.738440635048923
142,994.49,3.2355637348528843
143,1006.0,5.336334812565998
144,1015.31,5.329349831115876
145,1024.71,2.3397508111769776
146,1034.19,3.3772337570258326
147,1046.16,7.307917638018533
148,1055.84,7.181330498336773
149,1065.6100000000001,5.243526320166236
150,1075.47,6.5618611035069225
151,1085.42,4.802295848358833
152,1095.47,7.027430550445435
153,1096.4782,6.99963664291838
154,1105.6000000000001,6.748159909968823
155,1115.83,6.303306217352159
156,1126.1599999999999,5.532723390887824
157,1133.96,7.646611950769547
158,1144.46,6.804963896764173
159,1155.05,7.450150722295896
160,1165.73,7.6651864273647154
161,1173.81,4.898270612472962
162,1184.67,7.436406076615975
163,1195.64,4.546861393526552
164,1203.92,2.9527323109394565
165,1215.06,2.3580694003089935
166,1226.31,4.998016342446093
167,1234.81,8.152174965394122
168,1246.23,9.006852679990184
169,1254.87,8.395148115551477
170,1258.92541,7.7253786740853965
171,1263.57,6.9583101296677405
172,1275.26,9.58906724261388
173,1284.1,10.167796084225843
174,1295.98,7.336645215260929
175,1304.97,7.2432140711536395
176,1314.01,9.7583219318066
177,1326.17,9.217657089499077
178,1335.36,7.745605964432782
179,1344.62,9.919066846030836
180,1353.9399999999998,9.547420733341188
181,1366.4699999999998,8.224389926259505
182,1375.94,8.800790827850603
183,1385.48,8.89042373610605
184,1395.08,7.626391650073794
185,1404.75,7.938257570705886
186,1414.49,8.018703498002326
187,1424.29,8.404172431011068
188,1434.1599999999999,8.277113370684155
189,1440.7900000000002,8.860371001893128
190,1445.43977,8.998596171223976
191,1447.44,9.058057604401851
192,1454.1200000000001,8.68187113816429
193,1464.2,7.833906943602225
194,1474.3500000000001,7.858544754633479
195,1484.56,8.085340570459005
196,1494.8600000000001,8.261363393475943
197,1505.2199999999998,7.680669221287153
198,1512.1599999999999,6.621679775824778
199,1515.65,7.256612054691682
200,1526.16,6.919395894488576
201,1536.74,5.813159739878789
202,1543.83,6.606282306402099
203,1554.53,6.198362161380858
204,1565.31,6.289004022751982
205,1576.16,6.712567889716426
206,1583.43,7.152097470622555
207,1594.41,7.256592347974591
208,1605.46,7.161793230919947
209,1616.59,7.232759120257665
210,1624.05,6.74256471634566
211,1635.3100000000002,7.279689616070972
212,1646.64,7.368618521389603
213,1654.2399999999998,6.743673128664236
214,1659.58691,7.064990681537055
215,1665.71,7.432955128901291
216,1673.3999999999999,6.466331616231761
217,1677.2599999999998,7.369097868649917
218,1685.0,7.814720385156788
219,1696.68,7.280439200764056
220,1704.51,6.912787769788449
221,1716.3200000000002,6.3811056612543595
222,1724.25,6.344420288631554
223,1736.2,6.832826261791387
224,1744.21,6.653976935850823
225,1756.3000000000002,7.166506990704579
226,1764.4099999999999,6.483076723116818
227,1776.6399999999999,6.591466859664496
228,1784.8400000000001,6.767799644594255
229,1793.08,7.2930564528651365
230,1805.51,7.262580706118419
231,1813.84,6.5097955669068215
232,1826.41,6.7101629018540265
233,1834.8400000000001,6.400144820995231
234,1843.31,5.789470763477556
235,1856.09,5.712083220965646
236,1864.6599999999999,5.905046221800773
237,1873.27,6.601786245977022
238,1886.2499999999998,5.926588820170714
239,1894.96,5.613688902699764
240,1903.7,6.062668002734655
241,1905.46072,6.015912710400473
242,1916.9,5.712131425833861
243,1925.75,5.625971769092993
244,1934.6399999999999,5.910394082265159
245,1943.56,6.0536773728721025
246,1957.04,5.586233233565107
247,1966.07,6.244807441432898
248,1975.1499999999999,6.455449611691984
249,1984.26,6.0024017593858465
250,1993.4199999999998,5.790472869471003
251,2007.2400000000002,6.05030547442481
252,2016.5,5.743343509292557
253,2025.8100000000002,6.1310075065515965
254,2035.16,5.661308473723674
255,2044.56,5.919550403287045
256,2053.99,5.619015310285191
257,2063.47,5.636678179674634
258,2073.0,6.0586910114553705
259,2077.7799999999997,5.598195416063127
260,2087.37,5.866756202713416
261,2097.0,5.4923819592767416
262,2106.68,5.560284678231362
263,2116.41,5.603320359577277
264,2126.18,5.685555010836227
265,2135.9900000000002,5.261693632008214
266,2145.85,5.3388352155714935
267,2155.75,5.59457776904781
268,2165.7000000000003,5.42134928491542
269,2175.7000000000003,5.350868763174326
270,2185.74,5.1609692113462655
271,2187.7616199999998,5.215498135302939
272,2195.83,5.433136529366044
273,2205.97,5.2645026103523405
274,2216.15,5.008014715326748
275,2226.38,4.783806850286296
276,2236.66,5.081525015230983
277,2246.98,4.852734204163781
278,2257.35,4.644945423081719
279,2262.55,4.79691354153623
280,2273.0,4.908358808430392
281,2283.49,5.011125099312665
282,2294.0299999999997,4.7305384201800775
283,2304.62,4.676210771032629
284,2315.26,4.4245671518703205
285,2325.94,3.348630556696124
286,2336.68,4.119668997504094
287,2347.46,4.0627904623001765
288,2352.88,4.303391712689302
289,2363.74,3.997688225461607
290,2374.65,4.081252768219052
291,2385.61,3.8439533409616367
292,2396.62,4.10918494368936
293,2407.6800000000003,3.9060215764022246
294,2413.23,3.9969929047527124
295,2424.3700000000003,4.156122585441799
296,2435.56,3.969055296116025
297,2446.8,4.203799036775391
298,2452.44,4.11743541909913
299,2463.76,4.098484207734719
300,2475.1400000000003,3.949834032352476
301,2486.56,4.116937880958345
302,2492.29,3.841995317255334
303,2503.7999999999997,4.2125212198344535
304,2511.88643,3.9466533524986085
305,2515.35,3.832774265391829
306,2526.9599999999996,3.797412570701901
307,2532.79,3.8235472175544176
308,2544.48,3.710533504296428
309,2556.23,3.921153777112392
310,2562.12,3.849424410038863
311,2573.95,4.058500664286765
312,2585.83,4.01186390692963
313,2597.76,3.9747331379674553
314,2603.7500000000005,3.839669747683849
315,2615.77,3.8042939578326056
316,2627.84,3.9103891563763233
317,2633.9,3.9283297498456635
318,2646.06,4.151236927500312
319,2652.16,4.132015511685621
320,2664.4,3.8470886707722087
321,2676.7000000000003,4.00031181593275
322,2682.87,3.9362393838710052
323,2695.25,3.819909510463485
324,2707.6899999999996,3.8637276231299182
325,2713.93,3.74099617482112
326,2726.46,3.7578992665984843
327,2732.7400000000002,3.9078128090056548
328,2745.36,3.5067648798939497
329,2758.03,3.5144569391772063
330,2764.39,3.5879994630163154
331,2777.15,3.730725501410503
332,2783.55,3.662559015965581
333,2796.4,3.0885520334706995
334,2802.85,3.2940535364207393
335,2815.7799999999997,3.704080535357796
336,2822.27,3.7468620290238053
337,2835.3,3.553134004750785
338,2841.84,3.504173486811756
339,2854.95,3.4877874439706744
340,2868.1299999999997,3.6351383848825387
341,2874.7400000000002,3.5603148506964555
342,2884.0315,3.5656971428887543
343,2888.0099999999998,3.568002675234307
344,2894.6699999999996,3.5028906435993434
345,2908.0299999999997,3.658964580139416
346,2928.19,3.5669524843795264
347,2948.4900000000002,3.509290387954637
348,2968.92,3.508806290912249
349,2989.5,3.491887193157361
350,3010.23,3.4992990946899742
351,3031.09,3.4667709956050876
352,3052.1,3.4183428958077027
353,3073.2599999999998,3.3786157952978177
354,3087.45,3.3704107278953956
355,3108.8500000000004,3.3007066262455123
356,3130.3900000000003,3.26229452393063
357,3152.09,3.2540874208557486
358,3166.64,3.201546351743328
359,3188.59,3.0993162474809477
360,3210.7000000000003,3.134408142458568
361,3232.95,3.0693330367711895
362,3247.87,3.069078965901271
363,3270.3900000000003,3.061111858931394
364,3293.06,3.0393337512490177
365,3308.26,3.017810679049101
366,3311.31121,3.019090494290644
367,3323.53,3.0242145550702144
368,3331.19,3.017044859529975
369,3338.87,2.9078691621737036
370,3346.56,2.9614464639094167
371,3354.28,2.880712762921082
372,3362.01,2.8935250610247305
373,3369.7599999999998,2.8735373573123475
374,3377.53,2.833817651783932
375,3385.32,2.932983944439485
376,3393.12,2.9532232361870223
377,3400.94,3.0078175261185276
378,3408.78,2.8391998142340005
379,3416.6400000000003,2.8983861005334415
380,3424.52,2.9250273850168504
381,3432.4100000000003,2.9516856685922437
382,3440.32,2.9237609503516055
383,3448.25,2.8294662302949347
384,3456.2,2.744380508422232
385,3464.1699999999996,2.7302897847334973
386,3472.1600000000003,2.779220059228731
387,3480.16,2.7648863328159483
388,3488.1800000000003,2.7887176045871334
389,3496.22,2.787178874542287
390,3504.28,2.7159391426814086
391,3512.36,2.695435409004498
392,3520.46,2.737712673511556
393,3528.5699999999997,2.7172229371105976
394,3536.71,2.7597391979855916
395,3544.86,2.7771714579525693
396,3550.7300000000005,2.4925019249471903
397,3553.3799999999997,2.855842684322956
398,3556.03,2.803061443698722
399,3558.69,2.5965162021664714
400,3561.34,2.684671961542237
401,3564.0,2.814067720009987
402,3566.65,2.9265674793857532
403,3569.31,2.249217237853503
404,3571.96,2.4330549972292683
405,3574.6099999999997,2.4795187566050343
406,3577.27,2.652887515072784
407,3579.9199999999996,2.3377332744485497
408,3582.5800000000004,2.4493470329162994
409,3585.23,2.413580792292066
410,3587.88,2.3689475516678313
411,3590.54,2.641613310135581
412,3593.19,2.500400069511347
413,3595.85,2.4429408279790965
414,3598.5,2.1039805873548625
415,3601.16,3.0721043458226123
416,3603.81,3.135661105198378
417,3606.46,3.009849864574144
418,3609.12,2.7092606230418936
419,3611.7700000000004,2.7489853824176596
420,3614.4300000000003,2.267204140885409
421,3617.08,2.347670900261175
422,3619.73,2.6841566596369404
423,3622.39,2.5813924181046906
424,3625.04,2.4239841774804565
425,3627.7,2.802531935948206
426,3630.35,2.778706695323972
427,3633.0099999999998,2.6400674537917217
428,3635.66,2.5071832131674876
429,3638.31,2.1191249725432533
430,3640.9700000000003,2.500081731011003
431,3643.6200000000003,2.697988490386769
432,3646.28,2.805604248854519
433,3648.9300000000003,2.5486960082302845
434,3651.58,2.33275976760605
435,3654.2400000000002,2.7008015260738
436,3656.89,2.6979892854495655
437,3659.5499999999997,2.6539050439173155
438,3662.2,2.7082368032930813
439,3664.8599999999997,2.381536561760831
440,3667.5099999999998,2.510768321136597
441,3670.1600000000003,2.6633960805123627
442,3672.82,2.8606988389801127
443,3675.4700000000003,2.518176598355878
444,3678.13,2.527060356823628
445,3680.78,2.6011211161993937
446,3683.44,2.0812118746671437
447,3686.09,2.4148766340429098
448,3688.74,2.4442993934186754
449,3691.4,2.500154151886425
450,3694.0499999999997,2.7336019112621908
451,3696.7100000000005,2.567288669729941
452,3699.3599999999997,2.5157874291057065
453,3702.01,2.044628188481472
454,3704.67,2.201701946949222
455,3707.32,2.741289706324988
456,3709.98,2.3970114647927376
457,3712.63,3.0382802241685036
458,3715.29,3.1338499826362534
459,3717.94,3.691710742012019
460,3720.5899999999997,5.416275501387785
461,3723.25,9.410915259855535
462,3725.8999999999996,13.2195680192313
463,3728.5600000000004,14.281667777699049
464,3731.2099999999996,11.534457537074816
465,3733.86,7.533152296450582
466,3736.52,4.306960054918331
467,3739.17,3.394209814294097
468,3741.83,2.976001572761847
469,3744.48,2.887602332137613
470,3747.14,3.059792090605363
471,3749.79,2.555833849981129
472,3752.44,2.6395566093568945
473,3755.1,2.8232783678246443
474,3757.7500000000005,2.92142812720041
475,3760.4100000000003,3.0167428856681595
476,3763.06,3.2978536450439253
477,3765.7200000000003,3.1692074035116753
478,3768.37,3.051083162887441
479,3771.02,2.7840789222632067
480,3773.68,2.7561386807309565
481,3776.33,2.9613994401067223
482,3778.99,3.0152021985744724
483,3781.64,3.346538957950238
484,3784.29,3.304777717326004
485,3786.95,3.326035475793754
486,3789.6000000000004,2.9132252351695196
487,3792.26,2.9972649936372693
488,3794.9100000000003,2.812260753013035
489,3797.57,2.2351295114807845
490,3800.2200000000003,2.4344962708565503
491,3801.8939600000003,2.4977730702243575
492,3802.87,2.534668048698597
493,3805.5299999999997,2.9790718574924675
494,3808.18,3.298621667005158
495,3810.8399999999997,3.316804475799028
496,3813.49,2.8317332853117185
497,3816.14,3.091832094824409
498,3818.8,3.2040589036182796
499,3821.4500000000003,2.9654977131309694
500,3824.11,2.61904052192484
501,3826.76,2.9493513314375304
502,3829.42,2.9044991402314007
503,3832.07,2.573943949744091
504,3834.72,2.2825687592567814
505,3837.38,2.8468465680506516
506,3840.0299999999997,2.589065377563342
507,3842.69,3.1197481863572127
508,3845.3399999999997,3.0731169958699027
509,3847.9900000000002,3.0477548053825934
510,3850.65,3.340893614176464
511,3853.3,3.346025423689154
512,3855.96,3.6458262324830244
513,3858.61,3.9156640419957145
514,3861.27,3.637622850789585
515,3863.92,4.094009660302276
516,3866.5699999999997,4.294405469814966
517,3869.23,4.338467278608836
518,3871.8799999999997,4.179858088121526
519,3874.5400000000004,3.763441896915397
520,3877.1899999999996,3.451082706428087
521,3879.8500000000004,2.9467755152219577
522,3882.5,3.144605324734648
523,3885.15,3.3168121342473387
524,3887.81,3.6770869430412088
525,3890.46,3.687856752553899
526,3893.12,3.4900215613477696
527,3895.77,2.8550453708604597
528,3898.42,2.9142451803731504
529,3901.08,3.6355749891670204
530,3903.7300000000005,3.546664798679711
531,3906.3900000000003,3.5405036074735814
532,3909.04,3.738847416986272
533,3911.7000000000003,4.0952782257801426
534,3914.35,3.6609440352928324
535,3917.0,3.499771844805523
536,3919.66,3.6591486535993933
537,3922.31,3.3980374631120833
538,3924.97,3.634288271905954
539,3927.62,2.979580081418644
540,3930.27,3.1028418909313347
541,3932.93,3.0016146997252053
542,3935.5800000000004,3.2171265092378953
543,3938.2400000000002,3.3219223180317656
544,3940.8900000000003,3.2386481275444563
545,3943.55,3.4556809363383265
546,3946.2000000000003,3.6763177458510166
547,3948.85,3.404957555363707
548,3951.5099999999998,3.4000783641575776
549,3954.16,2.885794173670268
550,3956.8199999999997,3.0382529824641384
551,3959.47,3.3578017919768284
552,3962.1299999999997,3.069256600770699
553,3964.7799999999997,3.2593984102833895
554,3967.4300000000003,3.47055521979608
555,3970.09,3.23044002858995
556,3972.7400000000002,3.1548528381026406
557,3975.4,3.033382646896511
558,3978.05,3.030825456409201
559,3980.7,2.9949572659218915
560,3983.36,2.833768074715762
561,3986.0099999999998,3.2891278842284524
562,3988.67,3.281687693022323
563,3991.3199999999997,3.313981502535013
564,3993.9799999999996,3.8113493113288834
565,3996.63,3.3675341208415737
566,3999.28,3.4057219303542645
567,4001.94,3.4490177391481347
568,4004.59,3.429806548660825
569,4007.25,3.5438263574546953
570,4009.9,3.6424891669673856
571,4012.5499999999997,3.681958976480076
572,4015.21,3.452605785273946
573,4017.8599999999997,3.9269295947866367
574,4020.52,3.9315314035805073
575,4023.1699999999996,3.8200712130931977
576,4025.8300000000004,3.626592021887068
577,4028.48,3.6224998313997583
578,4031.13,3.7239816409124487
579,4033.79,3.704239449706319
580,4036.44,3.849028259219009
581,4039.1,3.7780360680128795
582,4041.75,3.69681187752557
583,4044.4,3.7767696870382608
584,4047.06,3.880539495832131
585,4049.71,3.880547305344821
586,4052.3700000000003,3.7624051141386916
587,4055.0199999999995,3.862605923651382
