,lambda (Angstroms),Total Flux (erg/s/cm^2/Angstrom)
0,102.00000000000001,0.045616004417156256
1,103.9,0.053394352629752985
2,104.712855,0.056722073439442265
3,106.07000000000001,0.05208628267008535
4,108.03999999999999,0.04535707813173737
5,110.05,0.03849124311684717
6,113.91999999999999,0.0252719476190349
7,117.92,0.011608596142169553
8,120.22644299999999,0.0037302615446427874
9,120.95,0.0036159329055786595
10,124.91,0.002990101267154008
11,126.94,0.0026692807860827844
12,128.10999999999999,0.0024843799476845932
13,131.1,0.002011849944322544
14,132.01,0.0018680995683906163
15,134.15,0.0015299063139298172
16,136.96,0.001085951013559798
17,138.038426,0.0009155362361372911
18,140.15,0.0009038221405383814
19,143.09,0.0008889421842648048
20,147.10000000000002,0.0008699552784096884
21,150.87,0.0008498770208177212
22,155.1,0.0008274305043047185
23,158.489319,0.0008096817371979878
24,159.07000000000002,0.0008049019327159526
25,162.02999999999997,0.0007805644813157987
26,166.19,0.0007466207354561222
27,170.06,0.0007151069551491637
28,172.82,0.0006928895629922633
29,176.85,0.0006603206816907018
30,180.14,0.0006336629724891791
31,181.8,0.0006205295196701735
32,181.970086,0.0006191651184056941
33,186.04,0.0006326572433034397
34,190.81,0.0006490342489644549
35,193.91,0.0006598361596246532
36,197.97,0.0006738309276505906
37,202.12,0.000688505639179566
38,204.93,0.0006987361185521976
39,208.929613,0.0007116578963207627
40,210.17999999999998,0.000733204411082882
41,216.07000000000002,0.0008390581159754522
42,220.09,0.0009107048540515351
43,223.15,0.0009644531197512403
44,226.78,0.0010299264559244198
45,229.93,0.0011083058959094104
46,234.21,0.0012241521452540957
47,239.88329199999998,0.0013565553888969357
48,240.21,0.0013541931786661215
49,245.80999999999997,0.0012759728026842292
50,252.11999999999998,0.001209728932961775
51,256.8,0.0011224886573197644
52,259.78000000000003,0.0011116439779579714
53,264.0,0.0010690635024859026
54,268.91,0.0010094870767589214
55,273.90000000000003,0.000947075077089342
56,275.42287,0.0009281951950858595
57,279.0,0.0009859683117932707
58,284.18,0.0010703038158999363
59,290.13,0.001156191753049484
60,296.21000000000004,0.0012579512308426364
61,301.02,0.0013310186346559678
62,308.03000000000003,0.0014477992185918226
63,316.227766,0.0015832166760126791
64,318.13,0.0015660591056137437
65,327.79,0.001474741659152691
66,337.75,0.0013758099814350849
67,348.02,0.0012730245980857055
68,356.93999999999994,0.0011866166553908212
69,363.078055,0.0011318162024059502
70,366.09999999999997,0.0011629313942946246
71,374.63000000000005,0.0012399677479502736
72,385.12,0.001322372739726094
73,395.0,0.0014294424869849222
74,405.13,0.001532291573799895
75,413.62,0.0016060284491265604
76,416.86938299999997,0.001632265024915661
77,422.28000000000003,0.0016577135635592961
78,430.13000000000005,0.0016978764730387788
79,441.16,0.0017664350094156824
80,451.43999999999994,0.0018206131875620618
81,459.83000000000004,0.0018571863789675221
82,469.46000000000004,0.001909877706647448
83,478.630092,0.0019657509677233126
84,480.4,0.0019558529977252784
85,490.46,0.0018776265958302886
86,499.57,0.0018371619047504316
87,506.52000000000004,0.001820223146681825
88,512.39,0.002310122905118844
89,519.52,0.0023241601776326335
90,530.39,0.0023218289633584245
91,540.26,0.002227417023626461
92,549.5408739999999,0.0026594963246022105
93,550.3000000000001,0.0026982326119755944
94,560.53,0.0030209165600596473
95,569.64,0.0033451251081579583
96,580.23,0.0032209132919517134
97,589.66,0.0039019043829030932
98,600.62,0.00412403922562071
99,610.38,0.004821213282639318
100,620.3000000000001,0.00538612811108446
101,630.38,0.005900132710956136
102,630.957344,0.005899797601740393
103,640.6199999999999,0.005943141071327549
104,649.53,0.00689065811306919
105,658.5699999999999,0.00760050624969595
106,664.66,0.007987730540852694
107,675.4599999999999,0.008025037500539532
108,684.86,0.008091853669155854
109,694.38,0.010710114848435363
110,705.6700000000001,0.01046677393499688
111,715.48,0.012420147556712424
112,724.43596,0.012982114161104336
113,725.4399999999999,0.013043856756571364
114,735.53,0.013688283705065413
115,745.76,0.01580058232578832
116,754.4,0.017092449811912065
117,764.89,0.01837675868105999
118,775.53,0.020149175770453123
119,784.5100000000001,0.02195963588913266
120,795.4200000000001,0.022969949774967163
121,804.64,0.024186837046039026
122,815.83,0.025191994276331238
123,825.2800000000001,0.027959672151779087
124,831.763771,0.024270666723982804
125,834.83,0.022509969948692105
126,844.5,0.029556504992203737
127,854.2800000000001,0.030474923205807018
128,864.17,0.03313961458950196
129,874.18,0.035891363067842325
130,884.3,0.039588744716274354
131,894.5400000000001,0.04205282345935182
132,904.9,0.04139497929707472
133,915.38,0.06986734222944306
134,925.98,0.5607438322564569
135,934.54,1.2497089516744981
136,945.3599999999999,2.454636918041695
137,954.11,3.6340083520262585
138,954.992586,3.646531659239057
139,965.1600000000001,3.790831370556741
140,974.0899999999999,0.5138670786341354
141,985.37,2.738666846731897
142,994.49,3.2357886464705126
143,1006.0,5.336558083421331
144,1015.31,5.329571774821169
145,1024.71,2.3399714149026365
146,1034.19,3.377453009367777
147,1046.16,7.30813518402471
148,1055.84,7.18154666444903
149,1065.6100000000001,5.2437410935549815
150,1075.47,6.562074471342563
151,1085.42,4.802507797811777
152,1095.47,7.02764106726058
153,1096.4782,6.999847016013582
154,1105.6000000000001,6.748366213291765
155,1115.83,6.303507956469545
156,1126.1599999999999,5.532920521183766
157,1133.96,7.646805601026062
158,1144.46,6.805152862352231
159,1155.05,7.450334963061195
160,1165.73,7.665365903152955
161,1173.81,4.898446483297282
162,1184.67,7.436577102154634
163,1195.64,4.547027524702068
164,1203.92,2.952894747919275
165,1215.06,2.358226867078658
166,1226.31,4.9981687899281235
167,1234.81,8.152323620525497
168,1246.23,9.006996239986911
169,1254.87,8.395287820735302
170,1258.92541,7.725516569911954
171,1263.57,6.9584481728903205
172,1275.26,9.589205656818505
173,1284.1,10.167934778967792
174,1295.98,7.336784287014572
175,1304.97,7.243353428204853
176,1314.01,9.758461575742134
177,1326.17,9.217797119332102
178,1335.36,7.745746285910376
179,1344.62,9.919207461374446
180,1353.9399999999998,9.547561644454916
181,1366.4699999999998,8.224531235012673
182,1375.94,8.800932437134136
183,1385.48,8.890565648141399
184,1395.08,7.626533866765058
185,1404.75,7.938400094274515
186,1414.49,8.018846330669769
187,1424.29,8.404315574681423
188,1434.1599999999999,8.277256827578872
189,1440.7900000000002,8.860514669190838
190,1445.43977,8.998739986082096
191,1447.44,9.0582014725358
192,1454.1200000000001,8.682015184219052
193,1464.2,7.8340512581362995
194,1474.3500000000001,7.858689339511304
195,1484.56,8.085485427278673
196,1494.8600000000001,8.26150852463459
197,1505.2199999999998,7.680814628382871
198,1512.1599999999999,6.6218253677663705
199,1515.65,7.25675773958891
200,1526.16,6.919541859318102
201,1536.74,5.813305986505052
202,1543.83,6.606428741869465
203,1554.53,6.1985088818411445
204,1565.31,6.289151030335977
205,1576.16,6.712715186288567
206,1583.43,7.152244960830074
207,1594.41,7.256740130632788
208,1605.46,7.161941307893262
209,1616.59,7.232907493676887
210,1624.05,6.74271328846088
211,1635.3100000000002,7.279838488094629
212,1646.64,7.368767695186137
213,1654.2399999999998,6.743822504885648
214,1659.58691,7.065140200172626
215,1665.71,7.433105838535055
216,1673.3999999999999,6.466483821642349
217,1677.2599999999998,7.369250824866556
218,1685.0,7.814874846875717
219,1696.68,7.280595934352075
220,1704.51,6.912946026384598
221,1716.3200000000002,6.381266215005812
222,1724.25,6.344582384842072
223,1736.2,6.832990682388516
224,1744.21,6.654142914467764
225,1756.3000000000002,7.166675320939438
226,1764.4099999999999,6.483246630822423
227,1776.6399999999999,6.591639146219328
228,1784.8400000000001,6.767973526125674
229,1793.08,7.293231937153515
230,1805.51,7.262758608157892
231,1813.84,6.509975089209095
232,1826.41,6.7103448691387015
233,1834.8400000000001,6.400328427993641
234,1843.31,5.789656017970075
235,1856.09,5.712270961287528
236,1864.6599999999999,5.905235629067697
237,1873.27,6.601977327969362
238,1886.2499999999998,5.9267824268942855
239,1894.96,5.613884203599685
240,1903.7,6.062865003646206
241,1905.46072,6.016110053788509
242,1916.9,5.712325901111815
243,1925.75,5.6261640254573235
244,1934.6399999999999,5.910584109686879
245,1943.56,6.05386516382947
246,1957.04,5.5864176447534755
247,1966.07,6.244989588577197
248,1975.1499999999999,6.455629482255978
249,1984.26,6.002579345847796
250,1993.4199999999998,5.790648159294671
251,2007.2400000000002,6.05047729923308
252,2016.5,5.743513012390076
253,2025.8100000000002,6.131174675402129
254,2035.16,5.661473298298231
255,2044.56,5.919712871049392
256,2053.99,5.619175413713588
257,2063.47,5.636835906232845
258,2073.0,6.05884634860716
259,2077.7799999999997,5.598349554750835
260,2087.37,5.866907936951222
261,2097.0,5.4925312790356555
262,2106.68,5.56043157097515
263,2116.41,5.603464812769703
264,2126.18,5.685697014448303
265,2135.9900000000002,5.261833176010951
266,2145.85,5.338972287428658
267,2155.75,5.594712358730413
268,2165.7000000000003,5.421481379887227
269,2175.7000000000003,5.350998350899101
270,2185.74,5.161096281795021
271,2187.7616199999998,5.21562469888162
272,2195.83,5.433264705821392
273,2205.97,5.264632813803121
274,2216.15,5.008146953768997
275,2226.38,4.783941133715061
276,2236.66,5.0816613536413096
277,2246.98,4.852872605551708
278,2257.35,4.645085897442292
279,2262.55,4.797055055381641
280,2273.0,4.908502411240522
281,2283.49,5.011270799083553
282,2294.0299999999997,4.73068622690677
283,2304.62,4.676360694710172
284,2315.26,4.424719202493761
285,2325.94,3.3487847422614982
286,2336.68,4.11982533000546
287,2347.46,4.062948949733569
288,2352.88,4.303551283585736
289,2363.74,3.997849967282143
290,2374.65,4.081416690958736
291,2385.61,3.8441194546155155
292,2396.62,4.10935325825248
293,2407.6800000000003,3.9061921018696326
294,2413.23,3.997164539670283
295,2424.3700000000003,4.156296447255731
296,2435.56,3.969231394821367
297,2446.8,4.203977382367188
298,2452.44,4.117614892132173
299,2463.76,4.098665943646292
300,2475.1400000000003,3.9500180431366343
301,2486.56,4.117124174611125
302,2492.29,3.842182756340445
303,2503.7999999999997,4.212710959779271
304,2511.88643,3.946844708928305
305,2515.35,3.8329653538557724
306,2526.9599999999996,3.797602760935868
307,2532.79,3.8237369567392236
308,2544.48,3.710722339061904
309,2556.23,3.9213417028165227
310,2562.12,3.849611880051817
311,2573.95,4.05868721904902
312,2585.83,4.01204954257284
313,2597.76,3.9749178506232736
314,2603.7500000000005,3.8398539969117986
315,2615.77,3.8044772771101405
316,2627.84,3.910571541835098
317,2633.9,3.9285116664608846
318,2646.06,4.1514179033337495
319,2652.16,4.132196015580829
320,2664.4,3.8472682276962784
321,2676.7000000000003,4.000490421243667
322,2682.87,3.9364175118280067
323,2695.25,3.8200866806179796
324,2707.6899999999996,3.8639038308398908
325,2713.93,3.741171899761493
326,2726.46,3.758074022131312
327,2732.7400000000002,3.907987078674206
328,2745.36,3.5069381731919327
329,2758.03,3.514629252236275
330,2764.39,3.5881712840217537
331,2777.15,3.730896335214004
332,2783.55,3.662729354620775
333,2796.4,3.088721377960933
334,2802.85,3.294222381894319
335,2815.7799999999997,3.7042483804770616
336,2822.27,3.7470293720317405
337,2835.3,3.5533003396677136
338,2841.84,3.5043393157490077
339,2854.95,3.4879522586275655
340,2868.1299999999997,3.635302179843385
341,2874.7400000000002,3.5604781342619405
342,2884.0315,3.5658597075994742
343,2888.0099999999998,3.568165233645743
344,2894.6699999999996,3.503053191465791
345,2908.0299999999997,3.659127106852555
346,2928.19,3.5671149791727017
347,2948.4900000000002,3.5094528506061824
348,2968.92,3.5089687212163314
349,2989.5,3.4920495908764813
350,3010.23,3.499461459586632
351,3031.09,3.46693332747345
352,3052.1,3.4185051944102702
353,3073.2599999999998,3.3787780603970905
354,3087.45,3.3705729705271943
355,3108.8500000000004,3.3008688349940165
356,3130.3900000000003,3.262456698574173
357,3152.09,3.254249561140998
358,3166.64,3.2017084689911037
359,3188.59,3.0994783299745965
360,3210.7000000000003,3.134570189944758
361,3232.95,3.069495049028253
362,3247.87,3.069240954535028
363,3270.3900000000003,3.061273811908525
364,3293.06,3.039495668332024
365,3308.26,3.0179725720654678
366,3311.31121,3.019252382475934
367,3323.53,3.0243760734269527
368,3331.19,3.0172061460399666
369,3338.87,2.908030216231605
370,3346.56,2.9616072852125557
371,3354.28,2.8808733505614423
372,3362.01,2.8936854146996405
373,3369.7599999999998,2.873697476416463
374,3377.53,2.8339775357119095
375,3385.32,2.93314359258598
376,3393.12,2.953382648249363
377,3400.94,3.00797670149137
378,3408.78,2.8393587523120005
379,3416.6400000000003,2.8985448007112553
380,3424.52,2.9251858466891343
381,3432.4100000000003,2.951843891456325
382,3440.32,2.9239189338021405
383,3448.25,2.8296239737265796
384,3456.2,2.7445380112296425
385,3464.1699999999996,2.7304470463113297
386,3472.1600000000003,2.779377078971641
387,3480.16,2.7650431104212645
388,3488.1800000000003,2.7888741394495113
389,3496.22,2.787335166056383
390,3504.28,2.7160951902418784
391,3512.36,2.695591212005998
392,3520.46,2.7378682313487412
393,3528.5699999999997,2.717378249480797
394,3536.71,2.759894263980789
395,3544.86,2.7773262772700926
396,3550.7300000000005,2.4926565665962537
397,3553.3799999999997,2.8559972457639415
398,3556.03,2.8032159249316293
399,3558.69,2.596670602888629
400,3561.34,2.6848262820563167
401,3564.0,2.8142219600133163
402,3566.65,2.9267216391810043
403,3569.31,2.249371317138004
404,3571.96,2.4332089963056913
405,3574.6099999999997,2.479672675473379
406,3577.27,2.6530413534303787
407,3579.9199999999996,2.3378870325980663
408,3582.5800000000004,2.449500710555066
409,3585.23,2.413734389722754
410,3587.88,2.3691010688904415
411,3590.54,2.6417667468474413
412,3593.19,2.500553426015129
413,3595.85,2.4430941039721286
414,3598.5,2.1041337831398166
415,3601.16,3.0722574610968163
416,3603.81,3.135814140264504
417,3606.46,3.0100028194321915
418,3609.12,2.7094134973891912
419,3611.7700000000004,2.749138176556879
420,3614.4300000000003,2.2673568545138787
421,3617.08,2.3478235336815665
422,3619.73,2.684309212849254
423,3622.39,2.581544890806254
424,3625.04,2.4241365699739417
425,3627.7,2.8026842479309413
426,3630.35,2.778858927098629
427,3633.0099999999998,2.640219605055629
428,3635.66,2.5073352842233168
429,3638.31,2.1192769633910045
430,3640.9700000000003,2.500233641348004
431,3643.6200000000003,2.6981403205156917
432,3646.28,2.8057559984726916
433,3648.9300000000003,2.5488476776403792
434,3651.58,2.332911356808067
435,3654.2400000000002,2.7009530347650665
436,3656.89,2.6981407139327542
437,3659.5499999999997,2.654056391889754
438,3662.2,2.708388071057442
439,3664.8599999999997,2.3816877490144415
440,3667.5099999999998,2.510919428182129
441,3670.1600000000003,2.663547107349817
442,3672.82,2.860849785306817
443,3675.4700000000003,2.5183274644745044
444,3678.13,2.5272111424315042
445,3680.78,2.601271821599192
446,3683.44,2.081362499556192
447,3686.09,2.4150271787238795
448,3688.74,2.444449857891567
449,3691.4,2.5003045358485667
450,3694.0499999999997,2.7337522150162545
451,3696.7100000000005,2.5674388929732546
452,3699.3599999999997,2.5159375721409423
453,3702.01,2.04477825130863
454,3704.67,2.20185192926563
455,3707.32,2.7414396084333172
456,3709.98,2.397161286390317
457,3712.63,3.038429965558005
458,3715.29,3.1339996435150046
459,3717.94,3.6918603226826923
460,3720.5899999999997,5.41642500185038
461,3723.25,9.41106467980738
462,3725.8999999999996,13.219717358975068
463,3728.5600000000004,14.281817036932067
464,3731.2099999999996,11.534606716099756
465,3733.86,7.533301395267443
466,3736.52,4.307109073224442
467,3739.17,3.3943587523921295
468,3741.83,2.9761504303491293
469,3744.48,2.887751109516817
470,3747.14,3.059940787473817
471,3749.79,2.5559824666415047
472,3752.44,2.6397051458091925
473,3755.1,2.823426823766192
474,3757.7500000000005,2.92157650293388
475,3760.4100000000003,3.0168911808908794
476,3763.06,3.298001860058567
477,3765.7200000000003,3.169355538015567
478,3768.37,3.0512312171832545
479,3771.02,2.7842268963509422
480,3773.68,2.756286574307942
481,3776.33,2.9615472534756297
482,3778.99,3.0153499314326297
483,3781.64,3.3466866106003175
484,3784.29,3.304925289768005
485,3786.95,3.3261829677250048
486,3789.6000000000004,2.9133726468926926
487,3792.26,2.9974123248496922
488,3794.9100000000003,2.81240800401738
489,3797.57,2.2352766819743795
490,3800.2200000000003,2.4346433611420673
491,3801.8939600000003,2.4979201098437933
492,3802.87,2.534815064931463
493,3805.5299999999997,2.9792188099899564
494,3808.18,3.298768556006877
495,3810.8399999999997,3.316951301065371
496,3813.49,2.8318800470822914
497,3816.14,3.0919787930992118
498,3818.8,3.204205538157706
499,3821.4500000000003,2.965644284174626
500,3824.11,2.61918702923312
501,3826.76,2.9494977752500406
502,3829.42,2.904645520308534
503,3832.07,2.5740902663254546
504,3834.72,2.282715012342375
505,3837.38,2.846992757400869
506,3840.0299999999997,2.5892115034177894
507,3842.69,3.1198942484762835
508,3845.3399999999997,3.073262994493204
509,3847.9900000000002,3.0479007405101246
510,3850.65,3.341039485568618
511,3853.3,3.3461712315855383
512,3855.96,3.6459719766440326
513,3858.61,3.9158097226609527
514,3861.27,3.6377684677194466
515,3863.92,4.094155213736367
516,3866.5699999999997,4.294550959753288
517,3869.23,4.338612704811782
518,3871.8799999999997,4.180003450828702
519,3874.5400000000004,3.7635871958871956
520,3877.1899999999996,3.4512279419041163
521,3879.8500000000004,2.9469206869626103
522,3882.5,3.1447504329795306
523,3885.15,3.3169571789964514
524,3887.81,3.677231924054945
525,3890.46,3.688001670071866
526,3893.12,3.4901664151303597
527,3895.77,2.8551901611472794
528,3898.42,2.9143899071642
529,3901.08,3.635719652222694
530,3903.7300000000005,3.5468093982396147
531,3906.3900000000003,3.5406481432981085
532,3909.04,3.738991889315029
533,3911.7000000000003,4.095422634373523
534,3914.35,3.6610883803904435
535,3917.0,3.499916126407364
536,3919.66,3.6592928714658575
537,3922.31,3.398181617482778
538,3924.97,3.634432362541272
539,3927.62,2.9797241085581923
540,3930.27,3.102985854575113
541,3932.93,3.001758599633607
542,3935.5800000000004,3.2172703456505274
543,3938.2400000000002,3.322066090709021
544,3940.8900000000003,3.238791836725942
545,3943.55,3.455824581784435
546,3946.2000000000003,3.6764613278013556
547,3948.85,3.405101073818276
548,3951.5099999999998,3.40022181887677
549,3954.16,2.8859375648936907
550,3956.8199999999997,3.0383963099521845
551,3959.47,3.357945055969105
552,3962.1299999999997,3.069399801027599
553,3964.7799999999997,3.259541547044519
554,3967.4300000000003,3.4706982930614396
555,3970.09,3.2305830381199336
556,3972.7400000000002,3.154995784136854
557,3975.4,3.033525529195348
558,3978.05,3.030968275212268
559,3980.7,2.995100021229189
560,3983.36,2.833910766287683
561,3986.0099999999998,3.2892705123046033
562,3988.67,3.281830257363097
563,3991.3199999999997,3.3141240033800172
564,3993.9799999999996,3.8114917484385114
565,3996.63,3.3676764944554316
566,3999.28,3.4058642404723525
567,4001.94,3.449159985530846
568,4004.59,3.429948731547767
569,4007.25,3.5439684766062607
570,4009.9,3.6426312226231805
571,4012.5499999999997,3.682100968640101
572,4015.21,3.452747713698595
573,4017.8599999999997,3.9270714597155156
574,4020.52,3.9316732047740097
575,4023.1699999999996,3.82021295079093
576,4025.8300000000004,3.626733695849424
577,4028.48,3.6226414418663446
578,4031.13,3.724123187883265
579,4033.79,3.7043809329417585
580,4036.44,3.849169678958679
581,4039.1,3.778177424017173
582,4041.75,3.696953170034093
583,4044.4,3.776910916051014
584,4047.06,3.880680661109508
585,4049.71,3.8806884071264283
586,4052.3700000000003,3.7625461521849224
587,4055.0199999999995,3.8627468982018422
