,lambda (Angstroms),Total Flux (erg/s/cm^2/Angstrom)
0,102.00000000000001,0.10263600392371156
1,103.9,0.12013728558030295
2,104.712855,0.1276246564240019
3,106.07000000000001,0.11719412555990703
4,108.03999999999999,0.10205341157589658
5,110.05,0.08660527504538114
6,113.91999999999999,0.056861846778678525
7,117.92,0.026119288305543994
8,120.22644299999999,0.00839289935249329
9,120.95,0.008135617215801983
10,124.91,0.006727406510346518
11,126.94,0.006005517972186266
12,128.10999999999999,0.005589459682165335
13,131.1,0.004526193969100723
14,132.01,0.004202654464128887
15,134.15,0.003441660400717088
16,136.96,0.0024425320755095455
17,138.038426,0.0020590521648189176
18,140.15,0.0020326040858363575
19,143.09,0.001997209617095811
20,147.10000000000002,0.001950242032671799
21,150.87,0.0019038577505898727
22,155.1,0.0018518954559356166
23,158.489319,0.0018104969517948586
24,159.07000000000002,0.001799491607360893
25,162.02999999999997,0.0017434196954605467
26,166.19,0.0016648761672762751
27,170.06,0.0015918717240856184
28,172.82,0.0015400640917325923
29,176.85,0.001464289171304079
30,180.14,0.001402359038100653
31,181.8,0.0013714285567578903
32,181.970086,0.001368240646220223
33,186.04,0.0013957741724327391
34,190.81,0.0014286079101700233
35,193.91,0.0014501049716554699
36,197.97,0.001478106937213829
37,202.12,0.0015070993506540232
38,204.93,0.0015270244667424447
39,208.929613,0.0015537451039554042
40,210.17999999999998,0.0016014890374364845
41,216.07000000000002,0.0018307467734447675
42,220.09,0.001986618334115954
43,223.15,0.0021044780319402906
44,226.78,0.0022460051258299447
45,229.93,0.0023903816282961734
46,234.21,0.0025959000768217156
47,239.88329199999998,0.0028471670050989385
48,240.21,0.002839166151998773
49,245.80999999999997,0.0026642955560395158
50,252.11999999999998,0.002489147599163994
51,256.8,0.00232113535396947
52,259.78000000000003,0.002258858950405435
53,264.0,0.0021434456305932806
54,268.91,0.001999127672707573
55,273.90000000000003,0.0018505934234510192
56,275.42287,0.0018054303770730857
57,279.0,0.0019291169515348592
58,284.18,0.0021089009607748563
59,290.13,0.0023044256943613394
60,296.21000000000004,0.002518217394395932
61,301.02,0.0026799155529759274
62,308.03000000000003,0.0029258648668316002
63,316.227766,0.0032123372489885277
64,318.13,0.003169505612630923
65,327.79,0.002947809108093555
66,337.75,0.002714449333228941
67,348.02,0.0024730518456928374
68,356.93999999999994,0.002266252474629348
69,363.078055,0.002128607939934267
70,366.09999999999997,0.0021915553871629054
71,374.63000000000005,0.002358444182888116
72,385.12,0.0025513476643837115
73,395.0,0.0027624903457160754
74,405.13,0.0029720457910497634
75,413.62,0.00313521376053476
76,416.86938299999997,0.003195678354819677
77,422.28000000000003,0.0032553225180084163
78,430.13000000000005,0.003345098189337253
79,441.16,0.0034833673961852853
80,451.43999999999994,0.003602516172014639
81,459.83000000000004,0.0036921149776769245
82,469.46000000000004,0.0038056688399567577
83,478.630092,0.003919497972438056
84,480.4,0.0038949334948818765
85,490.46,0.003733343965618149
86,499.57,0.003617388410688471
87,506.52000000000004,0.0035428578300341065
88,512.39,0.003984115286517399
89,519.52,0.0039390691496734255
90,530.39,0.0038466626675564553
91,540.26,0.0036704620531595377
92,549.5408739999999,0.004025634526962802
93,550.3000000000001,0.004062323376945088
94,560.53,0.004357416010134207
95,569.64,0.004657053993355406
96,580.23,0.004504279906891355
97,589.66,0.00515983736153196
98,600.62,0.005352412007646598
99,610.38,0.006023262385938465
100,620.3000000000001,0.006561421999940033
101,630.38,0.0070482398496513055
102,630.957344,0.007046347586954947
103,640.6199999999999,0.007124819910486984
104,649.53,0.008104729504405677
105,658.5699999999999,0.008847442811815886
106,664.66,0.009256807466918562
107,675.4599999999999,0.009333378126213947
108,684.86,0.009434368255600671
109,694.38,0.012087239658979565
110,705.6700000000001,0.011884943853742981
111,715.48,0.013873982002602954
112,724.43596,0.01446850824802692
113,725.4399999999999,0.014532327702285568
114,735.53,0.015197625836397178
115,745.76,0.017331085233023718
116,754.4,0.018640824576802145
117,764.89,0.01994683203238498
118,775.53,0.021741257983519526
119,784.5100000000001,0.02357029325054849
120,795.4200000000001,0.024603174493676112
121,804.64,0.025839133353587812
122,815.83,0.02686743712174529
123,825.2800000000001,0.029654662341502942
124,831.763771,0.025979068607268875
125,834.83,0.02420454488455724
126,844.5,0.03120747373245841
127,854.2800000000001,0.03208178971306579
128,864.17,0.0347018828263794
129,874.18,0.03740849190264524
130,884.3,0.0410602381116173
131,894.5400000000001,0.04347814028354159
132,904.9,0.04277357841841812
133,915.38,0.07119868251624689
134,925.98,0.562027372577028
135,934.54,1.2509538912676208
136,945.3599999999999,2.455833065593814
137,954.11,3.6351650420590818
138,954.992586,3.6476843693114085
139,965.1600000000001,3.791976833752667
140,974.0899999999999,0.5150061769268046
141,985.37,2.7397979051467685
142,994.49,3.2369132045586535
143,1006.0,5.337674437697996
144,1015.31,5.330681493347629
145,1024.71,2.3410744335309324
146,1034.19,3.3785492710774974
147,1046.16,7.3092229140555975
148,1055.84,7.182627495010317
149,1065.6100000000001,5.244814960498708
150,1075.47,6.563141310520768
151,1085.42,4.803567545076499
152,1095.47,7.028693651336306
153,1096.4782,7.000898881489592
154,1105.6000000000001,6.74939772990647
155,1115.83,6.304516652056477
156,1126.1599999999999,5.533906172663474
157,1133.96,7.6477738523086405
158,1144.46,6.806097690292519
159,1155.05,7.451256166887688
160,1165.73,7.666263282094148
161,1173.81,4.8993258374188855
162,1184.67,7.437432229847925
163,1195.64,4.547858180579654
164,1203.92,2.953706932818369
165,1215.06,2.3590142009269797
166,1226.31,4.998931027338278
167,1234.81,8.15306689618237
168,1246.23,9.007714039970551
169,1254.87,8.395986346654428
170,1258.92541,7.726206049044742
171,1263.57,6.959138389003221
172,1275.26,9.589897727841638
173,1284.1,10.168628252677532
174,1295.98,7.3374796457827856
175,1304.97,7.244050213460919
176,1314.01,9.759159795419798
177,1326.17,9.218497268497229
178,1335.36,7.7464478932983445
179,1344.62,9.919910538092505
180,1353.9399999999998,9.548266200023562
181,1366.4699999999998,8.225237778778514
182,1375.94,8.801640483551807
183,1385.48,8.891275208318147
184,1395.08,7.627244950221381
185,1404.75,7.93911271211766
186,1414.49,8.019560494006981
187,1424.29,8.4050312930332
188,1434.1599999999999,8.277974112052464
189,1440.7900000000002,8.861233005679384
190,1445.43977,8.999459060372692
191,1447.44,9.05892081320555
192,1454.1200000000001,8.68273541449287
193,1464.2,7.834772830806674
194,1474.3500000000001,7.859412263900435
195,1484.56,8.086209711377016
196,1494.8600000000001,8.262234180427827
197,1505.2199999999998,7.681541663861458
198,1512.1599999999999,6.622553327474335
199,1515.65,7.257486164075046
200,1526.16,6.920271683465728
201,1536.74,5.814037219636367
202,1543.83,6.607160919206295
203,1554.53,6.199242484142574
204,1565.31,6.289886068255947
205,1576.16,6.713451669149277
206,1583.43,7.152982411867665
207,1594.41,7.257479043923772
208,1605.46,7.162681692759838
209,1616.59,7.233649360772995
210,1624.05,6.74345614903698
211,1635.3100000000002,7.280582848212916
212,1646.64,7.369513564168809
213,1654.2399999999998,6.744569385992707
214,1659.58691,7.065887793350477
215,1665.71,7.433859386703875
216,1673.3999999999999,6.467244848695285
217,1677.2599999999998,7.370015605949751
218,1685.0,7.815647155470364
219,1696.68,7.281379602292168
220,1704.51,6.913737309365346
221,1716.3200000000002,6.3820689837630775
222,1724.25,6.345392865894661
223,1736.2,6.83381278537416
224,1744.21,6.654972807552469
225,1756.3000000000002,7.167516972113736
226,1764.4099999999999,6.484096169350452
227,1776.6399999999999,6.592500578993487
228,1784.8400000000001,6.768842933782767
229,1793.08,7.294109358595409
230,1805.51,7.263648118355257
231,1813.84,6.510872700720464
232,1826.41,6.711254705562079
233,1834.8400000000001,6.401246462985693
234,1843.31,5.79058229043267
235,1856.09,5.713209662896937
236,1864.6599999999999,5.906182665402318
237,1873.27,6.602932737931063
238,1886.2499999999998,5.927750460512142
239,1894.96,5.614860708099291
240,1903.7,6.063850008203963
241,1905.46072,6.017096770728691
242,1916.9,5.713298277501584
243,1925.75,5.627125307278978
244,1934.6399999999999,5.911534246795478
245,1943.56,6.054804118616308
246,1957.04,5.58733970069532
247,1966.07,6.2459003242986935
248,1975.1499999999999,6.456528835075951
249,1984.26,6.003467278157539
250,1993.4199999999998,5.79152460841301
251,2007.2400000000002,6.051336423274431
252,2016.5,5.744360527877669
253,2025.8100000000002,6.1320105196547905
254,2035.16,5.6622974211710195
255,2044.56,5.9205252098611325
256,2053.99,5.619975930855574
257,2063.47,5.637624539023901
258,2073.0,6.05962303436611
259,2077.7799999999997,5.599120248189379
260,2087.37,5.86766660814025
261,2097.0,5.493277877830226
262,2106.68,5.561166034694087
263,2116.41,5.604187078731831
264,2126.18,5.686407032508682
265,2135.9900000000002,5.26253089602464
266,2145.85,5.33965764671448
267,2155.75,5.595385307143428
268,2165.7000000000003,5.42214185474626
269,2175.7000000000003,5.351646289522976
270,2185.74,5.161731634038797
271,2187.7616199999998,5.216257516775024
272,2195.83,5.433905588098132
273,2205.97,5.265283831057021
274,2216.15,5.008808145980245
275,2226.38,4.784612550858887
276,2236.66,5.082343045692948
277,2246.98,4.853564612491343
278,2257.35,4.645788269245157
279,2262.55,4.797762624608691
280,2273.0,4.909220425291175
281,2283.49,5.011999297937994
282,2294.0299999999997,4.731425260540232
283,2304.62,4.677110313097887
284,2315.26,4.4254794556109625
285,2325.94,3.3495556700883715
286,2336.68,4.1206069925122835
287,2347.46,4.0637413869005306
288,2352.88,4.304349138067905
289,2363.74,3.9986586763848213
290,2374.65,4.082236304657156
291,2385.61,3.8449500228849103
292,2396.62,4.110194831068082
293,2407.6800000000003,3.9070447292066732
294,2413.23,3.9980227142581364
295,2424.3700000000003,4.157165756325397
296,2435.56,3.9701118883480757
297,2446.8,4.2048691103261735
298,2452.44,4.11851225729739
299,2463.76,4.099574623204157
300,2475.1400000000003,3.9509380970574273
301,2486.56,4.118055642875032
302,2492.29,3.8431199517660013
303,2503.7999999999997,4.213659659503359
304,2511.88643,3.9478014910767882
305,2515.35,3.8339207961754878
306,2526.9599999999996,3.7985537121057034
307,2532.79,3.8246856526632533
308,2544.48,3.711666512889284
309,2556.23,3.9222813313371767
310,2562.12,3.8505492301165885
311,2573.95,4.059619992860296
312,2585.83,4.012977720788889
313,2597.76,3.975841413902366
314,2603.7500000000005,3.8407752430515467
315,2615.77,3.8053938734978168
316,2627.84,3.9114834691289704
317,2633.9,3.9294212495369902
318,2646.06,4.152322782500937
319,2652.16,4.133098535056864
320,2664.4,3.848166012316626
321,2676.7000000000003,4.00138344779825
322,2682.87,3.9373081516130153
323,2695.25,3.820972531390454
324,2707.6899999999996,3.8647848693897546
325,2713.93,3.742050524463359
326,2726.46,3.758947799795452
327,2732.7400000000002,3.908858427016964
328,2745.36,3.507804639681849
329,2758.03,3.515490817531619
330,2764.39,3.5890303890489466
331,2777.15,3.731750504231509
332,2783.55,3.6635810478967437
333,2796.4,3.0895681004120985
334,2802.85,3.2950666092622183
335,2815.7799999999997,3.7050876060733886
336,2822.27,3.747866087071416
337,2835.3,3.5541320142523554
338,2841.84,3.5051684604352675
339,2854.95,3.4887763319120224
340,2868.1299999999997,3.6361211546476158
341,2874.7400000000002,3.5612945520893664
342,2884.0315,3.5666725311530745
343,2888.0099999999998,3.568978025702921
344,2894.6699999999996,3.50386593079803
345,2908.0299999999997,3.6599397404182485
346,2928.19,3.5679274531385787
347,2948.4900000000002,3.510265163863911
348,2968.92,3.5097808727367457
349,2989.5,3.4928615794720828
350,3010.23,3.500273284069922
351,3031.09,3.4677449868152634
352,3052.1,3.4193166874231076
353,3073.2599999999998,3.379589385893454
354,3087.45,3.3713841836861866
355,3108.8500000000004,3.301679878736537
356,3130.3900000000003,3.2632675717918893
357,3152.09,3.255060262567245
358,3166.64,3.202519055229983
359,3188.59,3.1002887424428427
360,3210.7000000000003,3.1353804273757047
361,3232.95,3.070305110313569
362,3247.87,3.0700508977038132
363,3270.3900000000003,3.062083576794182
364,3293.06,3.040305253747053
365,3308.26,3.018782037147302
366,3311.31121,3.0200618234023837
367,3323.53,3.025183665210643
368,3331.19,3.0180125785899254
369,3338.87,2.9088354865211117
370,3346.56,2.96241139172825
371,3354.28,2.8816762887632446
372,3362.01,2.894487183074191
373,3369.7599999999998,2.874498071937042
374,3377.53,2.8347769553517965
375,3385.32,2.9339418333184555
376,3393.12,2.954179708561067
377,3400.94,3.008772578355582
378,3408.78,2.840153442702001
379,3416.6400000000003,2.899338301600325
380,3424.52,2.925978155050552
381,3432.4100000000003,2.952635005776732
382,3440.32,2.924708851054816
383,3448.25,2.830412690884804
384,3456.2,2.7453255252666957
385,3464.1699999999996,2.7312333542004916
386,3472.1600000000003,2.7801621776861922
387,3480.16,2.765826998447845
388,3488.1800000000003,2.789656813761401
389,3496.22,2.7881166236268613
390,3504.28,2.716875428044226
391,3512.36,2.696370227013495
392,3520.46,2.7386460205346683
393,3528.5699999999997,2.7181548113317935
394,3536.71,2.760669593956775
395,3544.86,2.778100373857708
396,3550.7300000000005,2.4934297748415704
397,3553.3799999999997,2.856770052968868
398,3556.03,2.8039883310961655
399,3558.69,2.5974426064994147
400,3561.34,2.685597884626712
401,3564.0,2.814993160029961
402,3566.65,2.927492438157259
403,3569.31,2.250141713560508
404,3571.96,2.4339789916878054
405,3574.6099999999997,2.4804422698151027
406,3577.27,2.6538105452183522
407,3579.9199999999996,2.3386558233456496
408,3582.5800000000004,2.450269098748899
409,3585.23,2.4145023768761966
410,3587.88,2.3698686550034935
411,3590.54,2.642533930406743
412,3593.19,2.5013202085340405
413,3595.85,2.4438604839372897
414,3598.5,2.1048997620645875
415,3601.16,3.073023037467837
416,3603.81,3.136579315595134
417,3606.46,3.010767593722431
418,3609.12,2.7101778691256806
419,3611.7700000000004,2.7499021472529783
420,3614.4300000000003,2.2681204226562275
421,3617.08,2.3485867007835246
422,3619.73,2.685071978910822
423,3622.39,2.5823072543140717
424,3625.04,2.424898532441369
425,3627.7,2.8034458078446183
426,3630.35,2.779620085971916
427,3633.0099999999998,2.6409803613751652
428,3635.66,2.5080956395024625
429,3638.31,2.12003691762976
430,3640.9700000000003,2.5009931930330094
431,3643.6200000000003,2.6988994711603067
432,3646.28,2.8065147465635563
433,3648.9300000000003,2.549606024690853
434,3651.58,2.3336693028181505
435,3654.2400000000002,2.7017105782214
436,3656.89,2.6988978563486974
437,3659.5499999999997,2.654813131751947
438,3662.2,2.709144409879244
439,3664.8599999999997,2.3824436852824933
440,3667.5099999999998,2.511674963409791
441,3670.1600000000003,2.6643022415370883
442,3672.82,2.861604516940338
443,3675.4700000000003,2.5190817950676347
444,3678.13,2.5279650704708843
445,3680.78,2.6020253485981817
446,3683.44,2.0821156240014314
447,3686.09,2.4157799021287287
448,3688.74,2.4452021802560258
449,3691.4,2.501056455659275
450,3694.0499999999997,2.7345037337865725
451,3696.7100000000005,2.568190009189822
452,3699.3599999999997,2.5166882873171197
453,3702.01,2.0455285654444166
454,3704.67,2.202601840847666
455,3707.32,2.7421891189749634
456,3709.98,2.3979103943782127
457,3712.63,3.0391786725055105
458,3715.29,3.13474794790876
459,3717.94,3.692608226036057
460,3720.5899999999997,5.4171725041633545
461,3723.25,9.411811779566605
462,3725.8999999999996,13.220464057693901
463,3728.5600000000004,14.28256333309715
464,3731.2099999999996,11.535352611224448
465,3733.86,7.534046889351745
466,3736.52,4.307854164754994
467,3739.17,3.395103442882292
468,3741.83,2.9768947182855414
469,3744.48,2.888494996412839
470,3747.14,3.0606842718160885
471,3749.79,2.5567255499433856
472,3752.44,2.640447828070683
473,3755.1,2.8241691034739325
474,3757.7500000000005,2.92231838160123
475,3760.4100000000003,3.017632657004479
476,3763.06,3.2987429351317763
477,3765.7200000000003,3.170096210535026
478,3768.37,3.051971488662323
479,3771.02,2.7849667667896205
480,3773.68,2.75702604219287
481,3776.33,2.962286320320167
482,3778.99,3.0160885957234167
483,3781.64,3.347424873850714
484,3784.29,3.3056631519780115
485,3786.95,3.326920427381261
486,3789.6000000000004,2.914109705508558
487,3792.26,2.9981489809118074
488,3794.9100000000003,2.8131442590391047
489,3797.57,2.236012534442354
490,3800.2200000000003,2.4353788125696516
491,3801.8939600000003,2.498655307940973
492,3802.87,2.535550146095791
493,3805.5299999999997,2.979953572477402
494,3808.18,3.2995030010154736
495,3810.8399999999997,3.3176854273970844
496,3813.49,2.8326138559351555
497,3816.14,3.0927122844732264
498,3818.8,3.204938710854838
499,3821.4500000000003,2.966377139392909
500,3824.11,2.61991956577452
501,3826.76,2.950229994312591
502,3829.42,2.905377420694202
503,3832.07,2.574821849232273
504,3834.72,2.283446277770344
505,3837.38,2.847723704151955
506,3840.0299999999997,2.5899421326900263
507,3842.69,3.1206245590716377
508,3845.3399999999997,3.0739929876097087
509,3847.9900000000002,3.04863041614778
510,3850.65,3.3417688425293908
511,3853.3,3.346900271067462
512,3855.96,3.646700697449073
513,3858.61,3.916538125987144
514,3861.27,3.638496552368755
515,3863.92,4.094882980906826
516,3866.5699999999997,4.295278409444897
517,3869.23,4.339339835826508
518,3871.8799999999997,4.18073026436458
519,3874.5400000000004,3.7643136907461905
520,3877.1899999999996,3.4519541192842618
521,3879.8500000000004,2.947646545665873
522,3882.5,3.145475974203944
523,3885.15,3.3176824027420153
524,3887.81,3.677956829123626
525,3890.46,3.6887262576616977
526,3893.12,3.4908906840433085
527,3895.77,2.8559141125813796
528,3898.42,2.915113541119451
529,3901.08,3.6364429675010617
530,3903.7300000000005,3.547532396039133
531,3906.3900000000003,3.541370822420744
532,3909.04,3.7397142509588153
533,3911.7000000000003,4.096144677340426
534,3914.35,3.6618101058784975
535,3917.0,3.5006375344165686
536,3919.66,3.6600139607981794
537,3922.31,3.3989023893362504
538,3924.97,3.635152815717862
539,3927.62,2.9804442442559327
540,3930.27,3.103705672794004
541,3932.93,3.0024780991756153
542,3935.5800000000004,3.2179895277136863
543,3938.2400000000002,3.3227849540952974
544,3940.8900000000003,3.2395103826333687
545,3943.55,3.4565428090149792
546,3946.2000000000003,3.6771792375530503
547,3948.85,3.4058186660911214
548,3951.5099999999998,3.4009390924727327
549,3954.16,2.886654521010804
550,3956.8199999999997,3.039112947392415
551,3959.47,3.358661375930486
552,3962.1299999999997,3.070115802312097
553,3964.7799999999997,3.260257230850168
554,3967.4300000000003,3.4714136593882396
555,3970.09,3.2312980857698506
556,3972.7400000000002,3.1557105143079216
557,3975.4,3.034239940689533
558,3978.05,3.0316823692276036
559,3980.7,2.995813797765675
560,3983.36,2.8346242241472863
561,3986.0099999999998,3.289983652685357
562,3988.67,3.282543079066968
563,3991.3199999999997,3.314836507605039
564,3993.9799999999996,3.8122039339866505
565,3996.63,3.3683883625247213
566,3999.28,3.4065757910627927
567,4001.94,3.4498712174444037
568,4004.59,3.430659645982475
569,4007.25,3.5446790723640857
570,4009.9,3.643341500902157
571,4012.5499999999997,3.6828109294402283
572,4015.21,3.453457355821839
573,4017.8599999999997,3.92778078435991
574,4020.52,3.9323822107415216
575,4023.1699999999996,3.8209216392795926
576,4025.8300000000004,3.627442065661204
577,4028.48,3.623349494199275
578,4031.13,3.724830922737346
579,4033.79,3.705088349118957
580,4036.44,3.8498767776570277
581,4039.1,3.778884204038639
582,4041.75,3.69765963257671
583,4044.4,3.7776170611147815
584,4047.06,3.8813864874963926
585,4049.71,3.8813939160344635
586,4052.3700000000003,3.763251342416075
587,4055.0199999999995,3.863451770954146
588,4057.6800000000003,4.028720197335757
