,lambda (Angstroms),Total Flux (erg/s/cm^2/Angstrom)
0,102.00000000000001,137.69837950680912
1,103.9,137.30594436966686
2,104.712855,137.13805338908807
3,106.07000000000001,135.66561935358033
4,108.03999999999999,133.52826848213488
5,110.05,131.3475196265701
6,113.91999999999999,127.14876436613297
7,117.92,122.80896565037773
8,120.22644299999999,120.30659115878213
9,120.95,119.6484318738814
10,124.91,116.04635097125883
11,126.94,114.19982969772276
12,128.10999999999999,113.13557852591178
13,131.1,110.41582552564512
14,132.01,109.58807467562386
15,134.15,107.64149561067592
16,136.96,105.08547368833884
17,138.038426,104.10451974164698
18,140.15,102.7316188763605
19,143.09,100.82009433370659
20,147.10000000000002,98.21288019461788
21,150.87,95.76170656929564
22,155.1,93.0114508325713
23,158.489319,90.80778817956448
24,159.07000000000002,90.52235626147429
25,162.02999999999997,89.06737760430916
26,166.19,87.02254299501965
27,170.06,85.1202570159379
28,172.82,83.76358820313699
29,176.85,81.78265498951028
30,180.14,80.16546626698413
31,181.8,79.34949902179993
32,181.970086,79.26589381941798
33,186.04,77.73966374172188
34,190.81,75.95089985751169
35,193.91,74.78839099280405
36,197.97,73.26587923064622
37,202.12,71.70961757746554
38,204.93,70.65585998110706
39,208.929613,69.15599265405834
40,210.17999999999998,68.80346779945083
41,216.07000000000002,67.14288915898702
42,220.09,66.00952249221776
43,223.15,65.14680976303758
44,226.78,64.12339735626638
45,229.93,63.23533377362972
46,234.21,62.02870435077174
47,239.88329199999998,60.429253043439616
48,240.21,60.35827457475592
49,245.80999999999997,59.14161703507528
50,252.11999999999998,57.77072659391762
51,256.8,56.7539266367945
52,259.78000000000003,56.10652179719942
53,264.0,55.18969980110509
54,268.91,54.1229608572176
55,273.90000000000003,53.03883937319467
56,275.42287,52.70798260974311
57,279.0,52.11154612649355
58,284.18,51.24785412510822
59,290.13,50.25576449094265
60,296.21000000000004,49.24201294380118
61,301.02,48.440007984093384
62,308.03000000000003,47.271191922670575
63,316.227766,45.90433191809002
64,318.13,45.667437681616214
65,327.79,44.46442780514552
66,337.75,43.22405259521921
67,348.02,41.94507055505545
68,356.93999999999994,40.834214628841934
69,363.078055,40.06981404414344
70,366.09999999999997,39.787979025202226
71,374.63000000000005,38.99243664288499
72,385.12,38.01408438177389
73,395.0,37.0926533675272
74,405.13,36.14789986126396
75,413.62,35.35608510288537
76,416.86938299999997,35.05303136132529
77,422.28000000000003,34.66767071936775
78,430.13000000000005,34.108573022326134
79,441.16,33.322999466816576
80,451.43999999999994,32.5908323455938
81,459.83000000000004,31.9932680722897
82,469.46000000000004,31.307397503575462
83,478.630092,30.654288330156966
84,480.4,30.557340280887722
85,490.46,30.006274205360075
86,499.57,29.507277547275798
87,506.52000000000004,29.12660796921117
88,512.39,28.80559700670638
89,519.52,28.415099775165114
90,530.39,27.8197457620426
91,540.26,27.279069832123632
92,549.5408739999999,26.771186921040208
93,550.3000000000001,26.739506132286888
94,560.53,26.31237574366707
95,569.64,25.93204526100366
96,580.23,25.489425639754977
97,589.66,25.09608097353259
98,600.62,24.638347519387594
99,610.38,24.23123022733876
100,620.3000000000001,23.81729519301044
101,630.38,23.396623765402637
102,630.957344,23.372499533252494
103,640.6199999999999,23.052431347486372
104,649.53,22.75820187328572
105,658.5699999999999,22.45942799517867
106,664.66,22.258061249024692
107,675.4599999999999,21.90030826356936
108,684.86,21.588965010413794
109,694.38,21.276197754575392
110,705.6700000000001,20.901931043165142
111,715.48,20.578891567843222
112,724.43596,20.282753946738612
113,725.4399999999999,20.25812563789177
114,735.53,20.010649851449404
115,745.76,19.761199237980094
116,754.4,19.55002741431687
117,764.89,19.293355227797502
118,775.53,19.033482543749265
119,784.5100000000001,18.81446847302058
120,795.4200000000001,18.547194195420364
121,804.64,18.321684782645484
122,815.83,18.047519950991365
123,825.2800000000001,17.817905466672208
124,831.763771,17.654775961333865
125,834.83,17.596669989012394
126,844.5,17.426019811079957
127,854.2800000000001,17.247220147297202
128,864.17,17.068145387664128
129,874.18,16.88695255528526
130,884.3,16.704683987056068
131,894.5400000000001,16.518976986081075
132,904.9,16.327942932360283
133,915.38,16.163833955893697
134,925.98,16.459923976681303
135,934.54,16.991589834147522
136,945.3599999999999,17.997688593234493
137,954.11,19.016269309686525
138,954.992586,19.01257414418799
139,965.1600000000001,18.974042369271203
140,974.0899999999999,15.536497897169662
141,985.37,17.55845954293613
142,994.49,17.891584562917537
143,1006.0,19.785379993837047
144,1015.31,19.6109803059014
145,1024.71,16.45234817737346
146,1034.19,17.319359434985707
147,1046.16,21.0347958362113
148,1055.84,20.73414055917402
149,1065.6100000000001,18.62064984154445
150,1075.47,19.761679683322587
151,1085.42,17.823191084508437
152,1095.47,19.867604218369525
153,1096.4782,19.821680610834015
154,1105.6000000000001,19.435912717096848
155,1115.83,18.84045294071851
156,1126.1599999999999,17.917791830260228
157,1133.96,19.91684877202454
158,1144.46,18.92061969363035
159,1155.05,19.40990051456421
160,1165.73,19.46770523482612
161,1173.81,16.58183564116659
162,1184.67,18.960090160084597
163,1195.64,15.909045111514665
164,1203.92,14.193017849695247
165,1215.06,13.434351833189412
166,1226.31,15.908676249195636
167,1234.81,18.937697852400337
168,1246.23,19.624250300470656
169,1254.87,18.885347635963434
170,1258.92541,18.155874439057676
171,1263.57,17.340055721700836
172,1275.26,19.848113194493784
173,1284.1,20.334056337307274
174,1295.98,17.378211565432196
175,1304.97,17.19042030456039
176,1314.01,19.61064324246016
177,1326.17,18.942345583705865
178,1335.36,17.373835117920343
179,1344.62,19.450101930415016
180,1353.9399999999998,18.98063198143558
181,1366.4699999999998,17.526084793590897
182,1375.94,18.00308744092616
183,1385.48,17.992587366541628
184,1395.08,16.62779253068297
185,1404.75,16.838160973104515
186,1414.49,16.816374693806257
187,1424.29,17.098981653033885
188,1434.1599999999999,16.86832589054171
189,1440.7900000000002,17.38199424765182
190,1445.43977,17.471414874143058
191,1447.44,17.516221764282157
192,1454.1200000000001,17.09109475245784
193,1464.2,16.169280153776832
194,1474.3500000000001,16.11955471066054
195,1484.56,16.271547686599718
196,1494.8600000000001,16.372108291122103
197,1505.2199999999998,15.715512314699957
198,1512.1599999999999,14.605677452116009
199,1515.65,15.215040493842523
200,1526.16,14.800823565059053
201,1536.74,13.617073791840298
202,1543.83,14.358251976895026
203,1554.53,13.871939041787211
204,1565.31,13.883601998753354
205,1576.16,14.227674111284214
206,1583.43,14.613940553505353
207,1594.41,14.637991240656397
208,1605.46,14.46223508337216
209,1616.59,14.45165781816188
210,1624.05,13.906808254058674
211,1635.3100000000002,14.36143756346858
212,1646.64,14.367358028443203
213,1654.2399999999998,13.686731775469429
214,1659.58691,13.968875571964507
215,1665.71,14.305417275522334
216,1673.3999999999999,13.299329881075586
217,1677.2599999999998,14.182287214942368
218,1685.0,14.588189257462803
219,1696.68,13.99396813299752
220,1704.51,13.586134362058893
221,1716.3200000000002,12.99384517370829
222,1724.25,12.916464276704035
223,1736.2,13.343544711861558
224,1744.21,13.1235893140048
225,1756.3000000000002,13.574075372670443
226,1764.4099999999999,12.84902584874806
227,1776.6399999999999,12.894653530921822
228,1784.8400000000001,13.028905193540371
229,1793.08,13.511875605732673
230,1805.51,13.417611035775183
231,1813.84,12.622077634508416
232,1826.41,12.757937688059048
233,1834.8400000000001,12.404658160726655
234,1843.31,11.750517382968013
235,1856.09,11.607544871780828
236,1864.6599999999999,11.756527967956554
237,1873.27,12.409082813706034
238,1886.2499999999998,11.667274050387594
239,1894.96,11.309675770071442
240,1903.7,11.713802551935604
241,1905.46072,11.658011518909252
242,1916.9,11.311224006583682
243,1925.75,11.191792577872306
244,1934.6399999999999,11.442792738183702
245,1943.56,11.552541090262178
246,1957.04,11.034418590936827
247,1966.07,11.65904431282793
248,1975.1499999999999,11.835550020997502
249,1984.26,11.34825292093415
250,1993.4199999999998,11.101886807149269
251,2007.2400000000002,11.30976281451749
252,2016.5,10.967987673289542
253,2025.8100000000002,11.32065051834006
254,2035.16,10.815799952413352
255,2044.56,11.038702372765112
256,2053.99,10.702714984883949
257,2063.47,10.684737583281255
258,2073.0,11.070922167957026
259,2077.7799999999997,10.59245605617845
260,2087.37,10.824963024388381
261,2097.0,10.414384581621087
262,2106.68,10.44589512513226
263,2116.41,10.452350654921899
264,2126.18,10.49785477373431
265,2135.9900000000002,10.037112481569496
266,2145.85,10.077185175683148
267,2155.75,10.295708458819576
268,2165.7000000000003,10.085072728234467
269,2175.7000000000003,9.976996983927826
270,2185.74,9.74935182864396
271,2187.7616199999998,9.796280427216338
272,2195.83,9.993387956497742
273,2205.97,9.798951711752423
274,2216.15,9.516559706672803
275,2226.38,9.266320501175308
276,2236.66,9.537880095259935
277,2246.98,9.282828929010261
278,2257.35,9.048652562342712
279,2262.55,9.187388718883573
280,2273.0,9.272242831547421
281,2283.49,9.34831618387697
282,2294.0299999999997,9.04090933578864
283,2304.62,8.959634287282434
284,2315.26,8.680916038358351
285,2325.94,7.57780302909997
286,2336.68,8.321512379340135
287,2347.46,8.237202969245999
288,2352.88,8.464012443948207
289,2363.74,8.130674513185468
290,2374.65,8.186477382004853
291,2385.61,7.921289050406363
292,2396.62,8.158504518389996
293,2407.6800000000003,7.927197785955753
294,2413.23,8.004046539571483
295,2424.3700000000003,8.134829286468635
296,2435.56,7.919287832947916
297,2446.8,8.125430179009317
298,2452.44,8.024714971872868
299,2463.76,7.9769587972656675
300,2475.1400000000003,7.799350982157017
301,2486.56,7.937395406714064
302,2492.29,7.647872238825437
303,2503.7999999999997,7.989109702630309
304,2511.88643,7.702665040337273
305,2515.35,7.582221553046122
306,2526.9599999999996,7.524855774090378
307,2532.79,7.53994099706092
308,2544.48,7.404771577940104
309,2556.23,7.593122428695486
310,2562.12,7.510229921542226
311,2573.95,7.6968851321325396
312,2585.83,7.6277325676196845
313,2597.76,7.567991228003659
314,2603.7500000000005,7.421575170644061
315,2615.77,7.363418235842334
316,2627.84,7.4466375259374376
317,2633.9,7.453092783433405
318,2646.06,7.652953478342805
319,2652.16,7.622170915756238
320,2664.4,7.314045970500568
321,2676.7000000000003,7.443957295121095
322,2682.87,7.368191047390093
323,2695.25,7.228397731845551
324,2707.6899999999996,7.248638686177207
325,2713.93,7.114080753301767
326,2726.46,7.107236112447719
327,2732.7400000000002,7.245247359489745
328,2745.36,6.820281123449993
329,2758.03,6.803960112307073
330,2764.39,6.86544871918403
331,2777.15,6.983991112855406
332,2783.55,6.903694899649828
333,2796.4,6.305333698135501
334,2802.85,6.498610709826755
335,2815.7799999999997,6.8841318681473584
336,2822.27,6.914613059756076
337,2835.3,6.696189667870342
338,2841.84,6.634834084375891
339,2854.95,6.593601052325088
340,2868.1299999999997,6.715972335129849
341,2874.7400000000002,6.628621066490961
342,2884.0315,6.616393457825737
343,2888.0099999999998,6.613373071449821
344,2894.6699999999996,6.539345463923195
345,2908.0299999999997,6.677534701677589
346,2928.19,6.558534916732124
347,2948.4900000000002,6.473697716613426
348,2968.92,6.445864488119586
349,2989.5,6.401395457654424
350,3010.23,6.3810566252179415
351,3031.09,6.320603764406314
352,3052.1,6.244050101623367
353,3073.2599999999998,6.175996636869101
354,3087.45,6.148795770382189
355,3108.8500000000004,6.050444022473808
356,3130.3900000000003,5.983196859392195
357,3152.09,5.945940507541174
358,3166.64,5.873921716323094
359,3188.59,5.742307694519871
360,3210.7000000000003,5.747801483947242
361,3232.95,5.652940858201379
362,3247.87,5.632713755454041
363,3270.3900000000003,5.5945996861598015
364,3293.06,5.542473814894242
365,3308.26,5.5006028818004395
366,3311.31121,5.497798118315797
367,3323.53,5.491337309707696
368,3331.19,5.47690502110304
369,3338.87,5.360447768298371
370,3346.56,5.406734033393698
371,3354.28,5.318680852189005
372,3362.01,5.324164188884307
373,3369.7599999999998,5.296828561379597
374,3377.53,5.249741969674873
375,3385.32,5.341522413770138
376,3393.12,5.354366375765398
377,3400.94,5.4015463735606435
378,3408.78,5.225495407155879
379,3416.6400000000003,5.277229476551101
380,3424.52,5.296399581746312
381,3432.4100000000003,5.3155772048415155
382,3440.32,5.280152863736708
383,3448.25,5.1783395584318885
384,3456.2,5.085716288927056
385,3464.1699999999996,5.0640690552222125
386,3472.1600000000003,5.105423857317355
387,3480.16,5.083505177312492
388,3488.1800000000003,5.099732533107617
389,3496.22,5.090570924702731
390,3504.28,5.011689352097831
391,3512.36,4.98352481529292
392,3520.46,5.0181223142879965
393,3528.5699999999997,4.989943331183068
394,3536.71,5.024741901778119
395,3544.86,5.034446990273166
396,3550.7300000000005,4.7442119975695975
397,3553.3799999999997,5.105040241067988
398,3556.03,5.049746484566377
399,3558.69,4.840679245964759
400,3561.34,4.926322489463149
401,3564.0,5.053196250861532
402,3566.65,5.163183494359922
403,3569.31,4.483311255758306
404,3571.96,4.664636499256694
405,3574.6099999999997,4.708587742755084
406,3577.27,4.879434504153467
407,3579.9199999999996,4.5617677476518566
408,3582.5800000000004,4.6708595090502385
409,3585.23,4.632580752548629
410,3587.88,4.585434996047018
411,3590.54,4.855578757445401
412,3593.19,4.7118530009437904
413,3595.85,4.651871762342173
414,3598.5,4.310399005840563
415,3601.16,5.276000767238946
416,3603.81,5.337045010737335
417,3606.46,5.208721254235725
418,3609.12,4.905610015634108
419,3611.7700000000004,4.942822259132496
420,3614.4300000000003,4.458519020530879
421,3617.08,4.5364732640292695
422,3619.73,4.870446507527658
423,3622.39,4.765160268926042
424,3625.04,4.605239512424431
425,3627.7,4.981265273822814
426,3630.35,4.954927517321203
427,3633.0099999999998,4.813766278719587
428,3635.66,4.6783695222179755
429,3638.31,4.287798765716365
430,3640.9700000000003,4.666233527114748
431,3643.6200000000003,4.861627770613137
432,3646.28,4.966721532011521
433,3648.9300000000003,4.707300775509909
434,3651.58,4.488852019008299
435,3654.2400000000002,4.854371780406682
436,3656.89,4.849047023905071
437,3659.5499999999997,4.802440785303455
438,3662.2,4.8542600288018445
439,3664.8599999999997,4.525037790200227
440,3667.5099999999998,4.651757033698617
441,3670.1600000000003,4.801872277197005
442,3672.82,4.996653038595389
443,3675.4700000000003,4.651618282093779
444,3678.13,4.657980043492161
445,3680.78,4.729528286990551
446,3683.44,4.207097048388935
447,3686.09,4.538249291887324
448,3688.74,4.565159535385712
449,3691.4,4.618492296784096
450,3694.0499999999997,4.849427540282486
451,3696.7100000000005,4.680592301680868
452,3699.3599999999997,4.6265785451792585
453,3702.01,4.1529067886776465
454,3704.67,4.30745855007603
455,3707.32,4.844533793574419
456,3709.98,4.497733554972802
457,3712.63,5.1364897984711915
458,3715.29,5.229537559869575
459,3717.94,5.784885803367964
460,3720.5899999999997,7.506938046866354
461,3723.25,11.499055808264737
462,3725.8999999999996,15.305196051763126
463,3728.5600000000004,16.36477381316151
464,3731.2099999999996,13.6150510566599
465,3733.86,9.611233300158288
466,3736.52,6.382519061556671
467,3739.17,5.467256305055059
468,3741.83,5.046526066453444
469,3744.48,4.955614309951832
470,3747.14,5.125282071350216
471,3749.79,4.618811314848605
472,3752.44,4.700021558346995
473,3755.1,4.881221319745378
474,3757.7500000000005,4.976858563243766
475,3760.4100000000003,5.06965132464215
476,3763.06,5.348249568140539
477,3765.7200000000003,5.217081329538923
478,3768.37,5.096444573037312
479,3771.02,4.826927816535701
480,3773.68,4.796465577934084
481,3776.33,4.999213821432473
482,3778.99,5.050494582830857
483,3781.64,5.379318826329246
484,3784.29,5.335045069827634
485,3786.95,5.353780831226018
486,3789.6000000000004,4.938458074724407
487,3792.26,5.019975836122791
488,3794.9100000000003,4.832459079621179
489,3797.57,4.252805841019563
490,3800.2200000000003,4.4496600845179515
491,3801.8939600000003,4.511349770271384
492,3802.87,4.54758774794374
493,3805.5299999999997,4.990201033671946
494,3808.18,5.307967051408691
495,3810.8399999999997,5.3243593371368965
496,3813.49,4.8375043548736425
497,3816.14,5.0958193726103875
498,3818.8,5.206255658338593
499,3821.4500000000003,4.965910676075339
500,3824.11,4.617662961803544
501,3826.76,4.946189979540289
502,3829.42,4.899547265268495
503,3832.07,4.567208283005241
504,3834.72,4.274049300741987
505,3837.38,4.836536586470192
506,3840.0299999999997,4.576971604206937
507,3842.69,5.105863889935143
508,3845.3399999999997,5.057448907671889
509,3847.9900000000002,5.030302925408634
510,3850.65,5.321651211136841
511,3853.3,5.324999228873585
512,3855.96,5.623009514601791
513,3858.61,5.891063532338537
514,3861.27,5.6112318180667415
515,3863.92,6.065834835803488
516,3866.5699999999997,6.264446853540234
517,3869.23,6.306718139268439
518,3871.8799999999997,6.146325157005185
519,3874.5400000000004,5.72811844273339
520,3877.1899999999996,5.413975460470136
521,3879.8500000000004,4.907877746198341
522,3882.5,5.103923763935087
523,3885.15,5.274346781671833
524,3887.81,5.632831067400038
525,3890.46,5.641817085136784
526,3893.12,5.442191370864989
527,3895.77,4.805431388601734
528,3898.42,4.862847406338481
529,3901.08,5.582386692066686
530,3903.7300000000005,5.491692709803432
531,3906.3900000000003,5.483740995531637
532,3909.04,5.680301013268383
533,3911.7000000000003,6.034941298996588
534,3914.35,5.598823316733334
535,3917.0,5.435867334470079
536,3919.66,5.593453620198285
537,3922.31,5.33055863793503
538,3924.97,5.565018923663237
539,3927.62,4.908526941399981
540,3930.27,5.030004959136727
541,3932.93,4.926987244864932
542,3935.5800000000004,5.140715262601678
543,3938.2400000000002,5.243720548329883
544,3940.8900000000003,5.15866256606663
545,3943.55,5.373904851794834
546,3946.2000000000003,5.59275786953158
547,3948.85,5.319613887268326
548,3951.5099999999998,5.312944172996532
549,3954.16,4.796876190733277
550,3956.8199999999997,4.947544476461482
551,3959.47,5.265309494198228
552,3962.1299999999997,4.974973779926434
553,3964.7799999999997,5.163331797663179
554,3967.4300000000003,5.372704815399925
555,3970.09,5.13079910112813
556,3972.7400000000002,5.053428118864876
557,3975.4,4.930167404593082
558,3978.05,4.925826422329827
559,3980.7,4.888174440066573
560,3983.36,4.725194725794779
561,3986.0099999999998,5.1787707435315244
562,3988.67,5.169540029259729
563,3991.3199999999997,5.200050046996475
564,3993.9799999999996,5.695627332724681
565,3996.63,5.2500283504614265
566,3999.28,5.286432368198172
567,4001.94,5.327937653926377
568,4004.59,5.306942671663123
569,4007.25,5.419171957391328
570,4009.9,5.516050975128074
571,4012.5499999999997,5.55373699286482
572,4015.21,5.3225932785930254
573,4017.8599999999997,5.795133296329771
574,4020.52,5.797944582057976
575,4023.1699999999996,5.684700599794723
576,4025.8300000000004,5.489430885522927
577,4028.48,5.483554903259673
578,4031.13,5.583252920996419
579,4033.79,5.561720206724624
580,4036.44,5.70472522446137
581,4039.1,5.631942510189575
582,4041.75,5.5489345279263205
583,4044.4,5.6271085456630665
584,4047.06,5.729087831391272
585,4049.71,5.727311849128018
586,4052.3700000000003,5.607379134856223
587,4055.0199999999995,5.705796152592969
588,4057.6800000000003,5.869274438321174
589,4060.33,5.49824445605792
590,4062.98,5.563349473794666
591,4065.64,5.658665759522871
592,4068.29,5.861120777259616
593,4070.95,5.722482062987822
594,4073.6,5.627687080724568
595,4076.2599999999998,5.519799366452773
596,4078.91,5.171575384189518
597,4081.5600000000004,5.493696401926265
598,4084.2200000000003,5.4690886876544695
599,4086.8700000000003,5.3053637053912155
600,4089.53,5.192862991119421
