,lambda (Angstroms),Total Flux (erg/s/cm^2/Angstrom)
0,102.00000000000001,0.11404000382502262
1,103.9,0.13348587217041297
2,104.712855,0.1418051730209138
3,106.07000000000001,0.13021569413787137
4,108.03999999999999,0.11339267826472842
5,110.05,0.09622808143108792
6,113.91999999999999,0.06317982661060724
7,117.92,0.02902142673821888
8,120.22644299999999,0.00932542691406339
9,120.95,0.009039554077846648
10,124.91,0.007474867558985019
11,126.94,0.006672765409406961
12,128.10999999999999,0.0062104756290614835
13,131.1,0.005029062774056359
14,132.01,0.004669565443276541
15,134.15,0.0038240112180745424
16,136.96,0.002713848287899495
17,138.038426,0.002287755350555243
18,140.15,0.002258360474895953
19,143.09,0.002218863103662012
20,147.10000000000002,0.0021662993835242206
21,150.87,0.002114653896544303
22,155.1,0.002056788446261796
23,158.489319,0.002010659994714233
24,159.07000000000002,0.001998409542289881
25,162.02999999999997,0.0019359907382894964
26,166.19,0.0018485272536403056
27,170.06,0.0017672246778729092
28,172.82,0.001709498997480658
29,176.85,0.0016250828692267543
30,180.14,0.0015560982512229477
31,181.8,0.0015216083641754335
32,181.970086,0.0015180557517831287
33,186.04,0.001548397558258599
34,190.81,0.001584522642411137
35,193.91,0.001608158734061633
36,197.97,0.0016389621391264765
37,202.12,0.0016708180929489148
38,204.93,0.001692682136380494
39,208.929613,0.0017221625454823324
40,210.17999999999998,0.0017751459627072049
41,216.07000000000002,0.0020290845049386304
42,220.09,0.002201801030128838
43,223.15,0.0023324830143781005
44,226.78,0.0024892208598110495
45,229.93,0.002646796774773526
46,234.21,0.0028702496631352395
47,239.88329199999998,0.003145289328339339
48,240.21,0.003136160746665303
49,245.80999999999997,0.002941960106710573
50,252.11999999999998,0.002745031332404438
51,256.8,0.002560864693299411
52,259.78000000000003,0.002488301944894928
53,264.0,0.0023583220562147563
54,268.91,0.0021970557918973036
55,273.90000000000003,0.0020312970927233547
56,275.42287,0.001980877413470531
57,279.0,0.0021177466794831765
58,284.18,0.0023166203897498406
59,290.13,0.00253407248262371
60,296.21000000000004,0.0027702706271065906
61,301.02,0.0029496949366399194
62,308.03000000000003,0.003221477996479556
63,316.227766,0.0035381613635836976
64,318.13,0.003490194914034359
65,327.79,0.0032424225978817276
66,337.75,0.0029821772035877117
67,348.02,0.0027130572952142637
68,356.93999999999994,0.0024821796384770526
69,363.078055,0.0023279662874399303
70,366.09999999999997,0.0023972801857365614
71,374.63000000000005,0.002582139469875684
72,385.12,0.002797142649315235
73,395.0,0.0030290999174623057
74,405.13,0.0032599966344997373
75,413.62,0.0034410508228164003
76,416.86938299999997,0.0035083610208004805
77,422.28000000000003,0.00357484430889824
78,430.13000000000005,0.0036745425325969473
79,441.16,0.003826753873539206
80,451.43999999999994,0.003958896768905154
81,459.83000000000004,0.004059100697418805
82,469.46000000000004,0.00418482706661862
83,478.630092,0.004310247373381005
84,480.4,0.004282749594313196
85,490.46,0.004104487439575721
86,499.57,0.003973433711876079
87,506.52000000000004,0.0038873847667045625
88,512.39,0.00431891376279711
89,519.52,0.004262050944081584
90,530.39,0.004151629408396061
91,540.26,0.003959071059066153
92,549.5408739999999,0.004298862167434921
93,550.3000000000001,0.004335141529938986
94,560.53,0.004624715900149118
95,569.64,0.004919439770394895
96,580.23,0.004760953229879284
97,589.66,0.005411423957257733
98,600.62,0.005598086564051774
99,610.38,0.006263672206598294
100,620.3000000000001,0.006796480777711148
101,630.38,0.007277861277390339
102,630.957344,0.0072756575839978575
103,640.6199999999999,0.007361155678318871
104,649.53,0.008347543782672974
105,658.5699999999999,0.009096830124239874
106,664.66,0.009510622852131737
107,675.4599999999999,0.00959504625134883
108,684.86,0.009702871172889633
109,694.38,0.012362664621088405
110,705.6700000000001,0.0121685778374922
111,715.48,0.01416474889178106
112,724.43596,0.014765787065411436
113,725.4399999999999,0.014830021891428409
114,735.53,0.015499494262663532
115,745.76,0.017637185814470796
116,754.4,0.01895049952978016
117,764.89,0.02026084670264998
118,775.53,0.022059674426132804
119,784.5100000000001,0.023892424722831658
120,795.4200000000001,0.024929819437417903
121,804.64,0.02616959261509757
122,815.83,0.027202525690828098
123,825.2800000000001,0.029993660379447715
124,831.763771,0.02632074898392609
125,834.83,0.024543459871730268
126,844.5,0.031537667480509346
127,854.2800000000001,0.032403163014517546
128,864.17,0.03501433647375489
129,874.18,0.03771191766960582
130,884.3,0.04135453679068589
131,894.5400000000001,0.043763203648379545
132,904.9,0.0430492982426868
133,915.38,0.07146495057360766
134,925.98,0.5622840806411421
135,934.54,1.2512028791862453
136,945.3599999999999,2.456072295104238
137,954.11,3.635396380065646
138,954.992586,3.647914911325879
139,965.1600000000001,3.792205926391852
140,974.0899999999999,0.5152339965853385
141,985.37,2.740024116829743
142,994.49,3.2371381161762818
143,1006.0,5.337897708553329
144,1015.31,5.330903437052921
145,1024.71,2.3412950372565913
146,1034.19,3.3787685234194416
147,1046.16,7.309440460061775
148,1055.84,7.182843661122575
149,1065.6100000000001,5.245029733887454
150,1075.47,6.56335467835641
151,1085.42,4.803779494529444
152,1095.47,7.028904168151452
153,1096.4782,7.001109254584794
154,1105.6000000000001,6.749604033229411
155,1115.83,6.304718391173863
156,1126.1599999999999,5.534103302959416
157,1133.96,7.647967502565156
158,1144.46,6.8062866558805775
159,1155.05,7.451440407652988
160,1165.73,7.666442757882386
161,1173.81,4.899501708243206
162,1184.67,7.437603255386584
163,1195.64,4.548024311755171
164,1203.92,2.953869369798188
165,1215.06,2.359171667696644
166,1226.31,4.999083474820309
167,1234.81,8.153215551313744
168,1246.23,9.007857599967279
169,1254.87,8.396126051838253
170,1258.92541,7.726343944871299
171,1263.57,6.959276432225801
172,1275.26,9.590036142046264
173,1284.1,10.168766947419481
174,1295.98,7.3376187175364285
175,1304.97,7.244189570512132
176,1314.01,9.759299439355331
177,1326.17,9.218637298330254
178,1335.36,7.746588214775938
179,1344.62,9.920051153436118
180,1353.9399999999998,9.548407111137292
181,1366.4699999999998,8.225379087531682
182,1375.94,8.801782092835342
183,1385.48,8.891417120353497
184,1395.08,7.627387166912645
185,1404.75,7.939255235686288
186,1414.49,8.019703326674424
187,1424.29,8.405174436703557
188,1434.1599999999999,8.278117568947183
189,1440.7900000000002,8.861376672977094
190,1445.43977,8.999602875230812
191,1447.44,9.0590646813395
192,1454.1200000000001,8.682879460547634
193,1464.2,7.834917145340749
194,1474.3500000000001,7.8595568487782606
195,1484.56,8.086354568196684
196,1494.8600000000001,8.262379311586473
197,1505.2199999999998,7.681687070957175
198,1512.1599999999999,6.622698919415927
199,1515.65,7.257631848972274
200,1526.16,6.9204176482952535
201,1536.74,5.81418346626263
202,1543.83,6.607307354673661
203,1554.53,6.19938920460286
204,1565.31,6.290033075839942
205,1576.16,6.713598965721419
206,1583.43,7.153129902075183
207,1594.41,7.257626826581969
208,1605.46,7.162829769733153
209,1616.59,7.233797734192216
210,1624.05,6.7436047211522006
211,1635.3100000000002,7.280731720236574
212,1646.64,7.369662737965343
213,1654.2399999999998,6.74471876221412
214,1659.58691,7.066037311986047
215,1665.71,7.434010096337639
216,1673.3999999999999,6.467397054105872
217,1677.2599999999998,7.37016856216639
218,1685.0,7.815801617189293
219,1696.68,7.281536335880187
220,1704.51,6.913895565961496
221,1716.3200000000002,6.38222953751453
222,1724.25,6.345554962105179
223,1736.2,6.83397720597129
224,1744.21,6.6551387861694105
225,1756.3000000000002,7.1676853023485965
226,1764.4099999999999,6.484266077056057
227,1776.6399999999999,6.5926728655483195
228,1784.8400000000001,6.769016815314186
229,1793.08,7.294284842883788
230,1805.51,7.263826020394729
231,1813.84,6.5110522230227375
232,1826.41,6.711436672846755
233,1834.8400000000001,6.401430069984103
234,1843.31,5.790767544925188
235,1856.09,5.713397403218819
236,1864.6599999999999,5.906372072669242
237,1873.27,6.603123819923403
238,1886.2499999999998,5.927944067235714
239,1894.96,5.615056008999213
240,1903.7,6.064047009115515
241,1905.46072,6.017294114116727
242,1916.9,5.713492752779539
243,1925.75,5.627317563643309
244,1934.6399999999999,5.911724274217198
245,1943.56,6.054991909573675
246,1957.04,5.587524111883689
247,1966.07,6.2460824714429934
248,1975.1499999999999,6.4567087056399455
249,1984.26,6.0036448646194875
250,1993.4199999999998,5.791699898236677
251,2007.2400000000002,6.0515082480827
252,2016.5,5.744530030975188
253,2025.8100000000002,6.1321776885053225
254,2035.16,5.662462245745577
255,2044.56,5.92068767762348
256,2053.99,5.620136034283971
257,2063.47,5.6377822655821115
258,2073.0,6.0597783715179006
259,2077.7799999999997,5.599274386877089
260,2087.37,5.867818342378055
261,2097.0,5.49342719758914
262,2106.68,5.561312927437874
263,2116.41,5.604331531924257
264,2126.18,5.686549036120757
265,2135.9900000000002,5.262670440027377
266,2145.85,5.339794718571645
267,2155.75,5.595519896826032
268,2165.7000000000003,5.422273949718067
269,2175.7000000000003,5.351775877247751
270,2185.74,5.161858704487553
271,2187.7616199999998,5.216384080353706
272,2195.83,5.4340337645534795
273,2205.97,5.265414034507801
274,2216.15,5.008940384422494
275,2226.38,4.7847468342876525
276,2236.66,5.082479384103275
277,2246.98,4.8537030138792705
278,2257.35,4.64592874360573
279,2262.55,4.7979041384541015
280,2273.0,4.909364028101305
281,2283.49,5.012144997708882
282,2294.0299999999997,4.7315730672669245
283,2304.62,4.67726023677543
284,2315.26,4.425631506234402
285,2325.94,3.3497098556537463
286,2336.68,4.120763325013649
287,2347.46,4.063899874333923
288,2352.88,4.304508708964339
289,2363.74,3.998820418205357
290,2374.65,4.082400227396841
291,2385.61,3.845116136538789
292,2396.62,4.110363145631203
293,2407.6800000000003,3.9072152546740813
294,2413.23,3.998194349175707
295,2424.3700000000003,4.157339618139329
296,2435.56,3.9702879870534176
297,2446.8,4.2050474559179705
298,2452.44,4.118691730330433
299,2463.76,4.09975635911573
300,2475.1400000000003,3.9511221078415857
301,2486.56,4.118241936527813
302,2492.29,3.8433073908511126
303,2503.7999999999997,4.213849399448177
304,2511.88643,3.9479928475064847
305,2515.35,3.834111884639431
306,2526.9599999999996,3.7987439023396705
307,2532.79,3.8248753918480594
308,2544.48,3.71185534765476
309,2556.23,3.9224692570413073
310,2562.12,3.8507367001295427
311,2573.95,4.059806547622551
312,2585.83,4.013163356432099
313,2597.76,3.9760261265581844
314,2603.7500000000005,3.8409594922794965
315,2615.77,3.8055771927753517
316,2627.84,3.911665854587745
317,2633.9,3.9296031661522113
318,2646.06,4.152503758334374
319,2652.16,4.133279038952071
320,2664.4,3.8483455692406956
321,2676.7000000000003,4.001562053109167
322,2682.87,3.9374862795700167
323,2695.25,3.821149701544949
324,2707.6899999999996,3.8649610770997276
325,2713.93,3.7422262494037324
326,2726.46,3.75912255532828
327,2732.7400000000002,3.9090326966855153
328,2745.36,3.5079779329798324
329,2758.03,3.515663130590688
330,2764.39,3.589202210054385
331,2777.15,3.73192133803501
332,2783.55,3.6637513865519375
333,2796.4,3.089737444902332
334,2802.85,3.295235454735798
335,2815.7799999999997,3.705255451192654
336,2822.27,3.748033430079351
337,2835.3,3.554298349169284
338,2841.84,3.5053342893725192
339,2854.95,3.488941146568914
340,2868.1299999999997,3.636284949608462
341,2874.7400000000002,3.5614578356548514
342,2884.0315,3.5668350958637944
343,2888.0099999999998,3.5691405841143564
344,2894.6699999999996,3.5040284786644778
345,2908.0299999999997,3.6601022671313874
346,2928.19,3.568089947931754
347,2948.4900000000002,3.5104276265154564
348,2968.92,3.5099433030408287
349,2989.5,3.493023977191203
350,3010.23,3.50043564896658
351,3031.09,3.467907318683626
352,3052.1,3.419478986025675
353,3073.2599999999998,3.3797516509927266
354,3087.45,3.371546426317985
355,3108.8500000000004,3.3018420874850407
356,3130.3900000000003,3.2634297464354325
357,3152.09,3.2552224028524943
358,3166.64,3.202681172477759
359,3188.59,3.1004508249364915
360,3210.7000000000003,3.135542474861894
361,3232.95,3.070467122570632
362,3247.87,3.07021288633757
363,3270.3900000000003,3.0622455297713134
364,3293.06,3.0404671708300595
365,3308.26,3.018943930163669
366,3311.31121,3.0202237115876733
367,3323.53,3.0253451835673815
368,3331.19,3.018173865099917
369,3338.87,2.908996540579013
370,3346.56,2.962572213031389
371,3354.28,2.881836876403605
372,3362.01,2.8946475367491016
373,3369.7599999999998,2.8746581910411577
374,3377.53,2.834936839279774
375,3385.32,2.9341014814649506
376,3393.12,2.9543391206234078
377,3400.94,3.0089317537284246
378,3408.78,2.8403123807800013
379,3416.6400000000003,2.8994970017781387
380,3424.52,2.926136616722836
381,3432.4100000000003,2.952793228640813
382,3440.32,2.9248668345053512
383,3448.25,2.830570434316449
384,3456.2,2.7454830280741063
385,3464.1699999999996,2.731390615778324
386,3472.1600000000003,2.7803191974291024
387,3480.16,2.7659837760531607
388,3488.1800000000003,2.789813348623779
389,3496.22,2.7882729151409573
390,3504.28,2.717031475604696
391,3512.36,2.6965260300149945
392,3520.46,2.7388015783718536
393,3528.5699999999997,2.7183101237019924
394,3536.71,2.760824659951972
395,3544.86,2.778255193175231
396,3550.7300000000005,2.493584416490634
397,3553.3799999999997,2.8569246144098535
398,3556.03,2.8041428123290726
399,3558.69,2.5975970072215717
400,3561.34,2.685752205140791
401,3564.0,2.81514740003329
402,3566.65,2.92764659795251
403,3569.31,2.250295792845009
404,3571.96,2.434132990764228
405,3574.6099999999997,2.480596188683448
406,3577.27,2.653964383575947
407,3579.9199999999996,2.338809581495166
408,3582.5800000000004,2.4504227763876654
409,3585.23,2.414655974306885
410,3587.88,2.370022172226104
411,3590.54,2.6426873671186035
412,3593.19,2.5014735650378226
413,3595.85,2.4440137599303218
414,3598.5,2.1050529578495416
415,3601.16,3.073176152742041
416,3603.81,3.13673235066126
417,3606.46,3.0109205485804793
418,3609.12,2.7103307434729786
419,3611.7700000000004,2.750054941392198
420,3614.4300000000003,2.268273136284697
421,3617.08,2.3487393342039167
422,3619.73,2.6852245321231356
423,3622.39,2.5824597270156353
424,3625.04,2.425050924934854
425,3627.7,2.8035981198273534
426,3630.35,2.779772317746573
427,3633.0099999999998,2.6411325126390723
428,3635.66,2.5082477105582917
429,3638.31,2.120188908477511
430,3640.9700000000003,2.5011451033700105
431,3643.6200000000003,2.6990513012892294
432,3646.28,2.806666496181729
433,3648.9300000000003,2.5497576941009483
434,3651.58,2.3338208920201673
435,3654.2400000000002,2.7018620869126666
436,3656.89,2.6990492848318857
437,3659.5499999999997,2.654964479724385
438,3662.2,2.709295677643605
439,3664.8599999999997,2.382594872536104
440,3667.5099999999998,2.511826070455323
441,3670.1600000000003,2.6644532683745425
442,3672.82,2.861755463267042
443,3675.4700000000003,2.519232661186261
444,3678.13,2.5281158560787604
445,3680.78,2.6021760539979795
446,3683.44,2.0822662488904795
447,3686.09,2.4159304468096985
448,3688.74,2.4453526447289176
449,3691.4,2.5012068396214167
450,3694.0499999999997,2.7346540375406363
451,3696.7100000000005,2.568340232433136
452,3699.3599999999997,2.516838430352355
453,3702.01,2.0456786282715744
454,3704.67,2.202751823164074
455,3707.32,2.7423390210832927
456,3709.98,2.398060215975792
457,3712.63,3.0393284138950114
458,3715.29,3.1348976087875107
459,3717.94,3.69275780670673
460,3720.5899999999997,5.41732200462595
461,3723.25,9.41196119951845
462,3725.8999999999996,13.220613397437669
463,3728.5600000000004,14.282712592330167
464,3731.2099999999996,11.535501790249388
465,3733.86,7.534195988168606
466,3736.52,4.308003183061105
467,3739.17,3.3952523809803243
468,3741.83,2.9770435758728238
469,3744.48,2.888643773792043
470,3747.14,3.0608329686845424
471,3749.79,2.556874166603762
472,3752.44,2.640596364522981
473,3755.1,2.8243175594154803
474,3757.7500000000005,2.9224667573347
475,3760.4100000000003,3.017780952227199
476,3763.06,3.298891150146418
477,3765.7200000000003,3.1702443450389177
478,3768.37,3.052119542958137
479,3771.02,2.785114740877356
480,3773.68,2.7571739357698553
481,3776.33,2.9624341336890745
482,3778.99,3.016236328581574
483,3781.64,3.3475725265007936
484,3784.29,3.3058107244200126
485,3786.95,3.327067919312512
486,3789.6000000000004,2.9142571172317315
487,3792.26,2.9982963121242308
488,3794.9100000000003,2.8132915100434497
489,3797.57,2.236159704935949
490,3800.2200000000003,2.4355259028551686
491,3801.8939600000003,2.498802347560409
492,3802.87,2.5356971623286566
493,3805.5299999999997,2.9801005249748913
494,3808.18,3.2996498900171924
495,3810.8399999999997,3.317832252663427
496,3813.49,2.8327606177057283
497,3816.14,3.0928589827480297
498,3818.8,3.2050853453942643
499,3821.4500000000003,2.966523710436565
500,3824.11,2.6200660730828
501,3826.76,2.950376438125101
502,3829.42,2.9055238007713355
503,3832.07,2.5749681658136367
504,3834.72,2.283592530855938
505,3837.38,2.8478698935021725
506,3840.0299999999997,2.5900882585444736
507,3842.69,3.1207706211907085
508,3845.3399999999997,3.0741389862330095
509,3847.9900000000002,3.048776351275311
510,3850.65,3.3419147139215455
511,3853.3,3.3470460789638463
512,3855.96,3.6468464416100814
513,3858.61,3.916683806652382
514,3861.27,3.638642169298617
515,3863.92,4.095028534340918
516,3866.5699999999997,4.295423899383219
517,3869.23,4.339485262029454
518,3871.8799999999997,4.180875627071755
519,3874.5400000000004,3.7644589897179896
520,3877.1899999999996,3.452099354760291
521,3879.8500000000004,2.947791717406526
522,3882.5,3.1456210824488267
523,3885.15,3.317827447491128
524,3887.81,3.6781018101373624
525,3890.46,3.688871175179664
526,3893.12,3.4910355378258986
527,3895.77,2.8560589028681993
528,3898.42,2.9152582679105006
529,3901.08,3.6365876305567353
530,3903.7300000000005,3.5476769955990366
531,3906.3900000000003,3.541515358245271
532,3909.04,3.7398587232875724
533,3911.7000000000003,4.096289085933807
534,3914.35,3.661954450976108
535,3917.0,3.500781816018409
536,3919.66,3.660158178664644
537,3922.31,3.399046543706945
538,3924.97,3.63529690635318
539,3927.62,2.9805882713954808
540,3930.27,3.1038496364377823
541,3932.93,3.002621999084017
542,3935.5800000000004,3.218133364126318
543,3938.2400000000002,3.3229287267725525
544,3940.8900000000003,3.2396540918148538
545,3943.55,3.4566864544610882
546,3946.2000000000003,3.6773228195033894
547,3948.85,3.4059621845456904
548,3951.5099999999998,3.4010825471919253
549,3954.16,2.8867979122342264
550,3956.8199999999997,3.039256274880461
551,3959.47,3.358804639922762
552,3962.1299999999997,3.070259002568997
553,3964.7799999999997,3.260400367611298
554,3967.4300000000003,3.471556732653599
555,3970.09,3.231441095299834
556,3972.7400000000002,3.155853460342135
557,3975.4,3.03438282298837
558,3978.05,3.0318251880306706
559,3980.7,2.995956553072972
560,3983.36,2.834766915719207
561,3986.0099999999998,3.2901262807615077
562,3988.67,3.2826856434077425
563,3991.3199999999997,3.3149790084500435
564,3993.9799999999996,3.8123463710962784
565,3996.63,3.3685307361385792
566,3999.28,3.4067181011808807
567,4001.94,3.450013463827115
568,4004.59,3.4308018288694164
569,4007.25,3.544821191515651
570,4009.9,3.643483556557952
571,4012.5499999999997,3.6829529216002532
572,4015.21,3.4535992842464878
573,4017.8599999999997,3.927922649288789
574,4020.52,3.932524011935024
575,4023.1699999999996,3.821063376977325
576,4025.8300000000004,3.6275837396235597
577,4028.48,3.623491104665861
578,4031.13,3.724972469708162
579,4033.79,3.7052298323543966
580,4036.44,3.8500181973966976
581,4039.1,3.7790255600429323
582,4041.75,3.6978009250852333
583,4044.4,3.777758290127535
584,4047.06,3.8815276527737694
585,4049.71,3.8815350178160704
586,4052.3700000000003,3.7633923804623053
587,4055.0199999999995,3.863592745504606
588,4057.6800000000003,4.028861108150841
