,lambda (Angstroms),Total Flux (erg/s/cm^2/Angstrom)
0,102.00000000000001,17.212297442561564
1,103.9,17.163243051694007
2,104.712855,17.14225667980633
3,106.07000000000001,16.95820242651099
4,108.03999999999999,16.69103357022122
5,110.05,16.41843996869853
6,113.91999999999999,15.893595570521525
7,117.92,15.351120743407252
8,120.22644299999999,15.038324027233832
9,120.95,14.956054146510402
10,124.91,14.505794096345879
11,126.94,14.274978966872895
12,128.10999999999999,14.141947592379061
13,131.1,13.801978518589578
14,132.01,13.698509733148308
15,134.15,13.455187391498427
16,136.96,13.135684811435855
17,138.038426,13.013065600762417
18,140.15,12.841453056556325
19,143.09,12.602513828921575
20,147.10000000000002,12.276615034467861
21,150.87,11.97021917704433
22,155.1,11.626438230296538
23,158.489319,11.35098142331539
24,159.07000000000002,11.31530260910316
25,162.02999999999997,11.133431195809896
26,166.19,10.877828388718706
27,170.06,10.640044110239737
28,172.82,10.470461781589623
29,176.85,10.222846876342535
30,180.14,10.020699651228016
31,181.8,9.918704711728742
32,181.970086,9.908254144036382
33,186.04,9.717477360952737
34,190.81,9.49388468559396
35,193.91,9.348573042571758
36,197.97,9.158261512685778
37,202.12,8.963731624019442
38,204.93,8.832014089898381
39,208.929613,8.644532321371228
40,210.17999999999998,8.600467229552605
41,216.07000000000002,8.392901138664628
42,220.09,8.25123403883847
43,223.15,8.143397099420946
44,226.78,8.015474600113297
45,229.93,7.904489036349965
46,234.21,7.753698953421468
47,239.88329199999998,7.553800188263896
48,240.21,7.54492975979449
49,245.80999999999997,7.39284677965941
50,252.11999999999998,7.221503743989703
51,256.8,7.094383954486813
52,259.78000000000003,7.0134848626499275
53,264.0,6.898895838213137
54,268.91,6.7655606599272
55,273.90000000000003,6.630051149499333
56,275.42287,6.588695932386198
57,279.0,6.514145784036694
58,284.18,6.406191263476027
59,290.13,6.282178465392831
60,296.21000000000004,6.155470138987647
61,301.02,6.055221411474173
62,308.03000000000003,5.909131168696322
63,316.227766,5.738286419951681
64,318.13,5.708677599364527
65,327.79,5.55831272738069
66,337.75,5.4032733605899015
67,348.02,5.243407696831931
68,356.93999999999994,5.104559373105242
69,363.078055,5.0090193404787655
70,366.09999999999997,4.973794906325278
71,374.63000000000005,4.874356618635623
72,385.12,4.752057341421737
73,395.0,4.6368992996159
74,405.13,4.518820409832995
75,413.62,4.419845483035672
76,416.86938299999997,4.38196276273153
77,422.28000000000003,4.333791013020969
78,430.13000000000005,4.263904214503267
79,441.16,4.165718711314572
80,451.43999999999994,4.074199747649225
81,459.83000000000004,3.9994990970987123
82,469.46000000000004,3.9137687771469327
83,478.630092,3.8321384504630784
84,480.4,3.8200215501359653
85,490.46,3.751128196782509
86,499.57,3.688771051521975
87,506.52000000000004,3.6412128471263965
88,512.39,3.6015491887132973
89,519.52,3.5527906757706393
90,530.39,3.478432437005325
91,540.26,3.410822587390454
92,549.5408739999999,3.3477691276724006
93,550.3000000000001,3.343844356535861
94,560.53,3.2907547203333833
95,569.64,3.2435142918754574
96,580.23,3.188098147469372
97,589.66,3.139543734941574
98,600.62,3.0825421132984494
99,610.38,3.0322809056673448
100,620.3000000000001,2.9810520555013054
101,630.38,2.9289369118003297
102,630.957344,2.9259221795684343
103,640.6199999999999,2.8859269916857966
104,649.53,2.849954710035715
105,658.5699999999999,2.8132060867723343
106,664.66,2.7883585665030863
107,675.4599999999999,2.7436446023211705
108,684.86,2.7047612380517245
109,694.38,2.6679320824469244
110,705.6700000000001,2.6209070886456427
111,715.48,2.5822113909804028
112,724.43596,2.545663117372447
113,725.4399999999999,2.542637149736471
114,735.53,2.5122519401811756
115,745.76,2.482904062247512
116,754.4,2.457625458039608
117,764.89,2.4266500159746878
118,775.53,2.395701389218658
119,784.5100000000001,2.3698957803775724
120,795.4200000000001,2.337354723177546
121,804.64,2.3102174728306855
122,815.83,2.276810178873921
123,825.2800000000001,2.250516403334026
124,831.763771,2.226887947231918
125,834.83,2.2180937698765493
126,844.5,2.202958740134995
127,854.2800000000001,2.1814432696621506
128,864.17,2.1614217484580163
129,874.18,2.141212021910657
130,884.3,2.121695604632009
131,894.5400000000001,2.1006706220101345
132,904.9,2.0762484540450354
133,915.38,2.080681230736712
134,925.98,2.547242872085163
135,934.54,3.21657260426844
136,945.3599999999999,4.396681074154312
137,954.11,5.555981288710816
138,954.992586,5.566480072807027
139,965.1600000000001,5.6879309211589
140,974.0899999999999,2.3908985621462078
141,985.37,4.590349192867016
142,994.49,5.0669759453646925
143,1006.0,7.141879374229631
144,1015.31,7.1139710382376755
145,1024.71,4.103246397171683
146,1034.19,5.119423929373213
147,1046.16,9.023206354526412
148,1055.84,8.874864319896751
149,1065.6100000000001,6.915102980193056
150,1075.47,8.211278335415322
151,1085.42,6.429351385563555
152,1095.47,8.631899652296191
153,1096.4782,8.601839909532929
154,1105.6000000000001,8.333587464637105
155,1115.83,7.869919992589813
156,1126.1599999999999,7.080339478782529
157,1133.96,9.179883221503067
158,1144.46,8.318924836703793
159,1155.05,8.944635814320526
160,1165.73,9.140030154353264
161,1173.81,6.3582545801458235
162,1184.67,8.876417645010575
163,1195.64,5.966698263939334
164,1203.92,4.3573416062119055
165,1215.06,3.7421913541486767
166,1226.31,6.361448656149454
167,1234.81,9.499975106550043
168,1246.23,10.333650537558832
169,1254.87,9.706056329495429
170,1258.92541,9.028828668162218
171,1263.57,8.255665965212604
172,1275.26,10.871084649311722
173,1284.1,11.43821454216341
174,1295.98,8.591475945679024
175,1304.97,8.48624903807005
176,1314.01,10.98949553030752
177,1326.17,10.432875572963233
178,1335.36,8.948766264740044
179,1344.62,11.110077116301877
180,1353.9399999999998,10.726202247679447
181,1366.4699999999998,9.386730849198862
182,1375.94,9.95070618011577
183,1385.48,10.027821670817703
184,1395.08,8.75119344133537
185,1404.75,9.050371371638064
186,1414.49,9.11803746172578
187,1424.29,9.490647831629236
188,1434.1599999999999,9.350638361317714
189,1440.7900000000002,9.925196780956478
190,1445.43977,10.0573209950863
191,1447.44,10.11495047053527
192,1454.1200000000001,9.732645969057229
193,1464.2,8.875449769222104
194,1474.3500000000001,8.890791463832567
195,1484.56,9.108236210824964
196,1494.8600000000001,9.274825536390262
197,1505.2199999999998,8.684642914337495
198,1512.1599999999999,7.6192973065145
199,1515.65,8.251033186730314
200,1526.16,7.904191195632381
201,1536.74,6.7882650989800375
202,1543.83,7.574894122111878
203,1554.53,7.157174130223401
204,1565.31,7.237942874844169
205,1576.16,7.651569513910527
206,1583.43,8.084440694188169
207,1594.41,8.17887928008205
208,1605.46,8.07395976042152
209,1616.59,8.134731977270235
210,1624.05,7.637705156757335
211,1635.3100000000002,8.164517320433573
212,1646.64,8.2430693785554
213,1654.2399999999998,7.611163346933679
214,1659.58691,7.927583806422115
215,1665.71,8.291617284440292
216,1673.3999999999999,7.320056860134448
217,1677.2599999999998,8.220345026867797
218,1685.0,8.66099853218285
219,1696.68,8.11921889162469
220,1704.51,7.746540670257362
221,1716.3200000000002,7.207276646713536
222,1724.25,7.1655002845880045
223,1736.2,7.646234463982695
224,1744.21,7.4622427892506
225,1756.3000000000002,7.967011171583805
226,1764.4099999999999,7.278374356093508
227,1776.6399999999999,7.378912941365228
228,1784.8400000000001,7.549981399192546
229,1793.08,8.069948200716585
230,1805.51,8.031492504471897
231,1813.84,7.273359579313552
232,1826.41,7.465657086007381
233,1834.8400000000001,7.150227020090831
234,1843.31,6.5341152978710015
235,1856.09,6.448523108972603
236,1864.6599999999999,6.635984245994569
237,1873.27,7.327196726713255
238,1886.2499999999998,6.64366625629845
239,1894.96,6.32517459625893
240,1903.7,6.768542693991951
241,1905.46072,6.7206570350704755
242,1916.9,6.41150750082296
243,1925.75,6.321194697234038
244,1934.6399999999999,6.6014450922729635
245,1943.56,6.7405423862827725
246,1957.04,6.266772323867103
247,1966.07,6.921108914103491
248,1975.1499999999999,7.127490002624688
249,1984.26,6.670166990116769
250,1993.4199999999998,6.453939475893659
251,2007.2400000000002,6.707286601814686
252,2016.5,6.395979084161193
253,2025.8100000000002,6.779274064792507
254,2035.16,6.30518724405167
255,2044.56,6.55901792159564
256,2053.99,6.254057498110493
257,2063.47,6.267271572910158
258,2073.0,6.684812145994628
259,2077.7799999999997,6.222073382022306
260,2087.37,6.486133753048548
261,2097.0,6.107240322702635
262,2106.68,6.170600390641533
263,2116.41,6.209069956865237
264,2126.18,6.286719721716789
265,2135.9900000000002,5.858254685196187
266,2145.85,5.930769146960394
267,2155.75,6.181865807352446
268,2165.7000000000003,6.003967966029308
269,2175.7000000000003,5.928794622990979
270,2185.74,5.734183478580495
271,2187.7616199999998,5.787763692398077
272,2195.83,6.002831494562217
273,2205.97,5.830966963969053
274,2216.15,5.5712357133341
275,2226.38,5.343768562646913
276,2236.66,5.638211511907492
277,2246.98,5.4061327411262825
278,2257.35,5.195040070292839
279,2262.55,5.345351464860447
280,2273.0,5.453467353943427
281,2283.49,5.552891522984622
282,2294.0299999999997,5.268946791973581
283,2304.62,5.211245160910304
284,2315.26,4.956211629794794
285,2325.94,3.876872378637496
286,2336.68,4.644489047417517
287,2347.46,4.58417599615575
288,2352.88,4.8230504304935256
289,2363.74,4.5138869391481835
290,2374.65,4.593975547750606
291,2385.61,4.353184256300795
292,2396.62,4.614908064798749
293,2407.6800000000003,4.408220973244469
294,2413.23,4.497424067446436
295,2424.3700000000003,4.653004535808579
296,2435.56,4.462372104118489
297,2446.8,4.6935347723761645
298,2452.44,4.605374246484108
299,2463.76,4.582816474658209
300,2475.1400000000003,4.430540622769628
301,2486.56,4.594006050839258
302,2492.29,4.3172379048531795
303,2503.7999999999997,4.684096712828788
304,2511.88643,4.415652502850488
305,2515.35,4.300953569130765
306,2526.9599999999996,4.262843721761297
307,2532.79,4.287598374632615
308,2544.48,4.171817572242513
309,2556.23,4.379656553586935
310,2562.12,4.306532990192778
311,2573.95,4.512809016516567
312,2585.83,4.463360195952461
313,2597.76,4.423405528500457
314,2603.7500000000005,4.286924271330507
315,2615.77,4.248703279480292
316,2627.84,4.35194144074218
317,2633.9,4.368447597929175
318,2646.06,4.588476434792851
319,2652.16,4.56781111446953
320,2664.4,4.279986996312571
321,2676.7000000000003,4.430298661890137
322,2682.87,4.364765755923761
323,2695.25,4.245505466480694
324,2707.6899999999996,4.286378960772151
325,2713.93,4.162170469162721
326,2726.46,4.1761076390559655
327,2732.7400000000002,4.324534669936218
328,2745.36,3.920499515431249
329,2758.03,3.925192514038384
330,2764.39,3.9972295898980037
331,2777.15,4.136935264106926
332,2783.55,4.067253862456228
333,2796.4,3.490205212266938
334,2802.85,3.6941799637283443
335,2815.7799999999997,4.10114635851842
336,2822.27,4.14239163246951
337,2835.3,3.9455793334837925
338,2841.84,3.8950707605469863
339,2854.95,3.875581506540636
340,2868.1299999999997,4.019812666891231
341,2874.7400000000002,3.94342450831137
342,2884.0315,3.946607449890237
343,2888.0099999999998,3.948247258931228
344,2894.6699999999996,3.8820208079903997
345,2908.0299999999997,4.035859212709699
346,2928.19,3.9404737395915155
347,2948.4900000000002,3.879414839576678
348,2968.92,3.8755121860149484
349,2989.5,3.8551494322068027
350,3010.23,3.859092578152243
351,3031.09,3.823073970550789
352,3052.1,3.771130262702921
353,3073.2599999999998,3.7278624546086374
354,3087.45,3.7172829712977737
355,3108.8500000000004,3.643998002809226
356,3130.3900000000003,3.6019816074240243
357,3152.09,3.590143438442647
358,3166.64,3.535167714540387
359,3188.59,3.4292647118149837
360,3210.7000000000003,3.4606569354934056
361,3232.95,3.391858732275172
362,3247.87,3.389108094431755
363,3270.3900000000003,3.377372710769975
364,3293.06,3.3518012268617805
365,3308.26,3.327734735225055
366,3311.31121,3.328503990807402
367,3323.53,3.332180913713462
368,3331.19,3.32410400263788
369,3338.87,3.2140187210372964
370,3346.56,3.266685254174212
371,3354.28,3.185037231523626
372,3362.01,3.1969340236105386
373,3369.7599999999998,3.1760284451724496
374,3377.53,3.135388496209359
375,3385.32,3.233632176721267
376,3393.12,3.252947671970675
377,3400.94,3.3066157966950804
378,3408.78,3.1370695508944846
379,3416.6400000000003,3.1953249345688874
380,3424.52,3.221032947718289
381,3432.4100000000003,3.2467567756051894
382,3440.32,3.2178952329670887
383,3448.25,3.122661319803986
384,3456.2,3.0366340361158817
385,3464.1699999999996,3.021599381902776
386,3472.1600000000003,3.069583357164669
387,3480.16,3.0543021471640617
388,3488.1800000000003,3.077183566638452
389,3496.22,3.0746926155878413
390,3504.28,3.002498294012229
391,3512.36,2.981037601911615
392,3520.46,3.0223555392859995
393,3528.5699999999997,3.0009052913978835
394,3536.71,3.042457487722265
395,3544.86,3.0589244987841457
396,3550.7300000000005,2.7735597496962
397,3553.3799999999997,3.1365866551334984
398,3556.03,3.0834915605707973
399,3558.69,2.876631280745595
400,3561.34,2.964473186182894
401,3564.0,3.0935539063576916
402,3566.65,3.2057398117949902
403,3569.31,2.5280745319697884
404,3571.96,2.7115984374070865
405,3574.6099999999997,2.7577483428443856
406,3577.27,2.9308020630191836
407,3579.9199999999996,2.615333968456482
408,3582.5800000000004,2.7266326886312795
409,3585.23,2.6905525940685786
410,3587.88,2.6456054995058773
411,3590.54,2.917956219680675
412,3593.19,2.776429125117974
413,3595.85,2.7186548452927717
414,3598.5,2.3793807507300704
415,3601.16,3.347189470904868
416,3603.81,3.410432376342167
417,3606.46,3.2843072817794656
418,3609.12,2.9834030019542634
419,3611.7700000000004,3.022813907391562
420,3614.4300000000003,2.5407176275663597
421,3617.08,2.6208705330036586
422,3619.73,2.9570424384409573
423,3622.39,2.8539631586157554
424,3625.04,2.696241064053054
425,3627.7,3.074473784227852
426,3630.35,3.05033468966515
427,3633.0099999999998,2.911380409839948
428,3635.66,2.778182315277247
429,3638.31,2.389810220714546
430,3640.9700000000003,2.7704519408893438
431,3643.6200000000003,2.968044846326642
432,3646.28,3.07534556650144
433,3648.9300000000003,2.8181234719387387
434,3651.58,2.6018733773760374
435,3654.2400000000002,2.969600097550835
436,3656.89,2.9664740029881336
437,3659.5499999999997,2.922074723162932
438,3662.2,2.9760926286002305
439,3664.8599999999997,2.649077348775028
440,3667.5099999999998,2.777995254212327
441,3670.1600000000003,2.9303091596496254
442,3672.82,3.127296879824424
443,3675.4700000000003,2.784460785261722
444,3678.13,2.79302950543652
445,3680.78,2.8667764108738187
446,3683.44,2.346552131048617
447,3686.09,2.6799030364859155
448,3688.74,2.709011941923214
449,3691.4,2.764551662098012
450,3694.0499999999997,2.9976855675353105
451,3696.7100000000005,2.8310572877101086
452,3699.3599999999997,2.7792421931474074
453,3702.01,2.3077690985847057
454,3704.67,2.464527818759504
455,3707.32,3.0038017241968022
456,3709.98,2.6592084443716
457,3712.63,3.300163349808899
458,3715.29,3.395418069983697
459,3717.94,3.9529649754209957
460,3720.5899999999997,5.677215880858294
461,3723.25,9.671540601033092
462,3725.8999999999996,13.479879506470391
463,3728.5600000000004,14.541664226645189
464,3731.2099999999996,11.794140132082488
465,3733.86,7.792521037519786
466,3736.52,4.566013757694583
467,3739.17,3.6529496631318823
468,3741.83,3.23442638330668
469,3744.48,3.145713288743979
470,3747.14,3.317588008918777
471,3749.79,2.813315914356076
472,3752.44,2.8967248197933744
473,3755.1,3.080131539968172
474,3757.7500000000005,3.177967445405471
475,3760.4100000000003,3.2729671655802686
476,3763.06,3.5537640710175675
477,3765.7200000000003,3.4248027911923655
478,3768.37,3.3063646966296636
479,3771.02,3.0390466020669624
480,3773.68,3.01079132224176
481,3776.33,3.215738227679059
482,3778.99,3.2692259478538572
483,3781.64,3.600248853291156
484,3784.29,3.5581737587284543
485,3786.95,3.579116478903252
486,3789.6000000000004,3.165992384340551
487,3792.26,3.249717104515349
488,3794.9100000000003,3.0643990099526475
489,3797.57,2.486952730127445
490,3800.2200000000003,2.6860056355647437
491,3801.8939600000003,2.749084178729216
492,3802.87,2.7858970934929674
493,3805.5299999999997,3.230077254208993
494,3808.18,3.5494042564260866
495,3810.8399999999997,3.5673634171421122
496,3813.49,3.0820694193592053
497,3816.14,3.3419454215762983
498,3818.8,3.453948582292324
499,3821.4500000000003,3.2151645845094174
500,3824.11,2.868483745225443
501,3826.76,3.198571747442536
502,3829.42,3.1534959081585616
503,3832.07,2.8227179103756552
504,3834.72,2.5311199125927484
505,3837.38,3.095174073308774
506,3840.0299999999997,2.837170075525867
507,3842.69,3.3676292362418927
508,3845.3399999999997,3.320775238458986
509,3847.9900000000002,3.2951902406760794
510,3850.65,3.588105401392105
511,3853.3,3.5930144036091978
512,3855.96,3.8925915643252242
513,3858.61,4.1622065665423165
514,3861.27,3.8839417272583425
515,3863.92,4.340105729475436
516,3866.5699999999997,4.540278731692529
517,3869.23,4.584116892408555
518,3871.8799999999997,4.425284894625648
519,3874.5400000000004,4.008645055341674
520,3877.1899999999996,3.696063057558767
521,3879.8500000000004,3.191532218274793
522,3882.5,3.3891392204918858
523,3885.15,3.561123222708979
524,3887.81,3.9211743834250044
525,3890.46,3.9317213856420983
526,3893.12,3.733662546358124
527,3895.77,3.0984635485752166
528,3898.42,3.15744055079231
529,3901.08,3.878546711508336
530,3903.7300000000005,3.789413713725429
531,3906.3900000000003,3.7830288744414546
532,3909.04,3.981149876658548
533,3911.7000000000003,4.337357037374574
534,3914.35,3.902800039591667
535,3917.0,3.74140504180876
536,3919.66,3.9005582025247856
537,3922.31,3.6392242047418786
538,3924.97,3.875251365457905
539,3927.62,3.2203203676749976
540,3930.27,3.3433593698920907
541,3932.93,3.2419085306081166
542,3935.5800000000004,3.45719753282521
543,3938.2400000000002,3.5617696935412355
544,3940.8900000000003,3.4782726957583288
545,3943.55,3.695081856474354
546,3946.2000000000003,3.9154958586914472
547,3948.85,3.6439128609085407
548,3951.5099999999998,3.6388100216245665
549,3954.16,3.1243030238416596
550,3956.8199999999997,3.276538184557685
551,3959.47,3.5958641867747785
552,3962.1299999999997,3.3070953474908045
553,3964.7799999999997,3.4970143497078974
554,3967.4300000000003,3.7079483519249905
555,3970.09,3.4676095126410162
556,3972.7400000000002,3.3917995148581097
557,3975.4,3.2701056755741353
558,3978.05,3.267325677791228
559,3980.7,3.231234680008322
560,3983.36,3.0698218407243476
561,3986.0099999999998,3.5249588429414405
562,3988.67,3.517295003657466
563,3991.3199999999997,3.5493660058745595
564,3993.9799999999996,4.046510166590585
565,3996.63,3.602472168807678
566,3999.28,3.6404371710247716
567,4001.94,3.683509331740797
568,4004.59,3.6640753339578906
569,4007.25,3.7778714946739163
570,4009.9,3.876311496891009
571,4012.5499999999997,3.9155584991081023
572,4015.21,3.6859816598241277
573,4017.8599999999997,4.160082662041221
574,4020.52,4.164460822757247
575,4023.1699999999996,4.05277782497434
576,4025.8300000000004,3.859074985690366
577,4028.48,3.8547599879074594
578,4031.13,3.9560189901245524
579,4033.79,3.936053150840578
580,4036.44,4.080619153057671
581,4039.1,4.009403313773697
582,4041.75,3.92795631599079
583,4044.4,4.0076913182078835
584,4047.06,4.1112374789239094
585,4049.71,4.111022481141002
586,4052.3700000000003,3.992656641857028
587,4055.0199999999995,4.0926346440741215
588,4057.6800000000003,4.257679804790147
589,4060.33,3.8882108070072396
590,4062.98,3.9548768092243334
591,4065.64,4.051759969940359
592,4068.29,4.255775972157452
593,4070.95,4.118704132873478
594,4073.6,4.025470135090571
595,4076.2599999999998,3.9191492958065965
596,4078.91,3.5724862980236898
597,4081.5600000000004,3.8961683002407828
598,4084.2200000000003,3.8731274609568085
599,4086.8700000000003,3.710963463173902
600,4089.53,3.600029623889928
