,lambda (Angstroms),Total Flux (erg/s/cm^2/Angstrom)
0,100.05999999999999,0.016896224715044934
1,101.92,0.02031126454294915
2,104.05,0.0242220359420874
3,104.712855,0.025439066199083083
4,105.99000000000001,0.023482534116625133
5,107.96,0.020464577612292197
6,109.96000000000001,0.01740066280318852
7,114.09,0.011073678554694181
8,118.1,0.004930529861657648
9,120.22644299999999,0.0016729207379758632
10,121.13000000000001,0.0016088761297594627
11,125.10000000000001,0.0013274688415629724
12,127.13000000000001,0.001183575945770082
13,128.01,0.0011212000412525742
14,130.99,0.0009099702021582805
15,131.9,0.0008454753136176746
16,134.04,0.0006937886986800967
17,136.85,0.0004946281524066865
18,138.038426,0.00041039364877189764
19,140.04000000000002,0.00040539677674132835
20,142.97,0.00039828710616500706
21,146.98,0.000388818025865332
22,151.09,0.00037873276727090166
23,154.97,0.00036927793019440793
24,158.489319,0.0003607426243453385
25,158.94,0.00035904429873867387
26,161.9,0.0003479177890519144
27,166.05,0.000332381720812032
28,169.92,0.00031794321323170806
29,173.08,0.00030618409893097825
30,177.11,0.0002912449902594781
31,179.99,0.0002806475106183067
32,181.970086,0.0002733611890271524
33,182.07000000000002,0.00027350153342052
34,185.89000000000001,0.000278973144059697
35,191.09,0.0002864615461182625
36,194.2,0.00029105789675905845
37,197.81,0.0002965274001170242
38,201.95000000000002,0.00030281349437518985
39,205.23,0.00030779292271982355
40,208.929613,0.00031327384713284925
41,210.01,0.00032165850940802694
42,215.9,0.00036868124575510316
43,219.91,0.0004005453423852856
44,222.97,0.0004246777676691655
45,227.10999999999999,0.0004578659536414737
46,229.74,0.0004888517149475536
47,234.01999999999998,0.0005450644717498431
48,239.88329199999998,0.0006074529501933472
49,240.01999999999998,0.000607033399385134
50,246.18,0.0005714066922487371
51,251.91000000000003,0.0005468713359189392
52,257.18,0.0005053222502194571
53,260.16,0.0005021075143969793
54,263.78,0.0004888452790018893
55,269.31,0.0004605729081635329
56,274.31,0.0004354327708774965
57,275.42287,0.00043000209491458896
58,278.77,0.00045652346804650153
59,283.95,0.0004969150397647411
60,289.9,0.0005376248140356919
61,295.96999999999997,0.0005873924289642082
62,300.78000000000003,0.0006232759669882882
63,307.78,0.0006798646720129359
64,316.227766,0.0007487341650008115
65,317.87,0.0007433126858907208
66,328.28000000000003,0.0007050483402541146
67,338.26,0.0006675541704699333
68,347.72999999999996,0.0006318067766967673
69,356.65000000000003,0.0005987973590139114
70,363.078055,0.0005751863099214139
71,365.8,0.0005886565399290045
72,375.18,0.0006326847743657437
73,384.81,0.0006709545524708392
74,394.68,0.0007239645804975573
75,404.8,0.0007723806521926317
76,414.23,0.0008149498553630423
77,416.86938299999997,0.0008263165073555323
78,421.93,0.0008404597324395138
79,429.78000000000003,0.0008623830446162856
80,440.8,0.0008966142890988362
81,451.07,0.0009241529477046254
82,460.52000000000004,0.0009492469897518221
83,470.16,0.0009755032722211314
84,478.630092,0.0010003193494922335
85,480.0,0.000997153667388429
86,490.06,0.0009676070960209977
87,500.32,0.0009437545969921858
88,506.11,0.0009277745261952249
89,511.96999999999997,0.0009306829357167807
90,520.29,0.0009086800250033584
91,529.96,0.0008811153775756184
92,539.82,0.0008476427338695673
93,549.5408739999999,0.0008265517545807313
94,549.85,0.0008265009931364828
95,560.07,0.0008296576103231131
96,570.49,0.0008297878896856071
97,579.76,0.0008179724115368856
98,590.53,0.000818831299707141
99,600.13,0.0008066032841485941
100,609.88,0.000777155315221945
101,619.79,0.000813781116035987
102,629.86,0.0008072115865907196
103,630.957344,0.000806690601459024
104,640.1,0.0008231227629966187
105,650.5,0.0008464634907820222
106,658.03,0.0008597469270535691
107,665.65,0.0008808959581809513
108,674.91,0.0008954925844591086
109,684.3000000000001,0.0008995000810845835
110,695.4200000000001,0.0009527809677166688
111,705.09,0.0009504187927825199
112,716.55,0.001004090871092205
113,724.43596,0.0010201355498002664
114,726.52,0.0010232039993035697
115,734.9300000000001,0.0010369079290476206
116,745.15,0.0010684864606747549
117,755.52,0.0010901290156623653
118,764.27,0.0010899962783568295
119,774.9,0.0011427720938359332
120,785.68,0.001167461132675513
121,794.78,0.0011914729498777557
122,805.83,0.0012173266707661936
123,815.1600000000001,0.0012366592837878337
124,824.6,0.0012806401339404902
125,831.763771,0.0012254313792370909
126,834.15,0.0012014098064973993
127,845.76,0.0012853141920037463
128,855.5500000000001,0.0012832509175082366
129,865.4599999999999,0.0013032263909249378
130,875.48,0.001324846891594498
131,885.62,0.0013557706401762686
132,895.87,0.0013733225160108987
133,904.16,0.0013651004426127604
134,914.63,0.0017338846729531092
135,925.2199999999999,0.007691656751205669
136,935.93,0.016243411677370437
137,944.59,0.030782840368368283
138,954.992586,0.04309379674605351
139,955.53,0.04373053223794108
140,964.37,0.05009648159638069
141,975.54,0.008854994106988222
142,984.57,0.04428362587697801
143,995.97,0.04692686056998838
144,1005.18,0.06788942530881517
145,1014.48,0.06478298703206048
146,1023.87,0.027580345739724284
147,1035.73,0.04596866279754033
148,1045.31,0.08895709291675431
149,1054.98,0.08845191002038678
150,1064.74,0.07090686410843777
151,1074.6,0.08468241262362042
152,1084.54,0.06757600068050841
153,1094.57,0.08947266572181489
154,1096.4782,0.08984330474507984
155,1104.7,0.09143578713920152
156,1114.9199999999998,0.09132189720978827
157,1125.24,0.08514230724192676
158,1135.65,0.1057421452394618
159,1146.1599999999999,0.09612511319854855
160,1154.1,0.10382517814575588
161,1164.78,0.1083132300394806
162,1175.56,0.07826987189475702
163,1183.71,0.10087337876122297
164,1194.66,0.06455398455113735
165,1205.72,0.047209332298758636
166,1214.07,0.030201959088328043
167,1225.31,0.06313549276674243
168,1233.8,0.10165028750248427
169,1245.22,0.12142754711169178
170,1253.85,0.12158043979360604
171,1258.92541,0.11188230503601727
172,1265.4499999999998,0.09942065896449255
173,1274.22,0.147468148247831
174,1286.01,0.16368641946226212
175,1294.93,0.13605472728522436
176,1303.9,0.12398103795472791
177,1315.97,0.1646318251097901
178,1325.09,0.16483804431891744
179,1334.27,0.14544166694389432
180,1343.52,0.17951959355402894
181,1355.96,0.17357970177349652
182,1365.35,0.15492283635394674
183,1374.82,0.16927357548886293
184,1384.3500000000001,0.1722233180396287
185,1393.9399999999998,0.16167546400624397
186,1403.6100000000001,0.1652555145273253
187,1416.5900000000001,0.16311695348943853
188,1426.4099999999999,0.17178821255014365
189,1436.3000000000002,0.16614977559600652
190,1442.93,0.17952595304737873
191,1445.43977,0.18616402305407956
192,1446.26,0.18833343512244108
193,1456.28,0.1834237138926441
194,1466.3799999999999,0.16864699648536377
195,1476.54,0.16613718194497082
196,1483.36,0.17381860781451022
197,1493.6399999999999,0.18136639900789217
198,1503.99,0.17661919354597616
199,1510.93,0.15804582514929044
200,1517.91,0.171543458663863
201,1524.9099999999999,0.15851229313406473
202,1535.4799999999998,0.13919619818406934
203,1546.13,0.16480990705659054
204,1553.26,0.15228554773838174
205,1564.03,0.1500076623446778
206,1574.87,0.1619991802956759
207,1585.79,0.1733455020691906
208,1596.78,0.18086382718740732
209,1604.15,0.17377087933674826
210,1615.27,0.17434861066655444
211,1626.47,0.1625218458188772
212,1633.9699999999998,0.17356690417980764
213,1645.3000000000002,0.17860214554371984
214,1656.7,0.16009709025233407
215,1659.58691,0.1677078022260424
216,1664.35,0.18026609022114076
217,1672.03,0.14916717007294777
218,1675.8899999999999,0.17961021697763208
219,1683.6200000000001,0.19270271427639096
220,1695.2900000000002,0.18003018639495713
221,1703.12,0.17256861858761977
222,1714.93,0.16687853955765117
223,1726.81,0.1658819849534152
224,1734.78,0.17797166599754308
225,1746.81,0.1752848637341627
226,1754.8700000000001,0.19022957618280392
227,1762.97,0.16980420258900666
228,1775.19,0.18083956662404338
229,1783.3899999999999,0.18276012792414986
230,1795.7500000000002,0.19777534081065182
231,1804.0400000000002,0.19399013351527164
232,1816.5400000000002,0.18542149525323884
233,1824.9299999999998,0.18524412285176242
234,1833.35,0.1791986609184571
235,1846.06,0.16586839593362213
236,1854.5800000000002,0.1711113688942206
237,1863.14,0.1757249558123805
238,1876.05,0.18669216061535301
239,1884.71,0.17772138242741667
240,1893.41,0.17510431819704186
241,1905.46072,0.178204264105034
242,1906.54,0.17848103771831886
243,1915.3400000000001,0.17788877959886584
244,1924.18,0.17688280348796076
245,1933.06,0.1779089093856036
246,1946.46,0.18725798224916376
247,1955.44,0.17988744316817648
248,1969.0,0.1937372440659284
249,1978.0900000000001,0.19620265550844798
250,1982.6499999999999,0.1890109044829132
251,1996.39,0.18355882441913088
252,2005.6,0.18632718188729425
253,2014.86,0.18064261686614252
254,2024.16,0.18633273385353877
255,2033.5,0.18314633284948295
256,2042.8899999999999,0.19021980935611205
257,2057.05,0.1780585403820831
258,2066.55,0.17949296741221904
259,2076.0899999999997,0.1938521764509029
260,2085.67,0.19631866749813473
261,2095.29,0.18812504055391452
262,2104.97,0.1870359866225162
263,2114.68,0.1889803191975288
264,2124.44,0.19181622928322636
265,2134.25,0.17595251687960883
266,2144.1,0.18614138648453926
267,2154.0,0.1911013336001546
268,2163.94,0.18355256272431789
269,2173.93,0.18290266935916613
270,2183.96,0.18267935800256227
271,2187.7616199999998,0.1861600526923118
272,2194.04,0.19191349958368373
273,2204.17,0.18604403231568034
274,2214.35,0.1758270829782396
275,2224.5699999999997,0.172812447985249
276,2234.83,0.18663262733670852
277,2245.15,0.17678552820484325
278,2255.51,0.1702719434174281
279,2265.92,0.17407657656057562
280,2276.38,0.18043272763428586
281,2286.89,0.1870203966385587
282,2297.4500000000003,0.17803828357339427
283,2302.7400000000002,0.17857588062692456
284,2313.37,0.17236469266454785
285,2324.05,0.1439421226327338
286,2334.7799999999997,0.1632069705314824
287,2345.55,0.15609253277468113
288,2356.3799999999997,0.17254481653455508
289,2367.2599999999998,0.1576211182249917
290,2372.71,0.16438797265632255
291,2383.66,0.15052189944954691
292,2394.67,0.16261204775944646
293,2405.7200000000003,0.15769041041379614
294,2416.83,0.16233079458482103
295,2422.4,0.17404989204950227
296,2433.58,0.1691703013233149
297,2444.81,0.1794365285276902
298,2456.1,0.17723047724874066
299,2467.43,0.17668704031424132
300,2473.12,0.17121428081227297
301,2484.54,0.1742498761527864
302,2496.0,0.16476108583774998
303,2507.5199999999995,0.18681241703938872
304,2511.88643,0.1707188535389397
305,2513.3,0.16550808669812112
306,2519.1000000000004,0.1690867817045407
307,2524.9100000000003,0.1638591753230403
308,2536.56,0.1675205583962797
309,2542.41,0.16687494646309947
310,2554.14,0.1811148184329791
311,2565.9300000000003,0.17644818207533894
312,2577.78,0.18716043739017899
313,2583.72,0.18559671296571906
314,2595.65,0.1824797571771994
315,2607.63,0.17778629444907987
316,2613.64,0.17548006030918015
317,2625.7000000000003,0.18571408647770093
318,2637.82,0.19473910431870187
319,2643.9,0.21365746046336243
320,2656.1099999999997,0.22199616581308368
321,2662.23,0.19986681640606435
322,2674.5200000000004,0.20911061065242587
323,2686.8599999999997,0.21233469795918758
324,2693.05,0.2006314388367285
325,2705.49,0.20942191226429052
326,2717.9700000000003,0.1971290801401727
327,2724.24,0.19502880991435387
328,2736.81,0.20593456529895637
329,2743.12,0.18036078952145768
330,2755.7799999999997,0.18654673241478045
331,2762.1400000000003,0.19547634969768196
332,2774.89,0.20406278009972503
333,2787.69,0.19119360356216827
334,2794.12,0.15346431112963
335,2807.02,0.16505472071287358
336,2813.4900000000002,0.20455142272865545
337,2826.48,0.21799341982061934
338,2832.9900000000002,0.21173831628472137
339,2846.07,0.20347630088540555
340,2852.63,0.1931586904099077
341,2865.8,0.21702776251931222
342,2872.4,0.22277654649213452
343,2884.0315,0.22129424042865176
344,2885.66,0.22108692750741898
345,2892.31,0.22433940861869586
346,2912.36,0.24882805166848565
347,2932.5499999999997,0.23877119432061808
348,2952.88,0.2360810365750932
349,2973.3399999999997,0.2410485784603151
350,2987.07,0.2425703394614928
351,3007.77,0.24655078066501643
352,3028.6200000000003,0.24886892144247863
353,3049.62,0.2518037617938793
354,3070.76,0.2559469017476228
355,3092.04,0.25777084130370886
356,3113.47,0.2644401804337335
357,3127.84,0.26006303961704924
358,3149.5299999999997,0.26192797800856743
359,3171.3599999999997,0.2674843160024283
360,3193.34,0.2543545535702278
361,3208.08,0.26496031170259193
362,3230.3199999999997,0.2525291485318849
363,3252.7099999999996,0.27759478493511647
364,3267.7200000000003,0.29185024230057005
365,3290.3700000000003,0.2912737779652952
366,3311.31121,0.2883003604465508
367,3313.18,0.28803491701270795
368,3320.8199999999997,0.2843441021783743
369,3328.4700000000003,0.29188928680106385
370,3336.15,0.2961964697948227
371,3343.84,0.28249055224560476
372,3351.5499999999997,0.287991233610433
373,3359.27,0.2929173144322844
374,3367.02,0.2871801936252052
375,3374.78,0.2579729722751491
376,3382.56,0.2716088498391392
377,3390.36,0.29668622631717556
378,3398.1699999999996,0.2942310022522351
379,3406.0,0.2891279771013408
380,3413.86,0.2893872503215159
381,3421.73,0.30189772299871415
382,3429.61,0.29734479513293555
383,3437.52,0.3003613656382263
384,3445.44,0.2606720356005401
385,3453.39,0.3064921039339234
386,3461.3500000000004,0.2791497717243297
387,3469.33,0.28975433842878234
388,3477.3199999999997,0.27543290459025804
389,3485.34,0.2877094691228031
390,3493.3799999999997,0.2811375325693945
391,3501.43,0.2903012954730089
392,3509.5,0.2943082572906696
393,3517.5899999999997,0.27783081802237664
394,3525.7,0.28492277766812985
395,3533.83,0.3052535362279293
396,3541.97,0.3144871942447519
397,3550.14,0.3151720506326438
398,3558.3199999999997,0.3044578064775589
399,3566.5200000000004,0.3122215612365202
400,3574.75,0.2731894143665509
401,3582.99,0.2706652669536047
402,3591.2500000000005,0.26085611845470474
403,3599.53,0.3071016688698511
404,3607.8199999999997,0.2872516187420205
405,3616.14,0.2932314669852593
406,3624.48,0.29865021414254433
407,3632.8300000000004,0.32814596075685254
408,3641.2099999999996,0.3221366057422301
409,3649.6,0.30061075018463074
410,3651.3,0.29624855787856175
411,3653.98,0.24301771236075884
412,3656.66,0.230546466842956
413,3659.33,0.35344312186812993
414,3662.0099999999998,0.3169494763503271
415,3664.69,0.2280765308325242
416,3667.36,0.3586009858576982
417,3670.04,0.2113119403398953
418,3672.72,0.2090476948220924
419,3675.39,0.3331241498472664
420,3678.07,0.2725535043294635
421,3680.75,0.30084165881166064
422,3683.42,0.28414641383683464
423,3686.1,0.24666506831903173
424,3688.77,0.24818862334420572
425,3691.45,0.21454877782640283
426,3694.13,0.22903563230859994
427,3696.8,0.292610787333774
428,3699.48,0.32431494181597104
429,3702.16,0.27329289629816816
430,3704.83,0.31679715132334213
431,3707.5099999999998,0.2502724058055393
432,3710.19,0.2215165602877364
433,3712.86,0.22622281531291039
434,3715.54,0.31827756979510746
435,3718.22,0.3385399242773046
436,3720.89,0.30985427930247855
437,3723.5699999999997,0.7414019337846758
438,3726.25,0.9319723882668729
439,3728.92,1.0608397432920469
440,3731.6,0.8556129977742439
441,3734.2799999999997,0.489695852256441
442,3736.95,0.33784030728161507
443,3739.63,0.2691616617638121
444,3742.31,0.35663391624600926
445,3744.98,0.30149787127118327
446,3747.66,0.21975872575338037
447,3750.3399999999997,0.26894108023557745
448,3753.0099999999998,0.34007553526075146
449,3755.69,0.3472635897429486
450,3758.37,0.3632181442251457
451,3761.04,0.2913720992503197
452,3763.72,0.3290853537325168
453,3766.3999999999996,0.18799760821471392
454,3769.0699999999997,0.2688037632398879
455,3771.75,0.3104131177220851
456,3774.42,0.34490407274725904
457,3777.1,0.36936442722945617
458,3779.7799999999997,0.38865268171165324
459,3782.45,0.39625423673682725
460,3785.13,0.39736469121902435
461,3787.81,0.41936914570122147
462,3790.48,0.42201830072639546
463,3793.16,0.4100954552085926
464,3795.8399999999997,0.3506909096907897
465,3798.5099999999998,0.3031139647159637
466,3801.19,0.34804341919816084
467,3801.8939600000003,0.3477116792255067
468,3803.87,0.3467804960364244
469,3806.54,0.32255358126882977
470,3809.22,0.391203366071394
471,3811.8999999999996,0.4083514508739582
472,3814.5699999999997,0.3767300361063635
473,3817.25,0.41624032090892776
474,3819.9300000000003,0.35704160571149196
475,3822.6,0.3551768909438973
476,3825.2799999999997,0.35591697574646153
477,3827.96,0.30739186054902573
478,3830.6299999999997,0.2481261457814311
479,3833.31,0.2628461305839953
480,3835.9900000000002,0.22732691538655952
481,3838.66,0.2225121006189649
482,3841.3399999999997,0.2452441854215291
483,3844.0200000000004,0.3533773702240933
484,3846.69,0.34660125545649867
485,3849.37,0.36848244025906285
486,3852.05,0.3884429250616271
487,3854.72,0.40401541029403243
488,3857.4,0.4267607950965966
489,3860.0699999999997,0.45222488032900204
490,3862.75,0.4056886651315662
491,3865.4300000000003,0.4357052499341304
492,3868.1,0.4448298351665358
493,3870.7799999999997,0.4657506199691
494,3873.46,0.4697008047716642
495,3876.1299999999997,0.3953718900040696
496,3878.81,0.37158217480663375
497,3881.4900000000002,0.38351705960919796
498,3884.16,0.3289845448416034
499,3886.8399999999997,0.31382422964416756
500,3889.52,0.37221201444673174
501,3892.1899999999996,0.40937839967913714
502,3894.8700000000003,0.39734588448170133
503,3897.55,0.40734616928426554
504,3900.22,0.38833275451667093
505,3902.9,0.43840673931923513
506,3905.5800000000004,0.4063717241217993
507,3908.25,0.4468993093542047
508,3910.9300000000003,0.4489288941567689
509,3913.61,0.4877940789593331
510,3916.2799999999997,0.41797896419173847
511,3918.96,0.4772310489943027
512,3921.6400000000003,0.5023497337968669
513,3924.31,0.4705228190292723
514,3926.9900000000002,0.43441320383183646
515,3929.67,0.3918420886344006
516,3932.3399999999997,0.35942487386680605
517,3935.02,0.3483803586693702
518,3937.7000000000003,0.38886464347193445
519,3940.3700000000003,0.3903611287043398
520,3943.05,0.438267513506904
521,3945.73,0.4770778983094682
522,3948.4,0.4602048835418736
523,3951.08,0.4510258683444378
524,3953.7499999999995,0.4951754535768431
525,3956.4300000000003,0.4279782383794074
526,3959.11,0.4508882231819716
527,3961.7799999999997,0.3724710084143769
528,3964.46,0.3475151932169412
529,3967.1400000000003,0.31775777801950533
530,3969.81,0.2892228632519107
531,3972.4900000000002,0.31247614805447493
532,3975.17,0.33454953285703914
533,3977.84,0.3750905180894445
534,3980.52,0.4187852028920087
535,3983.2000000000003,0.4246423876945729
536,3985.8700000000003,0.45728147292697824
537,3988.55,0.4925524577295425
538,3991.23,0.48078054253210667
539,3993.9,0.500016227764512
540,3996.58,0.4688865125670763
541,3999.26,0.49969869736964045
542,4001.9300000000003,0.5154497826020458
543,4004.61,0.50883616740461
544,4007.29,0.5048566522071742
545,4009.96,0.4990276374395796
546,4012.64,0.49954792224214384
547,4015.32,0.519082907044708
548,4017.9900000000002,0.5799150922771134
549,4020.67,0.5495536770796776
550,4023.35,0.5452584618822418
551,4026.02,0.5656742471146472
552,4028.7000000000003,0.5021263319172115
553,4031.38,0.4825070167197756
554,4034.05,0.560529101952181
555,4036.73,0.4779527867547451
556,4039.4,0.5253539719871505
557,4042.08,0.5565775567897148
558,4044.76,0.548660641592279
559,4047.4300000000003,0.5527643268246843
560,4050.11,0.5556717116272485
561,4052.79,0.4815051964298127
562,4055.46,0.5069830816622181
563,4058.14,0.5375620664647823
564,4060.82,0.5301389512673466
565,4063.4900000000002,0.5315811364997519
566,4066.17,0.524775421302316
567,4068.85,0.5190123061048802
568,4071.52,0.5302772913372856
569,4074.2,0.49123177613984986
570,4076.88,0.5121250609424141
571,4079.55,0.5223198461748194
572,4082.23,0.5261327309773837
573,4084.91,0.4840553157799478
