,lambda (Angstroms),Total Flux (erg/s/cm^2/Angstrom)
0,100.05999999999999,34.875202739571236
1,101.92,34.77818454323173
2,104.05,34.66708306031014
3,104.712855,34.63250833101888
4,105.99000000000001,34.282582686569484
5,107.96,33.74282132867932
6,109.96000000000001,33.194840255102875
7,114.09,32.06325933799984
8,118.1,30.96455728597829
9,120.22644299999999,30.38193203793427
10,121.13000000000001,30.174373885293825
11,125.10000000000001,29.262416060371827
12,127.13000000000001,28.79610009498318
13,128.01,28.59395327386009
14,130.99,27.909410627258087
15,131.9,27.70037244470034
16,134.04,27.208788129940235
17,136.85,26.56329659318464
18,138.038426,26.290300530393132
19,140.04000000000002,25.961652907676562
20,142.97,25.48056296333464
21,146.98,24.822143198338946
22,151.09,24.147303607790494
23,154.97,23.510228829224808
24,158.489319,22.932375938754195
25,158.94,22.876431081834482
26,161.9,22.5089943273561
27,166.05,21.99383813045337
28,169.92,21.513439509432672
29,173.08,21.121176066405837
30,177.11,20.62091610002898
31,179.99,20.263410296958174
32,181.970086,20.017614381588604
33,182.07000000000002,20.008152293947386
34,185.89000000000001,19.646389535830068
35,191.09,19.15393765392182
36,194.2,18.859413665336874
37,197.81,18.517538687374806
38,201.95000000000002,18.125471551722008
39,205.23,17.814848312954624
40,208.929613,17.46448666149984
41,210.01,17.38756478895904
42,215.9,16.96820726968765
43,219.91,16.682702255439455
44,222.97,16.46483540339213
45,227.10999999999999,16.170074906703398
46,229.74,15.98283357574478
47,234.01999999999998,15.678127235056236
48,239.88329199999998,15.260686856825407
49,240.01999999999998,15.253186616554677
50,246.18,14.91521249586973
51,251.91000000000003,14.600839328939887
52,257.18,14.311684815038758
53,260.16,14.148198367826657
54,263.78,13.949591380234178
55,269.31,13.646186505315077
56,274.31,13.371860639546453
57,275.42287,13.310802999163823
58,278.77,13.169868226491596
59,283.95,12.951757693792388
60,289.9,12.701219639201405
61,295.96999999999997,12.44563695308573
62,300.78000000000003,12.243104121229319
63,307.78,11.948362163622281
64,316.227766,11.592661156488916
65,317.87,11.541015181893476
66,328.28000000000003,11.213631266476812
67,338.26,10.899769603460832
68,347.72999999999996,10.601946794045674
69,356.65000000000003,10.32142164173139
70,363.078055,10.11926586458284
71,365.8,10.055159543610522
72,375.18,9.834242589357137
73,384.81,9.607430724662136
74,394.68,9.374980014311184
75,404.8,9.136635558018616
76,414.23,8.91453931433691
77,416.86938299999997,8.852375770451411
78,421.93,8.761356128800541
79,429.78000000000003,8.62016696831083
80,440.8,8.421966022039795
81,451.07,8.23724988800472
82,460.52000000000004,8.067282021291629
83,470.16,7.893897468930761
84,478.630092,7.741556568928834
85,480.0,7.722607268554293
86,490.06,7.583445667125282
87,500.32,7.441523714940428
88,506.11,7.36143073709371
89,511.96999999999997,7.280388532037449
90,520.29,7.165299064274291
91,529.96,7.031533232184177
92,539.82,6.895133749511013
93,549.5408739999999,6.7606707922660965
94,549.85,6.757408944653084
95,560.07,6.649573990522544
96,570.49,6.5396256752058886
97,579.76,6.4417998395094
98,590.53,6.32815916681704
99,600.13,6.22685086608346
100,609.88,6.123942594260293
101,619.79,6.019412128328233
102,629.86,5.91315019918728
103,630.957344,5.901570861783326
104,640.1,5.825092350733939
105,650.5,5.738100779231229
106,658.03,5.675111919485229
107,665.65,5.6113779116705516
108,674.91,5.533915769137753
109,684.3000000000001,5.455355351072421
110,695.4200000000001,5.362369610420292
111,705.09,5.281460113507965
112,716.55,5.185630045763055
113,724.43596,5.119665694552031
114,726.52,5.106726039516133
115,734.9300000000001,5.054510273516202
116,745.15,4.9910715568419715
117,755.52,4.92669134408534
118,764.27,4.872350205178635
119,774.9,4.806386421499175
120,785.68,4.739462990937316
121,794.78,4.682972356338341
122,805.83,4.6143732822681605
123,815.1600000000001,4.556449576302839
124,824.6,4.497867374497091
125,831.763771,4.453322277272998
126,834.15,4.442226287063159
127,845.76,4.388440443039465
128,855.5500000000001,4.343013329211475
129,865.4599999999999,4.297051460866187
130,875.48,4.250580843721707
131,885.62,4.203562736559929
132,895.87,4.156020863698958
133,904.16,4.11754750688721
134,914.63,4.069336078727857
135,925.2199999999999,4.026156845151208
136,935.93,3.985014801157258
137,944.59,3.959372315875502
138,954.992586,3.923415857040004
139,955.53,3.9216121716121535
140,964.37,3.8878352870837154
141,975.54,3.795870331888846
142,984.57,3.7902933313060627
143,995.97,3.7411686580454075
144,1005.18,3.720308202411142
145,1014.48,3.674970049751133
146,1023.87,3.5951270000653834
147,1035.73,3.559658528673158
148,1045.31,3.5591437519330635
149,1054.98,3.5147266681672265
150,1064.74,3.4528610273756484
151,1074.6,3.421861876555468
152,1084.54,3.3596174817124056
153,1094.57,3.335967469843601
154,1096.4782,3.327672887642551
155,1104.7,3.2987016830867835
156,1114.9199999999998,3.2605960053946097
157,1125.24,3.216052888057697
158,1135.65,3.1979546330405215
159,1146.1599999999999,3.149267768378609
160,1154.1,3.12745170858645
161,1164.78,3.092237970528483
162,1175.56,3.022121082825778
163,1183.71,3.01442781177967
164,1194.66,2.937402930680912
165,1205.72,2.8789438779729424
166,1214.07,2.83089624763736
167,1225.31,2.8220462495688627
168,1233.8,2.829000351730648
169,1245.22,2.806324948301623
170,1253.85,2.774396712960775
171,1258.92541,2.745831269051621
172,1265.4499999999998,2.71607490998522
173,1274.22,2.740875784084297
174,1286.01,2.7258423343155544
175,1294.93,2.6745664223615946
176,1303.9,2.638715978389956
177,1315.97,2.6473728493222106
178,1325.09,2.6234047092975343
179,1334.27,2.579674930851643
180,1343.52,2.5892339075810016
181,1355.96,2.5503193415824295
182,1365.35,2.5067724286622863
183,1374.82,2.4960210645138563
184,1384.3500000000001,2.4737096619442105
185,1393.9399999999998,2.4377416209533513
186,1403.6100000000001,2.415689428734204
187,1416.5900000000001,2.379144816944698
188,1426.4099999999999,2.3617862286725138
189,1436.3000000000002,2.329932395575578
190,1442.93,2.325734450031324
191,1445.43977,2.3257198795145357
192,1446.26,2.326371680674515
193,1456.28,2.3029226944800274
194,1466.3799999999999,2.269458694024506
195,1476.54,2.248150582873209
196,1483.36,2.2432134671200745
197,1493.6399999999999,2.231740934577227
198,1503.99,2.2078438895559747
199,1510.93,2.1764299524112896
200,1517.91,2.177013008136088
201,1524.9099999999999,2.1510302602956277
202,1535.4799999999998,2.1121572760565326
203,1546.13,2.118066077556403
204,1553.26,2.0923496065417626
205,1564.03,2.0701447866500824
206,1574.87,2.0620798542799985
207,1585.79,2.05322170764888
208,1596.78,2.040406048539357
209,1604.15,2.019676934741615
210,1615.27,1.999680152457912
211,1626.47,1.9671308559131753
212,1633.9699999999998,1.9642992189412538
213,1645.3000000000002,1.9483713992223364
214,1656.7,1.9087737670250151
215,1659.58691,1.9110430429289418
216,1664.35,1.9174274853721816
217,1672.03,1.8763738648428763
218,1675.8899999999999,1.9018136378580954
219,1683.6200000000001,1.9048866255284684
220,1695.2900000000002,1.8770876193335475
221,1703.12,1.8594769234032793
222,1714.93,1.838478900167459
223,1726.81,1.82208366841119
224,1734.78,1.823842755440023
225,1746.81,1.8055628482827908
226,1754.8700000000001,1.8100603100710453
227,1762.97,1.7791358384190437
228,1775.19,1.7743318224205915
229,1783.3899999999999,1.7656236671679482
230,1795.7500000000002,1.7646180341285966
231,1804.0400000000002,1.7500874536353752
232,1816.5400000000002,1.7253165035551257
233,1824.9299999999998,1.7142641394612623
234,1833.35,1.697304800287206
235,1846.06,1.6675000246456082
236,1854.5800000000002,1.6616995018709098
237,1863.14,1.655217745655955
238,1876.05,1.649451202813073
239,1884.71,1.629255462997476
240,1893.41,1.6153615897416223
241,1905.46072,1.6028415738036925
242,1906.54,1.6020939372410894
243,1915.3400000000001,1.593149064834504
244,1924.18,1.583752508007889
245,1933.06,1.5763500667612438
246,1946.46,1.5729803860512166
247,1955.44,1.5570863837544964
248,1969.0,1.5580655653643494
249,1978.0900000000001,1.5519031059125468
250,1982.6499999999999,1.540383182029135
251,1996.39,1.5218896337488528
252,2005.6,1.5159162210369608
253,2014.86,1.5014424278000311
254,2024.16,1.4983053501430719
255,2033.5,1.4862537880660822
256,2042.8899999999999,1.4844146454640559
257,2057.05,1.4588132607734594
258,2066.55,1.4512306610163503
259,2076.0899999999997,1.456534876839212
260,2085.67,1.4499084082420426
261,2095.29,1.4325838552248438
262,2104.97,1.4223069255776004
263,2114.68,1.415034907615334
264,2124.44,1.40860700912803
265,2134.25,1.3834320301156895
266,2144.1,1.3842716666833184
267,2154.0,1.37983492272591
268,2163.94,1.3628514943484715
269,2173.93,1.352719485445996
270,2183.96,1.3429760921234901
271,2187.7616199999998,1.3428484384579844
272,2194.04,1.3445660406307345
273,2204.17,1.3321848447002989
274,2214.35,1.3154240258876797
275,2224.5699999999997,1.3058398087693137
276,2234.83,1.3130646933452002
277,2245.15,1.2965837304624659
278,2255.51,1.283410569273985
279,2265.92,1.2805234852033205
280,2276.38,1.280155778250472
281,2286.89,1.2799874484154397
282,2297.4500000000003,1.2642171956982236
283,2302.7400000000002,1.2613542947631786
284,2313.37,1.2483099700109057
285,2324.05,1.2130221223764481
286,2334.7799999999997,1.2253895518598077
287,2345.55,1.2113519830374193
288,2356.3799999999997,1.2208425667564113
289,2367.2599999999998,1.1989250275932188
290,2372.71,1.2021885334351858
291,2383.66,1.1812836222369363
292,2394.67,1.1862963635800658
293,2405.7200000000003,1.1742716066174488
294,2416.83,1.1717703021962111
295,2422.4,1.179908913120937
296,2433.58,1.167842636664642
297,2444.81,1.170890037326163
298,2456.1,1.161426590529064
299,2467.43,1.1536000454262174
300,2473.12,1.1444696614337024
301,2484.54,1.140164295142925
302,2496.0,1.1233088305464007
303,2507.5199999999995,1.1379549184912563
304,2511.88643,1.1190545428107967
305,2513.3,1.1131673167685183
306,2519.1000000000004,1.1139704411498776
307,2524.9100000000003,1.1059624786767221
308,2536.56,1.104048793166866
309,2542.41,1.100603683275651
310,2554.14,1.109230202929676
311,2565.9300000000003,1.0989215014566114
312,2577.78,1.1039629788564573
313,2583.72,1.0995566872746083
314,2595.65,1.0907306698383352
315,2607.63,1.0803042181294875
316,2613.64,1.0751219185660341
317,2625.7000000000003,1.0795846720210671
318,2637.82,1.082809704349011
319,2643.9,1.0988184968039534
320,2656.1099999999997,1.1013141474412633
321,2662.23,1.0762560924781457
322,2674.5200000000004,1.079618548279336
323,2686.8599999999997,1.0769373698079525
324,2693.05,1.0622719068632305
325,2705.49,1.0651092598466978
326,2717.9700000000003,1.0468441654121052
327,2724.24,1.0417434076312646
328,2736.81,1.046633831506038
329,2743.12,1.0180404263071374
330,2755.7799999999997,1.018167968491277
331,2762.1400000000003,1.0240540290198017
332,2774.89,1.0265389895133072
333,2787.69,1.007544415734238
334,2794.12,0.9667380682811587
335,2807.02,0.9721552259569406
336,2813.4900000000002,1.0085557310858015
337,2826.48,1.0157814070709494
338,2832.9900000000002,1.006410964781751
339,2846.07,0.9918895590762645
340,2852.63,0.9784326825144916
341,2865.8,0.9959992951183712
342,2872.4,0.9985896711385389
343,2884.0315,0.9915411496051613
344,2885.66,0.9907832993266562
345,2892.31,0.9917876542937132
346,2912.36,1.0094981125026596
347,2932.5499999999997,0.9926157413424916
348,2952.88,0.9830527408132088
349,2973.3399999999997,0.9811034915840342
350,2987.07,0.9779836327415818
351,3007.77,0.9749661474510678
352,3028.6200000000003,0.9702356521222166
353,3049.62,0.9660711467550284
354,3070.76,0.9630676120187255
355,3092.04,0.9576975479133081
356,3113.47,0.9571221737695537
357,3127.84,0.9478870520968634
358,3149.5299999999997,0.942419380553325
359,3171.3599999999997,0.9405957796406716
360,3193.34,0.9200353686896812
361,3208.08,0.9256580622557595
362,3230.3199999999997,0.905708353904985
363,3252.7099999999996,0.9232047355158736
364,3267.7200000000003,0.9323858510129449
365,3290.3700000000003,0.924152235224049
366,3311.31121,0.914099346774087
367,3313.18,0.9133865069131416
368,3320.8199999999997,0.9078666429598252
369,3328.4700000000003,0.9135803844201826
370,3336.15,0.9160489421215607
371,3343.84,0.9005020052366128
372,3351.5499999999997,0.9041568791790122
373,3359.27,0.9072347585350853
374,3367.02,0.8996422541321791
375,3374.78,0.8685772551429469
376,3382.56,0.880350566981062
377,3390.36,0.9035605896465242
378,3398.1699999999996,0.8992356177256604
379,3406.0,0.8922580566321437
380,3413.86,0.890635611779648
381,3421.73,0.9012619723408261
382,3429.61,0.8948225383156778
383,3437.52,0.8959454205315505
384,3445.44,0.8543600081610969
385,3453.39,0.8982768120316644
386,3461.3500000000004,0.8690288213159054
387,3469.33,0.8777229414274939
388,3477.3199999999997,0.8614886669527559
389,3485.34,0.871845208719039
390,3493.3799999999997,0.8633484613126696
391,3501.43,0.8705850193199736
392,3509.5,0.872659988154625
393,3517.5899999999997,0.8542457678166239
394,3525.7,0.8593961583059699
395,3533.83,0.8777805596226633
396,3541.97,0.8850654663530306
397,3550.14,0.8837943893244187
398,3558.3199999999997,0.8711218177094804
399,3566.5200000000004,0.8769224569218894
400,3574.75,0.8359200123753198
401,3582.99,0.8314231732424237
402,3591.2500000000005,0.8196365449368747
403,3599.53,0.8638998274586732
404,3607.8199999999997,0.8420651153941454
405,3616.14,0.8460531195706384
406,3624.48,0.849475234574479
407,3632.8300000000004,0.8769719549919932
408,3641.2099999999996,0.8689563916505286
409,3649.6,0.8454219337227373
410,3651.3,0.8406527540472613
411,3653.98,0.7867803049118047
412,3656.66,0.7736674557763482
413,3659.33,0.8959249012272179
414,3662.0099999999998,0.8587896520917615
415,3664.69,0.7692751029563049
416,3667.36,0.8991603484071747
417,3670.04,0.7512296992717183
418,3672.72,0.7483238501362617
419,3675.39,0.8717610955871316
420,3678.07,0.810548846451675
421,3680.75,0.8381953973162184
422,3683.42,0.8208609427670883
423,3686.1,0.7827379936316318
424,3688.77,0.7836223390825015
425,3691.45,0.7493408899470451
426,3694.13,0.7631861408115885
427,3696.8,0.8261220862624583
428,3699.48,0.8571846371270018
429,3702.16,0.8055209879915453
430,3704.83,0.848386033442415
431,3707.5099999999998,0.7812196843069585
432,3710.19,0.751822235171502
433,3712.86,0.7558892806223718
434,3715.54,0.8473024314869153
435,3718.22,0.8669231823514588
436,3720.89,0.8375983278023286
437,3723.5699999999997,1.2685043786668722
438,3726.25,1.4584332295314155
439,3728.92,1.5866613749822855
440,3731.6,1.3807930258468288
441,3734.2799999999997,1.0142342767113723
442,3736.95,0.8617395221622421
443,3739.63,0.7924192730267856
444,3742.31,0.8792499238913292
445,3744.98,0.8234746693421988
446,3747.66,0.7410939202067424
447,3750.3399999999997,0.7896346710712858
448,3753.0099999999998,0.8601299165221558
449,3755.69,0.8666763673866993
450,3758.37,0.8819893182512426
451,3761.04,0.8095040637021125
452,3763.72,0.8465757145666559
453,3766.3999999999996,0.7048463654311996
454,3769.0699999999997,0.7850133108820694
455,3771.75,0.8259810617466128
456,3774.42,0.8598328071974825
457,3777.1,0.883651558062026
458,3779.7799999999997,0.9022982089265695
459,3782.45,0.9092605543774392
460,3785.13,0.9097294052419828
461,3787.81,0.9310922561065262
462,3790.48,0.933102201557396
463,3793.16,0.9205377524219396
464,3795.8399999999997,0.8604916032864831
465,3798.5099999999998,0.8122754487373529
466,3801.19,0.8565632996018964
467,3801.8939600000003,0.8560630285536139
468,3803.87,0.8547959867146306
469,3806.54,0.8301152640305791
470,3809.22,0.8983095412615687
471,3811.8999999999996,0.9150021184925581
472,3814.5699999999997,0.8829268958085065
473,3817.25,0.9219816730394961
474,3819.9300000000003,0.8623274502704854
475,3822.6,0.8600089275864338
476,3825.2799999999997,0.8602935048174234
477,3827.96,0.8113128820484127
478,3830.6299999999997,0.7515933593643611
479,3833.31,0.7658578365953506
480,3835.9900000000002,0.7298831138263402
481,3838.66,0.7246144911422886
482,3841.3399999999997,0.746891068373278
483,3844.0200000000004,0.8545687456042674
484,3846.69,0.8473388229202159
485,3849.37,0.8687645001512054
486,3852.05,0.8882694773821949
487,3854.72,0.9033881546981433
488,3857.4,0.9256780319291327
489,3860.0699999999997,0.9506883092450813
490,3862.75,0.9036965864760707
491,3865.4300000000003,0.93325766370706
492,3868.1,0.9419284410230084
493,3870.7799999999997,0.962393718253998
494,3873.46,0.9658883954849873
495,3876.1299999999997,0.8911056728009359
496,3878.81,0.8668604500319252
497,3881.4900000000002,0.8783398272629147
498,3884.16,0.8233535045788631
499,3886.8399999999997,0.8077376818098526
500,3889.52,0.865669959040842
501,3892.1899999999996,0.9023825363567906
502,3894.8700000000003,0.8898945135877798
503,3897.55,0.8994392908187694
504,3900.22,0.8799720681347178
505,3902.9,0.9295905453657073
506,3905.5800000000004,0.8971000225966966
507,3908.25,0.9371737999126453
508,3910.9300000000003,0.9387478771436346
509,3913.61,0.977157554374624
510,3916.2799999999997,0.9068886316905724
511,3918.96,0.965685208921562
512,3921.6400000000003,0.9903483861525514
513,3924.31,0.9580676634684999
514,3926.9900000000002,0.9215025406994892
515,3929.67,0.8784759179304787
516,3932.3399999999997,0.8456048952464272
517,3935.02,0.8341048724774167
518,3937.7000000000003,0.874133649708406
519,3940.3700000000003,0.8751763270243544
520,3943.05,0.9226272042553441
521,3945.73,0.9609820814863335
522,3948.4,0.943655258802282
523,3951.08,0.9340207360332713
524,3953.7499999999995,0.9777165133492198
525,3956.4300000000003,0.9100637905802091
526,3959.11,0.9325182678111986
527,3961.7799999999997,0.8536472451271472
528,3964.46,0.8282359223581366
529,3967.1400000000003,0.7980229995891259
530,3969.81,0.7690342769050744
531,3972.4900000000002,0.7918320541360638
532,3975.17,0.8134499313670533
533,3977.84,0.8535371086830017
534,3980.52,0.8967762859139913
535,3983.2000000000003,0.9021779631449807
536,3985.8700000000003,0.9343632404609291
537,3988.55,0.9691787176919185
538,3991.23,0.956951294922908
539,3993.9,0.9757331722388565
540,3996.58,0.9441479494698459
541,3999.26,0.9745046267008353
542,4001.9300000000003,0.9898019040167838
543,4004.61,0.9827327812477733
544,4007.29,0.9782977584787628
545,4009.96,0.9720149357947112
546,4012.64,0.9720797130257007
547,4015.32,0.9911591902566901
548,4017.9900000000002,1.0515375675726384
549,4020.67,1.0207206448036281
550,4023.35,1.0159699220346174
551,4026.02,1.0359318993505657
552,4028.7000000000003,0.9719284765815553
553,4031.38,0.9518536538125447
554,4034.05,1.0294219311284931
555,4036.73,0.9463901083594827
556,4039.4,0.9933374856754311
557,4042.08,1.0241055629064206
558,4044.76,1.0157331401374101
559,4047.4300000000003,1.0193830174533585
560,4050.11,1.0218348946843478
561,4052.79,0.9472128719153373
562,4055.46,0.9722369492312858
563,4058.14,1.0023604264622752
564,4060.82,0.9944818036932648
565,4063.4900000000002,0.995470181009213
566,4066.17,0.9882089582402026
567,4068.85,0.9819903354711921
568,4071.52,0.9928015127871405
569,4074.2,0.95330049001813
570,4076.88,0.9737382672491193
571,4079.55,0.9834792445650677
572,4082.23,0.9868366217960574
573,4084.91,0.9443036990270468
574,4087.58,0.9555262763429953
575,4090.26,0.9141869535739846
576,4092.94,0.943720430804974
577,4095.61,0.9395913081209225
578,4098.29,0.878002585351912
579,4100.97,0.8484205625829014
580,4103.64,0.9136276398988499
581,4106.32,0.8928808171298392
582,4109.0,0.9219890943608288
583,4111.67,0.9395772716767772
584,4114.35,0.9590546489077667
585,4117.03,0.9477876261387561
586,4119.7,0.9537969034547045
587,4122.38,0.991781380685694
588,4125.05,0.9732885580016425
589,4127.73,0.966823135232632
590,4130.41,0.9937636124636213
591,4133.08,0.9735558897795697
592,4135.76,1.0034048670105593
593,4138.44,0.9715865442415488
594,4141.11,0.9423515215574971
595,4143.79,0.9784289987884865
596,4146.47,0.970454476019476
597,4149.14,1.0104598533354243
598,4151.82,0.992456630566414
599,4154.5,0.9689932077974033
600,4157.17,0.9865267851133518
