,lambda (Angstroms),Total Flux (erg/s/cm^2/Angstrom)
0,100.05999999999999,0.019008252757102863
1,101.92,0.02285017254147942
2,104.05,0.027249790342384374
3,104.712855,0.028618949370104507
4,105.99000000000001,0.026417850755374523
5,107.96,0.023022649640150973
6,109.96000000000001,0.01957574537836646
7,114.09,0.012457887910086203
8,118.1,0.005546845364424604
9,120.22644299999999,0.0018820336203793267
10,121.13000000000001,0.0018099828073031455
11,125.10000000000001,0.0014933982881258439
12,127.13000000000001,0.001331518042486342
13,128.01,0.0012613446661141458
14,130.99,0.0010237097518755657
15,131.9,0.000951151568576134
16,134.04,0.0007805029198101087
17,136.85,0.0005564436281825224
18,138.038426,0.0004616787628586651
19,140.04000000000002,0.0004560555155214944
20,142.97,0.0004480289267356329
21,146.98,0.00043730495154849843
22,151.09,0.0004259335039297643
23,154.97,0.0004152644543437089
24,158.489319,0.0004056278079907894
25,158.94,0.00040371278295600805
26,161.9,0.0003911630264334037
27,166.05,0.000373631527663536
28,169.92,0.0003573322210106716
29,173.08,0.00034405369454735055
30,177.11,0.00032717685454191286
31,179.99,0.00031519459419559505
32,181.970086,0.00030695619451856206
33,182.07000000000002,0.000307111998598085
34,185.89000000000001,0.00031317467756715917
35,191.09,0.0003214676752580453
36,194.2,0.0003265452359789408
37,197.81,0.00033257331438165224
38,201.95000000000002,0.0003394999905470886
39,205.23,0.00034498693305980144
40,208.929613,0.00035104029833072655
41,210.01,0.00036044013933403033
42,215.9,0.00041299737647449103
43,219.91,0.0004486294439334463
44,222.97,0.0004756371786278112
45,227.10999999999999,0.0005127154890966579
46,229.74,0.0005461725130659978
47,234.01999999999998,0.0006064069444685734
48,239.88329199999998,0.0006743048277042414
49,240.01999999999998,0.0006737794593082757
50,246.18,0.0006333846600298293
51,251.91000000000003,0.0006044140491588066
52,257.18,0.0005587857677468892
53,260.16,0.0005532643899466016
54,263.78,0.0005372001263771254
55,269.31,0.0005046473091839744
56,274.31,0.00047563696723718356
57,275.42287,0.0004693448843421132
58,278.77,0.0004986323140523141
59,283.95,0.0005433046197353338
60,289.9,0.0005889314532901535
61,295.96999999999997,0.0006437152950847342
62,300.78000000000003,0.0006835738003618243
63,307.78,0.0007459472810145528
64,316.227766,0.0008217979784122187
65,317.87,0.0008153824341270609
66,328.28000000000003,0.0007708167827858789
67,338.26,0.0007272815917786749
68,347.72999999999996,0.0006858018862838631
69,356.65000000000003,0.0006473930788906502
70,363.078055,0.000619891046163107
71,365.8,0.00063464718242013
72,375.18,0.0006831067336614616
73,384.81,0.0007259259340296942
74,394.68,0.0007835987655597518
75,404.8,0.0008367957462167107
76,414.23,0.0008838198872834224
77,416.86938299999997,0.0008964334414338715
78,421.93,0.000912011086494453
79,429.78000000000003,0.0009361594626933213
80,440.8,0.0009735143002361909
81,451.07,0.0010039639661677036
82,460.52000000000004,0.0010317365884707998
83,470.16,0.0010607253062487729
84,478.630092,0.0010879422111597535
85,480.0,0.0010842674133119826
86,490.06,0.0010509821205236223
87,500.32,0.001023316571616209
88,506.11,0.001005184691969628
89,511.96999999999997,0.0010059152776813783
90,520.29,0.0009808203031287782
91,529.96,0.0009496618747725707
92,539.82,0.0009125248381032631
93,549.5408739999999,0.0008878211709561815
94,549.85,0.0008877330172785429
95,560.07,0.0008896534116135022
96,570.49,0.000888523275896308
97,579.76,0.0008755864879789962
98,590.53,0.0008751426246705335
99,600.13,0.0008617533821671683
100,609.88,0.0008311260421246881
101,619.79,0.0008665531180404853
102,629.86,0.0008587655099145596
103,630.957344,0.0008581117888015583
104,640.1,0.0008760346458711961
105,650.5,0.000901071077129775
106,658.03,0.0009155822679352652
107,665.65,0.0009379737279535702
108,674.91,0.0009540801825164971
109,684.3000000000001,0.0009596187037201564
110,695.4200000000001,0.0010147126886812525
111,705.09,0.001013927191880335
112,716.55,0.0010694678049787305
113,724.43596,0.001086798276933073
114,726.52,0.001090060061716516
115,734.9300000000001,0.001104544182678573
116,745.15,0.001137070818259099
117,755.52,0.001159675392620161
118,764.27,0.0011603543881514335
119,774.9,0.0012141163430654247
120,785.68,0.001239805436759952
121,794.78,0.0012646614561124753
122,805.83,0.0012915402796119676
123,815.1600000000001,0.001311738431761313
124,824.6,0.0013565950256830513
125,831.763771,0.0013020508501974891
126,834.15,0.0012775466823095744
127,845.76,0.0013591030410042145
128,855.5500000000001,0.0013550598196967662
129,865.4599999999999,0.0013730310772905549
130,875.48,0.0013926251155438102
131,885.62,0.0014214981326983022
132,895.87,0.001436977030512261
133,904.16,0.0014270783729393556
134,914.63,0.001793745132072248
135,925.2199999999999,0.007749375470106377
136,935.93,0.01629896438704174
137,944.59,0.030836641664414317
138,954.992586,0.04314549420481797
139,955.53,0.04378221251768371
140,964.37,0.05014787929592828
141,975.54,0.00890603474536175
142,984.57,0.044334377861600265
143,995.97,0.046977248141236924
144,1005.18,0.06793951847241707
145,1014.48,0.06483278291106805
146,1023.87,0.02762984145718982
147,1035.73,0.04601777939723287
148,1045.31,0.08900590328134861
149,1054.98,0.08850041127293513
150,1064.74,0.07095505337199248
151,1074.6,0.08473028670157297
152,1084.54,0.06762355701557196
153,1094.57,0.08951990143704176
154,1096.4782,0.08989047946262252
155,1104.7,0.0914821392816017
156,1114.9199999999998,0.0913672268610118
157,1125.24,0.08518660439716759
158,1135.65,0.10578540089439452
159,1146.1599999999999,0.09616731734836713
160,1154.1,0.10386658791397536
161,1164.78,0.10835357129441567
162,1175.56,0.07830913463160165
163,1183.71,0.10091182610637585
164,1194.66,0.06459133637002952
165,1205.72,0.04724557758610346
166,1214.07,0.030237368974369048
167,1225.31,0.06316977811258524
168,1233.8,0.10168372344029479
169,1245.22,0.12145984050065325
170,1253.85,0.12161186976780679
171,1258.92541,0.11191322722529211
172,1265.4499999999998,0.09945162758505412
173,1274.22,0.14749917927880987
174,1286.01,0.16371753439504486
175,1294.93,0.1360859056958774
176,1303.9,0.12401228019906889
177,1315.97,0.16466315324851385
178,1325.09,0.16486943735878212
179,1334.27,0.1454731253118811
180,1343.52,0.17955111774828256
181,1355.96,0.1736113144951836
182,1365.35,0.15495451589819006
183,1374.82,0.16930532242497082
184,1384.3500000000001,0.1722551327945823
185,1393.9399999999998,0.16170734700702447
186,1403.6100000000001,0.16528746634324093
187,1416.5900000000001,0.16314899767561836
188,1426.4099999999999,0.17182032661891158
189,1436.3000000000002,0.16618196004550734
190,1442.93,0.17955818467830106
191,1445.43977,0.1861962725454116
192,1446.26,0.1883656895127462
193,1456.28,0.18345602812922462
194,1466.3799999999999,0.16867937104603423
195,1476.54,0.16616961718809217
196,1483.36,0.17385108379132402
197,1493.6399999999999,0.1813989363838787
198,1503.99,0.17665179273922318
199,1510.93,0.15807846579295176
200,1517.91,0.1715761409968459
201,1524.9099999999999,0.15854501727582282
202,1535.4799999999998,0.139228985457078
203,1546.13,0.16484275793866437
204,1553.26,0.15231844120567944
205,1564.03,0.15004062013776254
206,1574.87,0.1620322028326354
207,1585.79,0.17337858982783944
208,1596.78,0.18089698058583323
209,1604.15,0.1738040767538418
210,1615.27,0.17438187449987375
211,1626.47,0.16255517654623683
212,1633.9699999999998,0.1736002797022836
213,1645.3000000000002,0.17863558873668484
214,1656.7,0.16013060153387584
215,1659.58691,0.16774133075018002
216,1664.35,0.18029982649878334
217,1672.03,0.14920124133206625
218,1675.8899999999999,0.17964445659983608
219,1683.6200000000001,0.19273729106093984
220,1695.2900000000002,0.18006527219432678
221,1703.12,0.17260404591107226
222,1714.93,0.16691448200235756
223,1726.81,0.16591844557259208
224,1734.78,0.17800847424723595
225,1746.81,0.17532219670093302
226,1754.8700000000001,0.19026726070565442
227,1762.97,0.16984224041263252
228,1775.19,0.1808781374520488
229,1783.3899999999999,0.1827990564146686
230,1795.7500000000002,0.1978148084119833
231,1804.0400000000002,0.1940299627046806
232,1816.5400000000002,0.1854618696598937
233,1824.9299999999998,0.18528486320823273
234,1833.35,0.17923976853326423
235,1846.06,0.1659100579253249
236,1854.5800000000002,0.17115340250599817
237,1863.14,0.17576736278892807
238,1876.05,0.18673513069227213
239,1884.71,0.17776473023084377
240,1893.41,0.1751480454716721
241,1905.46072,0.1782485170004938
242,1906.54,0.1785252299331087
243,1915.3400000000001,0.17793247704872406
244,1924.18,0.17692600392395585
245,1933.06,0.17795161055880407
246,1946.46,0.18729993003030923
247,1955.44,0.17992888606419855
248,1969.0,0.19377792457416945
249,1978.0900000000001,0.19624282494700396
250,1982.6499999999999,0.18905081754327735
251,1996.39,0.18359796497152225
252,2005.6,0.186365804623206
253,2014.86,0.18068071897441035
254,2024.16,0.18637031308523114
255,2033.5,0.18318338695566833
256,2042.8899999999999,0.19025633552562607
257,2057.05,0.1780942704298435
258,2066.55,0.1795281633387464
259,2076.0899999999997,0.19388683600726578
260,2085.67,0.19635278843540158
261,2095.29,0.18815862062315383
262,2104.97,0.18706902245033072
263,2114.68,0.1890128090972199
264,2124.44,0.19184817044362965
265,2134.25,0.17598390648955994
266,2144.1,0.18617222229510666
267,2154.0,0.19113161280017393
268,2163.94,0.18358228306485763
269,2173.93,0.18293182802906188
270,2183.96,0.18270795275288254
271,2187.7616199999998,0.18618843370305718
272,2194.04,0.19194216203164421
273,2204.17,0.18607314885514037
274,2214.35,0.17585665585051954
275,2224.5699999999997,0.17284247898340513
276,2234.83,0.18666311825379708
277,2245.15,0.17681648173044864
278,2255.51,0.17030336134460664
279,2265.92,0.1741084611306476
280,2276.38,0.18046508108857157
281,2286.89,0.18705322121837856
282,2297.4500000000003,0.17807158152006855
283,2302.7400000000002,0.17860941570529015
284,2313.37,0.17239870424761633
285,2324.05,0.14397661296182548
286,2334.7799999999997,0.16324194184791768
287,2345.55,0.15612798687151627
288,2356.3799999999997,0.17258075610137447
289,2367.2599999999998,0.15765754550311564
290,2372.71,0.16442464423836287
291,2383.66,0.15055906188074028
292,2394.67,0.16264970372937726
293,2405.7200000000003,0.15772856171552066
294,2416.83,0.16236944390792366
295,2422.4,0.17408879105569006
296,2433.58,0.16920970148872927
297,2444.81,0.17947643209365147
298,2456.1,0.17727088690483325
299,2467.43,0.1767279578535215
300,2473.12,0.1712554534138071
301,2484.54,0.1742915606718847
302,2496.0,0.16480328406746872
303,2507.5199999999995,0.1868551316693123
304,2511.88643,0.17076176390023018
305,2513.3,0.16555097253538625
306,2519.1000000000004,0.16912956691760828
307,2524.9100000000003,0.16390185973842036
308,2536.56,0.16756304069581465
309,2542.41,0.1669173272709869
310,2554.14,0.1811569957371015
311,2565.9300000000003,0.17649015483475633
312,2577.78,0.18720220456395137
313,2583.72,0.18563837708643394
314,2595.65,0.1825212143243493
315,2607.63,0.17782754375521484
316,2613.64,0.17552120534782767
317,2625.7000000000003,0.18575502228741353
318,2637.82,0.19477982985853962
319,2643.9,0.21369808052128272
320,2656.1099999999997,0.22203657403971913
321,2662.23,0.1999071184568224
322,2674.5200000000004,0.2091506994839791
323,2686.8599999999997,0.21237457270408602
324,2693.05,0.20067120619131956
325,2705.49,0.20946146379732683
326,2717.9700000000003,0.1971684151576943
327,2724.24,0.19506803615364812
328,2736.81,0.20597357346132592
329,2743.12,0.1803996882116399
330,2755.7799999999997,0.18658541146662802
331,2762.1400000000003,0.19551491840989219
332,2774.89,0.20410112761219065
333,2787.69,0.19123172900743932
334,2794.12,0.15350232502083375
335,2807.02,0.16509251080198278
336,2813.4900000000002,0.2045891005697374
337,2826.48,0.21803087229819676
338,2832.9900000000002,0.21177565582031152
339,2846.07,0.20351341349608126
340,2852.63,0.1931956892111462
341,2865.8,0.21706453283422625
342,2872.4,0.22281320230365134
343,2884.0315,0.22133069444527997
344,2885.66,0.22112338094584635
345,2892.31,0.22437585969603285
346,2912.36,0.24886449562704635
347,2932.5499999999997,0.23880763111069533
348,2952.88,0.23611746614697984
349,2973.3399999999997,0.24108500076785447
350,2987.07,0.2426067568941794
351,3007.77,0.24658719074814348
352,3028.6200000000003,0.24890532412278843
353,3049.62,0.25184015701811424
354,3070.76,0.2559832894660756
355,3092.04,0.2578072214666725
356,3113.47,0.26447655298795025
357,3127.84,0.2600994070691804
358,3149.5299999999997,0.2619643377596384
359,3171.3599999999997,0.26752066800273183
360,3193.34,0.25439089776650625
361,3208.08,0.26499665066541594
362,3230.3199999999997,0.2525654795983705
363,3252.7099999999996,0.2776311080520061
364,3267.7200000000003,0.29188656008814134
365,3290.3700000000003,0.29131008771095707
366,3311.31121,0.28833666275701125
367,3313.18,0.2880712066392964
368,3320.8199999999997,0.2843803399506711
369,3328.4700000000003,0.29192547265119684
370,3336.15,0.2962326035191756
371,3343.84,0.2825266337763054
372,3351.5499999999997,0.28802726281173713
373,3359.27,0.29295329123631997
374,3367.02,0.2872161178283558
375,3374.78,0.2580088438095427
376,3382.56,0.2716446685690316
377,3390.36,0.2967219921068225
378,3398.1699999999996,0.29426671503376445
379,3406.0,0.2891636367390084
380,3413.86,0.2894228566117054
381,3421.73,0.3019332758735534
382,3429.61,0.2973802945245525
383,3437.52,0.30039681134300456
384,3445.44,0.2607074275506076
385,3453.39,0.3065274419256638
386,3461.3500000000004,0.2791850556898709
387,3469.33,0.2897895682323801
388,3477.3199999999997,0.2754680801640403
389,3485.34,0.2877445902631535
390,3493.3799999999997,0.2811725991405688
391,3501.43,0.29033630740713506
392,3509.5,0.29434321445200334
393,3517.5899999999997,0.2778657202751737
394,3525.7,0.28495762487664605
395,3533.83,0.30528832825642044
396,3541.97,0.31452193102534587
397,3550.14,0.31520673196172433
398,3558.3199999999997,0.3044924322872537
399,3566.5200000000004,0.3122561313910852
400,3574.75,0.2732239286623698
401,3582.99,0.2706997253228053
402,3591.2500000000005,0.26089052076154284
403,3599.53,0.30713601497858245
404,3607.8199999999997,0.28728590858477304
405,3616.14,0.2932657003584167
406,3624.48,0.2986843909103624
407,3632.8300000000004,0.3281800808514591
408,3641.2099999999996,0.32217066896000884
409,3649.6,0.3006447564577096
410,3651.3,0.29628255261338193
411,3653.98,0.2430516889058537
412,3656.66,0.23058042519832547
413,3659.33,0.3534770621016462
414,3662.0099999999998,0.316983398394118
415,3664.69,0.2281104346865897
416,3667.36,0.3586348715899104
417,3670.04,0.21134580788238222
418,3672.72,0.20908154417485394
419,3675.39,0.33315798107817474
420,3678.07,0.27258731737064645
421,3680.75,0.3008754536631182
422,3683.42,0.28418019056643895
423,3686.1,0.2466988268589107
424,3688.77,0.24822236376223145
425,3691.45,0.2145825000547032
426,3694.13,0.22906933634717494
427,3696.8,0.2926444732504957
428,3699.48,0.32434860954296746
429,3702.16,0.2733265458354392
430,3704.83,0.3168307827387599
431,3707.5099999999998,0.2503060190312317
432,3710.19,0.22155015532370345
433,3712.86,0.22625639222702418
434,3715.54,0.31831112851949594
435,3718.22,0.3385734648119677
436,3720.89,0.3098878017152884
437,3723.5699999999997,0.7414354380077602
438,3726.25,0.932005874300232
439,3728.92,1.0608732112035528
440,3731.6,0.8556464474960245
441,3734.2799999999997,0.4897292837884962
442,3736.95,0.3378737206918169
443,3739.63,0.26919505698428864
444,3742.31,0.3566672932767604
445,3744.98,0.3015312301800812
446,3747.66,0.21979206647255292
447,3750.3399999999997,0.26897440276502466
448,3753.0099999999998,0.3401088396683454
449,3755.69,0.34729687596081715
450,3758.37,0.36325141225328894
451,3761.04,0.29140534915660965
452,3763.72,0.3291185854490814
453,3766.3999999999996,0.18803082174155317
454,3769.0699999999997,0.2688369586448739
455,3771.75,0.3104462949373457
456,3774.42,0.34493723184066644
457,3777.1,0.3693975681331382
458,3779.7799999999997,0.3886858044256099
459,3782.45,0.3962873413289306
460,3785.13,0.3973977776214024
461,3787.81,0.41940221391387417
462,3790.48,0.4220513508171949
463,3793.16,0.41012848710966665
464,3795.8399999999997,0.35072392340213837
465,3798.5099999999998,0.3031469603054591
466,3801.19,0.34807639659793094
467,3801.8939600000003,0.3477446518473518
468,3803.87,0.34681345804097746
469,3806.54,0.3225865289274335
470,3809.22,0.3912362993303182
471,3811.8999999999996,0.40838436973320297
472,3814.5699999999997,0.376762940619659
473,3817.25,0.4162732110225437
474,3819.9300000000003,0.35707448142542847
475,3822.6,0.3552097523118845
476,3825.2799999999997,0.3559498227147692
477,3827.96,0.3074246931176539
478,3830.6299999999997,0.24815896400410997
479,3833.31,0.26287893440699467
480,3835.9900000000002,0.22735970480987944
481,3838.66,0.2225448756963355
482,3841.3399999999997,0.24527694609922024
483,3844.0200000000004,0.35341011650210497
484,3846.69,0.346633987388561
485,3849.37,0.3685151577914457
486,3852.05,0.38847562819433046
487,3854.72,0.4040480990807865
488,3857.4,0.4267934694836712
489,3860.0699999999997,0.4522575403701273
490,3862.75,0.405721310773012
491,3865.4300000000003,0.43573788117589674
492,3868.1,0.44486245206235275
493,3870.7799999999997,0.4657832224652375
494,3873.46,0.46973339286812227
495,3876.1299999999997,0.3954044637545783
496,3878.81,0.371614734157463
497,3881.4900000000002,0.38354960456034776
498,3884.16,0.3290170754468038
499,3886.8399999999997,0.31385674584968853
500,3889.52,0.3722445162525732
501,3892.1899999999996,0.4094108871390293
502,3894.8700000000003,0.39737835754191403
503,3897.55,0.40737862794479873
504,3900.22,0.3883651988312548
505,3902.9,0.4384391692341395
506,3905.5800000000004,0.4064041396370242
507,3908.25,0.44693171052348024
508,3910.9300000000003,0.448961280926365
509,3913.61,0.48782645132924973
510,3916.2799999999997,0.41801132221570575
511,3918.96,0.4772633926185905
512,3921.6400000000003,0.5023820630214753
513,3924.31,0.4705551339079313
514,3926.9900000000002,0.434445504310816
515,3929.67,0.39187437471370073
516,3932.3399999999997,0.3594571456001568
517,3935.02,0.3484126160030415
518,3937.7000000000003,0.3888968864059263
519,3940.3700000000003,0.3903933572923823
520,3943.05,0.43829972769526704
521,3945.73,0.4771100980981517
522,3948.4,0.4602370689846078
523,3951.08,0.4510580393874925
524,3953.7499999999995,0.49520761027394855
525,3956.4300000000003,0.42801038067683334
526,3959.11,0.450920351079718
527,3961.7799999999997,0.3725031219661741
528,3964.46,0.3475472923690588
529,3967.1400000000003,0.3177898627719435
530,3969.81,0.28925493365839955
531,3972.4900000000002,0.31250820406128427
532,3975.17,0.33458157446416903
533,3977.84,0.37512254535062506
534,3980.52,0.4188172157535098
535,3983.2000000000003,0.4246743861563945
536,3985.8700000000003,0.45731345704285054
537,3988.55,0.4925844274457353
538,3991.23,0.48081249784862
539,3993.9,0.5000481687350761
540,3996.58,0.46891843913796083
541,3999.26,0.4997306095408455
542,4001.9300000000003,0.5154816804273015
543,4004.61,0.5088680508301863
544,4007.29,0.504888521233071
545,4009.96,0.4990594921195271
546,4012.64,0.49957976252241176
547,4015.32,0.5191147329252965
548,4017.9900000000002,0.5799469038117525
549,4020.67,0.5495854742146373
550,4023.35,0.5452902446175221
551,4026.02,0.565706015503978
552,4028.7000000000003,0.5021580859068628
553,4031.38,0.4825387563097475
554,4034.05,0.5605608271962036
555,4036.73,0.4779844975990883
556,4039.4,0.5253856684855444
557,4042.08,0.5566092388884291
558,4044.76,0.5486923092913139
559,4047.4300000000003,0.5527959801777699
560,4050.11,0.5557033505806546
561,4052.79,0.48153682098353934
562,4055.46,0.5070146918699954
563,4058.14,0.5375936622728801
564,4060.82,0.5301705326757649
565,4063.4900000000002,0.5316127035622209
566,4066.17,0.5248069739651056
567,4068.85,0.5190438443679903
568,4071.52,0.5303088152544464
569,4074.2,0.4912632856573311
570,4076.88,0.5121565560602158
571,4079.55,0.5223513269466719
572,4082.23,0.5261641973495567
573,4084.91,0.4840867677524413
