,lambda (Angstroms),Total Flux (erg/s/cm^2/Angstrom)
0,102.05000000000001,0.12806140751284126
1,103.94,0.14968620859423193
2,104.712855,0.15852897877399832
3,106.12,0.14509535541461638
4,108.08999999999999,0.12628831135165042
5,110.10000000000001,0.10709939837370004
6,113.96999999999998,0.0701535808489902
7,117.97999999999999,0.031871222121835796
8,120.22644299999999,0.010425053347246072
9,121.0,0.01008334077169428
10,124.97,0.00832962524078888
11,127.0,0.00743288908770628
12,127.88000000000001,0.007044156174054712
13,130.86,0.005727765171007376
14,132.07,0.005193257414736514
15,133.9,0.00438486965112024
16,137.02,0.0030066347754467123
17,138.038426,0.002556753290993979
18,139.89,0.0025278663503705556
19,143.15,0.002477006149034351
20,147.16,0.002414444981138668
21,150.94,0.0023554721096568144
22,155.17,0.0022894786582419273
23,158.489319,0.0022376930040769625
24,159.14999999999998,0.002221855824874752
25,162.1,0.00215114139742779
26,165.88,0.0020605310463486337
27,170.14000000000001,0.0019584146189638926
28,172.9,0.0018922546801352857
29,176.93,0.0017956515810894614
30,179.79999999999998,0.001726854833195163
31,181.88,0.0016769951692402383
32,181.970086,0.0016748357184312229
33,186.12,0.0017068475797834487
34,190.9,0.0017437198375201833
35,194.0,0.001767632808193288
36,198.06,0.0017989510862043388
37,202.21,0.0018309636122073392
38,205.01999999999998,0.0018526395640517672
39,208.929613,0.0018827977790587353
40,209.79000000000002,0.0019231023686304542
41,216.17000000000002,0.002221971695729278
42,220.19,0.002410287480472511
43,223.25,0.0025536323322790885
44,226.88,0.0027236786794339585
45,230.04,0.002871708029574046
46,233.76999999999998,0.003046438908162145
47,239.76999999999998,0.0033275073403627215
48,239.88329199999998,0.003332814473871202
49,245.92,0.0030998651481900777
50,252.23,0.002856369878077916
51,256.92,0.0026753883738285865
52,259.89000000000004,0.002560779771915641
53,264.12,0.0023975492698053596
54,269.03,0.0022080784126056853
55,274.03000000000003,0.0020151346025242332
56,275.42287,0.001961385485182847
57,279.12,0.0021137035201292623
58,284.31,0.0023275263605880094
59,290.27,0.0025730724323872593
60,295.65999999999997,0.0027951353491597864
61,301.16,0.0030217300001292454
62,308.17,0.0033105356409420922
63,316.227766,0.003642508648213846
64,318.27000000000004,0.003580880390270586
65,327.93999999999994,0.003289070491667541
66,337.91,0.002988208037095589
67,348.17,0.002678594999512769
68,357.09999999999997,0.002409118162639945
69,363.078055,0.0022287216758357957
70,366.26,0.0023036648096722203
71,374.8,0.002504805026671715
72,385.3,0.0027521076877166668
73,395.17999999999995,0.0029848129806968296
74,405.32,0.0032236428229838418
75,413.8,0.003423375745298679
76,416.86938299999997,0.003495669802374274
77,422.46999999999997,0.003574818963931059
78,430.32,0.0036857596626610686
79,441.36,0.003841787890230356
80,450.6,0.003972379512193781
81,460.04,0.004105795778302302
82,469.67,0.0042419037535836625
83,478.630092,0.004368548832037021
84,479.51,0.004352249139529081
85,489.55,0.004166260013920046
86,499.79999999999995,0.003976395454237917
87,505.59,0.003869169245665376
88,511.44,0.003761079770543379
89,519.75,0.003607203465293671
90,529.41,0.003428346577731195
91,540.5,0.0032229437973566744
92,549.5408739999999,0.003055811755972783
93,550.55,0.0030497682167035644
94,559.49,0.0029962648411945214
95,569.89,0.0029339728824546957
96,580.49,0.0028701960343544886
97,589.9200000000001,0.002814111563562512
98,599.51,0.0027567075298822307
99,610.65,0.0026904849064089947
100,620.58,0.0026317910887160645
101,630.66,0.0025720441387528494
102,630.957344,0.002570275900539634
103,639.43,0.002639854657233713
104,649.8199999999999,0.002726088795590088
105,657.35,0.0027885907291351803
106,664.96,0.0028517600451575115
107,675.76,0.0029407494745847342
108,685.16,0.0030180905281602805
109,694.7,0.003101081781320995
110,704.36,0.003180147222697567
111,715.8000000000001,0.0032792471959427003
112,724.43596,0.0033521436307660307
113,725.76,0.0033586809036607206
114,734.17,0.003400761501695977
115,744.38,0.0034548856938053673
116,754.74,0.003508308871254269
117,765.2299999999999,0.0035628674159974127
118,775.88,0.0036204624251027027
119,784.86,0.0036709123474281016
120,795.78,0.0037288498101445116
121,805.0,0.003779733739013128
122,814.32,0.003831131108108086
123,825.65,0.0038986342207524925
124,831.763771,0.0039186207301117265
125,835.21,0.0038792017022762854
126,844.8799999999999,0.0038139908050542686
127,854.66,0.0037269486325794653
128,864.5600000000001,0.0036457632598288978
129,874.5699999999999,0.0035655822118255483
130,884.6999999999999,0.0034892610635464325
131,894.94,0.003408204740014532
132,905.3,0.003316012416206869
133,915.79,0.0033651838671004608
134,924.26,0.005838268572636087
135,934.9599999999999,0.009697190798047092
136,945.79,0.016762275298159348
137,954.54,0.023522253403051526
138,954.992586,0.02368643556263117
139,965.59,0.02762076186792916
140,974.53,0.006772594833559122
141,985.8100000000001,0.02640580870965599
142,994.9399999999999,0.02863410888596489
143,1004.14,0.04158049750831339
144,1015.77,0.0412043236146083
145,1025.17,0.01921387351135569
146,1034.65,0.03175843591786263
147,1044.23,0.06091271896156901
148,1053.8899999999999,0.062122784515034946
149,1066.09,0.05171749225336666
150,1075.96,0.06319668314495142
151,1085.9099999999999,0.05248462654629572
152,1095.96,0.07074040058483948
153,1096.4782,0.07072345946227049
154,1106.1,0.07037624346880539
155,1113.77,0.0701846072947348
156,1124.0700000000002,0.06545398329304941
157,1134.47,0.08457182051464862
158,1144.97,0.07937465895953245
159,1155.5700000000002,0.08677744862770088
160,1166.26,0.09236453939682547
161,1174.34,0.06727629823822179
162,1185.21,0.09480385120925866
163,1196.18,0.06746525540358014
164,1204.47,0.05045052681387414
165,1215.6100000000001,0.03330640308777945
166,1224.04,0.0708938562106719
167,1235.3600000000001,0.11054922468648952
168,1243.93,0.1254904795219804
169,1255.4399999999998,0.12345147032203878
170,1258.92541,0.1176265515426604
171,1264.1399999999999,0.10893963592313338
172,1275.84,0.1440989868095777
173,1284.68,0.15500852303489118
174,1293.58,0.1268647805468018
175,1305.55,0.1283159272229333
176,1314.6,0.1637344379513368
177,1323.7199999999998,0.16077507351410367
178,1335.96,0.14644281597992231
179,1345.22,0.17735580121141586
180,1354.55,0.17575061127727273
181,1363.9399999999998,0.16152844262972677
182,1376.56,0.17336581991066072
183,1386.1000000000001,0.1794090044796076
184,1395.71,0.16117111388291785
185,1405.3799999999999,0.17141174457282524
186,1415.12,0.17819640009709597
187,1424.93,0.18651988045573006
188,1434.81,0.18909508564872746
189,1441.4299999999998,0.2025077342699464
190,1445.43977,0.205610467089888
191,1448.09,0.20766104597606935
192,1454.77,0.2057751350153745
193,1464.8600000000001,0.1939138394175585
194,1475.01,0.19704096168536495
195,1485.2299999999998,0.2043805047963977
196,1495.53,0.2119903717282604
197,1505.9,0.2053195595033494
198,1512.8500000000001,0.18569542893795582
199,1516.33,0.20068816514406088
200,1523.33,0.19750744946668605
201,1533.8899999999999,0.1762088938162463
202,1544.52,0.1979674590090328
203,1555.23,0.18999804802264925
204,1566.01,0.196170757879492
205,1573.24,0.21298581068700342
206,1584.14,0.22654685627509116
207,1595.1299999999999,0.23606512866161267
208,1606.18,0.23445391891375666
209,1613.6000000000001,0.23933012829573933
210,1624.7800000000002,0.23021415725673208
211,1636.04,0.24882651003855483
212,1643.5900000000001,0.2569281581293863
213,1654.99,0.2404427525976615
214,1659.58691,0.25138140065011105
215,1666.4599999999998,0.2677492668288925
216,1670.3000000000002,0.24157061686385028
217,1678.01,0.273346982168414
218,1685.76,0.28879073445250847
219,1693.54,0.2752606519712511
220,1705.2800000000002,0.2684435804635439
221,1713.1499999999999,0.25940829368623086
222,1725.02,0.2618189048619988
223,1736.98,0.2830186117417111
224,1744.9999999999998,0.2804549511376386
225,1753.05,0.3031650557682142
226,1765.2,0.28114557580069777
227,1773.35,0.2936493978801004
228,1785.64,0.30254252234094187
229,1793.8899999999999,0.3262874618691715
230,1806.32,0.3278145907583708
231,1814.6599999999999,0.30819182599054473
232,1823.03,0.3182424264573668
233,1835.67,0.3103602119891029
234,1844.1399999999999,0.289138229904752
235,1856.93,0.29450054160972855
236,1865.5,0.3068944769742047
237,1874.11,0.3355516993182116
238,1887.1,0.31404224592084223
239,1895.81,0.3048647857136762
240,1904.56,0.326532212486041
241,1905.46072,0.3257774023375321
242,1913.3500000000001,0.3191268579159952
243,1926.61,0.317635290937247
244,1935.51,0.32945074477504044
245,1944.44,0.34802311452464674
246,1953.4199999999998,0.33090724412727424
247,1966.96,0.3650936923254454
248,1976.04,0.37782694163411557
249,1985.16,0.3608886788252028
250,1994.32,0.3551259038987071
251,2003.52,0.3683559168546284
252,2012.7700000000002,0.36081408966357104
253,2026.73,0.3802919606271212
254,2036.0800000000002,0.3657373531421064
255,2045.48,0.383739905510113
256,2054.92,0.37159844576053663
257,2064.4,0.37758197389337733
258,2073.93,0.40537256187923926
259,2078.71,0.3880800638280767
260,2083.51,0.40346060971812253
261,2093.12,0.3862746734688186
262,2102.79,0.39338746904314026
263,2117.36,0.40060533021355044
264,2127.13,0.4108299454939147
265,2136.95,0.3870361206273003
266,2146.82,0.39963565561370723
267,2156.73,0.41738277848253114
268,2166.68,0.40883658923377214
269,2176.68,0.4088056598380344
270,2186.73,0.405974590295318
271,2187.7616199999998,0.40832336291113536
272,2196.8199999999997,0.4289929420570275
273,2206.96,0.42122000255134967
274,2217.15,0.40623207478380957
275,2227.38,0.3971946364067796
276,2232.52,0.42657402308733344
277,2242.82,0.41231764114369623
278,2253.17,0.40224207093819664
279,2263.57,0.4136700124708348
280,2274.02,0.4283573657416106
281,2284.52,0.44155013075052413
282,2295.06,0.42195738514994774
283,2305.66,0.42604607363513664
284,2316.3,0.4127870515108356
285,2326.99,0.33446474112467234
286,2332.36,0.3945448418006595
287,2343.12,0.385818087847889
288,2353.94,0.4172859679808837
289,2364.8,0.39066643750438845
290,2375.7200000000003,0.4054317411136585
291,2386.68,0.3813098341134387
292,2397.7000000000003,0.4086705611989841
293,2403.23,0.3958571194370119
294,2414.32,0.40709460295595007
295,2425.46,0.4303489982130259
296,2436.66,0.416932927555867
297,2442.28,0.4416325869225426
298,2453.5499999999997,0.4378594726987764
299,2464.87,0.43907667021314795
300,2476.25,0.4283494018132846
301,2487.68,0.44457744515155906
302,2493.42,0.42285737268976514
303,2504.9300000000003,0.4679565948090598
304,2510.7000000000003,0.4280407893901485
305,2511.88643,0.4307184818368893
306,2516.4900000000002,0.44109415909668137
307,2522.29,0.424349942606949
308,2533.93,0.4304066750310034
309,2545.6299999999997,0.42667215556033633
310,2557.38,0.45514939284406813
311,2563.2700000000004,0.4500403985122537
312,2575.1000000000004,0.4757136666030237
313,2586.9900000000002,0.47593398279907234
314,2592.95,0.4738573279234163
315,2604.92,0.4622893749265031
316,2616.9500000000003,0.46035767003486855
317,2622.9799999999996,0.47989575461537093
318,2635.09,0.49124678053077453
319,2647.25,0.528904263200577
320,2653.35,0.5363469872372378
321,2665.6000000000004,0.5020487920649581
322,2677.8999999999996,0.5234634536470775
323,2684.08,0.5248001084907764
324,2696.46,0.5084372008799338
325,2702.6800000000003,0.5215603211271519
326,2715.16,0.5053073270251071
327,2727.69,0.507870189677461
328,2733.9799999999996,0.5330899493808375
329,2746.6000000000004,0.4788280341911095
330,2752.9300000000003,0.488920059298005
331,2765.63,0.5063037749153152
332,2772.0099999999998,0.5289879567766095
333,2784.81,0.5125029859027175
334,2797.6600000000003,0.4287577717832241
335,2804.11,0.4594271931006769
336,2817.0499999999997,0.5397000011391017
337,2823.55,0.5574676792109532
338,2836.5800000000004,0.5413318094072959
339,2843.12,0.5340697528826666
340,2856.24,0.5258450052369271
341,2862.8199999999997,0.562159514115817
342,2876.0400000000004,0.5598421799788752
343,2882.67,0.5651756456121639
344,2884.0315,0.5648049194957521
345,2895.98,0.5615615565385933
346,2909.34,0.6005342200583174
347,2929.51,0.5900893630368229
348,2949.81,0.5878664037142479
349,2970.26,0.6006107417365801
350,2990.85,0.6066375772808255
351,3011.58,0.6183869103469841
352,3032.46,0.6231843407580498
353,3053.48,0.6265625686910289
354,3067.57,0.6327080192893009
355,3088.84,0.640535942797125
356,3110.25,0.6425334638268625
357,3131.81,0.6416103822015069
358,3153.5099999999998,0.6510592980980647
359,3168.07,0.6544364403770455
360,3190.0299999999997,0.6371970516714422
361,3212.14,0.6570861603107462
362,3226.9700000000003,0.6440299978105596
363,3249.34,0.6702497018477024
364,3271.8599999999997,0.6879896032297522
365,3286.96,0.6915614359503984
366,3309.75,0.695359932553281
367,3311.31121,0.6960588914550461
368,3325.02,0.7021919663077297
369,3332.6899999999996,0.7040288710277923
370,3340.37,0.6756918723641784
371,3348.07,0.7241043669332113
372,3355.79,0.6933862547348911
373,3363.53,0.6670448357692177
374,3371.2799999999997,0.6657363134198676
375,3379.05,0.7085073843031644
376,3386.8399999999997,0.7103463484191082
377,3394.65,0.7187886057676987
378,3402.4700000000003,0.7407878597326125
379,3410.32,0.6964377035464968
380,3418.1800000000003,0.7095672439767045
381,3426.0600000000004,0.7262669776395588
382,3433.9599999999996,0.7484911045350602
383,3441.8700000000003,0.7283361280468849
384,3449.81,0.7185773414076798
385,3457.7599999999998,0.7105926513847982
386,3465.73,0.6978426545945634
387,3473.7200000000003,0.7359259510369754
388,3481.73,0.7111964407120344
389,3489.75,0.7414124270034167
390,3497.7999999999997,0.7214813031437692
391,3505.86,0.7333827759004453
392,3513.94,0.7218979418897681
393,3522.04,0.7508455011117378
394,3530.16,0.7273081535663543
395,3538.2999999999997,0.7547577992536176
396,3546.46,0.7654631381735278
397,3554.6299999999997,0.7727595737097614
398,3562.8300000000004,0.7658796990949653
399,3571.04,0.7350882210964926
400,3579.27,0.7202644363306667
401,3587.52,0.6944634447974877
402,3594.1299999999997,1.0081351081872678
403,3596.7599999999998,0.6100295182803273
404,3599.3999999999996,0.5384227249897099
405,3602.0400000000004,0.8968288316990926
406,3604.6699999999996,1.4743565417921518
407,3607.3100000000004,0.7374937485015346
408,3609.9500000000003,0.3728176552109173
409,3612.59,-0.28164713807970004
410,3615.2200000000003,0.1547036720133593
411,3617.86,1.083343078722742
412,3620.5,0.5412174854321247
413,3623.13,0.36212919552518397
414,3625.77,0.18789160223456672
415,3628.4100000000003,1.1255725089439494
416,3631.04,0.9141005190370087
417,3633.6800000000003,1.0256717257463914
418,3636.32,0.4650774324557741
419,3638.96,1.2384839391651568
420,3641.59,1.1797830492582162
421,3644.23,0.2703288559675988
422,3646.87,0.8874074626769816
423,3649.5,0.07991962277004082
424,3652.14,0.20835837947942354
425,3654.78,1.3051705861888063
426,3657.42,0.967838592898189
427,3660.05,0.5107594029912482
428,3662.69,1.153742909700631
429,3665.33,-0.16219088358998635
430,3667.96,0.827201726503073
431,3670.6,0.26028393321245563
432,3673.24,0.4862967399218384
433,3675.88,0.555903446631221
434,3678.5099999999998,0.8935808567242803
435,3681.15,0.49186166343366305
436,3683.79,0.4138432701430458
437,3686.42,0.7712166802361051
438,3689.06,0.5812790869454878
439,3691.7,0.6195560936548704
440,3694.3399999999997,1.537400200364253
441,3696.97,0.12440991045731249
442,3699.6099999999997,0.8868915171666951
443,3702.2500000000005,0.4960385238760779
444,3704.8799999999997,0.7029455339691372
445,3707.5200000000004,0.80917994067852
446,3710.1600000000003,0.30698794738790264
447,3712.8,1.2776199540972855
448,3715.4300000000003,0.7567315641903446
449,3718.07,1.0142381708997275
450,3720.71,0.32989377760911
451,3723.34,0.4476949877021693
452,3725.98,1.4690524944115522
453,3728.6200000000003,1.5906046011209347
454,3731.25,3.084065711213994
455,3733.8900000000003,2.133345817923377
456,3736.53,1.3451119246327594
457,3739.17,0.9114488313421422
458,3741.8,0.9975309414352015
459,3744.44,1.4091512481445843
460,3747.08,0.8515136548539668
461,3749.71,0.9879304649470261
462,3752.35,0.7812908716564089
463,3754.9900000000002,0.37510687836579154
464,3757.63,1.8861507850751744
465,3760.26,1.1957148951682335
466,3762.9,1.4549110018776163
467,3765.54,1.057683108586999
468,3768.17,0.7024251186800582
469,3770.81,0.303593125389441
470,3773.45,0.9319407320988238
471,3776.0899999999997,0.7931825388082063
472,3778.72,0.9798185489012656
473,3781.36,0.8078874556106485
474,3784.0,1.0821718623200312
475,3786.63,1.6202689724130903
476,3789.27,0.5076052791224731
477,3791.91,0.8248534858318558
478,3794.5499999999997,0.8640898925412385
479,3797.18,0.8045814026342978
480,3799.8199999999997,0.31424880934368055
481,3801.8939600000003,0.6918153537100972
482,3802.4599999999996,0.7948635559605423
483,3805.0899999999997,0.6307692514763098
484,3807.7299999999996,0.8337955443134301
485,3810.3700000000003,1.0360535371505506
486,3813.01,1.1120328299876707
487,3815.6400000000003,1.8046661255034384
488,3818.28,1.1777254183405585
489,3820.92,1.026604711177679
490,3823.55,0.8383612066934465
491,3826.19,0.4915072995305668
492,3828.83,0.8281444923676871
493,3831.46,1.2767058878834545
494,3834.1,0.823729580720575
495,3836.7400000000002,0.6403577735576953
496,3839.38,0.33975426639481554
497,3842.01,0.7201022619105831
498,3844.65,0.5020222547477035
499,3847.29,1.0998536475848237
500,3849.92,1.5236899431005915
501,3852.56,0.8764780359377116
502,3855.2,1.306105528774832
503,3857.84,0.9034264216119522
504,3860.47,1.2880231171277197
505,3863.11,1.45983340996484
506,3865.75,1.2248977028019603
507,3868.38,1.040455998317728
508,3871.02,1.2549622911548481
509,3873.66,1.2910885839919686
510,3876.2999999999997,1.5189148768290888
511,3878.93,1.2316171723448566
512,3881.5699999999997,1.2926994651819768
513,3884.21,0.608554058019097
514,3886.8399999999997,0.7958037535348647
515,3889.48,0.663457546371985
516,3892.12,0.35303633920910527
517,3894.7599999999998,0.9562849320462256
518,3897.39,1.2409802275619932
519,3900.0299999999997,0.8077005203991134
520,3902.6699999999996,1.2779098132362336
521,3905.2999999999997,1.1325151087520013
522,3907.9399999999996,1.5644074015891216
523,3910.5800000000004,1.178314694426242
524,3913.2200000000003,1.7235449872633624
525,3915.8500000000004,1.0896252827791297
526,3918.4900000000002,0.9823500756162501
527,3921.13,1.0423958684533703
528,3923.76,1.4284901639691379
529,3926.4,1.5214784568062583
530,3929.04,1.3018617496433784
531,3931.6800000000003,1.0601310424804988
532,3934.31,0.9853036379962665
533,3936.9500000000003,0.9342757308333868
534,3939.59,1.150085923670507
535,3942.2200000000003,1.1108122191862746
536,3944.86,1.0423535120233949
537,3947.5,1.1274328048605153
538,3950.13,1.1908631003762828
539,3952.77,1.1270113932134032
540,3955.41,1.1057766860505234
541,3958.05,1.5633539788876438
542,3960.68,1.2867292744034113
543,3963.32,1.3416685672405315
544,3965.96,1.2993178600776518
545,3968.59,0.7674087555934195
546,3971.23,0.8593607484305398
547,3973.87,0.59294264126766
548,3976.5099999999998,0.5300133341047804
549,3979.14,0.8472268296205478
550,3981.7799999999997,1.0715616224576683
551,3984.42,1.2659479152947886
552,3987.0499999999997,1.353260210810556
553,3989.69,1.2736665036476764
554,3992.33,1.2433327964847967
555,3994.97,1.145694089321917
556,3997.6,1.2298953848376846
557,4000.24,1.159516677674805
558,4002.8799999999997,1.181206970511925
559,4005.5099999999998,1.2856812660276928
560,4008.1499999999996,1.301228558864813
561,4010.79,1.0100448517019334
562,4013.43,1.2513491445390537
563,4016.0600000000004,1.2696664400548214
564,4018.7000000000003,1.5890257328919415
565,4021.3399999999997,1.6836260257290618
566,4023.9700000000003,1.7399933212448295
567,4026.61,1.8737936140819496
568,4029.25,1.54947590691907
569,4031.8900000000003,1.3714791997561901
570,4034.52,1.445353495271958
571,4037.1600000000003,1.7373757881090781
572,4039.8,1.4754100809461985
573,4042.4300000000003,1.484859376461966
574,4045.07,1.7371446692990864
