,lambda (Angstroms),Total Flux (erg/s/cm^2/Angstrom)
0,102.05000000000001,0.06403070375642063
1,103.94,0.07484310429711596
2,104.712855,0.07926448938699916
3,106.12,0.07254767770730819
4,108.08999999999999,0.06314415567582521
5,110.10000000000001,0.05354969918685002
6,113.96999999999998,0.0350767904244951
7,117.97999999999999,0.0159356110609179
8,120.22644299999999,0.005212526673623044
9,121.0,0.00504167038584715
10,124.97,0.004164812620394464
11,127.0,0.003716444543853175
12,127.88000000000001,0.003522078087027399
13,130.86,0.002863882585503764
14,132.07,0.0025966287073683593
15,133.9,0.0021924348255602647
16,137.02,0.0015033173877236315
17,138.038426,0.0012783766454973276
18,139.89,0.0012639331751857295
19,143.15,0.0012385030745187676
20,147.16,0.0012072224905751276
21,150.94,0.0011777360548385918
22,155.17,0.0011447393291387031
23,158.489319,0.0011188465020667837
24,159.14999999999998,0.001110927912467781
25,162.1,0.001075570698758559
26,165.88,0.0010302655232484392
27,170.14000000000001,0.0009792073096002317
28,172.9,0.0009461273402347303
29,176.93,0.0008978257908035136
30,179.79999999999998,0.0008634274169523721
31,181.88,0.0008384975850565999
32,181.970086,0.0008374178596566619
33,186.12,0.0008534237905432863
34,190.9,0.0008718599198143287
35,194.0,0.000883816405499223
36,198.06,0.0008994755451063594
37,202.21,0.000915481808947723
38,205.01999999999998,0.0009263197856899345
39,208.929613,0.0009413988945213503
40,209.79000000000002,0.0009615511895994471
41,216.17000000000002,0.001110985856633319
42,220.19,0.0012051437521193255
43,223.25,0.0012768161807599544
44,226.88,0.0013618393592571792
45,230.04,0.0014358540501801429
46,233.76999999999998,0.0015232195240594227
47,239.76999999999998,0.0016637537931895106
48,239.88329199999998,0.0016664073606308947
49,245.92,0.0015499327344044387
50,252.23,0.001428185170750658
51,256.92,0.0013376944340591434
52,259.89000000000004,0.0012803902201305704
53,264.12,0.0011987750584828798
54,269.03,0.0011040397383213427
55,274.03000000000003,0.0010075679618836166
56,275.42287,0.0009806934448424968
57,279.12,0.001056852572814131
58,284.31,0.0011637641801815048
59,290.27,0.0012865374293941298
60,295.65999999999997,0.0013975692196998932
61,301.16,0.0015108668028461227
62,308.17,0.0016552701808515461
63,316.227766,0.0018212575043040817
64,318.27000000000004,0.001790443583114293
65,327.93999999999994,0.0016445399011377707
66,337.91,0.0014941102262727944
67,348.17,0.0013393056460413843
68,357.09999999999997,0.0012045695035299724
69,363.078055,0.0011143731602455006
70,366.26,0.0011518457385411103
71,374.8,0.0012524189927808575
72,385.3,0.0013760737487933333
73,395.17999999999995,0.0014924322511334148
74,405.32,0.0016118535451319208
75,413.8,0.0017117260641443396
76,416.86938299999997,0.0017478750947730495
77,422.46999999999997,0.0017874533287105295
78,430.32,0.0018429301773305342
79,441.36,0.001920955741815178
80,450.6,0.0019862625261968907
81,460.04,0.002052980863001151
82,469.67,0.002121048471841831
83,478.630092,0.0021843863911028515
84,479.51,0.0021762380552145404
85,489.55,0.0020832582220100234
86,499.79999999999995,0.001988348368218959
87,505.59,0.0019347599886326882
88,511.44,0.0018808641749216894
89,519.75,0.0018039706604968356
90,529.41,0.0017146027933155976
91,540.5,0.001611936372778337
92,549.5408739999999,0.0015285578466791455
93,550.55,0.001525557004851782
94,559.49,0.0014990093465972608
95,569.89,0.001468075269227348
96,580.49,0.0014362593386772443
97,589.9200000000001,0.001408608023781256
98,599.51,0.0013801195749411155
99,610.65,0.0013474860667044973
100,620.58,0.0013187329953580323
101,630.66,0.0012893790688764245
102,630.957344,0.0012885073766130224
103,639.43,0.0013236508511168565
104,649.8199999999999,0.0013676570762950438
105,657.35,0.0013995549495675903
106,664.96,0.0014317950625787556
107,675.76,0.0014768902222923673
108,685.16,0.0015160270040801402
109,694.7,0.0015602449856604976
110,704.36,0.0016000494413487836
111,715.8000000000001,0.0016526540029713503
112,724.43596,0.0016904514417320918
113,725.76,0.0016939269368303604
114,734.17,0.0017165598208479884
115,744.38,0.0017470738869026837
116,754.74,0.0017765400706271346
117,765.2299999999999,0.0018068410029987063
118,775.88,0.0018398084075513515
119,784.86,0.0018694925187140508
120,795.78,0.0019021780150722558
121,805.0,0.001931741144506564
122,814.32,0.001961586469054043
123,825.65,0.0020028895103762464
124,831.763771,0.0020087382230675526
125,835.21,0.0019866925011381427
126,844.8799999999999,0.0019702305025271344
127,854.66,0.0019324917662897328
128,864.5600000000001,0.001901214779914449
129,874.5699999999999,0.001871496655912774
130,884.6999999999999,0.0018462433817732164
131,894.94,0.0018168094700072661
132,905.3,0.0017768445081034346
133,915.79,0.0018788986835502302
134,924.26,0.004394682786318043
135,934.9599999999999,0.008307546399023546
136,945.79,0.015427227649079674
137,954.54,0.022231316701525766
138,954.992586,0.022397780460797937
139,965.59,0.02634055093396458
140,974.53,0.005499507416779561
141,985.8100000000001,0.025141709354827995
142,994.9399999999999,0.027377284442982444
143,1004.14,0.0403310037541567
144,1015.77,0.03996409680730415
145,1025.17,0.017981136755677845
146,1034.65,0.030533252958931313
147,1044.23,0.05969516948078451
148,1053.8899999999999,0.06091293225751747
149,1066.09,0.05051736112668333
150,1075.96,0.06200441657247571
151,1085.9099999999999,0.051300288273147865
152,1095.96,0.06956407029241975
153,1096.4782,0.069547542078867
154,1106.1,0.0692243217344027
155,1113.77,0.0690518136473674
156,1124.0700000000002,0.0643468766465247
157,1134.47,0.08349065025732431
158,1144.97,0.07831967447976622
159,1155.5700000000002,0.08574889931385045
160,1166.26,0.09136264969841273
161,1174.34,0.06629455911911089
162,1185.21,0.09384922060462933
163,1196.18,0.06653798270179008
164,1204.47,0.04954392840693707
165,1215.6100000000001,0.032427586543889726
166,1224.04,0.07003606310533594
167,1235.3600000000001,0.10971966234324476
168,1243.93,0.1246822897609902
169,1255.4399999999998,0.12267198516101939
170,1258.92541,0.11685575858839899
171,1264.1399999999999,0.10816791796156669
172,1275.84,0.14332519340478886
173,1284.68,0.1542331615174456
174,1293.58,0.12608784027340092
175,1305.55,0.12753686361146666
176,1314.6,0.16295376897566838
177,1323.7199999999998,0.15999278675705184
178,1335.96,0.14565835798996116
179,1345.22,0.17656970060570795
180,1354.55,0.17496285563863637
181,1363.9399999999998,0.16073902131486337
182,1376.56,0.17257415995533035
183,1386.1000000000001,0.1786156522398038
184,1395.71,0.16037605694145893
185,1405.3799999999999,0.17061497228641262
186,1415.12,0.17739790004854797
187,1424.93,0.18571964022786505
188,1434.81,0.18829309282436374
189,1441.4299999999998,0.2017045671349732
190,1445.43977,0.20480658866859267
191,1448.09,0.20685677298803468
192,1454.77,0.20496986750768725
193,1464.8600000000001,0.19310706970877925
194,1475.01,0.19623268084268247
195,1485.2299999999998,0.20357070239819883
196,1495.53,0.2111790358641302
197,1505.9,0.20450667975167472
198,1512.8500000000001,0.1848815144689779
199,1516.33,0.19987373257203045
200,1523.33,0.19669197473334304
201,1533.8899999999999,0.17539184690812315
202,1544.52,0.1971488295045164
203,1555.23,0.18917782401132463
204,1566.01,0.195348928939746
205,1573.24,0.2121629053435017
206,1584.14,0.22572232813754559
207,1595.1299999999999,0.23523896433080635
208,1606.18,0.23362610945687834
209,1613.6000000000001,0.23850121414786968
210,1624.7800000000002,0.22938357862836606
211,1636.04,0.2479942550192774
212,1643.5900000000001,0.25609477906469313
213,1654.99,0.23960767629883076
214,1659.58691,0.2505456399624575
215,1666.4599999999998,0.26690603341444624
216,1670.3000000000002,0.24072320843192513
217,1678.01,0.272491191084207
218,1685.76,0.28792651722625423
219,1693.54,0.27438797598562553
220,1705.2800000000002,0.26755814023177193
221,1713.1499999999999,0.25851429684311544
222,1725.02,0.2609120024309994
223,1736.98,0.28209870587085556
224,1744.9999999999998,0.2795263255688193
225,1753.05,0.3022276778841071
226,1765.2,0.2801949879003489
227,1773.35,0.2926899489400502
228,1785.64,0.30156971117047093
229,1793.8899999999999,0.32530568093458573
230,1806.32,0.3268192953791854
231,1814.6599999999999,0.3071874629952724
232,1823.03,0.3172289632286834
233,1835.67,0.30933300599455144
234,1844.1399999999999,0.288101814952376
235,1856.93,0.29345022080486427
236,1865.5,0.30583483848710236
237,1874.11,0.33448269965910576
238,1887.1,0.3129591229604211
239,1895.81,0.3037721928568381
240,1904.56,0.3254301062430205
241,1905.46072,0.3246743167919742
242,1913.3500000000001,0.3180348289579976
243,1926.61,0.31656184546862354
244,1935.51,0.3283897723875202
245,1944.44,0.34697465726232335
246,1953.4199999999998,0.32987137206363715
247,1966.96,0.3640767961627227
248,1976.04,0.3768227708170578
249,1985.16,0.3598972894126014
250,1994.32,0.35414735194935354
251,2003.52,0.3673902584273142
252,2012.7700000000002,0.35986139483178553
253,2026.73,0.3793588303135606
254,2036.0800000000002,0.3648173265710532
255,2045.48,0.3828330527550565
256,2054.92,0.37070482288026835
257,2064.4,0.3767016369466887
258,2073.93,0.40450558093961964
259,2078.71,0.38721978191403833
260,2083.51,0.4026070548590613
261,2093.12,0.38543458673440933
262,2102.79,0.3925609345215701
263,2117.36,0.39979921510677524
264,2127.13,0.4100375227469573
265,2136.95,0.38625746031365016
266,2146.82,0.3988708278068536
267,2156.73,0.41663183924126557
268,2166.68,0.4080995946168861
269,2176.68,0.4080826799190172
270,2186.73,0.40526569514765903
271,2187.7616199999998,0.40761591354773785
272,2196.8199999999997,0.42827537102851376
273,2206.96,0.4204911012756748
274,2217.15,0.4054917873919048
275,2227.38,0.3964429182033898
276,2232.52,0.42581656154366676
277,2242.82,0.41154867057184813
278,2253.17,0.40146153546909835
279,2263.57,0.4128778562354174
280,2274.02,0.42755353287080533
281,2284.52,0.44073456537526207
282,2295.06,0.42113004257497383
283,2305.66,0.4252068868175683
284,2316.3,0.4119359757554178
285,2326.99,0.33360172056233617
286,2332.36,0.39367582090032976
287,2343.12,0.3849370439239445
288,2353.94,0.41639283399044186
289,2364.8,0.38976116875219424
290,2375.7200000000003,0.40451427055682926
291,2386.68,0.38038011705671937
292,2397.7000000000003,0.40772853059949205
293,2403.23,0.39490890971850595
294,2414.32,0.40613400147797507
295,2425.46,0.42937594910651294
296,2436.66,0.4159473637779335
297,2442.28,0.4406407434612713
298,2453.5499999999997,0.43685503634938816
299,2464.87,0.43805958510657395
300,2476.25,0.42731960090664234
301,2487.68,0.44353487257577956
302,2493.42,0.42180838634488255
303,2504.9300000000003,0.4668947474045299
304,2510.7000000000003,0.42697249469507426
305,2511.88643,0.42964886144702813
306,2516.4900000000002,0.4400265295483407
307,2522.29,0.4232848213034745
308,2533.93,0.4293465875155017
309,2545.6299999999997,0.42561712778016814
310,2557.38,0.4540994464220341
311,2563.2700000000004,0.44899299925612685
312,2575.1000000000004,0.4746713833015119
313,2586.9900000000002,0.47489684139953614
314,2592.95,0.47282276396170814
315,2604.92,0.46125998746325153
316,2616.9500000000003,0.45933348501743426
317,2622.9799999999996,0.4788741773076855
318,2635.09,0.49023044026538726
319,2647.25,0.5278931816002885
320,2653.35,0.5353385436186189
321,2665.6000000000004,0.501045646032479
322,2677.8999999999996,0.5224656268235388
323,2684.08,0.5238049542453882
324,2696.46,0.5074474004399668
325,2702.6800000000003,0.520573210563576
326,2715.16,0.5043256135125535
327,2727.69,0.5068938948387305
328,2733.9799999999996,0.5321163746904188
329,2746.6000000000004,0.4778599170955547
330,2752.9300000000003,0.4879546796490025
331,2765.63,0.5053438874576577
332,2772.0099999999998,0.5280308283883047
333,2784.81,0.5115513929513588
334,2797.6600000000003,0.4278117358916121
335,2804.11,0.4584839465503385
336,2817.0499999999997,0.5387623505695508
337,2823.55,0.5565328396054766
338,2836.5800000000004,0.5404026047036479
339,2843.12,0.5331433764413334
340,2856.24,0.5249243026184636
341,2862.8199999999997,0.5612416570579085
342,2876.0400000000004,0.5589300399894376
343,2882.67,0.564266372806082
344,2884.0315,0.5638962354785297
345,2895.98,0.5606529782692966
346,2909.34,0.5996257600291587
347,2929.51,0.5891810815184115
348,2949.81,0.5869583018571239
349,2970.26,0.5997028208682901
350,2990.85,0.6057298386404127
351,3011.58,0.6174793551734921
352,3032.46,0.622276970379025
353,3053.48,0.6256553843455145
354,3067.57,0.6318009596446504
355,3088.84,0.6396290713985625
356,3110.25,0.6416267819134313
357,3131.81,0.6407038911007534
358,3153.5099999999998,0.6501529990490323
359,3168.07,0.6535302701885228
360,3190.0299999999997,0.6362910758357212
361,3212.14,0.656180380155373
362,3226.9700000000003,0.6431243489052798
363,3249.34,0.6693442509238512
364,3271.8599999999997,0.6870843516148761
365,3286.96,0.6906563179751992
366,3309.75,0.6944550162766404
367,3311.31121,0.6951539889955975
368,3325.02,0.7012893831538648
369,3332.6899999999996,0.7031275855138961
370,3340.37,0.6747918861820892
371,3348.07,0.7232056834666057
372,3355.79,0.6924888773674456
373,3363.53,0.6661487678846089
374,3371.2799999999997,0.6648415567099337
375,3379.05,0.7076139421515822
376,3386.8399999999997,0.7094542242095541
377,3394.65,0.7178978028838493
378,3402.4700000000003,0.7398983798663062
379,3410.32,0.6955495517732484
380,3418.1800000000003,0.7086804219883522
381,3426.0600000000004,0.7253814888197795
382,3433.9599999999996,0.74760695226753
383,3441.8700000000003,0.7274533140234424
384,3449.81,0.7176958707038399
385,3457.7599999999998,0.7097125256923991
386,3465.73,0.6969638772972817
387,3473.7200000000003,0.7350485255184876
388,3481.73,0.7103203703560172
389,3489.75,0.7405377135017083
390,3497.7999999999997,0.7206079515718846
391,3505.86,0.7325107879502226
392,3513.94,0.7210273209448841
393,3522.04,0.7499762505558688
394,3530.16,0.7264402767831771
395,3538.2999999999997,0.7538912996268089
396,3546.46,0.764598019086764
397,3554.6299999999997,0.7718958368548807
398,3562.8300000000004,0.7650173495474827
399,3571.04,0.7342272605482463
400,3579.27,0.7194048681653334
401,3587.52,0.6936052723987438
402,3594.1299999999997,1.007278054093634
403,3596.7599999999998,0.6091729091401636
404,3599.3999999999996,0.537566562494855
405,3602.0400000000004,0.8959731158495462
406,3604.6699999999996,1.4735012708960757
407,3607.3100000000004,0.7366389242507674
408,3609.9500000000003,0.37196327760545866
409,3612.59,-0.28250106903985
410,3615.2200000000003,0.15385018600667966
411,3617.86,1.082490039361371
412,3620.5,0.5403648927160623
413,3623.13,0.361277047762592
414,3625.77,0.18703990111728336
415,3628.4100000000003,1.1247212544719747
416,3631.04,0.9132497095185044
417,3633.6800000000003,1.0248213628731957
418,3636.32,0.46422751622788705
419,3638.96,1.2376344695825785
420,3641.59,1.178934024629108
421,3644.23,0.26948027798379937
422,3646.87,0.8865593313384909
423,3649.5,0.07907193638502041
424,3652.14,0.20751113973971178
425,3654.78,1.3043237930944032
426,3657.42,0.9669922464490944
427,3660.05,0.5099135014956241
428,3662.69,1.1528974548503155
429,3665.33,-0.16303589179499317
430,3667.96,0.8263571632515365
431,3670.6,0.25943981660622784
432,3673.24,0.4854530699609192
433,3675.88,0.5550602233156104
434,3678.5099999999998,0.8927380783621401
435,3681.15,0.4910193317168315
436,3683.79,0.4130013850715229
437,3686.42,0.7703752401180526
438,3689.06,0.5804380934727439
439,3691.7,0.6187155468274352
440,3694.3399999999997,1.5365601001821265
441,3696.97,0.12357025522865624
442,3699.6099999999997,0.8860523085833476
443,3702.2500000000005,0.49519976193803894
444,3704.8799999999997,0.7021072169845686
445,3707.5200000000004,0.80834207033926
446,3710.1600000000003,0.3061505236939513
447,3712.8,1.2767829770486427
448,3715.4300000000003,0.7558950320951723
449,3718.07,1.0134020854498638
450,3720.71,0.329058138804555
451,3723.34,0.44685979385108465
452,3725.98,1.468217747205776
453,3728.6200000000003,1.5897703005604673
454,3731.25,3.083231855606997
455,3733.8900000000003,2.1325124089616883
456,3736.53,1.3442789623163796
457,3739.17,0.9106163156710712
458,3741.8,0.9966988707176008
459,3744.44,1.4083196240722922
460,3747.08,0.8506824774269834
461,3749.71,0.987099732473513
462,3752.35,0.7804605858282044
463,3754.9900000000002,0.3742770391828958
464,3757.63,1.8853213925375871
465,3760.26,1.1948859475841167
466,3762.9,1.454082500938808
467,3765.54,1.0568550542934996
468,3768.17,0.7015975093400291
469,3770.81,0.3027659626947205
470,3773.45,0.9311140160494119
471,3776.0899999999997,0.7923562694041032
472,3778.72,0.9789927244506328
473,3781.36,0.8070620778053242
474,3784.0,1.0813469311600155
475,3786.63,1.6194444862065451
476,3789.27,0.5067812395612366
477,3791.91,0.8240298929159279
478,3794.5499999999997,0.8632667462706193
479,3797.18,0.8037587013171489
480,3799.8199999999997,0.3134265546718403
481,3801.8939600000003,0.6909934499187509
482,3802.4599999999996,0.7940417279802711
483,3805.0899999999997,0.629947775738155
484,3807.7299999999996,0.832974422156715
485,3810.3700000000003,1.0352327685752754
486,3813.01,1.1112124149938354
487,3815.6400000000003,1.8038460627517192
488,3818.28,1.1769057091702793
489,3820.92,1.0257853555888394
490,3823.55,0.8375422033467232
491,3826.19,0.4906886497652834
492,3828.83,0.8273261961838435
493,3831.46,1.2758879439417272
494,3834.1,0.8229119903602875
495,3836.7400000000002,0.6395405367788476
496,3839.38,0.3389373831974078
497,3842.01,0.7192857309552916
498,3844.65,0.5012060773738518
499,3847.29,1.0990378237924119
500,3849.92,1.5228744715502958
501,3852.56,0.8756629179688558
502,3855.2,1.3052907643874159
503,3857.84,0.9026120108059761
504,3860.47,1.2872090585638598
505,3863.11,1.4590197049824198
506,3865.75,1.2240843514009803
507,3868.38,1.0396429991588638
508,3871.02,1.2541496455774241
509,3873.66,1.2902762919959843
510,3876.2999999999997,1.5181029384145444
511,3878.93,1.2308055861724283
512,3881.5699999999997,1.2918882325909884
513,3884.21,0.6077431790095486
514,3886.8399999999997,0.7949932267674323
515,3889.48,0.6626473731859924
516,3892.12,0.35222651960455265
517,3894.7599999999998,0.9554754660231127
518,3897.39,1.2401711137809965
519,3900.0299999999997,0.8068917601995567
520,3902.6699999999996,1.2771014066181168
521,3905.2999999999997,1.1317070543760008
522,3907.9399999999996,1.5635997007945608
523,3910.5800000000004,1.177507347213121
524,3913.2200000000003,1.7227379936316811
525,3915.8500000000004,1.0888186413895649
526,3918.4900000000002,0.9815437878081251
527,3921.13,1.0415899342266852
528,3923.76,1.427684581984569
529,3926.4,1.520673228403129
530,3929.04,1.3010568748216893
531,3931.6800000000003,1.0593265212402494
532,3934.31,0.9844994689981332
533,3936.9500000000003,0.9334719154166934
534,3939.59,1.1492824618352535
535,3942.2200000000003,1.1100091095931373
536,3944.86,1.0415507560116974
537,3947.5,1.1266304024302576
538,3950.13,1.1900610501881415
539,3952.77,1.1262096966067014
540,3955.41,1.1049753430252618
541,3958.05,1.562552989443822
542,3960.68,1.2859286372017056
543,3963.32,1.3408682836202659
544,3965.96,1.2985179300388259
545,3968.59,0.7666091777967097
546,3971.23,0.8585615242152699
547,3973.87,0.59214377063383
548,3976.5099999999998,0.5292148170523902
549,3979.14,0.8464286648102739
550,3981.7799999999997,1.070763811228834
551,3984.42,1.2651504576473944
552,3987.0499999999997,1.352463105405278
553,3989.69,1.272869751823838
554,3992.33,1.2425363982423985
555,3994.97,1.1448980446609585
556,3997.6,1.2290996924188424
557,4000.24,1.1587213388374025
558,4002.8799999999997,1.1804119852559625
559,4005.5099999999998,1.2848866330138464
560,4008.1499999999996,1.3004342794324064
561,4010.79,1.0092509258509665
562,4013.43,1.250555572269527
563,4016.0600000000004,1.2688732200274107
564,4018.7000000000003,1.5882328664459708
565,4021.3399999999997,1.6828335128645309
566,4023.9700000000003,1.7392011606224147
567,4026.61,1.8730018070409749
568,4029.25,1.548684453459535
569,4031.8900000000003,1.370688099878095
570,4034.52,1.444562747635979
571,4037.1600000000003,1.736585394054539
572,4039.8,1.4746200404730991
