,lambda (Angstroms),Total Flux (erg/s/cm^2/Angstrom)
0,102.05000000000001,3.04027e-20
1,103.94,5.623227e-20
2,104.712855,7.3587484153968e-20
3,106.12,1.051863e-19
4,108.08999999999999,1.981534e-19
5,110.10000000000001,4.266072e-19
6,113.96999999999998,1.270556e-18
7,117.97999999999999,3.419603e-18
8,120.22644299999999,1.5513572131182406e-17
9,121.0,1.96781e-17
10,124.97,4.709418e-17
11,127.0,6.997358e-17
12,127.88000000000001,8.648825e-17
13,130.86,1.513447e-16
14,132.07,2.041526e-16
15,133.9,2.897537e-16
16,137.02,5.508333e-16
17,138.038426,6.760206014301725e-16
18,139.89,9.036204e-16
19,143.15,3.184132e-15
20,147.16,1.158734e-14
21,150.94,2.036913e-14
22,155.17,3.547871e-14
23,158.489319,5.660499949535437e-14
24,159.14999999999998,6.081e-14
25,162.1,8.932812e-14
26,165.88,1.482448e-13
27,170.14000000000001,2.365705e-13
28,172.9,3.34175e-13
29,176.93,5.175658e-13
30,179.79999999999998,7.095814e-13
31,181.88,8.729614e-13
32,181.970086,8.821009349017939e-13
33,186.12,1.303124e-12
34,190.9,2.108474e-12
35,194.0,2.805158e-12
36,198.06,4.00838e-12
37,202.21,5.688107e-12
38,205.01999999999998,7.328102e-12
39,208.929613,9.983965222053233e-12
40,209.79000000000002,1.056844e-11
41,216.17000000000002,1.753736e-11
42,220.19,2.376614e-11
43,223.25,2.924082e-11
44,226.88,3.90804e-11
45,230.04,7.078624e-11
46,233.76999999999998,1.399567e-10
47,239.76999999999998,2.460163e-10
48,239.88329199999998,2.473905872243903e-10
49,245.92,3.206188e-10
50,252.23,4.634234e-10
51,256.92,4.942897e-10
52,259.89000000000004,6.683455e-10
53,264.12,8.471604e-10
54,269.03,1.064037e-09
55,274.03000000000003,1.321243e-09
56,275.42287,1.4045021463104106e-09
57,279.12,1.625499e-09
58,284.31,1.999775e-09
59,290.27,2.426401e-09
60,295.65999999999997,3.09024e-09
61,301.16,3.605563e-09
62,308.17,4.720761e-09
63,316.227766,6.360394317812067e-09
64,318.27000000000004,6.775958e-09
65,327.93999999999994,9.310608e-09
66,337.91,1.241545e-08
67,348.17,1.629257e-08
68,357.09999999999997,2.084442e-08
69,363.078055,2.4644655205725998e-08
70,366.26,2.666741e-08
71,374.8,3.295889e-08
72,385.3,3.980987e-08
73,395.17999999999995,5.152157e-08
74,405.32,6.426728e-08
75,413.8,7.638299e-08
76,416.86938299999997,8.038717182485579e-08
77,422.46999999999997,8.769349e-08
78,430.32,1.00692e-07
79,441.36,1.235934e-07
80,450.6,1.455402e-07
81,460.04,1.659477e-07
82,469.67,1.931901e-07
83,478.630092,2.2395016868227643e-07
84,479.51,2.269709e-07
85,489.55,2.564301e-07
86,499.79999999999995,3.012822e-07
87,505.59,3.507316e-07
88,511.44,6.485793e-07
89,519.75,7.378557e-07
90,529.41,8.590089e-07
91,540.5,9.289482e-07
92,549.5408739999999,1.3039373855079783e-06
93,550.55,1.345793e-06
94,559.49,1.753852e-06
95,569.89,2.177656e-06
96,580.49,2.322643e-06
97,589.9200000000001,3.104484e-06
98,599.51,3.53162e-06
99,610.65,4.487227e-06
100,620.58,5.674902e-06
101,630.66,6.713999e-06
102,630.957344,6.738852686410952e-06
103,639.43,7.447045e-06
104,649.8199999999999,9.225357e-06
105,657.35,1.051917e-05
106,664.96,1.183008e-05
107,675.76,1.303097e-05
108,685.16,1.396348e-05
109,694.7,1.940819e-05
110,704.36,1.995166e-05
111,715.8000000000001,2.606081e-05
112,724.43596,2.875925269815262e-05
113,725.76,2.917297e-05
114,734.17,3.235814e-05
115,744.38,3.926208e-05
116,754.74,4.477127e-05
117,765.2299999999999,5.081459e-05
118,775.88,5.915439e-05
119,784.86,6.807269e-05
120,795.78,7.550622e-05
121,805.0,8.374855e-05
122,814.32,9.204183e-05
123,825.65,0.0001071448
124,831.763771,9.885571602337865e-05
125,835.21,9.41833e-05
126,844.8799999999999,0.0001264702
127,854.66,0.0001380349
128,864.5600000000001,0.0001566663
129,874.5699999999999,0.0001774111
130,884.6999999999999,0.0002032257
131,894.94,0.0002254142
132,905.3,0.0002376766
133,915.79,0.0003926135
134,924.26,0.002951097
135,934.9599999999999,0.006917902
136,945.79,0.01409218
137,954.54,0.02094038
138,954.992586,0.021109125358964705
139,965.59,0.02506034
140,974.53,0.00422642
141,985.8100000000001,0.02387761
142,994.9399999999999,0.02612046
143,1004.14,0.03908151
144,1015.77,0.03872387
145,1025.17,0.0167484
146,1034.65,0.02930807
147,1044.23,0.05847762
148,1053.8899999999999,0.05970308
149,1066.09,0.04931723
150,1075.96,0.06081215
151,1085.9099999999999,0.05011595
152,1095.96,0.06838774
153,1096.4782,0.06837162469546351
154,1106.1,0.0680724
155,1113.77,0.06791902
156,1124.0700000000002,0.06323977
157,1134.47,0.08240948
158,1144.97,0.07726469
159,1155.5700000000002,0.08472035
160,1166.26,0.09036076
161,1174.34,0.06531282
162,1185.21,0.09289459
163,1196.18,0.06561071
164,1204.47,0.04863733
165,1215.6100000000001,0.03154877
166,1224.04,0.06917827
167,1235.3600000000001,0.1088901
168,1243.93,0.1238741
169,1255.4399999999998,0.1218925
170,1258.92541,0.11608496563413757
171,1264.1399999999999,0.1073962
172,1275.84,0.1425514
173,1284.68,0.1534578
174,1293.58,0.1253109
175,1305.55,0.1267578
176,1314.6,0.1621731
177,1323.7199999999998,0.1592105
178,1335.96,0.1448739
179,1345.22,0.1757836
180,1354.55,0.1741751
181,1363.9399999999998,0.1599496
182,1376.56,0.1717825
183,1386.1000000000001,0.1778223
184,1395.71,0.159581
185,1405.3799999999999,0.1698182
186,1415.12,0.1765994
187,1424.93,0.1849194
188,1434.81,0.1874911
189,1441.4299999999998,0.2009014
190,1445.43977,0.20400271024729735
191,1448.09,0.2060525
192,1454.77,0.2041646
193,1464.8600000000001,0.1923003
194,1475.01,0.1954244
195,1485.2299999999998,0.2027609
196,1495.53,0.2103677
197,1505.9,0.2036938
198,1512.8500000000001,0.1840676
199,1516.33,0.1990593
200,1523.33,0.1958765
201,1533.8899999999999,0.1745748
202,1544.52,0.1963302
203,1555.23,0.1883576
204,1566.01,0.1945271
205,1573.24,0.21134
206,1584.14,0.2248978
207,1595.1299999999999,0.2344128
208,1606.18,0.2327983
209,1613.6000000000001,0.2376723
210,1624.7800000000002,0.228553
211,1636.04,0.247162
212,1643.5900000000001,0.2552614
213,1654.99,0.2387726
214,1659.58691,0.24970987927480398
215,1666.4599999999998,0.2660628
216,1670.3000000000002,0.2398758
217,1678.01,0.2716354
218,1685.76,0.2870623
219,1693.54,0.2735153
220,1705.2800000000002,0.2666727
221,1713.1499999999999,0.2576203
222,1725.02,0.2600051
223,1736.98,0.2811788
224,1744.9999999999998,0.2785977
225,1753.05,0.3012903
226,1765.2,0.2792444
227,1773.35,0.2917305
228,1785.64,0.3005969
229,1793.8899999999999,0.3243239
230,1806.32,0.325824
231,1814.6599999999999,0.3061831
232,1823.03,0.3162155
233,1835.67,0.3083058
234,1844.1399999999999,0.2870654
235,1856.93,0.2923999
236,1865.5,0.3047752
237,1874.11,0.3334137
238,1887.1,0.311876
239,1895.81,0.3026796
240,1904.56,0.324328
241,1905.46072,0.32357123124641635
242,1913.3500000000001,0.3169428
243,1926.61,0.3154884
244,1935.51,0.3273288
245,1944.44,0.3459262
246,1953.4199999999998,0.3288355
247,1966.96,0.3630599
248,1976.04,0.3758186
249,1985.16,0.3589059
250,1994.32,0.3531688
251,2003.52,0.3664246
252,2012.7700000000002,0.3589087
253,2026.73,0.3784257
254,2036.0800000000002,0.3638973
255,2045.48,0.3819262
256,2054.92,0.3698112
257,2064.4,0.3758213
258,2073.93,0.4036386
259,2078.71,0.3863595
260,2083.51,0.4017535
261,2093.12,0.3845945
262,2102.79,0.3917344
263,2117.36,0.3989931
264,2127.13,0.4092451
265,2136.95,0.3854788
266,2146.82,0.398106
267,2156.73,0.4158809
268,2166.68,0.4073626
269,2176.68,0.4073597
270,2186.73,0.4045568
271,2187.7616199999998,0.4069084641843404
272,2196.8199999999997,0.4275578
273,2206.96,0.4197622
274,2217.15,0.4047515
275,2227.38,0.3956912
276,2232.52,0.4250591
277,2242.82,0.4107797
278,2253.17,0.400681
279,2263.57,0.4120857
280,2274.02,0.4267497
281,2284.52,0.439919
282,2295.06,0.4203027
283,2305.66,0.4243677
284,2316.3,0.4110849
285,2326.99,0.3327387
286,2332.36,0.3928068
287,2343.12,0.384056
288,2353.94,0.4154997
289,2364.8,0.3888559
290,2375.7200000000003,0.4035968
291,2386.68,0.3794504
292,2397.7000000000003,0.4067865
293,2403.23,0.3939607
294,2414.32,0.4051734
295,2425.46,0.4284029
296,2436.66,0.4149618
297,2442.28,0.4396489
298,2453.5499999999997,0.4358506
299,2464.87,0.4370425
300,2476.25,0.4262898
301,2487.68,0.4424923
302,2493.42,0.4207594
303,2504.9300000000003,0.4658329
304,2510.7000000000003,0.4259042
305,2511.88643,0.428579241057167
306,2516.4900000000002,0.4389589
307,2522.29,0.4222197
308,2533.93,0.4282865
309,2545.6299999999997,0.4245621
310,2557.38,0.4530495
311,2563.2700000000004,0.4479456
312,2575.1000000000004,0.4736291
313,2586.9900000000002,0.4738597
314,2592.95,0.4717882
315,2604.92,0.4602306
316,2616.9500000000003,0.4583093
317,2622.9799999999996,0.4778526
318,2635.09,0.4892141
319,2647.25,0.5268821
320,2653.35,0.5343301
321,2665.6000000000004,0.5000425
322,2677.8999999999996,0.5214678
323,2684.08,0.5228098
324,2696.46,0.5064576
325,2702.6800000000003,0.5195861
326,2715.16,0.5033439
327,2727.69,0.5059176
328,2733.9799999999996,0.5311428
329,2746.6000000000004,0.4768918
330,2752.9300000000003,0.4869893
331,2765.63,0.504384
332,2772.0099999999998,0.5270737
333,2784.81,0.5105998
334,2797.6600000000003,0.4268657
335,2804.11,0.4575407
336,2817.0499999999997,0.5378247
337,2823.55,0.555598
338,2836.5800000000004,0.5394734
339,2843.12,0.532217
340,2856.24,0.5240036
341,2862.8199999999997,0.5603238
342,2876.0400000000004,0.5580179
343,2882.67,0.5633571
344,2884.0315,0.5629875514613073
345,2895.98,0.5597444
346,2909.34,0.5987173
347,2929.51,0.5882728
348,2949.81,0.5860502
349,2970.26,0.5987949
350,2990.85,0.6048221
351,3011.58,0.6165718
352,3032.46,0.6213696
353,3053.48,0.6247482
354,3067.57,0.6308939
355,3088.84,0.6387222
356,3110.25,0.6407201
357,3131.81,0.6397974
358,3153.5099999999998,0.6492467
359,3168.07,0.6526241
360,3190.0299999999997,0.6353851
361,3212.14,0.6552746
362,3226.9700000000003,0.6422187
363,3249.34,0.6684388
364,3271.8599999999997,0.6861791
365,3286.96,0.6897512
366,3309.75,0.6935501
367,3311.31121,0.6942490865361491
368,3325.02,0.7003868
369,3332.6899999999996,0.7022263
370,3340.37,0.6738919
371,3348.07,0.722307
372,3355.79,0.6915915
373,3363.53,0.6652527
374,3371.2799999999997,0.6639468
375,3379.05,0.7067205
376,3386.8399999999997,0.7085621
377,3394.65,0.717007
378,3402.4700000000003,0.7390089
379,3410.32,0.6946614
380,3418.1800000000003,0.7077936
381,3426.0600000000004,0.724496
382,3433.9599999999996,0.7467228
383,3441.8700000000003,0.7265705
384,3449.81,0.7168144
385,3457.7599999999998,0.7088324
386,3465.73,0.6960851
387,3473.7200000000003,0.7341711
388,3481.73,0.7094443
389,3489.75,0.739663
390,3497.7999999999997,0.7197346
391,3505.86,0.7316388
392,3513.94,0.7201567
393,3522.04,0.749107
394,3530.16,0.7255724
395,3538.2999999999997,0.7530248
396,3546.46,0.7637329
397,3554.6299999999997,0.7710321
398,3562.8300000000004,0.764155
399,3571.04,0.7333663
400,3579.27,0.7185453
401,3587.52,0.6927471
402,3594.1299999999997,1.006421
403,3596.7599999999998,0.6083163
404,3599.3999999999996,0.5367104
405,3602.0400000000004,0.8951174
406,3604.6699999999996,1.472646
407,3607.3100000000004,0.7357841
408,3609.9500000000003,0.3711089
409,3612.59,-0.283355
410,3615.2200000000003,0.1529967
411,3617.86,1.081637
412,3620.5,0.5395123
413,3623.13,0.3604249
414,3625.77,0.1861882
415,3628.4100000000003,1.12387
416,3631.04,0.9123989
417,3633.6800000000003,1.023971
418,3636.32,0.4633776
419,3638.96,1.236785
420,3641.59,1.178085
421,3644.23,0.2686317
422,3646.87,0.8857112
423,3649.5,0.07822425
424,3652.14,0.2066639
425,3654.78,1.303477
426,3657.42,0.9661459
427,3660.05,0.5090676
428,3662.69,1.152052
429,3665.33,-0.1638809
430,3667.96,0.8255126
431,3670.6,0.2585957
432,3673.24,0.4846094
433,3675.88,0.554217
434,3678.5099999999998,0.8918953
435,3681.15,0.490177
436,3683.79,0.4121595
437,3686.42,0.7695338
438,3689.06,0.5795971
439,3691.7,0.617875
440,3694.3399999999997,1.53572
441,3696.97,0.1227306
442,3699.6099999999997,0.8852131
443,3702.2500000000005,0.494361
444,3704.8799999999997,0.7012689
445,3707.5200000000004,0.8075042
446,3710.1600000000003,0.3053131
447,3712.8,1.275946
448,3715.4300000000003,0.7550585
449,3718.07,1.012566
450,3720.71,0.3282225
451,3723.34,0.4460246
452,3725.98,1.467383
453,3728.6200000000003,1.588936
454,3731.25,3.082398
455,3733.8900000000003,2.131679
456,3736.53,1.343446
457,3739.17,0.9097838
458,3741.8,0.9958668
459,3744.44,1.407488
460,3747.08,0.8498513
461,3749.71,0.986269
462,3752.35,0.7796303
463,3754.9900000000002,0.3734472
464,3757.63,1.884492
465,3760.26,1.194057
466,3762.9,1.453254
467,3765.54,1.056027
468,3768.17,0.7007699
469,3770.81,0.3019388
470,3773.45,0.9302873
471,3776.0899999999997,0.79153
472,3778.72,0.9781669
473,3781.36,0.8062367
474,3784.0,1.080522
475,3786.63,1.61862
476,3789.27,0.5059572
477,3791.91,0.8232063
478,3794.5499999999997,0.8624436
479,3797.18,0.802936
480,3799.8199999999997,0.3126043
481,3801.8939600000003,0.6901715461274047
482,3802.4599999999996,0.7932199
483,3805.0899999999997,0.6291263
484,3807.7299999999996,0.8321533
485,3810.3700000000003,1.034412
486,3813.01,1.110392
487,3815.6400000000003,1.803026
488,3818.28,1.176086
489,3820.92,1.024966
490,3823.55,0.8367232
491,3826.19,0.48987
492,3828.83,0.8265079
493,3831.46,1.27507
494,3834.1,0.8220944
495,3836.7400000000002,0.6387233
496,3839.38,0.3381205
497,3842.01,0.7184692
498,3844.65,0.5003899
499,3847.29,1.098222
500,3849.92,1.522059
501,3852.56,0.8748478
502,3855.2,1.304476
503,3857.84,0.9017976
504,3860.47,1.286395
505,3863.11,1.458206
506,3865.75,1.223271
507,3868.38,1.03883
508,3871.02,1.253337
509,3873.66,1.289464
510,3876.2999999999997,1.517291
511,3878.93,1.229994
512,3881.5699999999997,1.291077
513,3884.21,0.6069323
514,3886.8399999999997,0.7941827
515,3889.48,0.6618372
516,3892.12,0.3514167
517,3894.7599999999998,0.954666
518,3897.39,1.239362
519,3900.0299999999997,0.806083
520,3902.6699999999996,1.276293
521,3905.2999999999997,1.130899
522,3907.9399999999996,1.562792
523,3910.5800000000004,1.1767
524,3913.2200000000003,1.721931
525,3915.8500000000004,1.088012
526,3918.4900000000002,0.9807375
527,3921.13,1.040784
528,3923.76,1.426879
529,3926.4,1.519868
530,3929.04,1.300252
531,3931.6800000000003,1.058522
532,3934.31,0.9836953
533,3936.9500000000003,0.9326681
534,3939.59,1.148479
535,3942.2200000000003,1.109206
536,3944.86,1.040748
537,3947.5,1.125828
538,3950.13,1.189259
539,3952.77,1.125408
540,3955.41,1.104174
541,3958.05,1.561752
542,3960.68,1.285128
543,3963.32,1.340068
544,3965.96,1.297718
545,3968.59,0.7658096
546,3971.23,0.8577623
547,3973.87,0.5913449
548,3976.5099999999998,0.5284163
549,3979.14,0.8456305
550,3981.7799999999997,1.069966
551,3984.42,1.264353
552,3987.0499999999997,1.351666
553,3989.69,1.272073
554,3992.33,1.24174
555,3994.97,1.144102
556,3997.6,1.228304
557,4000.24,1.157926
558,4002.8799999999997,1.179617
559,4005.5099999999998,1.284092
560,4008.1499999999996,1.29964
561,4010.79,1.008457
562,4013.43,1.249762
563,4016.0600000000004,1.26808
564,4018.7000000000003,1.58744
565,4021.3399999999997,1.682041
566,4023.9700000000003,1.738409
567,4026.61,1.87221
568,4029.25,1.547893
569,4031.8900000000003,1.369897
570,4034.52,1.443772
571,4037.1600000000003,1.735795
572,4039.8,1.47383
573,4042.4300000000003,1.48328
574,4045.07,1.735566
575,4047.71,1.698321
576,4050.34,1.663196
577,4052.98,1.283553
578,4055.62,1.417469
579,4058.26,1.552269
580,4060.89,1.71591
581,4063.53,1.706616
582,4066.17,1.455095
583,4068.8,1.572394
584,4071.44,1.834662
585,4074.08,1.632783
586,4076.72,1.524548
587,4079.35,1.328244
588,4081.99,1.374584
589,4084.63,1.319065
590,4087.2599999999998,1.340647
591,4089.9,1.440623
592,4092.54,1.259747
593,4095.18,1.699049
594,4097.81,1.092696
595,4100.45,1.410713
596,4103.09,1.359071
597,4105.72,1.010917
598,4108.36,0.7852741
599,4111.0,1.076338
600,4113.64,1.044316
601,4116.27,1.084096
602,4118.91,1.055222
603,4121.55,1.232371
604,4124.18,1.18442
605,4126.82,1.161613
606,4129.46,1.343522
607,4132.1,1.65931
608,4134.73,1.53538
609,4137.37,1.273338
610,4140.01,1.577763
611,4142.64,1.330356
612,4145.28,1.219472
613,4147.92,1.302056
614,4150.55,1.779876
615,4153.19,1.485007
616,4155.83,1.5884
617,4158.47,1.417736
618,4161.099999999999,1.54521
619,4163.74,1.772346
620,4166.38,1.246346
621,4169.01,1.114851
622,4171.65,1.134622
623,4174.29,1.207991
624,4176.929999999999,1.968383
625,4179.5599999999995,1.697327
626,4182.2,2.709046
627,4184.84,1.456208
628,4187.47,1.882464
629,4190.110000000001,1.719479
630,4192.75,1.533957
631,4195.39,1.569738
632,4198.02,1.391594
633,4200.66,1.671562
634,4203.3,1.633089
635,4205.93,1.573084
636,4208.57,1.375391
637,4211.21,1.556456
638,4213.85,1.445149
639,4216.4800000000005,1.534267
640,4219.12,1.447494
641,4221.76,1.860996
642,4224.39,1.821417
643,4227.03,1.857352
644,4229.67,1.7452
645,4232.31,1.435359
646,4234.94,1.306321
647,4237.58,1.349589
648,4240.22,1.597459
649,4242.85,1.358538
650,4245.49,1.920394
651,4248.13,1.644761
652,4250.76,1.168718
653,4253.4,1.519062
654,4256.04,1.488345
655,4258.68,1.652247
656,4261.3099999999995,1.525168
657,4263.95,1.924426
658,4266.59,1.309044
659,4269.22,1.240937
660,4271.86,1.564713
661,4274.5,1.74044
662,4277.139999999999,1.063628
663,4279.7699999999995,1.477597
664,4282.41,1.609479
665,4285.05,1.434746
666,4287.679999999999,1.619272
667,4290.320000000001,1.699514
668,4292.96,1.263432
669,4295.6,1.314149
670,4298.2300000000005,1.265316
671,4300.87,1.961744
672,4303.51,1.58932
673,4306.14,1.473759
674,4308.78,1.325249
675,4311.42,1.325439
676,4314.06,1.195934
677,4316.6900000000005,1.336883
678,4319.33,1.638696
679,4321.97,1.601913
680,4324.6,1.636857
681,4327.24,1.214136
682,4329.88,1.278214
683,4332.52,1.187257
684,4335.15,1.256485
685,4337.79,1.200966
686,4340.43,1.073419
687,4343.06,1.169754
688,4345.7,0.9592758
689,4348.34,1.122027
690,4350.97,1.250228
691,4353.61,1.161652
692,4356.25,1.38829
693,4358.89,1.704885
694,4361.5199999999995,1.688112
695,4364.16,1.557186
696,4365.15832,1.5830723619696858
697,4366.8,1.625641
698,4369.43,1.32525
699,4372.07,1.528162
700,4374.71,1.840649
701,4377.349999999999,1.6003
702,4379.98,1.365256
703,4382.62,1.258557
704,4385.26,1.315533
705,4387.889999999999,1.572816
706,4390.530000000001,1.593432
707,4393.17,1.433902
708,4395.81,1.238321
709,4398.4400000000005,1.444194
710,4401.08,1.649639
711,4403.72,1.636352
712,4406.35,1.533615
713,4408.99,1.366867
714,4411.63,1.412516
715,4414.27,1.587169
716,4416.900000000001,1.762404
717,4419.54,1.756413
718,4422.18,1.544629
719,4424.81,1.473106
720,4427.45,1.46435
721,4430.09,1.440659
722,4432.73,1.315262
723,4435.36,1.368174
724,4438.0,1.485696
725,4440.64,1.495753
726,4443.27,1.484509
727,4445.91,1.614778
728,4448.55,1.581565
729,4451.19,1.766852
730,4453.82,1.811856
731,4456.46,1.5578
732,4459.099999999999,1.473446
733,4461.73,1.768817
734,4464.37,1.448186
735,4467.01,1.571813
736,4469.639999999999,1.482359
737,4472.28,1.808093
738,4474.92,1.762555
739,4477.5599999999995,1.509767
740,4480.19,1.447458
741,4482.83,1.44711
742,4485.469999999999,1.601184
743,4488.099999999999,1.649719
744,4490.74,1.651291
745,4493.38,1.628406
746,4496.02,1.717248
747,4498.650000000001,1.876358
748,4501.29,1.714141
749,4503.93,1.587938
750,4506.56,1.696214
751,4509.2,1.830821
752,4511.84,1.585443
753,4514.4800000000005,1.417544
754,4517.11,1.582336
755,4519.75,1.785131
756,4522.39,1.755796
757,4525.02,1.543751
758,4527.66,1.623148
759,4530.3,1.716597
760,4532.94,1.569507
761,4535.57,1.526357
762,4538.21,1.782712
763,4540.85,1.72151
764,4543.48,1.39171
765,4546.12,1.507389
766,4548.76,1.676168
767,4551.4,1.603102
768,4554.03,1.663463
769,4556.67,1.828056
770,4559.3099999999995,1.785129
771,4561.94,1.915866
772,4564.58,1.924694
773,4567.22,1.693752
774,4569.849999999999,1.666382
775,4572.49,1.730345
776,4575.13,1.777299
777,4577.7699999999995,1.646488
778,4580.4,1.800223
779,4583.04,1.894248
780,4585.679999999999,1.746505
781,4588.3099999999995,1.708193
782,4590.95,1.938671
783,4593.59,1.73852
784,4596.2300000000005,1.82383
785,4598.860000000001,1.825755
786,4601.5,1.655321
787,4604.14,1.691448
788,4606.77,1.703164
789,4609.41,1.704774
790,4612.05,1.816383
791,4614.6900000000005,1.745237
792,4617.32,1.693794
793,4619.96,1.655782
794,4622.6,1.828898
795,4625.2300000000005,1.807864
796,4627.87,1.715063
797,4630.51,1.754761
