,lambda (Angstroms),Total Flux (erg/s/cm^2/Angstrom)
0,100.09,288.71886884068476
1,101.94999999999999,287.9156551361078
2,104.08000000000001,286.995845893635
3,104.712855,286.7225567491661
4,106.02000000000001,283.7574710990516
5,107.99,279.28878650038274
6,109.99,274.7520508696367
7,114.12,265.3836917910465
8,118.13000000000001,256.2875368539781
9,120.22644299999999,251.53203310796
10,120.88,250.28910609512943
11,125.13,242.20650598595466
12,126.87,238.8973944173816
13,128.05,236.65328427379433
14,131.03,230.9859552668972
15,131.94,229.25532800592407
16,134.07999999999998,225.18550114165797
17,136.89,219.84147624958877
18,138.038426,217.65741318493505
19,140.07999999999998,214.88216458699816
20,143.01,210.89922019258032
21,147.02,205.44816165248108
22,151.14000000000001,199.8475699401117
23,155.01,194.58682026979008
24,158.489319,189.85714958561866
25,158.99,189.34259665628096
26,161.95000000000002,186.30058661061986
27,166.1,182.03560658198163
28,169.97000000000003,178.05838428168792
29,173.13,174.81083340974135
30,177.16,170.6691784564336
31,180.04,167.70938557185156
32,181.970086,165.7258248481264
33,182.13,165.60044566468218
34,185.94,162.61324856752367
35,191.15,158.52839378765992
36,193.81,156.44284486951997
37,197.87,153.2596378617148
38,202.01,150.01370802976788
39,204.82,147.81055316245596
40,208.929613,144.5884465606432
41,210.07000000000002,143.91624157481525
42,215.96,140.44436648529583
43,219.97,138.08066116690296
44,223.03,136.276935168221
45,227.17999999999998,133.83070708436193
46,229.81,132.28048189664622
47,234.08,129.76358365500607
48,239.88329199999998,126.34286316886896
49,240.09,126.24897033819738
50,246.25,123.4508604294842
51,251.98000000000002,120.84810276843001
52,257.26,118.44969299683301
53,260.24,117.09610408261686
54,263.86,115.4517828238617
55,268.76,113.2260253699285
56,273.76,110.95484298080477
57,275.42287,110.19950682606724
58,278.85,109.00478961424412
59,284.03000000000003,107.1990127707653
60,289.98,105.12479279635994
61,296.05,103.00876164460757
62,300.86,101.3319631645987
63,307.87,98.88824107882817
64,316.227766,95.97468092339221
65,317.96,95.52365360731054
66,328.38,92.81055523921422
67,338.34999999999997,90.21462182734304
68,347.83000000000004,87.746270956308
69,356.76,85.42112709592588
70,363.078055,83.7760707451852
71,365.90999999999997,83.2238643282973
72,375.29,81.39483027499884
73,384.91999999999996,79.51703138032727
74,394.79,77.59246943599753
75,404.92,75.6171975235798
76,414.35,73.77840978350672
77,416.86938299999997,73.28714467622332
78,422.06,72.51421096765898
79,429.9,71.34676184554979
80,440.93,69.70430228484045
81,451.2,68.17500190508913
82,459.59,66.92564770979718
83,470.3,65.33082956855962
84,478.630092,64.09040713456037
85,480.14,63.917486131563614
86,490.2,62.7653517421179
87,500.46,61.5903391817973
88,506.26,60.92608397852621
89,512.12,60.25504378825264
90,520.44,59.30219798327823
91,530.12,58.19359527491476
92,539.97,57.06550274762764
93,549.5408739999999,55.96944175761836
94,550.01,55.92845855819099
95,560.24,55.03475926816423
96,570.65,54.12533114376751
97,579.9200000000001,53.31543618091394
98,589.35,52.49165073366484
99,600.3,51.5350036808582
100,610.06,50.682334047530816
101,619.9699999999999,49.81666741449513
102,630.0400000000001,48.936939252963896
103,630.957344,48.856795951130664
104,640.28,48.21113425207513
105,650.6800000000001,47.49093325391023
106,658.22,46.96878410829819
107,664.3100000000001,46.54704889003461
108,675.1,45.799753580089785
109,684.5,45.14870852872729
110,695.62,44.37883548506868
111,705.29,43.70905497475853
112,716.76,42.91487944146408
113,724.43596,42.38330199164436
114,726.73,42.26537935675444
115,735.14,41.83308384325365
116,745.37,41.307367512239026
117,755.74,40.77437368687719
118,764.49,40.32462800567602
119,775.12,39.77835565895506
120,784.0999999999999,39.316861408397756
121,795.01,38.756091123982344
122,804.21,38.28324287773654
123,815.4,37.708068497626705
124,824.84,37.2230458993571
125,831.763771,36.866657013124154
126,834.39,36.76557093672553
127,844.05,36.39512661583279
128,855.8000000000001,35.94370118767547
129,865.7099999999999,35.563157480545335
130,875.73,35.178408833190744
131,885.87,34.78914175668221
132,894.07,34.47429091149583
133,904.42,34.076501633467885
134,914.89,33.677190502285995
135,925.49,33.321744211020665
136,934.0500000000001,33.06484121137244
137,944.87,32.77440533765821
138,954.992586,32.50073560603208
139,955.81,32.479314871723865
140,964.65,32.159317310617155
141,975.82,31.398775872906533
142,984.85,31.284612370531693
143,993.96,30.998323003938697
144,1005.47,30.7912853108009
145,1014.78,30.443628658662504
146,1024.1699999999998,29.77846981230596
147,1036.03,29.436656719463702
148,1045.61,29.499428361839016
149,1055.29,29.124557961441628
150,1065.05,28.54477876682608
151,1074.91,28.318875829437836
152,1084.85,27.754700697831428
153,1094.89,27.622218223452315
154,1096.4782,27.557663719014673
155,1105.02,27.268678781601047
156,1115.25,26.905278997322135
157,1125.57,26.50444784749238
158,1135.98,26.417880532111784
159,1143.85,26.085693711166034
160,1154.44,25.832102764683754
161,1165.1200000000001,25.527556052650638
162,1175.9,24.891047745561032
163,1184.05,24.91964849845711
164,1195.01,24.26612566026582
165,1206.06,23.750717556523696
166,1214.4199999999998,23.43731548980115
167,1225.6599999999999,23.380495025451683
168,1234.16,23.469552345650044
169,1245.58,23.215675950198904
170,1254.21,22.88108178682383
171,1258.92541,22.670951600389916
172,1265.82,22.42464826850226
173,1274.59,22.533586061347453
174,1286.38,22.345532602013908
175,1295.3,21.825992796903204
176,1304.28,21.61563971261014
177,1316.35,21.642780350425593
178,1325.47,21.385812114707026
179,1334.66,21.015258853275704
180,1343.91,21.067410712662024
181,1356.3500000000001,20.753232228852923
182,1365.75,20.39392729028335
183,1375.22,20.256848626001023
184,1384.7499999999998,20.058920082536343
185,1394.3500000000001,19.705239713358893
186,1404.01,19.529710464999102
187,1413.74,19.32627779092655
188,1423.5400000000002,19.16060459114124
189,1433.4099999999999,18.928213565643198
190,1443.35,18.779920414432386
191,1445.43977,18.751929929248004
192,1446.6699999999998,18.743604932682093
193,1453.35,18.598492184842765
194,1463.43,18.344902605468437
195,1473.57,18.193336368478796
196,1483.7800000000002,18.066371297604604
197,1494.0700000000002,17.934628116576647
198,1504.4299999999998,17.709156401664156
199,1511.37,17.476122770825086
200,1518.35,17.445225134909137
201,1525.3500000000001,17.299687046454746
202,1535.93,17.006050253619396
203,1546.57,16.948355503168724
204,1553.71,16.788273346945243
205,1564.48,16.631442304994707
206,1575.3300000000002,16.5214462528904
207,1586.2499999999998,16.410651666901554
208,1593.57,16.316127737832105
209,1604.61,16.134715236612607
210,1615.74,15.973760148970127
211,1623.1899999999998,15.797881028400814
212,1634.45,15.692521449258463
213,1645.78,15.534830936231574
214,1653.3700000000001,15.33642864789317
215,1659.58691,15.290935348661279
216,1664.83,15.27663077991071
217,1672.5200000000002,15.065578613850917
218,1676.3700000000001,15.154493039685748
219,1684.1100000000001,15.133292262273166
220,1695.78,14.935265252530936
221,1703.6100000000001,14.809044334683321
222,1715.42,14.621898373153272
223,1723.34,14.534842214870629
224,1735.28,14.472135083823314
225,1743.2900000000002,14.364710685105639
226,1755.38,14.308097819999938
227,1763.48,14.126746180847238
228,1775.7,14.019720546224269
229,1783.8999999999999,13.95080058436598
230,1796.27,13.895230515684633
231,1804.56,13.799612313391307
232,1817.0700000000002,13.574490492922132
233,1825.45,13.507482150193782
234,1833.8799999999999,13.374749996112637
235,1846.59,13.161670130232286
236,1855.1100000000001,13.066650735716106
237,1863.68,13.003568829847136
238,1876.6,12.95114733628505
239,1885.26,12.778384189981047
240,1893.96,12.65207981459481
241,1905.46072,12.57256733907194
242,1907.09,12.565973163439757
243,1915.89,12.459642395592695
244,1924.73,12.379643754709967
245,1933.6200000000001,12.33528082253265
246,1947.0199999999998,12.265266455583719
247,1956.01,12.137895440817227
248,1965.0400000000002,12.154687753015072
249,1974.1100000000001,12.110161692177249
250,1983.22,11.983170758303757
251,1996.97,11.847593552292722
252,2006.1799999999998,11.80558493583006
253,2015.44,11.69299712807281
254,2024.7499999999998,11.668213329020977
255,2034.0900000000001,11.54053227519239
256,2043.48,11.507472430069217
257,2052.91,11.39375651191038
258,2067.14,11.279726329471325
259,2071.91,11.30712451996786
260,2076.69,11.22189119220548
261,2086.27,11.182544300162883
262,2095.9,11.056195016825699
263,2105.58,10.983288742193935
264,2115.29,10.915438912785412
265,2125.06,10.85072507382339
266,2134.87,10.706412561825701
267,2144.72,10.653663776792344
268,2154.62,10.610264400464398
269,2164.56,10.503953451100786
270,2174.56,10.41649239218367
271,2184.5899999999997,10.320605878489806
272,2187.7616199999998,10.307891667011527
273,2194.68,10.297750533004319
274,2204.81,10.21994120298562
275,2214.98,10.123296216678597
276,2225.21,10.040889595939081
277,2235.48,10.041855718911242
278,2245.8,9.949965396522993
279,2256.1600000000003,9.858297917846418
280,2266.58,9.823988304737354
281,2277.04,9.788592335339963
282,2287.5499999999997,9.753563120582163
283,2292.82,9.682957379595138
284,2303.41,9.623600152260687
285,2314.04,9.527258868637908
286,2324.7200000000003,9.30881683965472
287,2335.45,9.360100065311125
288,2346.23,9.28604784560712
289,2357.06,9.280220080542708
290,2362.49,9.193286314402382
291,2373.4,9.154417436761314
292,2384.35,9.050156002831923
293,2395.36,9.035060734470042
294,2406.42,8.947309320747753
295,2417.52,8.905726650737135
296,2423.1,8.914011948515583
297,2434.28,8.828118065928313
298,2445.52,8.807109448908554
299,2456.8,8.736189975600468
300,2462.47,8.701978671730181
301,2473.83,8.616538985845441
302,2485.25,8.574169065528213
303,2496.7200000000003,8.478319599850575
304,2502.4800000000005,8.514010894331554
305,2511.88643,8.402904522669086
306,2514.0299999999997,8.380491618493933
307,2519.83,8.37631510312158
308,2525.6400000000003,8.324736757377897
309,2537.29,8.287123074776538
310,2543.14,8.25060150754753
311,2554.88,8.247769951604184
312,2566.6699999999996,8.183177043804184
313,2572.59,8.197434963975853
314,2584.47,8.141038982833866
315,2596.39,8.084640580206552
316,2602.38,8.037955087778899
317,2614.39,7.981705611809601
318,2626.46,7.961630653612312
319,2632.51,7.95606917895667
320,2644.67,7.960933347417396
321,2656.87,7.9258664943928
322,2663.0,7.832623876766503
323,2675.29,7.8153456503999195
324,2687.64,7.760844341805344
325,2693.83,7.709175141951059
326,2706.27,7.6774011600145
327,2712.51,7.620770908303556
328,2725.0299999999997,7.569880583396348
329,2737.6,7.550576006632475
330,2743.92,7.438724911950878
331,2756.58,7.399136461845023
332,2762.94,7.394482045678101
333,2775.69,7.371792622230261
334,2782.0899999999997,7.316163184578013
335,2794.93,7.156677387788188
336,2807.83,7.139069408770374
337,2814.3,7.212410958518802
338,2827.29,7.191238506159002
339,2833.81,7.138984104050774
340,2846.8900000000003,7.073148178348989
341,2853.4500000000003,7.027388054755432
342,2866.62,7.030062955711666
343,2873.23,7.001204780261452
344,2884.0315,6.955172899011474
345,2886.49,6.947557846583772
346,2893.15,6.921033363977229
347,2913.2000000000003,6.916831296220299
348,2926.65,6.854074379695077
349,2946.94,6.786474686438813
350,2967.36,6.740211141870407
351,2987.93,6.6826803688649195
352,3008.6400000000003,6.6330218559848175
353,3029.5,6.571908314667633
354,3050.5,6.5104106334758365
355,3071.64,6.451287012409427
356,3092.93,6.395882562905935
357,3107.21,6.350425595695511
358,3128.75,6.282004432130211
359,3150.44,6.222693340127826
360,3172.27,6.158935808250829
361,3186.9199999999996,6.0877046642289345
362,3209.0099999999998,6.045465729727658
363,3231.25,5.956078466789298
364,3253.65,5.92193868685138
365,3268.67,5.896090766018009
366,3291.3199999999997,5.827301772018287
367,3306.52,5.7847846570604124
368,3311.31121,5.769271608772096
369,3321.7799999999997,5.743922101485841
370,3329.44,5.74779621878195
371,3337.1099999999997,5.720293511296463
372,3344.8,5.690351054247779
373,3352.51,5.669828447635901
374,3360.24,5.666411991460827
375,3367.9900000000002,5.648375985722557
376,3375.75,5.59073065520269
377,3383.53,5.582720575119626
378,3391.3399999999997,5.610041720691771
379,3399.15,5.606788366263913
380,3406.99,5.560397437491265
381,3414.84,5.5566743839370165
382,3422.71,5.564138080819574
383,3430.6,5.537492128138935
384,3438.51,5.5272496258951005
385,3446.44,5.450365174088071
386,3454.38,5.476827397499443
387,3462.3500000000004,5.423725346566023
388,3470.33,5.433316070851005
389,3478.33,5.382142545572791
390,3486.35,5.389914270731382
391,3494.39,5.370132846326776
392,3502.44,5.3747801971405735
393,3510.51,5.345773898391174
394,3518.6099999999997,5.324581525296985
395,3526.72,5.304677027421195
396,3534.85,5.3143741799822095
397,3543.0,5.321106782980029
398,3544.8,5.33198022229243
399,3547.4,4.954842279077011
400,3550.0,5.457391935861591
401,3552.6000000000004,5.248661392646171
402,3555.1899999999996,5.3040172742123515
403,3557.79,5.17778913099693
404,3560.39,5.461210387781511
405,3562.99,5.138897944566092
406,3565.59,5.0231179013506715
407,3568.19,5.241522658135252
408,3570.78,4.839998639701431
409,3573.38,5.151208896486011
410,3575.9800000000005,4.72924038327059
411,3578.58,4.951457610055172
412,3581.18,5.036241466839752
413,3583.7799999999997,5.552841323624334
414,3586.37,5.260031605190512
415,3588.9700000000003,5.163650861975092
416,3591.57,5.146580618759671
417,3594.17,5.3486116755442525
418,3596.7700000000004,5.107828532328832
419,3599.37,5.392417589113413
420,3601.97,5.214716945897995
421,3604.56,5.330797427464173
422,3607.16,5.384419084248753
423,3609.76,4.774066141033332
424,3612.36,4.876211797817914
425,3614.96,5.0485762546024935
426,3617.5600000000004,4.880099211387074
427,3620.1499999999996,5.1291042929532535
428,3622.75,5.500419349737834
429,3625.35,4.852657806522413
430,3627.95,5.226059263306995
431,3630.55,5.141698420091575
432,3633.15,5.1284748768761546
433,3635.7400000000002,4.974481058442333
434,3638.3399999999997,5.201456015226915
435,3640.9399999999996,4.859597672011494
436,3643.54,4.920697028796074
437,3646.14,5.169610085580656
438,3648.74,4.722086942365236
439,3651.33,4.9476921239314136
440,3653.9300000000003,5.141501780715993
441,3656.53,4.847248937500575
442,3659.13,5.037796094285154
443,3661.7300000000005,5.009833051069734
444,3664.33,5.022255407854316
445,3666.92,4.891953089420494
446,3669.52,5.072477146205074
447,3672.12,5.017880102989656
448,3674.7200000000003,5.1190448597742355
449,3677.32,5.236840716558815
450,3679.92,5.155658773343397
451,3682.5200000000004,5.0730508301279755
452,3685.1099999999997,5.332553511694155
453,3687.71,5.056566468478735
454,3690.31,5.008271425263317
455,3692.91,4.721656682047897
456,3695.51,4.844071338832476
457,3698.11,5.012964495617057
458,3700.7000000000003,4.877236877183235
459,3703.2999999999997,5.200014433967817
460,3705.8999999999996,5.287510790752397
461,3708.5,4.955710647536978
462,3711.1,5.080552704321558
463,3713.7,5.297851161106138
464,3716.29,5.223996942672317
465,3718.8900000000003,5.077360399456896
466,3721.4900000000002,5.289783256241477
467,3724.0899999999997,5.728408613026058
468,3726.6899999999996,6.136637169810639
469,3729.29,6.188031726595219
470,3731.88,5.676381108161397
471,3734.48,5.444396664945977
472,3737.08,5.130263521730558
473,3739.6800000000003,5.2176206785151376
474,3742.28,5.002295735299718
475,3744.8799999999997,4.9843837920843
476,3747.47,4.853441973650478
477,3750.0699999999997,4.944270530435058
478,3752.67,5.004688187219638
479,3755.27,5.126198444004219
480,3757.87,5.1949835007887994
481,3760.4700000000003,5.174247357573379
482,3763.07,4.94734131435796
483,3765.6600000000003,4.821581695924138
484,3768.2599999999998,4.914663752708719
485,3770.8599999999997,5.1715970094933
486,3773.46,4.68642136627788
487,3776.06,5.084216223062461
488,3778.66,5.041082579847041
489,3781.25,5.092015261413218
490,3783.8500000000004,5.0391432181977995
491,3786.4500000000003,5.1862509749823795
492,3789.0499999999997,5.205788831766961
493,3791.6499999999996,5.230265288551542
494,3794.25,5.134754245336122
495,3796.84,4.800348426902299
496,3799.44,5.0065671836868795
497,3801.8939600000003,4.77444347994188
498,3802.04,4.7607133102180805
499,3804.6400000000003,4.836857509081632
500,3807.2400000000002,5.078619107945186
501,3809.8399999999997,5.25942690680874
502,3812.43,5.014557780676664
503,3815.0299999999997,4.942452179540217
504,3817.63,5.108374978403769
505,3820.23,4.893675277267322
506,3822.83,4.811741376130875
507,3825.4300000000003,5.122087274994427
508,3828.02,5.082623348862351
509,3830.6200000000003,4.916892247725904
510,3833.22,4.775959146589457
511,3835.8199999999997,4.93857784545301
512,3838.42,4.683611244316563
513,3841.02,4.862464743180116
514,3843.61,5.19381561704804
515,3846.21,5.331010115911592
516,3848.81,5.130708814775145
517,3851.4100000000003,5.042257113638698
518,3854.0099999999998,5.372127612502252
519,3856.6099999999997,5.146925111365804
520,3859.21,4.954484310229357
521,3861.8,4.94548648409728
522,3864.4,5.048041682960834
523,3867.0,5.094324081824387
524,3869.6000000000004,5.006985380687939
525,3872.2000000000003,5.057232879551492
526,3874.7999999999997,5.312467678415047
527,3877.39,5.093335652282969
528,3879.99,4.937620851146522
529,3882.59,4.919631650010075
530,3885.19,4.699506648873628
531,3887.79,4.551318847737181
532,3890.3900000000003,4.995111846600733
533,3892.9799999999996,4.845119520468659
534,3895.58,4.713326119332209
535,3898.18,4.971351118195763
536,3900.7799999999997,5.080792817059316
537,3903.38,4.997975015922869
538,3905.98,4.973934114786422
539,3908.57,4.968205788654346
540,3911.17,4.856173887517898
541,3913.7699999999995,5.051310986381453
542,3916.3700000000003,5.022053285245004
543,3918.97,5.053519384108557
544,3921.5699999999997,5.250255882972111
545,3924.17,4.934280381835663
546,3926.76,4.876731155703586
547,3929.36,4.97135655456714
548,3931.96,4.646163853430693
549,3934.56,4.750631852294246
550,3937.1600000000003,4.805191851157798
551,3939.7599999999998,4.9922597500213515
552,3942.35,4.859518223889276
553,3944.95,4.811688622752828
554,3947.55,4.9633518216163806
555,3950.15,5.001913420479933
556,3952.75,4.660110519343487
557,3955.3500000000004,4.9255911182070395
558,3957.9399999999996,4.908038092074964
559,3960.54,4.664478390938516
560,3963.14,4.612329289802069
561,3965.74,4.604175788665622
562,3968.34,4.601739987529174
563,3970.94,4.619872586392727
564,3973.53,4.653951360260652
565,3976.13,4.631023659124204
566,3978.7299999999996,4.651347357987758
567,3981.33,4.667692056851311
568,3983.93,4.887035355714864
569,3986.5299999999997,5.286950654578417
570,3989.12,4.89128012844634
571,3991.7200000000003,4.997939727309893
572,3994.32,4.918182326173446
573,3996.92,5.293892725036999
574,3999.5199999999995,5.0291102239005525
575,4002.1200000000003,4.855797922764104
576,4004.72,4.919956921627658
577,4007.31,4.819351295495581
578,4009.91,5.085925294359134
579,4012.51,4.989682793222686
580,4015.11,5.07206529208624
581,4017.71,4.894788090949793
582,4020.3100000000004,4.852662189813345
583,4022.8999999999996,5.09358786368127
584,4025.5,4.891338462544823
585,4028.1,4.941793861408375
586,4030.7,4.927422360271929
587,4033.3,4.944767859135481
588,4035.9,4.828980557999034
589,4038.4900000000002,4.813096731866957
590,4041.09,4.692509030730511
591,4043.6899999999996,4.770579829594063
592,4046.29,4.664251728457617
593,4048.89,4.58463432732117
594,4051.49,4.763285726184723
595,4054.08,4.997255000052646
596,4056.68,5.048337498916199
597,4059.28,4.890952997779752
598,4061.88,4.869972496643304
599,4064.4799999999996,4.927453995506858
600,4067.08,4.826899294370411
601,4069.67,4.973295068238334
602,4072.27,4.892981567101887
603,4074.87,4.63786836596544
604,4077.4700000000003,4.6799078648289925
605,4080.07,4.858559063692546
606,4082.67,4.878479562556098
607,4085.26,4.766466536424023
