,lambda (Angstroms),Total Flux (erg/s/cm^2/Angstrom)
0,102.05000000000001,19.200435573726804
1,103.94,19.14599898341046
2,104.712855,19.123738882347528
3,106.12,18.910844955075692
4,108.08999999999999,18.612793910779963
5,110.10000000000001,18.30869106863051
6,113.96999999999998,17.723179626283063
7,117.97999999999999,17.116486891447586
8,120.22644299999999,16.776611418299957
9,121.0,16.67848963545437
10,124.97,16.174915266795082
11,127.0,15.91742006065444
12,127.88000000000001,15.805796523017115
13,130.86,15.427798634199817
14,132.07,15.2743162699485
15,133.9,15.04219004963452
16,137.02,14.646433870738557
17,138.038426,14.51725169694103
18,139.89,14.349375626709456
19,143.15,14.053802244843583
20,147.16,13.690228851812256
21,150.94,13.347508795538332
22,155.17,12.963988732565143
23,158.489319,12.66303709381619
24,159.14999999999998,12.617750269514087
25,162.1,12.415540531847645
26,165.88,12.156437884939486
27,170.14000000000001,11.864433314614438
28,172.9,11.675247254967264
29,176.93,11.399008189612918
30,179.79999999999998,11.202282105849463
31,181.88,11.059707104376319
32,181.970086,11.053532098807711
33,186.12,10.836517305345854
34,190.9,10.586552917470259
35,194.0,10.424442121986262
36,198.06,10.212129273707513
37,202.21,9.995109982979681
38,205.01999999999998,9.848164390945197
39,208.929613,9.643715851119692
40,209.79000000000002,9.609889536659672
41,216.17000000000002,9.359058356908408
42,220.19,9.201011124527787
43,223.25,9.08070651480596
44,226.88,8.93799222288439
45,230.04,8.81375608999509
46,233.76999999999998,8.66711027493915
47,239.76999999999998,8.431218883423046
48,239.88329199999998,8.42676478216781
49,245.92,8.243872660884076
50,252.23,8.052700703436347
51,256.92,7.910609343546516
52,259.89000000000004,7.820628247992539
53,264.12,7.692473354255673
54,269.03,7.543716728201629
55,274.03000000000003,7.3922334023173635
56,275.42287,7.350034086304092
57,279.12,7.264070862515431
58,284.31,7.143396412002096
59,290.27,7.004818430291886
60,295.65999999999997,6.879493712211173
61,301.16,6.751611346660623
62,308.17,6.588619459390049
63,316.227766,6.4012656098869325
64,318.27000000000004,6.365799212479232
65,327.93999999999994,6.197865439084708
66,337.91,6.024721724918203
67,348.17,5.846541734893218
68,357.09999999999997,5.691459152159903
69,363.078055,5.58764143632598
70,366.26,5.546258188086238
71,374.8,5.43518997753496
72,385.3,5.29863070138255
73,395.17999999999995,5.170134930611061
74,405.32,5.038257692913497
75,413.8,4.927969826946468
76,416.86938299999997,4.888050522213241
77,422.46999999999997,4.832425646232598
78,430.32,4.754460082616487
79,441.36,4.644811702228026
80,450.6,4.553040777943093
81,460.04,4.459283468001292
82,469.67,4.363639099982699
83,478.630092,4.274648208538939
84,479.51,4.267926982527402
85,489.55,4.1912358812275
86,499.79999999999995,4.112940697963982
87,505.59,4.068713491726609
88,511.44,4.024028220357102
89,519.75,3.960551885668547
90,529.41,3.8867635284220534
91,540.5,3.8020519808196753
92,549.5408739999999,3.73299310778988
93,550.55,3.727112904179904
94,559.49,3.6750193274814227
95,569.89,3.614418247764415
96,580.49,3.552651475701157
97,589.9200000000001,3.497703009638012
98,599.51,3.4418218580464677
99,610.65,3.376909280074235
100,620.58,3.3190476860219644
101,630.66,3.2603118832447575
102,630.957344,3.258579264496237
103,639.43,3.2194417529655013
104,649.8199999999999,3.1714484158234466
105,657.35,3.1366659541630066
106,664.96,3.1015139610686417
107,675.76,3.05162611028359
108,685.16,3.0082050904097484
109,694.7,2.9641418728067856
110,704.36,2.9195194311674335
111,715.8000000000001,2.8666801003949707
112,724.43596,2.8267902196984394
113,725.76,2.8222506142769634
114,734.17,2.7934166336837514
115,744.38,2.7584143268696018
116,754.74,2.722896288222874
117,765.2299999999999,2.686933024901246
118,775.88,2.650423431838201
119,784.86,2.6196407034611915
120,795.78,2.582204397379506
121,805.0,2.550598053700372
122,814.32,2.5186488695828526
123,825.65,2.4798143782487867
124,831.763771,2.4588424949002063
125,835.21,2.4500050482755436
126,844.8799999999999,2.425252874654337
127,854.66,2.4001980459833527
128,864.5600000000001,2.3748427209035237
129,874.5699999999999,2.3492075763739177
130,884.6999999999999,2.3232699385354656
131,894.94,2.2970467417472378
132,905.3,2.270506055750163
133,915.79,2.243774850885172
134,924.26,2.2246245049524287
135,934.9599999999999,2.2011669327469563
136,945.79,2.180583640173567
137,954.54,2.1650053634868485
138,954.992586,2.164014119202643
139,965.59,2.141390596637582
140,974.53,2.0981381742913965
141,985.8100000000001,2.089502931800906
142,994.9399999999999,2.0688508235883023
143,1004.14,2.0587413790038602
144,1015.77,2.02921962465418
145,1025.17,1.9836721275787712
146,1034.65,1.9724591575069765
147,1044.23,1.9776053011896995
148,1053.8899999999999,1.9546067418760358
149,1066.09,1.9136274099271016
150,1075.96,1.9003717014979224
151,1085.9099999999999,1.864724260072358
152,1095.96,1.8577940424013093
153,1096.4782,1.8564784564126802
154,1106.1,1.8364242098502315
155,1113.77,1.8205231508587973
156,1124.0700000000002,1.7946964310267546
157,1134.47,1.7925133559536244
158,1144.97,1.7658104656394062
159,1155.5700000000002,1.7515027100840999
160,1166.26,1.7351949208118154
161,1174.34,1.6935575093319217
162,1185.21,1.6988215126256785
163,1196.18,1.6490145506783478
164,1204.47,1.6150205371921698
165,1215.6100000000001,1.5750598593349894
166,1224.04,1.5953812845112891
167,1235.3600000000001,1.6118514292201507
168,1243.93,1.609239913058927
169,1255.4399999999998,1.5836265288097224
170,1258.92541,1.5706629164994614
171,1264.1399999999999,1.5543417735743152
172,1275.84,1.5723721729083366
173,1284.68,1.5703398346273745
174,1293.58,1.5291663768558181
175,1305.55,1.513093288482163
176,1314.6,1.5352624819841199
177,1323.7199999999998,1.518951319413716
178,1335.96,1.4866995433323846
179,1345.22,1.5040557686172593
180,1354.55,1.488791337829774
181,1363.9399999999998,1.4608220875516937
182,1376.56,1.454183621363262
183,1386.1000000000001,1.4462601223586944
184,1395.71,1.4139530672817668
185,1405.3799999999999,1.4100366927142443
186,1415.12,1.4025618620743612
187,1424.93,1.3965233753621176
188,1434.81,1.3846341325775133
189,1441.4299999999998,1.3883550154485582
190,1445.43977,1.3855873930491527
191,1448.09,1.3849295734972193
192,1454.77,1.3762170468968984
193,1464.8600000000001,1.35404429144821
194,1475.01,1.3467986369582017
195,1485.2299999999998,1.3436938669199863
196,1495.53,1.3407776648266772
197,1505.9,1.3235092471851608
198,1512.8500000000001,1.296782574898899
199,1516.33,1.3082189305023249
200,1523.33,1.2978845756816293
201,1533.8899999999999,1.265794244409266
202,1544.52,1.2766894975886953
203,1555.23,1.2577750187130312
204,1566.01,1.25293112428916
205,1573.24,1.2623574898100705
206,1584.14,1.2647792973035585
207,1595.1299999999999,1.263066356235067
208,1606.18,1.2501626161252546
209,1613.6000000000001,1.2474559680153172
210,1624.7800000000002,1.2269146133159778
211,1636.04,1.234019826561545
212,1643.5900000000001,1.2344057638620805
213,1654.99,1.2062701460112333
214,1659.58691,1.21251098901878
215,1666.4599999999998,1.223945882481898
216,1670.3000000000002,1.195011177346889
217,1678.01,1.2212539006305039
218,1685.76,1.231135301985629
219,1693.54,1.212021336894387
220,1705.2800000000002,1.1967782008826664
221,1713.1499999999999,1.1820944364523225
222,1725.02,1.175985679173011
223,1736.98,1.1886014225545976
224,1744.9999999999998,1.1802816258924174
225,1753.05,1.1972140627838699
226,1765.2,1.1664742520051303
227,1773.35,1.1731286340753586
228,1785.64,1.1732009465469053
229,1793.8899999999999,1.1910246737959094
230,1806.32,1.1836305095177424
231,1814.6599999999999,1.1580219374276448
232,1823.03,1.1620651988911799
233,1835.67,1.1451109694884418
234,1844.1399999999999,1.1178098761307527
235,1856.93,1.1139925144961784
236,1865.5,1.1202355663172652
237,1874.11,1.1427131962098622
238,1887.1,1.1118805249328396
239,1895.81,1.0964517000042124
240,1904.56,1.1118390531470956
241,1905.46072,1.1104377758077815
242,1913.3500000000001,1.099672475869918
243,1926.61,1.0912649852395195
244,1935.51,1.0984385295373666
245,1944.44,1.112353342860937
246,1953.4199999999998,1.0905538378940458
247,1966.96,1.1176783248370628
248,1976.04,1.1256757832892486
249,1985.16,1.103980867109065
250,1994.32,1.0934405762965123
251,2003.52,1.1018722108515904
252,2012.7700000000002,1.0895059271162069
253,2026.73,1.1017027804193469
254,2036.0800000000002,1.0822715601030404
255,2045.48,1.0953714214962722
256,2054.92,1.0783064082571352
257,2064.4,1.0793455203856286
258,2073.93,1.1021656142236607
259,2078.71,1.082380045655538
260,2083.51,1.0952570897712306
261,2093.12,1.0730589343445245
262,2102.79,1.075128216969264
263,2117.36,1.0747469071287734
264,2127.13,1.0798758531725898
265,2136.95,1.050960280925945
266,2146.82,1.0584119903888385
267,2156.73,1.070990425219363
268,2166.68,1.057254685417518
269,2176.68,1.0520081273252115
270,2186.73,1.0439353509424434
271,2187.7616199999998,1.0457460688706655
272,2196.8199999999997,1.0631818633272534
273,2206.96,1.0517890075948833
274,2217.15,1.0331633139151148
275,2227.38,1.0204738298774279
276,2232.52,1.0480182688848854
277,2242.82,1.0300848517208407
278,2253.17,1.016314396609398
279,2263.57,1.0240296035505567
280,2274.02,1.0349863725443174
281,2284.52,1.0444307035906797
282,2295.06,1.0210752442791236
283,2305.66,1.0213797994306892
284,2316.3,1.0043223642243364
285,2326.99,0.9221837910705855
286,2332.36,0.9803468355200106
287,2343.12,0.9677788292399021
288,2353.94,0.9953840374229154
289,2364.8,0.9648875552480101
290,2375.7200000000003,0.9757544875362268
291,2386.68,0.9477199294665253
292,2397.7000000000003,0.9711465858599455
293,2403.23,0.9563589688776963
294,2414.32,0.963637392144759
295,2425.46,0.9829148774644234
296,2436.66,0.96550047724721
297,2442.28,0.9881938319596438
298,2453.5499999999997,0.9803973986160729
299,2464.87,0.9775734273251037
300,2476.25,0.9627835704972563
301,2487.68,0.9749311757220107
302,2493.42,0.9511619593606887
303,2504.9300000000003,0.9921521838696059
304,2510.7000000000003,0.950176524739845
305,2511.88643,0.9524306691383775
306,2516.4900000000002,0.9615934870726539
307,2522.29,0.9433211990888443
308,2533.93,0.9463112501006469
309,2545.6299999999997,0.9394942415815826
310,2557.38,0.9648758167867955
311,2563.2700000000004,0.9582150395066851
312,2575.1000000000004,0.9807715686707423
313,2586.9900000000002,0.9778593383039323
314,2592.95,0.9742124582378108
315,2604.92,0.9594908818298448
316,2616.9500000000003,0.9543897458910118
317,2622.9799999999996,0.9723391630388788
318,2635.09,0.9804996810588897
319,2647.25,1.0149534828031785
320,2653.35,1.0207890971650337
321,2665.6000000000004,0.9832635096130216
322,2677.8999999999996,1.0014376057852874
323,2684.08,1.0011460741059865
324,2696.46,0.9815215242370962
325,2702.6800000000003,0.9930059195372175
326,2715.16,0.9734649371168822
327,2727.69,0.9727266384208242
328,2733.9799999999996,0.9962892309349343
329,2746.6000000000004,0.9387024429425755
330,2752.9300000000003,0.9471267624361075
331,2765.63,0.961164528402593
332,2772.0099999999998,0.9821678316204024
333,2784.81,0.9623105650354431
334,2797.6600000000003,0.8751798821747611
335,2804.11,0.9041499826065589
336,2817.0499999999997,0.9810136104495766
337,2823.55,0.9970687946056518
338,2836.5800000000004,0.9775000331523689
339,2843.12,0.9685149442878663
340,2856.24,0.956833593538283
341,2862.8199999999997,0.9914145316532025
342,2876.0400000000004,0.9856142483521738
343,2882.67,0.9892009701913709
344,2884.0315,0.9884715424647544
345,2895.98,0.9829978771469099
346,2909.34,1.0194767682651809
347,2929.51,1.0052669868920914
348,2949.81,0.9992548374685061
349,2970.26,1.0081819864481947
350,2990.85,1.0103655006042727
351,3011.58,1.0182453799367395
352,3032.46,1.0191453576724803
353,3053.48,1.0186000005846103
354,3067.57,1.0221154172654814
355,3088.84,1.0259730908497346
356,3110.25,1.0239742296103769
357,3131.81,1.0190267667742932
358,3153.5099999999998,1.0244251691145987
359,3168.07,1.0250845474590617
360,3190.0299999999997,1.0037461136983754
361,3212.14,1.019508178340963
362,3226.9700000000003,1.003683853811319
363,3249.34,1.025727982352915
364,3271.8599999999997,1.0392643092977851
365,3286.96,1.0400175818940345
366,3309.75,1.0395621059647975
367,3311.31121,1.0399696500154494
368,3325.02,1.0442946945954952
369,3332.6899999999996,1.0451200153470872
370,3340.37,1.01577011383108
371,3348.07,1.063167067779875
372,3355.79,1.031430777193472
373,3363.53,1.0040685420718714
374,3371.2799999999997,1.0017378846826714
375,3379.05,1.0434841827582737
376,3386.8399999999997,1.044295736298678
377,3394.65,1.0517079453038842
378,3402.4700000000003,1.0726758320414918
379,3410.32,1.0272903519763021
380,3418.1800000000003,1.0393832496435138
381,3426.0600000000004,1.0550437027755273
382,3433.9599999999996,1.0762259113723431
383,3441.8700000000003,1.0550276977015596
384,3449.81,1.0442217172279795
385,3457.7599999999998,1.0351885144868003
386,3465.73,1.0213873672104232
387,3473.7200000000003,1.0584168753988479
388,3481.73,1.0326309390520751
389,3489.75,1.061789180437703
390,3497.7999999999997,1.0407963550205344
391,3505.86,1.0516348073357664
392,3513.94,1.0390843151158007
393,3522.04,1.066963578360637
394,3530.16,1.0423552970702754
395,3538.2999999999997,1.068731371244716
396,3546.46,1.0783605008839583
397,3554.6299999999997,1.084579408255602
398,3562.8300000000004,1.0766180488244483
399,3571.04,1.044743767125696
400,3579.27,1.0288345408917459
401,3587.52,1.0019454701225976
402,3594.1299999999997,1.31474535123968
403,3596.7599999999998,0.9162928948611517
404,3599.3999999999996,0.8443379162150242
405,3602.0400000000004,1.2023958375688966
406,3604.6699999999996,1.7795766811903682
407,3607.3100000000004,1.0423657025442408
408,3609.9500000000003,0.6773414238981135
409,3612.59,0.02252844525198594
410,3615.2200000000003,0.4585323888734575
411,3617.86,1.3868236102273301
412,3620.5,0.8443498315812026
413,3623.13,0.6649146752026742
414,3625.77,0.49032889655654677
415,3628.4100000000003,1.4276616179104193
416,3631.04,1.215842761531891
417,3633.6800000000003,1.3270657828857635
418,3636.32,0.766123304239636
419,3638.96,1.5391816255935087
420,3641.59,1.4801338692149801
421,3644.23,0.5703314905688527
422,3646.87,1.1870619119227253
423,3649.5,0.37922720554419687
424,3652.14,0.5073177768980695
425,3654.78,1.603781798251942
426,3657.42,1.2661016196058146
427,3660.05,0.808675563227286
428,3662.69,1.4513108845811586
429,3665.33,0.1350289059350312
430,3667.96,1.1240746495565028
431,3670.6,0.5568086709103753
432,3673.24,0.782473292264248
433,3675.88,0.8517318136181204
434,3678.5099999999998,1.189062357239592
435,3681.15,0.7869949785934645
436,3683.79,0.7086283999473372
437,3686.42,1.0656549435688087
438,3689.06,0.8753691649226814
439,3691.7,0.9132979862765538
440,3694.3399999999997,1.8307939076304265
441,3696.97,0.41745675125189796
442,3699.6099999999997,1.1795901726057705
443,3702.2500000000005,0.788388993959643
444,3704.8799999999997,0.9949491375811146
445,3707.5200000000004,1.100835358934987
446,3710.1600000000003,0.5982951802888598
447,3712.8,1.5685790016427323
448,3715.4300000000003,1.0473437452642038
449,3718.07,1.3045021666180765
450,3720.71,0.619809587971949
451,3723.34,0.7372639315934205
452,3725.98,1.7582732529472933
453,3728.6200000000003,1.8794771743011656
454,3731.25,3.3725914179226373
455,3733.8900000000003,2.42152333927651
456,3736.53,1.6329412606303824
457,3739.17,1.198929981984255
458,3741.8,1.2846652256057265
459,3744.44,1.695937346959599
460,3747.08,1.1379515683134716
461,3749.71,1.2740215119349432
462,3752.35,1.0670337332888158
463,3754.9900000000002,0.6605015546426883
464,3757.63,2.171197275996561
465,3760.26,1.4804145196180323
466,3762.9,1.739262440971905
467,3765.54,1.3416863623257778
468,3768.17,0.9860815059472491
469,3770.81,0.5869013273011218
470,3773.45,1.2149007486549943
471,3776.0899999999997,1.0757943700088668
472,3778.72,1.2620835136303383
473,3781.36,1.089804234984211
474,3784.0,1.3637404563380835
475,3786.63,1.901490699959555
476,3789.27,0.7884788213134277
477,3791.91,1.1053788426673001
478,3794.5499999999997,1.144267064021173
479,3797.18,1.0844117076426443
480,3799.8199999999997,0.5937309289965169
481,3801.8939600000003,0.971023942112966
482,3802.4599999999996,1.0740191578141776
483,3805.0899999999997,0.9096786611447905
484,3807.7299999999996,1.1124578257047975
485,3810.3700000000003,1.3144686902648044
486,3813.01,1.3902008548248113
487,3815.6400000000003,2.082587958155424
488,3818.28,1.4554001227154312
489,3820.92,1.3040322872754382
490,3823.55,1.1155425906060512
491,3826.19,0.768441555166058
492,3828.83,1.104831619726065
493,3831.46,1.5531468230566778
494,3834.1,1.099923387616685
495,3836.7400000000002,0.9163044521766919
496,3839.38,0.6154538167366987
497,3842.01,0.9955556200673117
498,3844.65,0.7772284846273187
499,3847.29,1.3748127491873257
500,3849.92,1.7984028525179387
501,3852.56,1.1509438170779456
502,3855.2,1.5803241816379525
503,3857.84,1.1773979461979593
504,3860.47,1.5617484495285723
505,3863.11,1.7333116140885791
506,3865.75,1.4981287786485864
507,3868.38,1.3134408819791992
508,3871.02,1.527700046539206
509,3873.66,1.563579211099213
510,3876.2999999999997,1.79115837565922
511,3878.93,1.5036144789898331
512,3881.5699999999997,1.56444964354984
513,3884.21,0.8800571081098469
514,3886.8399999999997,1.06706061144046
515,3889.48,0.9344672760004669
516,3892.12,0.6237989405604738
517,3894.7599999999998,1.2268004051204808
518,3897.39,1.5112495084510937
519,3900.0299999999997,1.0777226730111007
520,3902.6699999999996,1.5476848375711074
521,3905.2999999999997,1.4020439409017207
522,3907.9399999999996,1.8336891054617275
523,3910.5800000000004,1.4473492700217345
524,3913.2200000000003,1.9923324345817415
525,3915.8500000000004,1.3581665379123544
526,3918.4900000000002,1.2506442024723614
527,3921.13,1.3104428670323682
528,3923.76,1.6962909703629812
529,3926.4,1.789032134922988
530,3929.04,1.5691682994829952
531,3931.6800000000003,1.3271904640430021
532,3934.31,1.2521168673736152
533,3936.9500000000003,1.2008418319336218
534,3939.59,1.4164048964936289
535,3942.2200000000003,1.3768849998242418
536,3944.86,1.3081791643842489
537,3947.5,1.3930113289442558
538,3950.13,1.456195432274869
539,3952.77,1.3920965968348757
540,3955.41,1.3706147613948827
541,3958.05,1.8279449259548897
542,3960.68,1.5510740292855025
543,3963.32,1.6057661938455094
544,3965.96,1.5631683584055163
545,3968.59,1.0310130617361293
546,3971.23,1.1227179262961364
547,3973.87,0.8560526908561432
548,3976.5099999999998,0.7928762554161501
549,3979.14,1.1098435587467632
550,3981.7799999999997,1.3339312233067702
551,3984.42,1.5280703878667772
552,3987.0499999999997,1.61513649119739
553,3989.69,1.535295655757397
554,3992.33,1.5047148203174041
555,3994.97,1.406828984877411
556,3997.6,1.4907840882080239
557,4000.24,1.4201582527680308
558,4002.8799999999997,1.4416014173280378
559,4005.5099999999998,1.5458295206586508
560,4008.1499999999996,1.5611296852186576
561,4010.79,1.2696988497786645
562,4013.43,1.5107560143386716
563,4016.0600000000004,1.5288271176692845
564,4018.7000000000003,1.8479392822292913
565,4021.3399999999997,1.9422924467892984
566,4023.9700000000003,1.9984135501199114
567,4026.61,2.131966714679918
568,4029.25,1.8074018792399251
569,4031.8900000000003,1.629158043799932
570,4034.52,1.7027861471305452
571,4037.1600000000003,1.994561311690552
572,4039.8,1.732348476250559
573,4042.4300000000003,1.7415515795811718
574,4045.07,1.993589744141179
575,4047.71,1.956096908701186
576,4050.34,1.9207250120317987
577,4052.98,1.5408341765918059
578,4055.62,1.674502341151813
579,4058.26,1.8090545057118197
580,4060.89,1.9724486090424327
581,4063.53,1.9629067736024395
582,4066.17,1.7111379381624465
583,4068.8,1.8281900414930596
584,4071.44,2.0902102060530665
585,4074.08,1.8880833706130735
586,4076.72,1.7796005351730804
587,4079.35,1.5830496385036934
588,4081.99,1.6291418030637002
589,4084.63,1.5733749676237072
590,4087.2599999999998,1.59471007095432
591,4089.9,1.694438235514327
592,4092.54,1.513314400074334
