,lambda (Angstroms),Total Flux (erg/s/cm^2/Angstrom)
0,100.09,252.6290102359168
1,101.94999999999999,251.92619824455963
2,104.08000000000001,251.12136515754838
3,104.712855,250.88223715620833
4,106.02000000000001,248.28778721250336
5,107.99,244.3776881889823
6,109.99,240.4080445127011
7,114.12,232.2107303200808
8,118.13000000000001,224.25159475171452
9,120.22644299999999,220.09052898484342
10,120.88,219.0029678520131
11,125.13,211.93069276422278
12,126.87,209.03522014558123
13,128.05,207.07162377263717
14,131.03,202.11271089838135
15,131.94,200.59841205375173
16,134.07999999999998,197.03731355319448
17,136.89,192.36129179291126
18,138.038426,190.4502366160242
19,140.07999999999998,188.02189410115798
20,143.01,184.53681793164753
21,147.02,179.76714218399835
22,151.14000000000001,174.866624562625
23,155.01,170.2634687593312
24,158.489319,166.12500707666715
25,158.99,165.67477328738235
26,161.95000000000002,163.01301464841862
27,166.1,159.28115736903518
28,169.97000000000003,155.80108809033567
29,173.13,152.95948128770118
30,177.16,149.33553348607938
31,180.04,146.74571494314887
32,181.970086,145.01009946150037
33,182.13,144.90039268854815
34,185.94,142.2865955687182
35,191.15,138.7123481069337
36,193.81,136.88749313621997
37,197.87,134.1021874165917
38,202.01,131.26199929229315
39,204.82,129.33423915891646
40,208.929613,126.51489617942109
41,210.07000000000002,125.9267168992621
42,215.96,122.88882729571387
43,219.97,120.82058578016385
44,223.03,119.24232592529714
45,227.17999999999998,117.10187708876919
46,229.81,115.74543489394046
47,234.08,113.54315770919281
48,239.88329199999998,110.55003391216482
49,240.09,110.46787792142271
50,246.25,108.01953161143618
51,251.98000000000002,105.74212223296377
52,257.26,103.64350983170388
53,260.24,102.45912473635225
54,263.86,101.02034637165399
55,268.76,99.07280996216242
56,273.76,97.08552659797918
57,275.42287,96.4246078775622
58,278.85,95.3792311724761
59,284.03000000000003,93.79917784251964
60,289.98,91.98423487688996
61,296.05,90.13270985005664
62,300.86,88.66551177546137
63,307.87,86.52725722439965
64,316.227766,83.97789481157328
65,317.96,83.58324647440922
66,328.38,81.20928759919995
67,338.34999999999997,78.93784754088766
68,347.83000000000004,76.77804200503199
69,356.76,74.74354264287264
70,363.078055,73.30411987838266
71,365.90999999999997,72.82093995496014
72,375.29,71.22053622771148
73,384.91999999999996,69.57746121788637
74,394.79,67.89347297484784
75,404.92,66.16511206486983
76,414.35,64.55617336260589
77,416.86938299999997,64.12631628908947
78,422.06,63.449999078501605
79,429.9,62.42848122894358
80,440.93,60.99133058867291
81,451.2,59.6531927304905
82,459.59,58.56000733324753
83,470.3,57.16454173397718
84,478.630092,56.07917298952232
85,480.14,55.92786727236816
86,490.2,54.919748131253165
87,500.46,53.89161394547264
88,506.26,53.31038940227294
89,512.12,52.72323880993357
90,520.44,51.88949905526846
91,530.12,50.91947165543792
92,539.97,49.932388093961684
93,549.5408739999999,48.97334020493173
94,550.01,48.93748017390462
95,560.24,48.15549929798121
96,570.65,47.359755307584074
97,579.9200000000001,46.6510949193872
98,589.35,45.930291353369235
99,600.3,45.093225594250924
100,610.06,44.347141661964464
101,619.9699999999999,43.58969882988324
102,630.0400000000001,42.81994177588091
103,630.957344,42.74981648156158
104,640.28,42.18486345815324
105,650.6800000000001,41.554697984921454
106,658.22,41.097824594885914
107,664.3100000000001,40.72881210228028
108,675.1,40.07492864945356
109,684.5,39.505261861011384
110,695.62,38.8316575709351
111,705.29,38.24559278428872
112,716.76,37.550716046281075
113,724.43596,37.085591393381115
114,726.73,36.98241076616013
115,735.14,36.60415976997194
116,745.37,36.144183678209146
117,755.74,35.67782976301754
118,764.49,35.28431351421652
119,775.12,34.806351895085676
120,784.0999999999999,34.402565107723035
121,795.01,33.91190489273455
122,804.21,33.49817787826947
123,815.4,32.99491290942337
124,824.84,32.57055383593747
125,831.763771,32.25865863123578
126,834.39,32.17018747938484
127,844.05,31.846144356228695
128,855.8000000000001,31.45115930834104
129,865.7099999999999,31.118217658102168
130,875.73,30.781599445666906
131,885.87,30.44103921647194
132,894.07,30.16557655155885
133,904.42,29.817502842534406
134,914.89,29.46848369275025
135,925.49,29.163953829643084
136,934.0500000000001,28.948168247450884
137,944.87,28.709705557950933
138,954.992586,28.4846590265931
139,955.81,28.467079875258378
140,964.65,28.18862747179001
141,975.82,27.48058144254322
142,984.85,27.408856036715235
143,993.96,27.16538074094636
144,1005.47,27.012436346950793
145,1014.78,26.708533701329692
146,1024.1699999999998,26.087504835767714
147,1036.03,25.801429929530737
148,1045.61,25.90922449160914
149,1055.29,25.579846978761424
150,1065.05,25.045936645972823
151,1074.91,24.866372538258105
152,1084.85,24.348912210602503
153,1094.89,24.263614508020776
154,1096.4782,24.20652403292264
155,1105.02,23.950406821400918
156,1115.25,23.626370735156872
157,1125.57,23.265249591555833
158,1135.98,23.218738590597813
159,1143.85,22.91683449727028
160,1154.44,22.703992481598288
161,1165.1200000000001,22.440541008569312
162,1175.9,21.845512727365904
163,1184.05,21.905473611149972
164,1195.01,21.294123415232594
165,1206.06,20.821234261958235
166,1214.4199999999998,20.540000378576007
167,1225.6599999999999,20.526429959770226
168,1234.16,20.64819416494379
169,1245.58,20.43826043142404
170,1254.21,20.13687337597085
171,1258.92541,19.944887468652343
172,1265.82,19.717496559939477
173,1274.59,19.85049117867902
174,1286.38,19.694778651762167
175,1295.3,19.199707134790305
176,1304.28,19.013986923533874
177,1316.35,19.074236556622395
178,1325.47,18.84228522536865
179,1334.66,18.496940884116242
180,1343.91,18.57446624857927
181,1356.3500000000001,18.294411700246307
182,1365.75,17.960891728997932
183,1375.22,17.849790047750897
184,1384.7499999999998,17.6780030722193
185,1394.3500000000001,17.350656286689034
186,1404.01,17.201625206874215
187,1413.74,17.02488271706073
188,1423.5400000000002,16.886091717248586
189,1433.4099999999999,16.680774907437797
190,1443.35,16.559747987628338
191,1445.43977,16.5374899121417
192,1446.6699999999998,16.531520441096834
193,1453.35,16.39919791173742
194,1463.43,16.164908542284884
195,1473.57,16.032757397418948
196,1483.7800000000002,15.925341447904028
197,1494.0700000000002,15.813300564504567
198,1504.4299999999998,15.607665176456138
199,1511.37,15.387919586971952
200,1518.35,15.370386580545498
201,1525.3500000000001,15.238251415647902
202,1535.93,14.964872184416974
203,1546.57,14.927549877772636
204,1553.71,14.781138703577088
205,1564.48,14.644929016870368
206,1575.3300000000002,14.555707496279101
207,1586.2499999999998,14.46582147103886
208,1593.57,14.38531317060309
209,1604.61,14.225038994536034
210,1615.74,14.085394555348861
211,1623.1899999999998,13.923779974850714
212,1634.45,13.839979955601155
213,1645.78,13.703983031702627
214,1653.3700000000001,13.520113341906523
215,1659.58691,13.486523581173133
216,1664.83,13.47925014492187
217,1672.5200000000002,13.278510487119554
218,1676.3700000000001,13.372587872225031
219,1684.1100000000001,13.36176665448902
220,1695.78,13.17938944596457
221,1703.6100000000001,13.063668780347907
222,1715.42,12.892360364009114
223,1723.34,12.815925150511802
224,1735.28,12.7692298983454
225,1743.2900000000002,12.672547136967433
226,1755.38,12.632147304999945
227,1763.48,12.461657995741335
228,1775.7,12.371019727946237
229,1783.8999999999999,12.313096198820235
230,1796.27,12.274114651224053
231,1804.56,12.189613574217395
232,1817.0700000000002,11.981268018806865
233,1825.45,11.925497493919561
234,1833.8799999999999,11.804070209098558
235,1846.59,11.60803481395325
236,1855.1100000000001,11.524440981251592
237,1863.68,11.472851688616245
238,1876.6,11.437756281749419
239,1885.26,11.276606441233417
240,1893.96,11.16196901277046
241,1905.46072,11.097879329180865
242,1907.09,11.092886293009787
243,1915.89,10.99520353364361
244,1924.73,10.923892210371221
245,1933.6200000000001,10.888265732216068
246,1947.0199999999998,10.831419923635753
247,1956.01,10.712883635715075
248,1965.0400000000002,10.738549983888188
249,1974.1100000000001,10.702937268155093
250,1983.22,10.58489898851579
251,1996.97,10.462834295756132
252,2006.1799999999998,10.429876606351304
253,2015.44,10.326388862063709
254,2024.7499999999998,10.310754262893356
255,2034.0900000000001,10.192251890793342
256,2043.48,10.168419863810566
257,2052.91,10.063971072921582
258,2067.14,9.96392511328741
259,2071.91,9.996010917471878
260,2076.69,9.915475030679794
261,2086.27,9.885542675142522
262,2095.9,9.768657064722486
263,2105.58,9.705263599419691
264,2115.29,9.646956061187236
265,2125.06,9.591843477095468
266,2134.87,9.457171529097488
267,2144.72,9.4141026171933
268,2154.62,9.380432250406349
269,2164.56,9.283889619713188
270,2174.56,9.206255843160712
271,2184.5899999999997,9.12022609367858
272,2187.7616199999998,9.110628722729635
273,2194.68,9.105087366378779
274,2204.81,9.034013102612418
275,2214.98,8.94412977709377
276,2225.21,8.868524708946698
277,2235.48,8.876318979047337
278,2245.8,8.791290046957618
279,2256.1600000000003,8.706510553115614
280,2266.58,8.679128816645184
281,2277.04,8.650687318422468
282,2287.5499999999997,8.622645818009394
283,2292.82,8.555543907145747
284,2303.41,8.503227583228101
285,2314.04,8.41395379755817
286,2324.7200000000003,8.202612509697879
287,2335.45,8.261029719647235
288,2346.23,8.19414472740623
289,2357.06,8.19551743297487
290,2362.49,8.112193875102083
291,2373.4,8.08057865716615
292,2384.35,7.983597477477933
293,2395.36,7.975822355161287
294,2406.42,7.895424330654284
295,2417.52,7.861221644394995
296,2423.1,7.873216879951135
297,2434.28,7.794756170187274
298,2445.52,7.781220617794985
299,2456.8,7.71780080365041
300,2462.47,7.687359275263909
301,2473.83,7.609472437614762
302,2485.25,7.574695257337187
303,2496.7200000000003,7.486471774869254
304,2502.4800000000005,7.5259926825401084
305,2511.88643,7.421140301918902
306,2514.0299999999997,7.399789278682191
307,2519.83,7.398485965231384
308,2525.6400000000003,7.349785775205661
309,2537.29,7.317943265429472
310,2543.14,7.2843196691040895
311,2554.88,7.2873038701536625
312,2566.6699999999996,7.228551488328662
313,2572.59,7.245742055978871
314,2584.47,7.195231184979634
315,2596.39,7.144737707680733
316,2602.38,7.101019539306537
317,2614.39,7.050719572833401
318,2626.46,7.036623846910773
319,2632.51,7.034059419087086
320,2644.67,7.044947403990221
321,2656.87,7.015924182593698
322,2663.0,6.9257182421706895
323,2675.29,6.91452823159993
324,2687.64,6.866144861579676
325,2693.83,6.817542061707178
326,2706.27,6.791930602512688
327,2712.51,6.738391519765612
328,2725.0299999999997,6.6937033479718036
329,2737.6,6.680625693303417
330,2743.92,6.571905397957018
331,2756.58,6.538588454114396
332,2762.94,6.537084652468339
333,2775.69,6.520711319451478
334,2782.0899999999997,6.468252311505761
335,2794.93,6.315127189314665
336,2807.83,6.303909607674077
337,2814.3,6.380456263703953
338,2827.29,6.365718792889127
339,2833.81,6.316694266044427
340,2846.8900000000003,6.257337906055365
341,2853.4500000000003,6.214827472911004
342,2866.62,6.224026523747709
343,2873.23,6.198442807728771
344,2884.0315,6.157761769678026
345,2886.49,6.1510068407608
346,2893.15,6.1268124059800755
347,2913.2000000000003,6.1296249716927615
348,2926.65,6.071573632233193
349,2946.94,6.011072538133961
350,2967.36,5.971953074136606
351,2987.93,5.921618860256804
352,3008.6400000000003,5.879205886486716
353,3029.5,5.825390362834178
354,3050.5,5.771239679291358
355,3071.64,5.719512035858249
356,3092.93,5.671556042542693
357,3107.21,5.631095033733573
358,3128.75,5.570209790613935
359,3150.44,5.518487097611848
360,3172.27,5.462366944719476
361,3186.9199999999996,5.396261206200318
362,3209.0099999999998,5.361750613511701
363,3231.25,5.280144170940636
364,3253.65,5.253841188494958
365,3268.67,5.233248120265758
366,3291.3199999999997,5.172383388016001
367,3306.52,5.135184099927861
368,3311.31121,5.12134729014458
369,3321.7799999999997,5.098592051300111
370,3329.44,5.104364391434206
371,3337.1099999999997,5.0787623848844055
372,3344.8,5.050725584966807
373,3352.51,5.032113591681413
374,3360.24,5.030612705028224
375,3367.9900000000002,5.014497225007237
376,3375.75,4.958774898302353
377,3383.53,4.952692778229673
378,3391.3399999999997,4.9819493181053
379,3399.15,4.980631357980925
380,3406.99,4.936183257804856
381,3414.84,4.934405510944889
382,3422.71,4.943819470717127
383,3430.6,4.919128737121569
384,3438.51,4.910846410158214
385,3446.44,4.835927089827062
386,3454.38,4.864356922812013
387,3462.3500000000004,4.8132299157452705
388,3470.33,4.82479816199463
389,3478.33,4.775607114876193
390,3486.35,4.785366274389959
391,3494.39,4.767577240535929
392,3502.44,4.774219459998001
393,3510.51,4.747212986092278
394,3518.6099999999997,4.728027872134862
395,3526.72,4.710133111493546
396,3534.85,4.721844957484434
397,3543.0,4.7305972101075255
398,3544.8,4.741916707005877
399,3547.4,4.365423069192384
400,3550.0,4.868617031378893
401,3552.6000000000004,4.6605307935654
402,3555.1899999999996,4.716528502435808
403,3557.79,4.590944664622315
404,3560.39,4.875010226808823
405,3562.99,4.553342088995331
406,3565.59,4.438206351181838
407,3568.19,4.657255413368346
408,3570.78,4.256373222238753
409,3573.38,4.56822778442526
410,3575.9800000000005,4.146903576611766
411,3578.58,4.369765108798275
412,3581.18,4.4551932709847835
413,3583.7799999999997,4.972437433171293
414,3586.37,4.680269542041698
415,3588.9700000000003,4.584533104228205
416,3591.57,4.568107166414713
417,3594.17,4.770782528601221
418,3596.7700000000004,4.530643690787728
419,3599.37,4.815877052974237
420,3601.97,4.638820715160746
421,3604.56,4.755543024031152
422,3607.16,4.809808986217659
423,3609.76,4.200100348404166
424,3612.36,4.302890310590675
425,3614.96,4.475899072777183
426,3617.5600000000004,4.30806633496369
427,3620.1499999999996,4.5577132438340975
428,3622.75,4.929672606020604
429,3625.35,4.282555368207111
430,3627.95,4.656601130393621
431,3630.55,4.572884592580127
432,3633.15,4.560305354766635
433,3635.7400000000002,4.406953363637041
434,3638.3399999999997,4.634572625823551
435,3640.9399999999996,4.293358588010058
436,3643.54,4.355102250196565
437,3646.14,4.604659612383074
438,3648.74,4.157780774569582
439,3651.33,4.384027783439987
440,3653.9300000000003,4.578481745626495
441,3656.53,4.284873207813003
442,3659.13,4.47606466999951
443,3661.7300000000005,4.448745932186018
444,3664.33,4.461812594372526
445,3666.92,4.332152103242932
446,3669.52,4.513320465429441
447,3672.12,4.459367727615949
448,3674.7200000000003,4.561176789802456
449,3677.32,4.679616951988963
450,3679.92,4.599079314175472
451,3682.5200000000004,4.517115676361979
452,3685.1099999999997,4.777260185232387
453,3687.71,4.501917447418894
454,3690.31,4.4542667096054025
455,3692.91,4.16829627179191
456,3695.51,4.2913552339784165
457,3698.11,4.460892696164925
458,3700.7000000000003,4.325806905035331
459,3703.2999999999997,4.64922876722184
460,3705.8999999999996,4.737369429408348
461,3708.5,4.406213591594856
462,3711.1,4.531699953781364
463,3713.7,4.749642715967871
464,3716.29,4.676430324838277
465,3718.8900000000003,4.530438087024784
466,3721.4900000000002,4.743505249211292
467,3724.0899999999997,5.182774911397802
468,3726.6899999999996,5.591647773584309
469,3729.29,5.643686635770817
470,3731.88,5.132677844641222
471,3734.48,4.90133770682773
472,3737.08,4.5878488690142385
473,3739.6800000000003,4.675850331200746
474,3742.28,4.461169693387253
475,3744.8799999999997,4.443902055573762
476,3747.47,4.313602064444169
477,3750.0699999999997,4.405074926630676
478,3752.67,4.466136888817184
479,3755.27,4.588291451003692
480,3757.87,4.6577208131902
481,3760.4700000000003,4.637628975376707
482,3763.07,4.411367237563215
483,3765.6600000000003,4.286249446433621
484,3768.2599999999998,4.37997580862013
485,3770.8599999999997,4.637553370806637
486,3773.46,4.153022032993145
487,3776.06,4.5514611951796535
488,3778.66,4.508971857366161
489,3781.25,4.560546366236566
490,3783.8500000000004,4.5083186284230745
491,3786.4500000000003,4.656070690609583
492,3789.0499999999997,4.6762528527960905
493,3791.6499999999996,4.701373614982599
494,3794.25,4.606506877169107
495,3796.84,4.272742886039512
496,3799.44,4.47960594822602
497,3801.8939600000003,4.248090359744141
498,3802.04,4.234385883940821
499,3804.6400000000003,4.310987520446429
500,3807.2400000000002,4.553206556952038
501,3809.8399999999997,4.734471793457647
502,3812.43,4.490058345592081
503,3815.0299999999997,4.4184101820976895
504,3817.63,4.584790418603298
505,3820.23,4.370548155108907
506,3822.83,4.289071691614517
507,3825.4300000000003,4.599875028120124
508,3828.02,4.560866780254558
509,3830.6200000000003,4.395593116760166
510,3833.22,4.255117453265775
511,3835.8199999999997,4.418193589771384
512,3838.42,4.163684426276993
513,3841.02,4.3429953627826015
514,3843.61,4.674801914917035
515,3846.21,4.812453851422644
516,3848.81,4.612609987928252
517,3851.4100000000003,4.524615724433861
518,3854.0099999999998,4.854943660939471
519,3856.6099999999997,4.630198597445079
520,3859.21,4.438215233950687
521,3861.8,4.429673086085121
522,3864.4,4.532685722590729
523,3867.0,4.579425559096339
524,3869.6000000000004,4.492544295601947
525,3872.2000000000003,4.543249232107556
526,3874.7999999999997,4.798941468613165
527,3877.39,4.5802651207475975
528,3879.99,4.425007757253207
529,3882.59,4.4074759937588155
530,3885.19,4.1878084302644245
531,3887.79,4.040078066770033
532,3890.3900000000003,4.484328503275642
533,3892.9799999999996,4.334791855410076
534,3895.58,4.2034558919156835
535,3898.18,4.461938328421293
536,3900.7799999999997,4.571837464926902
537,3903.38,4.48947710143251
538,3905.98,4.4658936379381196
539,3908.57,4.460620990072552
540,3911.17,4.349046526578162
541,3913.7699999999995,4.5446410630837715
542,3916.3700000000003,4.515840799589379
543,3918.97,4.547764336094987
544,3921.5699999999997,4.744958272600597
545,3924.17,4.429440209106206
546,3926.76,4.3723466612406385
547,3929.36,4.467429497746248
548,3931.96,4.142694234251857
549,3934.56,4.247619670757466
550,3937.1600000000003,4.302637107263073
551,3939.7599999999998,4.490162443768683
552,3942.35,4.357876595903116
553,3944.95,4.310504432408725
554,3947.55,4.462625068914334
555,3950.15,4.501644105419942
556,3952.75,4.160298641925551
557,3955.3500000000004,4.4262366784311595
558,3957.9399999999996,4.409139330565594
559,3960.54,4.166037067071202
560,3963.14,4.114345403576811
561,3965.74,4.10664934008242
562,3968.34,4.104670976588028
563,3970.94,4.123261013093637
564,3973.53,4.15779546522807
565,3976.13,4.135325201733679
566,3978.7299999999996,4.156106338239288
567,3981.33,4.172908474744897
568,3983.93,4.392709211250506
569,3986.5299999999997,4.793081947756114
570,3989.12,4.397867099890548
571,3991.7200000000003,4.504984136396157
572,3994.32,4.425684172901766
573,3996.92,4.801852009407374
574,3999.5199999999995,4.537526945912983
575,4002.1200000000003,4.364672082418592
576,4004.72,4.429288518924201
577,4007.31,4.329138571058634
578,4009.91,4.596170007564242
579,4012.51,4.50038494406985
580,4015.11,4.58322488057546
581,4017.71,4.406405117081069
582,4020.3100000000004,4.364736653586677
583,4022.8999999999996,4.606118005721111
584,4025.5,4.40432604222672
585,4028.1,4.455238878732328
586,4030.7,4.441324815237937
587,4033.3,4.459127751743546
588,4035.9,4.343797888249155
589,4038.4900000000002,4.328369740383588
590,4041.09,4.208239476889197
591,4043.6899999999996,4.286767713394806
592,4046.29,4.180897049900415
593,4048.89,4.101737086406024
594,4051.49,4.280845922911633
595,4054.08,4.515270875046065
596,4056.68,4.566810811551674
597,4059.28,4.409883748057283
598,4061.88,4.389360684562892
599,4064.4799999999996,4.447299621068501
600,4067.08,4.347202357574109
601,4069.67,4.494053809708542
602,4072.27,4.4141977462141515
603,4074.87,4.159541982719761
604,4077.4700000000003,4.202038919225369
605,4080.07,4.381147555730978
606,4082.67,4.401525492236587
607,4085.26,4.28996814437102
