,lambda (Angstroms),Total Flux (erg/s/cm^2/Angstrom)
0,100.09,0.1401076093955378
1,101.94999999999999,0.16833393388366524
2,104.08000000000001,0.20065762792100428
3,104.712855,0.2102614832337623
4,106.02000000000001,0.19371029789789826
5,107.99,0.1687659848237691
6,109.99,0.14344181153440233
7,114.12,0.09114739259224067
8,118.13000000000001,0.04037242772452464
9,120.22644299999999,0.013827166758756972
10,120.88,0.013444278239706472
11,125.13,0.010954286964156732
12,126.87,0.009934860778115895
13,128.05,0.009243526395788198
14,131.03,0.00749761393151827
15,131.94,0.006964519379146916
16,134.07999999999998,0.005710749772896701
17,136.89,0.004064547420580756
18,138.038426,0.003391728004157845
19,140.07999999999998,0.0033495495025528555
20,143.01,0.003290325519570836
21,147.02,0.003211148370410461
22,151.14000000000001,0.0031269111517893285
23,155.01,0.0030480973430335556
24,158.489319,0.002977429660435124
25,158.99,0.0029617023914925867
26,161.95000000000002,0.002868801826009275
27,166.1,0.0027388245886931467
28,169.97000000000003,0.002617656565220032
29,173.13,0.002518871950420282
30,177.16,0.0023930047018940167
31,180.04,0.0023032883209372816
32,181.970086,0.0022431372002067367
33,182.13,0.0022448737901814425
34,185.94,0.002286575800151338
35,191.15,0.0023436446681154204
36,193.81,0.0023735206983043753
37,197.87,0.0024183566264875185
38,202.01,0.002464542673698901
39,204.82,0.0024962962708158045
40,208.929613,0.0025407189113859233
41,210.07000000000002,0.002612232368665714
42,215.96,0.0029869850430037756
43,219.97,0.003241236632663474
44,223.03,0.003434510805171873
45,227.17999999999998,0.003698251242201236
46,229.81,0.0039004124177885215
47,234.08,0.004235927342563314
48,239.88329199999998,0.004649521206173211
49,240.09,0.004640830357946952
50,246.25,0.004324433805964263
51,251.98000000000002,0.004059763771895949
52,257.26,0.0037587168844822184
53,260.24,0.003647832902191891
54,263.86,0.003484449800215051
55,268.76,0.0032445623588651857
56,273.76,0.0029984655738143026
57,275.42287,0.002916677324500538
58,278.85,0.0031107891367782086
59,284.03000000000003,0.0034051062009043407
60,289.98,0.0037263297164546257
61,296.05,0.004075862229629455
62,300.86,0.004343459867746576
63,307.87,0.004744701395646997
64,316.227766,0.005223182864318788
65,317.96,0.005158365932329633
66,328.38,0.004758883286726462
67,338.34999999999997,0.004373253367852798
68,347.83000000000004,0.004005629364751255
69,356.76,0.0036603339609857775
70,363.078055,0.0034197948053332865
71,365.90999999999997,0.003513788978625152
72,375.29,0.0038153533401330004
73,384.91999999999996,0.004108356116926234
74,394.79,0.004444337832393447
75,404.92,0.004776882439757464
76,414.35,0.005076015984322389
77,416.86938299999997,0.005153878469251472
78,422.06,0.005249437485708645
79,429.9,0.0053974349161704255
80,440.93,0.005615964579562447
81,451.2,0.005808240143572969
82,459.59,0.005961676603850308
83,470.3,0.006164600451713277
84,478.630092,0.006327807358078171
85,480.14,0.006291986809202116
86,490.2,0.006032370810318512
87,500.46,0.005794678836109192
88,506.26,0.0056422276516633766
89,512.12,0.005574817934619846
90,520.44,0.005372960781069986
91,530.12,0.005134845555305248
92,539.97,0.004871992070513647
93,549.5408739999999,0.004680616418902153
94,550.01,0.0046790120113766225
95,560.24,0.004645212818465888
96,570.65,0.004606898742395434
97,579.9200000000001,0.004514389459669871
98,589.35,0.004508568658580113
99,600.3,0.004424284633030501
100,610.06,0.00436219681281459
101,619.9699999999999,0.0044067088566322465
102,630.0400000000001,0.0043668652820857065
103,630.957344,0.004360286422800179
104,640.28,0.004468501504482479
105,650.6800000000001,0.004663826772215166
106,658.22,0.004802015648821363
107,664.3100000000001,0.004914259856849445
108,675.1,0.005030135473372106
109,684.5,0.005112530290361264
110,695.62,0.005509401686629289
111,705.29,0.005558934414319199
112,716.76,0.005897423213347459
113,724.43596,0.0060251044336159685
114,726.73,0.006052602855338027
115,735.14,0.006164815963953062
116,745.37,0.006433151205466952
117,755.74,0.006622218226434601
118,764.49,0.006765669942294479
119,775.12,0.0070443498393905355
120,784.0999999999999,0.007264889407210156
121,795.01,0.00744208386321373
122,804.21,0.0076201259416035436
123,815.4,0.00778967695651463
124,824.84,0.008133183228253744
125,831.763771,0.007736220618847087
126,834.39,0.007534420806618829
127,844.05,0.008170501441871971
128,855.8000000000001,0.008110986116222324
129,865.7099999999999,0.008251210574333987
130,875.73,0.008412048034503395
131,885.87,0.008664150769644892
132,894.07,0.008809091559404288
133,904.42,0.008605958025746941
134,914.89,0.011490665767061684
135,925.49,0.06323404905626286
136,934.0500000000001,0.1351559186709385
137,944.87,0.2603608259642552
138,954.992586,0.3755413300919266
139,955.81,0.3848515318250312
140,964.65,0.3971965469469422
141,975.82,0.056594767208451836
142,984.85,0.2819169507323044
143,993.96,0.3381208951622375
144,1005.47,0.56380526677459
145,1014.78,0.5661609884697246
146,1024.1699999999998,0.25402214107094
147,1036.03,0.3580894728973953
148,1045.61,0.7810242239005522
149,1055.29,0.7700764635363099
150,1065.05,0.5572275340781483
151,1074.91,0.7020143932525874
152,1084.85,0.5115366833331072
153,1094.89,0.7565111620462278
154,1096.4782,0.7516655353875751
155,1105.02,0.7255658975407383
156,1115.25,0.6770080218253974
157,1125.57,0.5937886507225315
158,1135.98,0.8276029842321406
159,1143.85,0.7376259209007885
160,1154.44,0.8099563636353475
161,1165.1200000000001,0.8341009109823817
162,1175.9,0.5293614967877214
163,1184.05,0.8087893811396247
164,1195.01,0.4925751761699144
165,1206.06,0.31724557581267915
166,1214.4199999999998,0.26113367092702416
167,1225.6599999999999,0.5502392136405695
168,1234.16,0.9008953825965422
169,1245.58,0.9984847345350376
170,1254.21,0.9294903434868077
171,1258.92541,0.8644831955729128
172,1265.82,0.7694824933348864
173,1274.59,1.0708790200608895
174,1286.38,1.141558567848755
175,1295.3,0.817769265157301
176,1304.28,0.804483390698864
177,1316.35,1.0965016702408092
178,1325.47,1.0396729616594125
179,1334.66,0.8707953860165354
180,1343.91,1.1259396386066758
181,1356.3500000000001,1.0847584922522264
182,1365.75,0.9317377154249095
183,1375.22,1.0024793715361124
184,1384.7499999999998,1.0136878558803326
185,1394.3500000000001,0.8706806731630727
186,1404.01,0.90714131867883
187,1413.74,0.9172346971331072
188,1423.5400000000002,0.9666237085259044
189,1433.4099999999999,0.9508310528572216
190,1443.35,1.0206724301270589
191,1445.43977,1.03854220586652
192,1446.6699999999998,1.0490618993212328
193,1453.35,1.0062735374404386
194,1463.43,0.9070896183149285
195,1473.57,0.9108481228851
196,1483.7800000000002,0.9402800551002334
197,1494.0700000000002,0.9661593189096086
198,1504.4299999999998,0.8993823103639456
199,1511.37,0.7726557511644377
200,1518.35,0.8486779077620509
201,1525.3500000000001,0.8103659722582245
202,1535.93,0.6787938505967269
203,1546.57,0.7840828526309108
204,1553.71,0.7333713724170079
205,1564.48,0.741515425791835
206,1575.3300000000002,0.7977199107609043
207,1586.2499999999998,0.8541981233749351
208,1593.57,0.8718021142480767
209,1604.61,0.8595005742534706
210,1615.74,0.8690350698023867
211,1623.1899999999998,0.8072752120161715
212,1634.45,0.8743965589057306
213,1645.78,0.8902592334402517
214,1653.3700000000001,0.8081207309439601
215,1659.58691,0.8578581949320547
216,1664.83,0.899817807695394
217,1672.5200000000002,0.7712878863123068
218,1676.3700000000001,0.9015170900411903
219,1684.1100000000001,0.9633751128623744
220,1695.78,0.8905801701392759
221,1703.6100000000001,0.8483838525281481
222,1715.42,0.787972313577009
223,1723.34,0.7859065555335695
224,1735.28,0.8513288915135356
225,1743.2900000000002,0.8298606930377842
226,1755.38,0.9029869616305639
227,1763.48,0.8085573227225008
228,1775.7,0.8326658662463856
229,1783.8999999999999,0.8517410157468648
230,1796.27,0.9289147918835633
231,1804.56,0.9222575009517306
232,1817.0700000000002,0.8313818808603887
233,1825.45,0.8543002494962443
234,1833.8799999999999,0.8120313623363711
235,1846.59,0.7353439190621138
236,1855.1100000000001,0.7317535914699289
237,1863.68,0.760637308082015
238,1876.6,0.846861770465697
239,1885.26,0.7670300466454714
240,1893.96,0.7340863381886628
241,1905.46072,0.7779893671909198
242,1907.09,0.7841982502066023
243,1915.89,0.7470188351664394
244,1924.73,0.7364858714215486
245,1933.6200000000001,0.7619815217957477
246,1947.0199999999998,0.7972658057118636
247,1956.01,0.7405391843242427
248,1965.0400000000002,0.8282902142318939
249,1974.1100000000001,0.8550371954348169
250,1983.22,0.7996336279330121
251,1996.97,0.7721054106827577
252,2006.1799999999998,0.8024699714191327
253,2015.44,0.7626482462745978
254,2024.7499999999998,0.8110234352491528
255,2034.0900000000001,0.7567371126951619
256,2043.48,0.797464904260261
257,2052.91,0.7578509471206318
258,2067.14,0.7556416454136414
259,2071.91,0.8205230123748258
260,2076.69,0.7728514421598284
261,2086.27,0.8087852273774693
262,2095.9,0.7581095267142003
263,2105.58,0.7612697401700211
264,2115.29,0.7697221420972961
265,2125.06,0.781782020967479
266,2134.87,0.7145575511329338
267,2144.72,0.7392111325936607
268,2154.62,0.7736070281734776
269,2164.56,0.7454056750485664
270,2174.56,0.7365256988665633
271,2184.5899999999997,0.7194560111560141
272,2187.7616199999998,0.7316647330401701
273,2194.68,0.7583423265639759
274,2204.81,0.7344435521795692
275,2214.98,0.6919219963563299
276,2225.21,0.6639581183748412
277,2235.48,0.7195798589545198
278,2245.8,0.6826112477356574
279,2256.1600000000003,0.6460783550779622
280,2266.58,0.6672226402620178
281,2277.04,0.6874934440072404
282,2287.5499999999997,0.7083970959539223
283,2292.82,0.6658376163877008
284,2303.41,0.662839005456717
285,2314.04,0.6230692130869004
286,2324.7200000000003,0.4614647689185428
287,2335.45,0.5698516729516442
288,2346.23,0.5531692251862046
289,2357.06,0.604977325622224
290,2362.49,0.5469413203006713
291,2373.4,0.566134057859025
292,2384.35,0.5201471139785461
293,2395.36,0.5636456479398179
294,2406.42,0.5347541301025486
295,2417.52,0.5522442308264466
296,2423.1,0.590225570109271
297,2434.28,0.5638302079555033
298,2445.52,0.6026394236434865
299,2456.8,0.5917506578926369
300,2462.47,0.5877143639380875
301,2473.83,0.5627311353095723
302,2485.25,0.5811369845228078
303,2496.7200000000003,0.5463293819375025
304,2502.4800000000005,0.6126746547455793
305,2511.88643,0.5516280923461969
306,2514.0299999999997,0.5377077766665408
307,2519.83,0.5565102231540267
308,2525.6400000000003,0.527950458169939
309,2537.29,0.536492793787044
310,2543.14,0.5231482829166633
311,2554.88,0.5668293152896084
312,2566.6699999999996,0.5489470903046874
313,2572.59,0.5866593991332935
314,2584.47,0.5773306709042125
315,2596.39,0.5681579967888384
316,2602.38,0.5452042253164314
317,2614.39,0.5365370479568976
318,2626.46,0.5642821017679239
319,2632.51,0.5826900614660772
320,2644.67,0.6357308120329438
321,2656.87,0.6489990167135173
322,2663.0,0.5800427846390841
323,2675.29,0.6114561860754979
324,2687.64,0.6058842186824718
325,2693.83,0.5787391177785988
326,2706.27,0.5962510471414131
327,2712.51,0.5643429888796736
328,2725.0299999999997,0.5630555264699014
329,2737.6,0.5935519067022628
330,2743.92,0.5067399566679368
331,2756.58,0.5173090336561386
332,2762.94,0.5378522377355195
333,2775.69,0.5656769114795615
334,2782.0899999999997,0.5354035696726491
335,2794.93,0.42678844017253126
336,2807.83,0.46028884184297375
337,2814.3,0.5592638197350484
338,2827.29,0.589556318161331
339,2833.81,0.5631334386955391
340,2846.8900000000003,0.5491190338776621
341,2853.4500000000003,0.5293489085255771
342,2866.62,0.5842019004635404
343,2873.23,0.5815318177535888
344,2884.0315,0.5782942910775797
345,2886.49,0.5775601690158938
346,2893.15,0.5696759126601841
347,2913.2000000000003,0.621590441949677
348,2926.65,0.5964778261862695
349,2946.94,0.5856664498413224
350,2967.36,0.5965550704443869
351,2987.93,0.5965962875259266
352,3008.6400000000003,0.6049016013207096
353,3029.5,0.6021717115939675
354,3050.5,0.5994495185804687
355,3071.64,0.5994932222802134
356,3092.93,0.6036759224584329
357,3107.21,0.5981862872092538
358,3128.75,0.5900519815182652
359,3150.44,0.5914475723057515
360,3172.27,0.5887885598064811
361,3186.9199999999996,0.5585603158708737
362,3209.0099999999998,0.5781475972676267
363,3231.25,0.5510063751428548
364,3253.65,0.5795604492617895
365,3268.67,0.5957509966397537
366,3291.3199999999997,0.5903555648894802
367,3306.52,0.5903807080416144
368,3311.31121,0.588277455311142
369,3321.7799999999997,0.5836773973063463
370,3329.44,0.6027338596008737
371,3337.1099999999997,0.5904333174075347
372,3344.8,0.5757326662384636
373,3352.51,0.5704915060936602
374,3360.24,0.5823961369731243
375,3367.9900000000002,0.5797208588768562
376,3375.75,0.5374560762927221
377,3383.53,0.5448661847328555
378,3391.3399999999997,0.5876669797093905
379,3399.15,0.5998932746859256
380,3406.99,0.569041456198862
381,3414.84,0.5808773332239325
382,3422.71,0.6039396012732706
383,3430.6,0.5929318603468764
384,3438.51,0.5983672104447499
385,3446.44,0.537200251566891
386,3454.38,0.5793997882011661
387,3462.3500000000004,0.5420945113718427
388,3470.33,0.5675018300546532
389,3478.33,0.5321845397617313
390,3486.35,0.5558521404930771
391,3494.39,0.5520062322486905
392,3502.44,0.572608919516438
393,3510.51,0.559597597808453
394,3518.6099999999997,0.5544596626368696
395,3526.72,0.55062942297742
396,3534.85,0.5764404743422381
397,3543.0,0.5993266167313239
398,3544.8,0.6137677089154165
399,3547.4,0.24178304207021695
400,3550.0,0.7494859752250174
401,3552.6000000000004,0.5459087083798178
402,3555.1899999999996,0.6063980460224843
403,3557.79,0.4853231791772847
404,3560.39,0.773897712332085
405,3562.99,0.4567385454868854
406,3565.59,0.34611177864168585
407,3568.19,0.5696698117964861
408,3570.78,0.17327924943915274
409,3573.38,0.48964278259395316
410,3575.9800000000005,0.07282754574875354
411,3578.58,0.30019804890355395
412,3581.18,0.3901351820583543
413,3583.7799999999997,0.9118883152131547
414,3586.37,0.6242120528558212
415,3588.9700000000003,0.5329845860106216
416,3591.57,0.521067619165422
417,3594.17,0.7282519523202223
418,3596.7700000000004,0.4926220854750228
419,3599.37,0.7823644186298232
420,3601.97,0.6098170517846235
421,3604.56,0.7310309894272902
422,3607.16,0.7898059225820905
423,3609.76,0.18460625573689088
424,3612.36,0.29190518889169126
425,3614.96,0.46942292204649166
426,3617.5600000000004,0.30609915520129205
427,3620.1499999999996,0.5602376928439585
428,3622.75,0.936706025998759
429,3625.35,0.29409775915355935
430,3627.95,0.6726524923083598
431,3630.55,0.5934449254631602
432,3633.15,0.5853746586179606
433,3635.7400000000002,0.4365142962606271
434,3638.3399999999997,0.6686425294154275
435,3640.9399999999996,0.3319374625702279
436,3643.54,0.3981900957250282
437,3646.14,0.6522564288798287
438,3648.74,0.20988656203462902
439,3651.33,0.4406251996772955
440,3653.9300000000003,0.6395881328320959
441,3656.53,0.35048856598689637
442,3659.13,0.5461889991416967
443,3661.7300000000005,0.5233792322964971
444,3664.33,0.5409548654512976
445,3666.92,0.4157860030939641
446,3669.52,0.6014633362487645
447,3672.12,0.5520195694035649
448,3674.7200000000003,0.6583376025583652
449,3677.32,0.7812867357131656
450,3679.92,0.705258068867966
451,3682.5200000000004,0.6278034020227663
452,3685.1099999999997,0.892439539665433
453,3687.71,0.6216057728202333
454,3690.31,0.5784640059750337
455,3692.91,0.2970025391298341
456,3695.51,0.42457047228463446
457,3698.11,0.5986169054394349
458,3700.7000000000003,0.4680227430821014
459,3703.2999999999997,0.7959535762369018
460,3705.8999999999996,0.8886032093917022
461,3708.5,0.5619563425465025
462,3711.1,0.691951675701303
463,3713.7,0.9144034088561034
464,3716.29,0.8456826464987699
465,3718.8900000000003,0.7041993796535704
466,3721.4900000000002,0.9217755128083707
467,3724.0899999999997,1.365554145963171
468,3726.6899999999996,1.7789359791179713
469,3729.29,1.835483812272772
470,3731.88,1.3289666499154382
471,3734.48,1.1021354830702388
472,3737.08,0.7931556162250392
473,3739.6800000000003,0.8856660493798395
474,3742.28,0.6754943825346399
475,3744.8799999999997,0.6627357156894403
476,3747.47,0.5369273533321068
477,3750.0699999999997,0.6329091864869073
478,3752.67,0.6984801196417075
479,3755.27,0.825143652796508
480,3757.87,0.8990819859513084
481,3760.4700000000003,0.8834991191061088
482,3763.07,0.6617463522609092
483,3765.6600000000003,0.5411201899035757
484,3768.2599999999998,0.6393555230583761
485,3770.8599999999997,0.9014420562131765
486,3773.46,0.4214196893679769
487,3776.06,0.8243678225227773
488,3778.66,0.7863874556775777
489,3781.25,0.8424535933202442
490,3783.8500000000004,0.7947348264750447
491,3786.4500000000003,0.9469958596298449
492,3789.0499999999997,0.9716869927846453
493,3791.6499999999996,1.0013167259394458
494,3794.25,0.9109589590942461
495,3796.84,0.5816865967369127
496,3799.44,0.793058629891713
497,3801.8939600000003,0.565798746947277
498,3802.04,0.5522740767027191
499,3804.6400000000003,0.6320768529836117
500,3807.2400000000002,0.8774970292645046
501,3809.8399999999997,1.0619634055453973
502,3812.43,0.8207387853790559
503,3815.0299999999997,0.7522917616599486
504,3817.63,0.9218731379408414
505,3820.23,0.710832014221734
506,3822.83,0.6325566905026269
507,3825.4300000000003,0.9465611667835196
508,3828.02,0.9107417466171782
509,3830.6200000000003,0.7486692228980709
510,3833.22,0.6113946991789637
511,3835.8199999999997,0.7776719754598563
512,3838.42,0.5263639517407491
513,3841.02,0.708876028021642
514,3843.61,1.0438714078553004
515,3846.21,1.1847244841361932
516,3848.81,0.988081760417086
517,3851.4100000000003,0.9032886366979787
518,3854.0099999999998,1.2368177129788713
519,3856.6099999999997,1.015273789259764
520,3859.21,0.826491565540657
521,3861.8,0.8211382453743155
522,3864.4,0.9273520216552082
523,3867.0,0.977292997936101
524,3869.6000000000004,0.8936128742169938
525,3872.2000000000003,0.9475189504978866
526,3874.7999999999997,1.2064123267787794
527,3877.39,0.9909248066124378
528,3879.99,0.8388685828933305
529,3882.59,0.8245379591742232
530,3885.19,0.608071535455116
531,3887.79,0.4635423117360088
532,3890.3900000000003,0.9109938880169015
533,3892.9799999999996,0.7646460678505601
534,3895.58,0.6365112441314529
535,3898.18,0.8981948204123456
536,3900.7799999999997,1.0112950966932384
537,3903.38,0.9321358729741311
538,3905.98,0.9117535492550238
539,3908.57,0.9096697290886824
540,3911.17,0.8012964053695751
541,3913.7699999999995,1.000092081650468
542,3916.3700000000003,0.9744929579313607
543,3918.97,1.0096176342122534
544,3921.5699999999997,1.2100127104931462
545,3924.17,0.8976957867740389
546,3926.76,0.8437910666076975
547,3929.36,0.9420750428885901
548,3931.96,0.620540919169483
549,3934.56,0.7286674954503758
550,3937.1600000000003,0.7868860717312685
551,3939.7599999999998,0.9776125480121612
552,3942.35,0.8485155278458197
553,3944.95,0.8043445041267124
554,3947.55,0.9596662804076053
555,3950.15,1.001886456688498
556,3952.75,0.6637421329693908
557,3955.3500000000004,0.9328813092502836
558,3957.9399999999996,0.9189727890839421
559,3960.54,0.6790716653648348
560,3963.14,0.6305811416457275
561,3965.74,0.6260862179266203
562,3968.34,0.6273089942075131
563,3970.94,0.6491001704884058
564,3973.53,0.6868234503220644
565,3976.13,0.6675543266029571
566,3978.7299999999996,0.6915366028838499
567,3981.33,0.7115398791647427
568,3983.93,0.9345417554456353
569,3986.5299999999997,1.3381156317265281
570,3989.12,0.9460896115601867
571,3991.7200000000003,1.0564077878410794
572,3994.32,0.9803089641219722
573,3996.92,1.359677940402865
574,3999.5199999999995,1.0985540166837577
575,4002.1200000000003,0.9289002929646505
576,4004.72,0.9967178692455432
577,4007.31,0.8997567490792017
578,4009.91,1.1699893253600944
579,4012.51,1.077405401640987
580,4015.11,1.16344647792188
581,4017.71,0.9898278542027728
582,4020.3100000000004,0.9513605304836654
583,4022.8999999999996,1.195930710317324
584,4025.5,0.9973398865982168
585,4028.1,1.0514538628791095
586,4030.7,1.0407409391600024
