,lambda (Angstroms),Total Flux (erg/s/cm^2/Angstrom)
0,102.05000000000001,0.038418422253852384
1,103.94,0.04490586257826958
2,104.712855,0.04755869363219951
3,106.12,0.04352860662438492
4,108.08999999999999,0.03788649340549513
5,110.10000000000001,0.03212981951211002
6,113.96999999999998,0.021046074254697063
7,117.97999999999999,0.009561366636550744
8,120.22644299999999,0.003127516004173833
9,121.0,0.003025002231508298
10,124.97,0.0024988875722366977
11,127.0,0.0022298667263119334
12,127.88000000000001,0.002113246852216474
13,130.86,0.0017183295513023191
14,132.07,0.0015579772244210973
15,133.9,0.0013154608953362748
16,137.02,0.0009019904326343994
17,138.038426,0.000767025987298667
18,139.89,0.0007583599051117992
19,143.15,0.0007431018447125343
20,147.16,0.0007243334943497116
21,150.94,0.0007066416329113028
22,155.17,0.0006868435974974134
23,158.489319,0.0006713079012627124
24,159.14999999999998,0.0006665567475049927
25,162.1,0.0006453424192908667
26,165.88,0.0006181593140083616
27,170.14000000000001,0.0005875243858547673
28,172.9,0.0005676764042745082
29,176.93,0.0005386954746891345
30,179.79999999999998,0.0005180564504552559
31,181.88,0.0005030985513831445
32,181.970086,0.0005024507161468376
33,186.12,0.0005120542748472214
34,190.9,0.0005231159527319868
35,194.0,0.0005302898444215971
36,198.06,0.0005396853286671677
37,202.21,0.0005492890876438768
38,205.01999999999998,0.0005557918743452016
39,208.929613,0.0005648393407063964
40,209.79000000000002,0.0005769307179870443
41,216.17000000000002,0.0006665915209949356
42,220.19,0.0007230862607780513
43,223.25,0.0007660897201523007
44,226.88,0.0008171036311864678
45,230.04,0.000861512458422582
46,233.76999999999998,0.0009139317704183337
47,239.76999999999998,0.0009982523743202265
48,239.88329199999998,0.0009998445153347718
49,245.92,0.0009299597688901834
50,252.23,0.000856911287819755
51,256.92,0.0008026168581513661
52,259.89000000000004,0.0007682343994165424
53,264.12,0.000719265373953888
54,269.03,0.0006624242686076057
55,274.03000000000003,0.0006045413056273701
56,275.42287,0.0005884166287063566
57,279.12,0.0006341121938880788
58,284.31,0.0006982593080189029
59,290.27,0.000771923428196878
60,295.65999999999997,0.000838542767915936
61,301.16,0.0009065215239328737
62,308.17,0.0009931639968153278
63,316.227766,0.0010927570467401764
64,318.27000000000004,0.001074268860251776
65,327.93999999999994,0.0009867276649258626
66,337.91,0.0008964711019436768
67,348.17,0.0008035899046528307
68,357.09999999999997,0.0007227500398859836
69,363.078055,0.0006686337540093827
70,366.26,0.0006911181100886662
71,374.8,0.0007514645792245146
72,385.3,0.0008256601732240002
73,395.17999999999995,0.000895479959308049
74,405.32,0.0009671378339911527
75,413.8,0.001027066191682604
76,416.86938299999997,0.0010487572117325599
77,422.46999999999997,0.001072507074622318
78,430.32,0.0011057983831983206
79,441.36,0.0011526228824491071
80,450.6,0.0011918157317981344
81,460.04,0.0012318548968806907
82,469.67,0.001272706359145099
83,478.630092,0.001310721414729184
84,479.51,0.0013058336214887244
85,489.55,0.0012500575052460142
86,499.79999999999995,0.0011931295338113753
87,505.59,0.001160996285819613
88,511.44,0.0011287779366730138
89,519.75,0.0010826775385781016
90,529.41,0.0010291052795493587
91,540.5,0.0009675334029470025
92,549.5408739999999,0.0009176562829616906
93,550.55,0.0009158725201110694
94,559.49,0.0009001071487583566
95,569.89,0.0008817162239364089
96,580.49,0.0008626846604063466
97,589.9200000000001,0.0008464066078687537
98,599.51,0.0008294843929646694
99,610.65,0.0008102865308226985
100,620.58,0.0007935097580148194
101,630.66,0.0007763130409258549
102,630.957344,0.0007757999670423779
103,639.43,0.0007971693286701139
104,649.8199999999999,0.0008242843885770265
105,657.35,0.0008439406377405543
106,664.96,0.0008638090695472536
107,675.76,0.0008913465213754204
108,685.16,0.0009152015944480843
109,694.7,0.0009439102673962987
110,704.36,0.0009680103288092702
111,715.8000000000001,0.0010020167257828103
112,724.43596,0.0010257745661185163
113,725.76,0.0010280253500982164
114,734.17,0.0010428791485087932
115,744.38,0.0010639491641416105
116,754.74,0.001083832550376281
117,765.2299999999999,0.001104430437799224
118,775.88,0.001127546800530811
119,784.86,0.0011489245872284308
120,795.78,0.0011715092970433535
121,805.0,0.0011925441067039387
122,814.32,0.001213768613432426
123,825.65,0.001244591626225748
124,831.763771,0.0012447852202498832
125,835.21,0.0012296888206828858
126,844.8799999999999,0.0012327263815162806
127,854.66,0.00121470901977384
128,864.5600000000001,0.0012033953879486696
129,874.5699999999999,0.0011938624335476645
130,884.6999999999999,0.00118903630906393
131,894.94,0.0011802513620043599
132,905.3,0.0011611773448620608
133,915.79,0.0012843846101301382
134,924.26,0.003817248471790826
135,934.9599999999999,0.007751688639414127
136,945.79,0.014893208589447805
137,954.54,0.021714942020915458
138,954.992586,0.021882318420064644
139,965.59,0.025828466560378748
140,974.53,0.004990272450067736
141,985.8100000000001,0.024636069612896796
142,994.9399999999999,0.026874554665789467
143,1004.14,0.03983120625249402
144,1015.77,0.039468006084382494
145,1025.17,0.01748804205340671
146,1034.65,0.030043179775358787
147,1044.23,0.059208149688470706
148,1053.8899999999999,0.060428991354510485
149,1066.09,0.050037308676009994
150,1075.96,0.06152750994348543
151,1085.9099999999999,0.050826552963888716
152,1095.96,0.06909353817545184
153,1096.4782,0.06907717512550561
154,1106.1,0.06876355304064162
155,1113.77,0.06859869618842043
156,1124.0700000000002,0.06390403398791482
157,1134.47,0.08305818215439459
158,1144.97,0.07789768068785974
159,1155.5700000000002,0.08533747958831027
160,1166.26,0.09096189381904764
161,1174.34,0.06590186347146652
162,1185.21,0.0934673683627776
163,1196.18,0.06616707362107405
164,1204.47,0.04918128904416224
165,1215.6100000000001,0.03207605992633383
166,1224.04,0.06969294586320157
167,1235.3600000000001,0.10938783740594686
168,1243.93,0.12435901385659412
169,1255.4399999999998,0.12236019109661163
170,1258.92541,0.11654744140669442
171,1264.1399999999999,0.10785923077694001
172,1275.84,0.1430156760428733
173,1284.68,0.15392301691046736
174,1293.58,0.12577706416404055
175,1305.55,0.12722523816688
176,1314.6,0.16264150138540104
177,1323.7199999999998,0.1596798720542311
178,1335.96,0.1453445747939767
179,1345.22,0.17625526036342476
180,1354.55,0.1746477533831818
181,1363.9399999999998,0.16042325278891803
182,1376.56,0.17225749597319823
183,1386.1000000000001,0.17829831134388227
184,1395.71,0.16005803416487535
185,1405.3799999999999,0.17029626337184758
186,1415.12,0.17707850002912878
187,1424.93,0.18539954413671902
188,1434.81,0.18797229569461824
189,1441.4299999999998,0.20138330028098392
190,1445.43977,0.20448503730007456
191,1448.09,0.2065350637928208
192,1454.77,0.20464776050461236
193,1464.8600000000001,0.19278436182526754
194,1475.01,0.19590936850560947
195,1485.2299999999998,0.2032467814389193
196,1495.53,0.21085450151847812
197,1505.9,0.20418152785100482
198,1512.8500000000001,0.18455594868138675
199,1516.33,0.19954795954321827
200,1523.33,0.19636578484000583
201,1533.8899999999999,0.17506502814487387
202,1544.52,0.19682137770270985
203,1555.23,0.18884973440679476
204,1566.01,0.1950201973638476
205,1573.24,0.21183374320610102
206,1584.14,0.22539251688252737
207,1595.1299999999999,0.2349084985984838
208,1606.18,0.23329498567412701
209,1613.6000000000001,0.2381696484887218
210,1624.7800000000002,0.22905134717701964
211,1636.04,0.24766135301156644
212,1643.5900000000001,0.2557614274388159
213,1654.99,0.23927364577929847
214,1659.58691,0.2502113356873961
215,1666.4599999999998,0.26656874004866776
216,1670.3000000000002,0.2403842450591551
217,1678.01,0.27214887465052423
218,1685.76,0.28758083033575255
219,1693.54,0.27403890559137534
220,1705.2800000000002,0.26720396413906317
221,1713.1499999999999,0.2581566981058693
222,1725.02,0.26054924145859965
223,1736.98,0.2817307435225133
224,1744.9999999999998,0.2791548753412916
225,1753.05,0.30185272673046426
226,1765.2,0.27981475274020934
227,1773.35,0.29230616936403014
228,1785.64,0.30118058670228254
229,1793.8899999999999,0.32491296856075147
230,1806.32,0.32642117722751124
231,1814.6599999999999,0.3067857177971634
232,1823.03,0.31682357793721005
233,1835.67,0.3089221235967309
234,1844.1399999999999,0.2876872489714256
235,1856.93,0.29303009248291856
236,1865.5,0.30541098309226145
237,1874.11,0.33405509979546344
238,1887.1,0.3125258737762527
239,1895.81,0.30333515571410286
240,1904.56,0.3249892637458123
241,1905.46072,0.32423308257375105
242,1913.3500000000001,0.3175980173747986
243,1926.61,0.3161324672811741
244,1935.51,0.32796538343251214
245,1944.44,0.346555274357394
246,1953.4199999999998,0.32945702323818227
247,1966.96,0.3636700376976336
248,1976.04,0.3764211024902347
249,1985.16,0.35950073364756086
250,1994.32,0.3537559311696121
251,2003.52,0.36700399505638853
252,2012.7700000000002,0.35948031689907134
253,2026.73,0.37898557818813633
254,2036.0800000000002,0.3644493159426319
255,2045.48,0.3824703116530339
256,2054.92,0.370347373728161
257,2064.4,0.3763495021680132
258,2073.93,0.4041587885637718
259,2078.71,0.38687566914842303
260,2083.51,0.40226563291543677
261,2093.12,0.3850985520406456
262,2102.79,0.39223032071294206
263,2117.36,0.39947676906406515
264,2127.13,0.4097205536481744
265,2136.95,0.3859459961881901
266,2146.82,0.39856489668411216
267,2156.73,0.41633146354475936
268,2166.68,0.40780479677013165
269,2176.68,0.4077934879514103
270,2186.73,0.40498213708859543
271,2187.7616199999998,0.4073329338023789
272,2196.8199999999997,0.4279883426171082
273,2206.96,0.4201995407654049
274,2217.15,0.4051956724351429
275,2227.38,0.3961422309220339
276,2232.52,0.42551357692620007
277,2242.82,0.4112410823431089
278,2253.17,0.401149321281459
279,2263.57,0.41256099374125044
280,2274.02,0.4272319997224832
281,2284.52,0.4404083392251572
282,2295.06,0.4207991055449843
283,2305.66,0.424871212090541
284,2316.3,0.41159554545325067
285,2326.99,0.3332565123374017
286,2332.36,0.3933282125401979
287,2343.12,0.3845846263543667
288,2353.94,0.41603558039426514
289,2364.8,0.3893990612513165
290,2375.7200000000003,0.4041472823340975
291,2386.68,0.38000823023403163
292,2397.7000000000003,0.40735171835969525
293,2403.23,0.39452962583110357
294,2414.32,0.40574976088678505
295,2425.46,0.42898672946390776
296,2436.66,0.4155531382667601
297,2442.28,0.4402440060767628
298,2453.5499999999997,0.4364532618096329
299,2464.87,0.43765275106394436
300,2476.25,0.42690768054398537
301,2487.68,0.44311784354546774
302,2493.42,0.42138879180692956
303,2504.9300000000003,0.46647000844271796
304,2510.7000000000003,0.42654517681704457
305,2511.88643,0.4292210132910837
306,2516.4900000000002,0.43959947772900443
307,2522.29,0.42285877278208467
308,2533.93,0.428922552509301
309,2545.6299999999997,0.4251951166681009
310,2557.38,0.45367946785322044
311,2563.2700000000004,0.44857403955367614
312,2575.1000000000004,0.47425446998090715
313,2586.9900000000002,0.4744819848397217
314,2592.95,0.4724089383770249
315,2604.92,0.4608482324779509
316,2616.9500000000003,0.45892381101046054
317,2622.9799999999996,0.4784655463846113
318,2635.09,0.4898239041592323
319,2647.25,0.5274887489601732
320,2653.35,0.5349351661711713
321,2665.6000000000004,0.5006443876194874
322,2677.8999999999996,0.5220664960941233
323,2684.08,0.5234068925472329
324,2696.46,0.5070514802639801
325,2702.6800000000003,0.5201783663381456
326,2715.16,0.5039329281075321
327,2727.69,0.5065033769032383
328,2733.9799999999996,0.5317269448142513
329,2746.6000000000004,0.4774726702573328
330,2752.9300000000003,0.4875685277894015
331,2765.63,0.5049599324745946
332,2772.0099999999998,0.5276479770329828
333,2784.81,0.5111707557708153
334,2797.6600000000003,0.42743332153496727
335,2804.11,0.4581066479302031
336,2817.0499999999997,0.5383872903417305
337,2823.55,0.556158903763286
338,2836.5800000000004,0.5400309228221888
339,2843.12,0.5327728258648
340,2856.24,0.5245560215710782
341,2862.8199999999997,0.5608745142347451
342,2876.0400000000004,0.5585651839936625
343,2882.67,0.5639026636836493
344,2884.0315,0.5635327618716407
345,2895.98,0.560289546961578
346,2909.34,0.5992623760174952
347,2929.51,0.5888177689110469
348,2949.81,0.5865950611142744
349,2970.26,0.599339652520974
350,2990.85,0.6053667431842477
351,3011.58,0.6171163331040952
352,3032.46,0.621914022227415
353,3053.48,0.6252925106073086
354,3067.57,0.6314381357867902
355,3088.84,0.6392663228391375
356,3110.25,0.6412641091480588
357,3131.81,0.6403412946604521
358,3153.5099999999998,0.6497904794294194
359,3168.07,0.6531678021131136
360,3190.0299999999997,0.6359286855014327
361,3212.14,0.6558180680932238
362,3226.9700000000003,0.6427620893431679
363,3249.34,0.6689820705543107
364,3271.8599999999997,0.6867222509689257
365,3286.96,0.6902942707851195
366,3309.75,0.6940930497659843
367,3311.31121,0.6947920280118182
368,3325.02,0.7009283498923189
369,3332.6899999999996,0.7027670713083377
370,3340.37,0.6744318917092536
371,3348.07,0.7228462100799634
372,3355.79,0.6921299264204673
373,3363.53,0.6657903407307654
374,3371.2799999999997,0.6644836540259602
375,3379.05,0.7072565652909493
376,3386.8399999999997,0.7090973745257324
377,3394.65,0.7175414817303095
378,3402.4700000000003,0.7395425879197838
379,3410.32,0.695194291063949
380,3418.1800000000003,0.7083256931930113
381,3426.0600000000004,0.7250272932918677
382,3433.9599999999996,0.7472532913605181
383,3441.8700000000003,0.7271001884140654
384,3449.81,0.7173432824223039
385,3457.7599999999998,0.7093604754154395
386,3465.73,0.696612366378369
387,3473.7200000000003,0.7346975553110926
388,3481.73,0.7099699422136103
389,3489.75,0.740187828101025
390,3497.7999999999997,0.7202586109431308
391,3505.86,0.7321619927701336
392,3513.94,0.7206790725669304
393,3522.04,0.7496285503335213
394,3530.16,0.7260931260699063
395,3538.2999999999997,0.7535446997760853
396,3546.46,0.7642519714520584
397,3554.6299999999997,0.7715503421129284
398,3562.8300000000004,0.7646724097284896
399,3571.04,0.7338828763289478
400,3579.27,0.7190610408992001
401,3587.52,0.6932620034392463
402,3594.1299999999997,1.0069352324561804
403,3596.7599999999998,0.6088302654840981
404,3599.3999999999996,0.537224097496913
405,3602.0400000000004,0.8956308295097277
406,3604.6699999999996,1.4731591625376455
407,3607.3100000000004,0.7362969945504604
408,3609.9500000000003,0.3716215265632752
409,3612.59,-0.28284264142391
410,3615.2200000000003,0.1535087916040078
411,3617.86,1.0821488236168226
412,3620.5,0.5400238556296374
413,3623.13,0.36093618865755517
414,3625.77,0.18669922067037
415,3628.4100000000003,1.1243807526831848
416,3631.04,0.9129093857111026
417,3633.6800000000003,1.0244812177239173
418,3636.32,0.46388754973673224
419,3638.96,1.2372946817495472
420,3641.59,1.178594414777465
421,3644.23,0.2691408467902796
422,3646.87,0.8862200788030945
423,3649.5,0.07873286183101225
424,3652.14,0.20717224384382707
425,3654.78,1.3039850758566418
426,3657.42,0.9666537078694567
427,3660.05,0.5095751408973744
428,3662.69,1.1525592729101894
429,3665.33,-0.1633738950769959
430,3667.96,0.826019337950922
431,3670.6,0.2591021699637367
432,3673.24,0.4851156019765515
433,3675.88,0.5547229339893662
434,3678.5099999999998,0.8924009670172841
435,3681.15,0.4906823990300989
436,3683.79,0.41266463104291373
437,3686.42,0.7700386640708315
438,3689.06,0.5801016960836463
439,3691.7,0.6183793280964611
440,3694.3399999999997,1.536224060109276
441,3696.97,0.12323439313719374
442,3699.6099999999997,0.8857166251500085
443,3702.2500000000005,0.49486425716282334
444,3704.8799999999997,0.7017718901907412
445,3707.5200000000004,0.808006922203556
446,3710.1600000000003,0.3058155542163708
447,3712.8,1.2764481862291857
448,3715.4300000000003,0.7555604192571034
449,3718.07,1.0130676512699184
450,3720.71,0.328723883282733
451,3723.34,0.4465257163106508
452,3725.98,1.4678838483234657
453,3728.6200000000003,1.5894365803362804
454,3731.25,3.0828983133641983
455,3733.8900000000003,2.132179045377013
456,3736.53,1.3439457773898278
457,3739.17,0.9102833094026427
458,3741.8,0.9963660424305605
459,3744.44,1.4079869744433753
460,3747.08,0.8503500064561901
461,3749.71,0.9867674394841078
462,3752.35,0.7801284714969227
463,3754.9900000000002,0.3739451035097375
464,3757.63,1.8849896355225524
465,3760.26,1.19455436855047
466,3762.9,1.4537511005632848
467,3765.54,1.0565238325760997
468,3768.17,0.7012664656040174
469,3770.81,0.3024350976168323
470,3773.45,0.9307833296296472
471,3776.0899999999997,0.7920257616424619
472,3778.72,0.9786623946703796
473,3781.36,0.8067319266831946
474,3784.0,1.0810169586960092
475,3786.63,1.619114691723927
476,3789.27,0.5064516237367419
477,3791.91,0.8237004557495566
478,3794.5499999999997,0.8629374877623716
479,3797.18,0.8034296207902893
480,3799.8199999999997,0.31309765280310414
481,3801.8939600000003,0.6906646884022124
482,3802.4599999999996,0.7937129967881627
483,3805.0899999999997,0.629619185442893
484,3807.7299999999996,0.832645973294029
485,3810.3700000000003,1.0349044611451652
486,3813.01,1.1108842489963013
487,3815.6400000000003,1.8035180376510316
488,3818.28,1.1765778255021675
489,3820.92,1.0254576133533038
490,3823.55,0.837214602008034
491,3826.19,0.49036118985917004
492,3828.83,0.8269988777103061
493,3831.46,1.2755607663650363
494,3834.1,0.8225849542161725
495,3836.7400000000002,0.6392136420673086
496,3839.38,0.33861062991844465
497,3842.01,0.718959118573175
498,3844.65,0.5008796064243111
499,3847.29,1.0987114942754472
500,3849.92,1.5225482829301775
501,3852.56,0.8753368707813134
502,3855.2,1.3049648586324496
503,3857.84,0.9022862464835857
504,3860.47,1.2868834351383158
505,3863.11,1.458694222989452
506,3865.75,1.223759010840588
507,3868.38,1.0393177994953182
508,3871.02,1.2538245873464544
509,3873.66,1.2899513751975906
510,3876.2999999999997,1.5177781630487266
511,3878.93,1.230480951703457
512,3881.5699999999997,1.2915637395545931
513,3884.21,0.6074188274057291
514,3886.8399999999997,0.7946690160604594
515,3889.48,0.6623233039115954
516,3892.12,0.3519025917627316
517,3894.7599999999998,0.9551516796138677
518,3897.39,1.239847468268598
519,3900.0299999999997,0.806568256119734
520,3902.6699999999996,1.27677804397087
521,3905.2999999999997,1.1313838326256005
522,3907.9399999999996,1.5632766204767365
523,3910.5800000000004,1.1771844083278726
524,3913.2200000000003,1.7224151961790088
525,3915.8500000000004,1.088495984833739
526,3918.4900000000002,0.981221272684875
527,3921.13,1.041267560536011
528,3923.76,1.4273623491907415
529,3926.4,1.5203511370418774
530,3929.04,1.3007349248930136
531,3931.6800000000003,1.0590047127441495
532,3934.31,0.98417780139888
533,3936.9500000000003,0.933150389250016
534,3939.59,1.148961077101152
535,3942.2200000000003,1.1096878657558822
536,3944.86,1.0412296536070185
537,3947.5,1.1263094414581547
538,3950.13,1.189740230112885
539,3952.77,1.1258890179640209
540,3955.41,1.104654805815157
541,3958.05,1.562232593666293
542,3960.68,1.2856083823210234
543,3963.32,1.3405481701721595
544,3965.96,1.2981979580232954
545,3968.59,0.7662893466780258
546,3971.23,0.8582418345291619
547,3973.87,0.591824222380298
548,3976.5099999999998,0.528895410231434
549,3979.14,0.8461093988861643
550,3981.7799999999997,1.0704446867373005
551,3984.42,1.2648314745884366
552,3987.0499999999997,1.3521442632431668
553,3989.69,1.272551051094303
554,3992.33,1.242217838945439
555,3994.97,1.144579626796575
556,3997.6,1.2287814154513055
557,4000.24,1.1584032033024414
558,4002.8799999999997,1.1800939911535775
559,4005.5099999999998,1.2845687798083079
560,4008.1499999999996,1.3001165676594437
561,4010.79,1.00893335551058
562,4013.43,1.2502381433617162
563,4016.0600000000004,1.2685559320164466
564,4018.7000000000003,1.5879157198675824
565,4021.3399999999997,1.6825165077187185
566,4023.9700000000003,1.738884296373449
567,4026.61,1.8726850842245848
568,4029.25,1.548367872075721
569,4031.8900000000003,1.370371659926857
570,4034.52,1.4442464485815873
571,4037.1600000000003,1.7362692364327235
572,4039.8,1.4743040242838594
