,lambda (Angstroms),Total Flux (erg/s/cm^2/Angstrom)
0,100.03,0.0036650872101420245
1,101.89,0.004408291998047194
2,104.02,0.005259381351938596
3,104.712855,0.005536227133295608
4,105.96,0.005120434774974389
5,107.93,0.004463645912498241
6,109.92999999999999,0.0037968551891722113
7,114.05999999999999,0.0024199323455039528
8,118.07,0.0010830169452352534
9,120.22644299999999,0.00036406885134457334
10,121.09,0.00035074699065502257
11,125.06,0.0002895028725047266
12,127.09,0.0002581866105790084
13,127.98,0.00024445682086773294
14,130.96,0.00019848516542997916
15,131.85999999999999,0.00018460110841857737
16,134.01,0.00015143363889133884
17,137.13,0.00010330224125181137
18,138.038426,8.92881986133226e-05
19,140.0,8.821946268641836e-05
20,142.93,8.662309351256644e-05
21,146.94,8.443830157156092e-05
22,151.05,8.219902604100413e-05
23,154.93,8.008506276641525e-05
24,158.489319,7.814581801163527e-05
25,158.9,7.78020259360556e-05
26,161.85000000000002,7.533250184567883e-05
27,166.01000000000002,7.185005431484253e-05
28,169.86999999999998,6.861874482709567e-05
29,173.03,6.5973424106557e-05
30,177.06,6.259980306106204e-05
31,179.94,6.018887784741105e-05
32,181.970086,5.848943842960811e-05
33,182.01999999999998,5.8502884625591465e-05
34,185.82999999999998,5.952925010816913e-05
35,191.04,6.093275776288664e-05
36,194.14000000000001,6.176785828689348e-05
37,198.20999999999998,6.28642644589595e-05
38,201.9,6.385830347058186e-05
39,205.18,6.474189370369835e-05
40,208.929613,6.575199170127653e-05
41,209.95,6.742127793432393e-05
42,215.84,7.705693178311063e-05
43,219.85000000000002,8.361702889956732e-05
44,222.91,8.862298830802836e-05
45,227.04999999999998,9.539575695439189e-05
46,230.21,0.00010056593927289142
47,233.95,0.00010668475665572938
48,239.88329199999998,0.00011639172127555578
49,239.95,0.0001163018298887571
50,246.11,0.00010800083550216131
51,251.84,0.00010027952755783114
52,257.11,9.317762230366882e-05
53,260.09000000000003,8.916230820771174e-05
54,263.71,8.428448920517337e-05
55,269.23,7.684619270215893e-05
56,274.24,7.009530956448281e-05
57,275.42287,6.850146405719104e-05
58,278.69,7.320269341667866e-05
59,283.87,8.065661051988227e-05
60,289.82,8.92184088936702e-05
61,295.89,9.795349957396476e-05
62,300.69,0.00010486122070323066
63,307.7,0.00011495053170416067
64,316.227766,0.00012722608901681687
65,317.78000000000003,0.00012559135756322416
66,328.19,0.00011463264320547996
67,338.15999999999997,0.00010414414999751555
68,347.64000000000004,9.418249382498759e-05
69,357.38,8.400647250304444e-05
70,363.078055,7.814864738208918e-05
71,365.7,8.037287903708602e-05
72,375.08,8.827876671336346e-05
73,384.7,9.638843723061178e-05
74,394.57,0.00010552052952803806
75,404.69,0.0001153316070056423
76,414.11999999999995,0.00012453526267795531
77,416.86938299999997,0.00012720886917950484
78,421.82,0.00013039425290106504
79,429.65999999999997,0.0001360267868541811
80,440.68,0.00014668158301021927
81,450.95000000000005,0.00015684513302405886
82,460.39,0.0001645944489471986
83,470.03000000000003,0.00017742375224159132
84,478.630092,0.000194033012615735
85,479.87,0.0001950134905723822
86,489.92,0.0001939005475166183
87,500.18,0.00021483573708356985
88,505.97,0.00024403811368129392
89,511.83,0.0006142464878199232
90,520.15,0.0006579235555389327
91,529.82,0.0007097814258325408
92,539.67,0.0006873144298027623
93,549.5408739999999,0.0009870819863338847
94,549.6999999999999,0.000991983916379206
95,559.92,0.001268891232749231
96,570.33,0.001528276936018503
97,579.6,0.001532866717892293
98,590.37,0.0019435406068654018
99,599.97,0.0020107408923010417
100,609.7099999999999,0.0024066876943992844
101,619.62,0.002956851695302117
102,629.6899999999999,0.00323109900096221
103,630.957344,0.0032654488066154647
104,639.92,0.003512802332347014
105,650.32,0.003995448579040783
106,657.8499999999999,0.00423814911919502
107,665.4699999999999,0.004745606207637954
108,674.72,0.005080720003976162
109,685.69,0.004947969056498338
110,695.23,0.006550840175100122
111,704.9,0.0060412001967855775
112,716.35,0.007895974506847467
113,724.43596,0.008365467228159664
114,726.32,0.008474629164468877
115,734.73,0.009012146489777694
116,744.95,0.009939379153827175
117,755.3100000000001,0.01071647742971295
118,765.8199999999999,0.010939834932566181
119,774.6899999999999,0.012543707553908538
120,785.46,0.012982137050172033
121,794.56,0.014289156819531159
122,805.6099999999999,0.01530356153946724
123,814.9399999999999,0.016167028456843136
124,824.38,0.017716143140661833
125,831.763771,0.015640899574499708
126,835.85,0.014490346930309502
127,845.52,0.019144492064179716
128,855.31,0.01980937494531616
129,865.22,0.021654975573718833
130,875.24,0.023138567470448877
131,885.37,0.024895330635506297
132,895.62,0.026359851547829948
133,906.0,0.026660186686358677
134,914.3800000000001,0.03431145603711694
135,924.9699999999999,0.18337637723336156
136,935.68,0.3883507061768724
137,944.33,0.7247480604589797
138,954.992586,1.0229777136952567
139,955.27,1.0307369906582002
140,964.11,1.11724249868159
141,975.27,0.18677517758894646
142,984.3000000000001,0.8673044750381784
143,995.69,0.9531313411452383
144,1004.91,1.4525482280203124
145,1014.2099999999999,1.4227767104431095
146,1025.95,0.6443918570714575
147,1035.44,0.9641581289200966
148,1045.02,1.892896995759924
149,1054.6899999999998,1.8413374575909398
150,1064.45,1.403246914413144
151,1074.3,1.6948513662265365
152,1084.24,1.3005988130311175
153,1094.27,1.7788522548268868
154,1096.4782,1.758001535861834
155,1104.3999999999999,1.6831997520720945
156,1114.6200000000001,1.585394971898707
157,1124.93,1.3903931760486463
158,1135.34,1.828666362780059
159,1145.8400000000001,1.6486935338347979
160,1153.79,1.7544311490619575
161,1164.46,1.791190290505202
162,1175.24,1.1752624127880675
163,1186.11,1.7382905193942593
164,1194.33,1.1861790875913978
165,1205.3899999999999,0.8339508611023897
166,1213.74,0.6253759066554441
167,1224.97,1.213743750554941
168,1236.31,1.8160767752940594
169,1244.88,1.9503962825263559
170,1256.39,1.8328342776539794
171,1258.92541,1.761855746247952
172,1265.1000000000001,1.5889999125241405
173,1273.87,2.014325021181669
174,1285.66,2.0802631672560428
175,1294.57,1.578103277648127
176,1303.54,1.596341388783592
177,1315.6100000000001,2.0050335383270776
178,1324.73,1.8798286513209952
179,1333.91,1.6486447650582938
180,1346.25,1.968472917946994
181,1355.5800000000002,1.9016430335427452
182,1364.98,1.6792921500057745
183,1374.44,1.7423382672121848
184,1383.97,1.754410385285873
185,1393.5600000000002,1.442574504102942
186,1406.46,1.493259663929865
187,1416.2,1.5926877846053868
188,1426.02,1.6223129062720834
189,1435.9099999999999,1.6335220288060577
190,1442.53,1.7065991108257654
191,1445.43977,1.7134882239579772
192,1445.86,1.7144831512466723
193,1455.8799999999999,1.6562652554399888
194,1465.97,1.5209793603612027
195,1476.1299999999999,1.531575466010314
196,1486.37,1.5492485724913079
197,1496.6699999999998,1.5564136795962142
198,1503.58,1.4492337514500881
199,1510.52,1.2827428236159182
200,1517.49,1.371311896093704
201,1524.49,1.3462949688834462
202,1535.06,1.1485430787959565
203,1545.7,1.1971161894363647
204,1556.42,1.1511433009086554
205,1563.6,1.2082063755701336
206,1574.44,1.2827604882902484
207,1585.3500000000001,1.3370096017382604
208,1596.34,1.3462877160181557
209,1603.71,1.3308337926553555
210,1614.83,1.33394290828706
211,1626.02,1.2739110246466618
212,1633.53,1.3556131027396567
213,1644.85,1.364960220451068
214,1656.25,1.2856783389943622
215,1659.58691,1.325777126958695
216,1663.9,1.3776067012231419
217,1671.58,1.2621982844312145
218,1675.43,1.3871975767946365
219,1683.1599999999999,1.4227751637996369
220,1694.83,1.3400590500025287
221,1706.5800000000002,1.2886699422805048
222,1714.4499999999998,1.2026675399169022
223,1726.3400000000001,1.1916344428262753
224,1734.31,1.268061048056528
225,1746.3300000000002,1.236360960837913
226,1754.39,1.2975875729026352
227,1766.55,1.2137534963154168
228,1774.6999999999998,1.2054101152146088
229,1787.01,1.2363580500181732
230,1795.25,1.2946046757518348
231,1803.54,1.2975923052824239
232,1816.04,1.1725952545143132
233,1824.4299999999998,1.2137458916387573
234,1837.0700000000002,1.167171851502044
235,1845.55,1.0718864954609577
236,1854.07,1.0596111424574135
237,1866.92,1.0867731182677955
238,1875.54,1.1834257728581066
239,1884.2,1.0693904304859594
240,1892.89,1.0119170903919688
241,1905.46072,1.0933144151283791
242,1906.01,1.0968709912276098
243,1914.8100000000002,1.0307141298340012
244,1923.65,1.0026222645249674
245,1936.98,1.0620449597094217
246,1945.9199999999998,1.0842850846118242
247,1954.91,0.9934623046199447
248,1968.46,1.0942968782695588
249,1977.5400000000002,1.130174989467972
250,1982.1,1.0596155431094658
251,1995.8400000000001,1.030714198160809
252,2005.05,1.0743122966340892
253,2014.31,1.0378663902130878
254,2023.6100000000001,1.0942924798766607
255,2032.95,1.009587565624808
256,2047.04,1.0402311864161782
257,2056.49,0.9686038613969055
258,2065.98,0.9888503324622073
259,2075.52,1.0669463986332273
260,2080.2999999999997,0.9843005307398808
261,2085.09,1.0307024618676779
262,2094.72,0.9730849192289905
263,2104.39,0.9934528726748777
264,2114.1,1.0026096222053393
265,2123.86,1.011889666841519
266,2133.66,0.9663615075622733
267,2143.51,0.9552740433887457
268,2153.41,0.9934510743209362
269,2163.35,0.9730819013377012
270,2173.33,0.9641103244390407
271,2183.36,0.9335344426460984
272,2187.7616199999998,0.9488440950230596
273,2193.44,0.9685955549512915
274,2203.57,0.9487236455318084
275,2213.74,0.9165282392340647
276,2223.9500000000003,0.8874459360580604
277,2234.2200000000003,0.9165342375646655
278,2244.53,0.8936162421930098
279,2254.89,0.8632858507235286
280,2265.3,0.8833411631562217
281,2275.76,0.8914920794910891
282,2286.2599999999998,0.8976027989476959
283,2296.81,0.847409322306477
284,2307.42,0.8512613503478674
285,2312.7400000000002,0.8166974655392149
286,2323.41,0.6699651982632143
287,2334.13,0.7762840348893881
288,2344.91,0.7726677761981712
289,2355.73,0.7906693206286937
290,2366.61,0.7602770697418253
291,2377.5299999999997,0.7602159219766964
292,2383.01,0.7327498496550017
293,2394.01,0.7602162081333517
294,2405.06,0.7343687705138761
295,2416.16,0.7411003367965746
296,2427.31,0.7548630069814477
297,2432.91,0.7275201440249712
298,2444.14,0.7513779204533232
299,2455.42,0.7410421007838492
300,2466.76,0.7358688857969847
301,2472.44,0.7158181290839872
302,2483.85,0.7290859195601667
303,2495.32,0.6542807147189553
304,2506.84,0.7256560137799182
305,2511.88643,0.6861261848017043
306,2512.62,0.6803798854635124
307,2518.41,0.7090884105772342
308,2524.21,0.6866120353889072
309,2535.8599999999997,0.688166983502009
310,2547.57,0.6693552298028179
311,2553.44,0.689722652500149
312,2565.23,0.6801900963845671
313,2577.07,0.7008691387587409
314,2583.01,0.6928353593417302
315,2594.93,0.6879778992995133
316,2606.91,0.6723452374450035
317,2612.92,0.6646171559136509
318,2624.98,0.6707250916427502
319,2637.1,0.6706565255595566
320,2643.18,0.6878505419138622
321,2655.38,0.6846721734142778
322,2667.6299999999997,0.6508556034044491
323,2673.78,0.6644316176444128
324,2686.1200000000003,0.6583296449161447
325,2692.32,0.6403858576458642
326,2704.74,0.6403291825012053
327,2717.23,0.6286159052422047
328,2723.4900000000002,0.628618316159631
329,2736.06,0.6373373364842396
330,2742.37,0.6002707458914218
331,2755.03,0.5988558634975908
332,2767.7400000000002,0.6043705795935157
333,2774.12,0.617008786886356
334,2786.9300000000003,0.6099188999617924
335,2793.35,0.5549621060464374
336,2806.25,0.5757553164034342
337,2812.7200000000003,0.605657320977835
338,2825.7,0.6028428289184412
339,2832.21,0.5770271322846466
340,2845.29,0.5743448372047644
341,2851.8500000000004,0.5716914390607255
342,2865.01,0.5822888415644526
343,2878.23,0.5729516422558866
344,2884.0315,0.5717863615629148
345,2884.87,0.5716179665039337
346,2898.1800000000003,0.5650498582763605
347,2911.5600000000004,0.5715564500055167
348,2931.74,0.5610870375312546
349,2952.0600000000004,0.5495368249704515
350,2972.5299999999997,0.545707412316926
351,2993.13,0.538178699583041
352,3006.95,0.5319868910402114
353,3027.7900000000004,0.5282840781579704
354,3048.7799999999997,0.519799865183007
355,3069.9100000000003,0.5126261521215026
356,3091.1899999999996,0.5055510389672758
357,3112.62,0.4985747257203265
358,3126.9900000000002,0.4894433168375145
359,3148.66,0.4860375034422093
360,3170.4900000000002,0.4760259899480001
361,3192.4599999999996,0.4640827763672499
362,3207.2000000000003,0.46299286725572253
363,3229.43,0.4555510535142534
364,3251.82,0.45237203967388034
365,3266.83,0.4461452303954525
366,3289.47,0.44100221640054205
367,3311.31121,0.4361260569721227
368,3312.27,0.43591199156972504
369,3319.91,0.4470791012905792
370,3327.56,0.44912801089326687
371,3335.23,0.4449985202596217
372,3342.9199999999996,0.4249622293896437
373,3350.63,0.4439453382833329
374,3358.35,0.4124054470588556
375,3366.0899999999997,0.4249198555980455
376,3373.85,0.4181180639009026
377,3381.63,0.4152275719674268
378,3389.43,0.4307910797976182
379,3397.2400000000002,0.43077778750964313
380,3405.07,0.4104380949853353
381,3412.9199999999996,0.41231800222469456
382,3420.7900000000004,0.418034409227721
383,3428.6699999999996,0.4180233161125809
384,3436.5800000000004,0.41897492264294167
385,3444.5,0.406606929055136
386,3452.44,0.4189499352309975
387,3460.4,0.39916384117052617
388,3468.3799999999997,0.39823444687372195
389,3476.37,0.39457295245875135
390,3484.38,0.3918456578074478
391,3492.42,0.4018776628016451
392,3500.47,0.39635376767767594
393,3508.54,0.38377327231737396
394,3516.62,0.38112037683890554
395,3524.73,0.3890865810059378
396,3532.8599999999997,0.3872845849366373
397,3541.0000000000005,0.39085568874917037
398,3549.1600000000003,0.3944618923253706
399,3557.34,0.3881400956652379
400,3565.54,0.39172129876877243
401,3573.77,0.38455650151780774
402,3582.0,0.367244004266843
403,3590.26,0.35804460666137894
404,3598.54,0.3672164088195821
405,3606.83,0.3680525108596189
406,3613.6600000000003,0.3978056301519531
407,3616.37,0.41714199812885294
408,3619.0699999999997,0.3773688662239192
409,3621.7700000000004,0.38430723431898545
410,3624.4700000000003,0.4301218024140517
411,3627.17,0.4322893705091179
412,3629.87,0.39251623860418416
413,3632.57,0.3860639066992504
414,3635.27,0.3543438747943166
415,3637.97,0.3621104428893829
416,3640.6699999999996,0.3704377109844491
417,3643.3700000000003,0.38579647907951536
418,3646.07,0.3700765471745816
419,3648.77,0.32452981526964786
420,3651.47,0.36452748336471413
421,3654.17,0.34376895145978037
422,3656.87,0.3202575195548466
423,3659.5699999999997,0.3358467876499129
424,3662.28,0.3118914556268127
425,3664.98,0.3105587237218789
426,3667.68,0.3337462918169452
427,3670.3799999999997,0.3446207599120114
428,3673.0800000000004,0.3067036280070776
429,3675.78,0.3453309961021439
430,3678.48,0.35005826419721014
431,3681.18,0.3588338322922764
432,3683.88,0.33065760038734265
433,3686.58,0.31513696848240885
434,3689.2799999999997,0.35308543657747515
435,3691.9800000000005,0.3713030046725414
436,3694.6800000000003,0.3210539727676076
437,3697.38,0.3648009408626739
438,3700.08,0.32728230895774013
439,3702.7799999999997,0.3312684770528064
440,3705.48,0.3338781451478726
441,3708.19,0.36123681312477246
442,3710.89,0.4353958812198387
443,3713.59,0.3780219493149049
444,3716.29,0.49202271740997117
445,3718.99,0.9676694855050374
446,3721.69,1.9914593536001037
447,3724.3900000000003,3.4041383216951697
448,3727.09,4.0983332897902365
449,3729.79,3.4794392578853026
450,3732.49,2.164979225980369
451,3735.19,1.0774741940754349
452,3737.89,0.5587214621705011
453,3740.5899999999997,0.4810746302655674
454,3743.2900000000004,0.43163529836063363
455,3745.9900000000002,0.41120686645569987
456,3748.69,0.3818409345507661
457,3751.39,0.38240160264583234
458,3754.1000000000004,0.3386466706227322
459,3756.8,0.34825063871779843
460,3759.5,0.34935930681286465
461,3762.2,0.3567646749079309
462,3764.9,0.34885504300299713
463,3767.6,0.3708654110980634
464,3770.2999999999997,0.35073597919312965
465,3773.0000000000005,0.39949034728819593
466,3775.7000000000003,0.3751320153832622
467,3778.4,0.3335588834783284
468,3781.1,0.37668925157339467
469,3783.7999999999997,0.3773308196684609
470,3786.5,0.35317798776352716
471,3789.2,0.33780055585859337
472,3791.9,0.3920421239536596
473,3794.6000000000004,0.3549780920487258
474,3797.3,0.3932567601437921
475,3800.0099999999998,0.41644232812069193
476,3801.8939600000003,0.40474786837564547
477,3802.71,0.3996823982249614
478,3805.4100000000003,0.37090207296780053
479,3808.11,0.3827232477106396
480,3810.81,0.3902283224534787
481,3813.5099999999998,0.36311709719631785
482,3816.21,0.361572571939157
483,3818.91,0.3783203466819961
484,3821.6099999999997,0.36395192142483523
485,3824.3100000000004,0.3682182961676744
486,3827.01,0.3814969709105135
487,3829.71,0.38820484565335256
488,3832.41,0.3691030203961917
489,3835.11,0.4411197951390308
490,3837.81,0.40491536988187
491,3840.5099999999998,0.37358134462470904
492,3843.21,0.3653103193675482
493,3845.92,0.3789046940168423
494,3848.62,0.4024161687596814
495,3851.3199999999997,0.40292694350252056
496,3854.0200000000004,0.3879669182453596
497,3856.7200000000003,0.3835761929881988
498,3859.42,0.4151594677310379
499,3862.12,0.5329408424738771
500,3864.8199999999997,0.8090368172167162
501,3867.52,0.9475519919595553
502,3870.22,0.9671088667023944
503,3872.92,0.6968676414452335
504,3875.6200000000003,0.4504739161880727
505,3878.32,0.38137839093091175
506,3881.02,0.4015142656737509
507,3883.72,0.49559144041659003
508,3886.42,0.5834528151594292
509,3889.12,0.6169606899022683
510,3891.83,0.5081513645515623
511,3894.5299999999997,0.4106681392944015
512,3897.23,0.36330281403724063
513,3899.93,0.36685298878007977
514,3902.63,0.3444814635229188
515,3905.3300000000004,0.35011803826575794
516,3908.03,0.3599213130085971
517,3910.73,0.35941068775143625
518,3913.43,0.35071626249427534
519,3916.13,0.3952977372371145
520,3918.83,0.3842614119799536
521,3921.5299999999997,0.34232078672279276
522,3924.23,0.3875127614656318
523,3926.9300000000003,0.34605783620847097
524,3929.63,0.3457839109513101
525,3932.33,0.32015488569414924
526,3935.0299999999997,0.3275914604369883
527,3937.7400000000002,0.34979333508628246
528,3940.44,0.3714550098291215
529,3943.14,0.37220248457196065
530,3945.8399999999997,0.3618513593147998
531,3948.54,0.36339603405763893
532,3951.24,0.376244908800478
533,3953.94,0.34863538354331713
534,3956.6400000000003,0.39492345828615627
535,3959.34,0.36161513302899545
536,3962.04,0.4698114077718345
537,3964.74,0.6256784825146737
538,3967.44,0.7639446572575128
539,3970.14,0.7270116320003519
540,3972.84,0.5813963067431911
541,3975.54,0.4354820814860301
542,3978.2400000000002,0.3545217562288693
543,3980.94,0.3728265309717084
544,3983.65,0.3355740056210025
545,3986.3500000000004,0.3861530803638416
546,3989.05,0.3749860551066807
547,3991.75,0.38637132984951983
548,3994.45,0.357516204592359
549,3997.15,0.3641804793351981
550,3999.85,0.3519919540780372
551,4002.55,0.3743636288208763
552,4005.25,0.3683847035637155
553,4007.9500000000003,0.3912111783065546
554,4010.65,0.35616515304939367
555,4013.35,0.33636572779223284
556,4016.0499999999997,0.360780402535072
557,4018.75,0.3572303772779111
558,4021.45,0.3817197520207502
559,4024.15,0.3503048267635893
560,4026.8500000000004,0.34760180150642844
561,4029.56,0.36850817615572257
562,4032.2599999999998,0.3652509508985617
563,4034.96,0.3572478256414008
564,4037.6600000000003,0.35218430038423987
565,4040.36,0.358960675127079
566,4043.06,0.36300904986991817
567,4045.7599999999998,0.34051292461275723
568,4048.46,0.3519230993555964
569,4051.16,0.3478125740984355
570,4053.86,0.35476944884127465
571,4056.56,0.34897112358411375
572,4059.26,0.34325989832695286
573,4061.96,0.361296873069792
574,4064.66,0.3614402478126312
575,4067.3599999999997,0.35270212255547023
576,4070.06,0.36104169729830937
577,4072.76,0.36870257204114854
578,4075.47,0.3581752466904426
579,4078.17,0.3795504214332817
580,4080.87,0.3670379961761209
