,lambda (Angstroms),Total Flux (erg/s/cm^2/Angstrom)
0,102.08999999999999,0.020212718967715967
1,103.97999999999999,0.02361379706608632
2,104.712855,0.02493260328518611
3,105.92,0.023120364136575443
4,107.89,0.020162982759597645
5,109.89,0.01716093105318364
6,114.02000000000001,0.010961265441798705
7,118.02,0.004956991137970713
8,120.22644299999999,0.0016545359108031351
9,121.05,0.001601160834692026
10,125.02,0.001330730418055974
11,127.05,0.0011919203303302345
12,127.93,0.0011325440596905046
13,130.91,0.0009290325300241489
14,132.12,0.0008511229803945206
15,133.96,0.0007259052790569044
16,137.07999999999998,0.0005210597567887746
17,138.038426,0.00045634312535020884
18,139.95000000000002,0.00045537667822355654
19,142.88,0.0005528352883014008
20,146.88,0.0007842586539366827
21,151.0,0.0008140896895410232
22,154.87,0.0008530603210431585
23,158.489319,0.0008966637003358067
24,158.83999999999997,0.0009004268974824886
25,162.17,0.0009285239297219989
26,165.94,0.0009818945190742375
27,169.81,0.0010241045214066415
28,172.97,0.0010615448315798707
29,177.0,0.0011085531546805394
30,179.87,0.0011447402272112886
31,181.95,0.0011718274971987306
32,181.970086,0.001172070199322908
33,186.19,0.0012440879372108116
34,190.97,0.0013365072635771664
35,194.07,0.0014033180087101578
36,198.14,0.0014748735031266983
37,201.82,0.0015586538715426368
38,205.1,0.00162260798252206
39,208.929613,0.001654582708438448
40,209.88,0.00166836652121158
41,215.76000000000002,0.0018924485156235136
42,219.77,0.0020135978910643046
43,222.82,0.0020782027776215153
44,226.96999999999997,0.0022081915576911615
45,230.12,0.0032334861618404116
46,233.86,0.005170368399782696
47,239.86,0.0068371524553050775
48,239.88329199999998,0.006835987121015968
49,246.01999999999998,0.006446505685256634
50,251.75,0.00700192754267788
51,257.02,0.005756016041562691
52,259.99,0.006907109747765324
53,264.22,0.007314296783872108
54,269.13,0.007348828045641448
55,274.13,0.007334688116689654
56,275.42287,0.007339172396349972
57,279.23,0.007400149404819505
58,283.77,0.007478215309722785
59,289.71,0.007228038198516944
60,295.78000000000003,0.007394107392958114
61,301.28,0.007287073401100855
62,308.28999999999996,0.00752366611329733
63,316.227766,0.00781191443674783
64,317.66,0.007847846850266411
65,328.07000000000005,0.007831639131559391
66,338.04,0.007734080604613284
67,348.31,0.007602074310557463
68,357.24,0.007560097509591691
69,363.078055,0.007627944485094179
70,366.41,0.007694821175794287
71,374.94,0.007625797067696401
72,384.55999999999995,0.007304436290451187
73,395.33,0.007651818082454205
74,404.53999999999996,0.007819164676172665
75,413.96000000000004,0.007720832104275584
76,416.86938299999997,0.007651476794291731
77,421.66,0.007530177766598685
78,430.48999999999995,0.007422723039316204
79,440.52,0.007476650121463059
80,450.78,0.007358268342083869
81,460.22,0.0071356432429279665
82,469.84999999999997,0.007068384388598375
83,478.630092,0.007127393778425144
84,479.69,0.00712907336554317
85,489.73999999999995,0.006738986455199995
86,499.99,0.00687980778047188
87,505.78,0.006553883751527901
88,511.64,0.007110444755049193
89,519.95,0.006952513894854984
90,529.62,0.006679156236843192
91,539.46,0.006227579229104201
92,549.49,0.006029813595199519
93,549.5408739999999,0.006030966736245621
94,559.71,0.00628145313137336
95,570.12,0.006447993464521171
96,579.38,0.0062493394380993385
97,590.15,0.006185983353373298
98,599.74,0.005695786360567102
99,609.49,0.004954672626483639
100,619.39,0.005874538634952738
101,629.45,0.00563117790214457
102,630.957344,0.005645895951109201
103,639.68,0.005750489090097162
104,650.0699999999999,0.005570810289599594
105,657.6,0.005315093368738509
106,665.22,0.0055194245006161356
107,674.4699999999999,0.005554717365428216
108,685.4300000000001,0.005109581232275826
109,694.97,0.005373926822579311
110,704.63,0.004844774816534413
111,716.08,0.005289699081626122
112,724.43596,0.005245428016822002
113,726.04,0.00523604573524922
114,734.4499999999999,0.005177639741703184
115,744.6700000000001,0.0050168832501407
116,755.03,0.004932404587460922
117,765.53,0.00438277075366385
118,774.4,0.004797588340732418
119,785.1700000000001,0.004522484891209136
120,794.26,0.004630537495093385
121,805.3100000000001,0.004629365703335514
122,814.64,0.004571348871018687
123,824.0699999999999,0.004550766773618079
124,831.763771,0.004176727598639586
125,835.53,0.003984917891500522
126,845.21,0.004357028750680436
127,854.99,0.004238708044356011
128,864.89,0.004231474059426378
129,874.91,0.004181693795891538
130,885.04,0.004115657110301924
131,895.29,0.004041826146107101
132,905.66,0.0039208379033070714
133,914.04,0.0038839281140434024
134,924.62,0.006780960883684259
135,935.33,0.010124246518169474
136,943.9799999999999,0.01385749060204409
137,954.9100000000001,0.016972279392419756
138,954.992586,0.016973866093904746
139,965.97,0.01719942720646081
140,974.91,0.006655327603757778
141,983.93,0.012820835950918702
142,995.3199999999999,0.01370664131279929
143,1004.53,0.01915226304088711
144,1016.16,0.019498878252359565
145,1025.57,0.011510509855107267
146,1035.05,0.01471491391398593
147,1044.63,0.02432848291019454
148,1054.3,0.0235663293500001
149,1064.05,0.01825158573966961
150,1073.9,0.021327117066669066
151,1083.83,0.016487938343532477
152,1093.86,0.02231049455772583
153,1096.4782,0.022029491756028842
154,1103.98,0.02122034383344644
155,1114.2,0.0199994870998786
156,1124.51,0.017417019768852723
157,1134.9099999999999,0.022636331840368815
158,1145.42,0.020711767626102863
159,1156.01,0.021812580658540887
160,1164.03,0.021855179640613873
161,1174.8,0.014343831478135824
162,1185.67,0.020917544874037738
163,1193.8899999999999,0.01468885697287065
164,1204.93,0.010858547018018501
165,1216.08,0.009152165777384312
166,1224.51,0.015658638148815143
167,1235.84,0.022301400713264887
168,1244.4099999999999,0.023870908266427664
169,1255.92,0.022386819635961338
170,1258.92541,0.02141383893268118
171,1264.6299999999999,0.019571810431335372
172,1276.33,0.025031043232974334
173,1285.1799999999998,0.026199417018829448
174,1294.09,0.019663044152385272
175,1306.06,0.019485802018677438
176,1315.11,0.025089416963534925
177,1324.23,0.023754935814043247
178,1336.4799999999998,0.02039413930293874
179,1345.75,0.025148366522698837
180,1355.07,0.02424812653220953
181,1364.47,0.021199961005321177
182,1373.9299999999998,0.022239048826133534
183,1383.45,0.022239729994646604
184,1396.25,0.01841421417079863
185,1405.93,0.0188386742665136
186,1415.67,0.020259647709929284
187,1425.49,0.020869285616945916
188,1435.37,0.020869716871663262
189,1441.99,0.02199043623464189
190,1445.43977,0.022226896520921333
191,1448.6499999999999,0.022446909043830815
192,1455.34,0.021545762324360267
193,1465.42,0.019672714352422578
194,1475.58,0.019852820126739355
195,1485.81,0.020448329179028786
196,1496.11,0.020729671509290875
197,1506.48,0.019407787117525614
198,1513.43,0.01709101257338207
199,1516.9199999999998,0.01846250600373301
200,1523.92,0.017845243800998504
201,1534.49,0.015123898774869405
202,1545.1200000000001,0.01618845655843115
203,1555.83,0.015541968088247357
204,1566.62,0.016298873364318026
205,1573.85,0.017526041932065105
206,1584.76,0.018633982827517468
207,1595.74,0.01897713700094249
208,1606.8,0.018804904920621972
209,1614.22,0.018934362385723397
210,1625.4099999999999,0.018094166393066383
211,1636.68,0.019547204146663832
212,1644.2300000000002,0.019950527699428757
213,1655.6299999999999,0.018764931540689707
214,1659.58691,0.01964113734765461
215,1663.27,0.020457796369264286
216,1670.95,0.018099612755979013
217,1678.6599999999999,0.02112564940201684
218,1686.41,0.02206030972715214
219,1694.1899999999998,0.020938680311610544
220,1705.94,0.020379788546493097
221,1713.81,0.019301649908920814
222,1725.69,0.019349312600870153
223,1733.6599999999999,0.02104747816104155
224,1745.67,0.020910075310057674
225,1753.73,0.022436981648198386
226,1765.8899999999999,0.021155360093830032
227,1774.04,0.021447297209940056
228,1786.34,0.022397373532412855
229,1794.5800000000002,0.024035581426492196
230,1807.02,0.024424415625806148
231,1815.3600000000001,0.022663067717629166
232,1823.74,0.02366516348854966
233,1836.3799999999999,0.023349576083350976
234,1844.8600000000001,0.021964116052015148
235,1853.3700000000001,0.022420646280002426
236,1866.22,0.02351984069006547
237,1874.8400000000001,0.0257598385355708
238,1883.4899999999998,0.024120766640399232
239,1896.55,0.02368996286572401
240,1905.3,0.025886905168296122
241,1905.46072,0.02587423253309406
242,1914.09,0.025187066234513552
243,1922.9299999999998,0.02495559945006079
244,1936.26,0.02695424341649118
245,1945.19,0.02839884695889354
246,1954.17,0.02670209846065985
247,1967.72,0.030188335448291644
248,1976.8,0.03173661286878587
249,1985.9299999999998,0.03073587824864404
250,1995.09,0.03080244040412059
251,2004.3,0.0328291905189611
252,2013.55,0.03289956300129276
253,2022.85,0.03498653344298838
254,2036.8700000000001,0.03364863324864136
255,2046.27,0.035459289609064894
256,2055.7200000000003,0.03213970392885238
257,2065.2000000000003,0.03425657502425824
258,2074.74,0.03937673967090084
259,2079.52,0.03735755258609494
260,2084.31,0.03964355109316183
261,2093.93,0.03865407047478676
262,2103.6,0.04036748781577565
263,2113.31,0.042155607524255706
264,2123.06,0.043326479600226925
265,2132.86,0.04312416963556209
266,2142.71,0.04391693763026122
267,2152.6,0.046499647992451515
268,2162.53,0.04660213072213297
269,2172.52,0.04800664700305117
270,2182.54,0.048113200059587746
271,2187.7616199999998,0.0496412162962822
272,2192.6200000000003,0.051066785813195854
273,2202.74,0.051778182554845016
274,2212.91,0.05142613686932841
275,2223.12,0.0521416652420792
276,2233.38,0.05446712118766422
277,2243.69,0.05508947470608348
278,2254.0499999999997,0.05464972579733697
279,2264.4500000000003,0.05701577094685785
280,2274.9,0.058807703669212966
281,2285.4,0.06037640396440231
282,2295.95,0.0577356318324259
283,2306.55,0.06106856727328372
284,2317.2000000000003,0.06085596028697578
285,2322.54,0.054985267065672076
286,2333.26,0.06186972468133206
287,2344.03,0.06322761986982627
288,2354.85,0.06535935263115472
289,2365.7200000000003,0.06513020296531742
290,2376.64,0.06625406087231434
291,2387.61,0.0654170163521455
292,2393.11,0.06875858936391135
293,2404.16,0.06946263296027728
294,2415.2599999999998,0.07147335412947746
295,2426.4,0.07456178935694502
296,2437.6,0.07446475567181365
297,2443.2200000000003,0.07773126085838167
298,2454.5,0.07906721528978508
299,2465.83,0.07987396729402273
300,2477.21,0.08031990687109462
301,2482.92,0.08044984368876426
302,2494.38,0.06642507138237093
303,2505.8999999999996,0.08285378016337866
304,2511.6699999999996,0.08018203806844938
305,2511.88643,0.08033500454753599
306,2517.46,0.08427152600056229
307,2523.2700000000004,0.08537755570698932
308,2534.9100000000003,0.08803790239938361
309,2546.61,0.0881134109303985
310,2552.4799999999996,0.09239635247544614
311,2564.27,0.0928984187643919
312,2576.1,0.09623214961241806
313,2582.04,0.09727122163585639
314,2593.96,0.09802425024181344
315,2605.9300000000003,0.09923622204662097
316,2617.9599999999996,0.0995440556900491
317,2624.0,0.10271848411118839
318,2636.1099999999997,0.1066454368727773
319,2642.1800000000003,0.11029851121322691
320,2654.38,0.1153073517327467
321,2666.6299999999997,0.10971138545111697
322,2672.78,0.11268964890972738
323,2685.12,0.11619297038602854
324,2697.51,0.11337858506118019
325,2703.7299999999996,0.11618913899818127
326,2716.21,0.11574104143126382
327,2722.4700000000003,0.11725598992734529
328,2735.0400000000004,0.11951508011835871
329,2747.6600000000003,0.11796286350822262
330,2753.9900000000002,0.12060840248269479
331,2766.71,0.12349607227025969
332,2773.08,0.12772340580381222
333,2785.89,0.12634946334930802
334,2792.31,0.12085669008171104
335,2805.2,0.1257519367453676
336,2818.14,0.13296817660787466
337,2824.64,0.1362594924584385
338,2837.6800000000003,0.13386361871864655
339,2844.2200000000003,0.13467692912829074
340,2857.3500000000004,0.1341438431464297
341,2863.9300000000003,0.1400124481151543
342,2877.15,0.1440165498912241
343,2883.79,0.1455585466985693
344,2884.0315,0.14561531806013664
345,2897.1000000000004,0.14868917746969598
346,2910.47,0.15685774025107685
347,2930.64,0.1578974841030179
348,2950.96,0.1582048275373978
349,2971.41,0.16184057060989135
350,2992.0099999999998,0.16403001326482372
351,3012.75,0.16433945553003235
352,3026.66,0.170191616808193
353,3047.64,0.17407955840530373
354,3068.7599999999998,0.1801015996126907
355,3090.03,0.18084574040251652
356,3111.4500000000003,0.18970238077478113
357,3133.0200000000004,0.1887331207294846
358,3147.4800000000005,0.1936454804765876
359,3169.2999999999997,0.19757531973535578
360,3191.27,0.1952037585765628
361,3213.39,0.19916189700020862
362,3228.22,0.1983195557173274
363,3250.6000000000004,0.21086689341720052
364,3273.13,0.2171141306995125
365,3288.2400000000002,0.22020088863718376
366,3311.0299999999997,0.21902222519572304
367,3311.31121,0.21941281146624939
368,3318.66,0.2296195333514032
369,3326.31,0.23150042626118764
370,3333.9800000000005,0.2344746181066839
371,3341.67,0.22525280888789206
372,3349.37,0.23999049913695614
373,3357.0899999999997,0.22843858832173206
374,3364.83,0.21944117644221983
375,3372.5899999999997,0.21720776349841944
376,3380.36,0.231413150022475
377,3388.1499999999996,0.2409291354822424
378,3395.96,0.23792491987772166
379,3403.79,0.2393138032089128
380,3411.6400000000003,0.23309518547581576
381,3419.4999999999995,0.23661876721057465
382,3427.3900000000003,0.24465924734890135
383,3435.2899999999995,0.24665282695508398
384,3443.21,0.23261590549697841
385,3451.14,0.2444345835067288
386,3459.1,0.241373659920047
387,3467.0800000000004,0.24166723526907702
388,3475.07,0.24419391008596297
389,3483.08,0.2422429838385608
390,3491.11,0.25104225652687046
391,3499.16,0.24619982815089198
392,3507.22,0.2522211992427694
393,3515.31,0.24172206873821467
394,3523.4100000000003,0.2533998377015158
395,3531.5299999999997,0.2513783056005288
396,3539.6699999999996,0.2617085724352537
397,3547.83,0.26749093820569037
398,3556.01,0.262914602911839
399,3564.21,0.2644439665536994
400,3572.42,0.2534251296634158
401,3580.66,0.24908719117669992
402,3586.66,0.17959497189025633
403,3589.3399999999997,0.2867604292756448
404,3592.0200000000004,0.27245768666103337
405,3594.71,0.33811674351427784
406,3597.39,0.19986180089966638
407,3600.07,0.24074875828505493
408,3602.75,0.22560391567044344
409,3605.43,0.263852173055832
410,3608.11,0.2522723304412205
411,3610.79,0.25398478782660905
412,3613.47,0.23061464521199757
413,3616.15,0.24410340259738608
414,3618.83,0.19054155998277464
415,3621.5199999999995,0.29985311683601906
416,3624.2000000000003,0.3217493742214076
417,3626.88,0.34996183160679617
418,3629.56,0.20551688899218468
419,3632.24,0.22436724637757322
420,3634.9199999999996,0.28035710376296175
421,3637.6,0.2511059611483503
422,3640.28,0.2896911185337388
423,3642.96,0.18562757591912732
424,3645.64,0.1566851333045159
425,3648.3300000000004,0.25423459015776034
426,3651.01,0.33751034754314885
427,3653.69,0.3168353049285374
428,3656.37,0.2967777623139259
429,3659.0499999999997,0.28865101969931445
430,3661.7300000000005,0.240984477084703
431,3664.4100000000003,0.2208708344700915
432,3667.09,0.31311589185548006
433,3669.77,0.3321769492408686
434,3672.45,0.29874300662625713
435,3675.14,0.23049826347950156
436,3677.82,0.21637792086489008
437,3680.5,0.23848467825027864
438,3683.18,0.21823073563566714
439,3685.86,0.27292919302105567
440,3688.54,0.2575877504064442
441,3691.2200000000003,0.29286040779183276
442,3693.9,0.25556656517722126
443,3696.58,0.3117811225626098
444,3699.2599999999998,0.28373697994799835
445,3701.95,0.3605406368012428
446,3704.6299999999997,0.30439649418663134
447,3707.31,0.29315365157201984
448,3709.9900000000002,0.2838197089574084
449,3712.67,0.27191716634279695
450,3715.35,0.2628638237281855
451,3718.0299999999997,0.305238781113574
452,3720.71,0.3629130384989625
453,3723.39,0.46181139588435105
454,3726.07,0.49130135326973956
455,3728.7599999999998,0.4580615101229841
456,3731.4399999999996,0.3408185675083725
457,3734.1200000000003,0.2927311248937611
458,3736.8,0.2668205822791496
459,3739.48,0.2739509396645382
460,3742.16,0.2138203970499267
461,3744.8399999999997,0.2810250544353152
462,3747.5199999999995,0.3311900118207038
463,3750.2000000000003,0.3156521692060923
464,3752.88,0.2570655265914808
465,3755.5699999999997,0.27459508344472533
466,3758.25,0.2946385408301138
467,3760.9300000000003,0.38585889821550234
468,3763.61,0.3541514556008909
469,3766.29,0.28785921298627937
470,3768.97,0.30466037037166793
471,3771.6499999999996,0.29758622775705645
472,3774.3300000000004,0.337631185142445
473,3777.01,0.4032780425278335
474,3779.69,0.41592459991322206
475,3782.38,0.4217334567664665
476,3785.06,0.346416114151855
477,3787.74,0.3339942715372436
478,3790.42,0.35953992892263215
479,3793.1,0.34182638630802065
480,3795.78,0.35022004369340914
481,3798.46,0.3408019010787977
482,3801.14,0.31977585846418627
483,3801.8939600000003,0.3086917060918999
484,3803.82,0.28037653720522787
485,3806.5,0.404104824306069
486,3809.19,0.41832131098564457
487,3811.87,0.3618543980864857
488,3814.5499999999997,0.38251558518732676
489,3817.2299999999996,0.3576578722881679
490,3819.9100000000003,0.375174859389009
491,3822.59,0.36805864648985015
492,3825.27,0.37385563359069124
493,3827.95,0.3403937206915324
494,3830.6299999999997,0.26212860779237346
495,3833.31,0.2671394948932146
496,3836.0,0.2707312815727902
497,3838.68,0.2869710686736313
498,3841.3599999999997,0.30846025577447245
499,3844.0400000000004,0.3891956428753135
500,3846.7200000000003,0.3808864299761547
501,3849.4,0.35920081707699575
502,3852.08,0.45821120417783684
503,3854.7599999999998,0.450702091278678
504,3857.4399999999996,0.4538603783795191
505,3860.1200000000003,0.4381259654803602
506,3862.81,0.4235404521599358
507,3865.49,0.4329446392607769
508,3868.17,0.438755726361618
509,3870.85,0.4176315134624592
510,3873.53,0.39858470056330025
511,3876.21,0.37500418766414134
512,3878.89,0.3819942747649825
513,3881.5699999999997,0.3558731618658236
514,3884.25,0.31651604896666474
515,3886.9300000000003,0.29641653606750584
516,3889.62,0.31078782274708144
517,3892.3,0.2867863098479225
518,3894.98,0.3084017969487637
519,3897.66,0.35879128404960475
520,3900.34,0.3673112711504459
521,3903.02,0.371887058251287
522,3905.7,0.41539894535212807
523,3908.38,0.38343893245296923
524,3911.06,0.41045841955381035
525,3913.74,0.4429240066546515
526,3916.4300000000003,0.42943329333422703
527,3919.11,0.41573418043506816
528,3921.79,0.4095022675359093
529,3924.47,0.3726016546367504
530,3927.1499999999996,0.3677031417375915
531,3929.8300000000004,0.3406416288384326
532,3932.51,0.27314231593927374
533,3935.19,0.3274338030401148
534,3937.87,0.278798790140956
535,3940.5499999999997,0.34756167724179704
536,3943.2400000000002,0.3705790639213727
537,3945.92,0.33863315102221375
538,3948.6,0.3569080381230549
539,3951.2799999999997,0.435313525223896
540,3953.96,0.4131928123247371
541,3956.6400000000003,0.3606839994255782
542,3959.32,0.3590839865264193
543,3962.0,0.33188207362726047
544,3964.68,0.2835138607281016
545,3967.3599999999997,0.23845804782894267
546,3970.0400000000004,0.2762151349297838
547,3972.73,0.2737855216093594
548,3975.41,0.3614406087102005
549,3978.09,0.3887407958110416
550,3980.77,0.44171298291188277
551,3983.4500000000003,0.46174257001272384
552,3986.13,0.481645757113565
553,3988.81,0.4583319442144061
554,3991.49,0.48271273131524717
555,3994.17,0.4960331184160883
556,3996.85,0.4793163055169294
557,3999.54,0.469825692196505
558,4002.2200000000003,0.5566105792973461
559,4004.9,0.5061090663981872
560,4007.58,0.5130430534990283
561,4010.2599999999998,0.4848587405998695
562,4012.94,0.5205948277007105
563,4015.62,0.4622609148015517
564,4018.3,0.5073730019023928
565,4020.98,0.511275189003234
566,4023.66,0.508804976104075
567,4026.3500000000004,0.5105991627836507
568,4029.03,0.49803704988449177
569,4031.71,0.48356613698533285
570,4034.39,0.472730424086174
