,lambda (Angstroms),Total Flux (erg/s/cm^2/Angstrom)
0,102.08999999999999,0.017686226612001473
1,103.97999999999999,0.020662193539013027
2,104.712855,0.02181616121446935
3,105.92,0.020230472110628513
4,107.89,0.01764280902614794
5,109.89,0.015016105840035683
6,114.02000000000001,0.009591534923073868
7,118.02,0.004337957659849374
8,120.22644299999999,0.0014495949902718728
9,121.05,0.0014033716703555227
10,125.02,0.0011674166720489773
11,127.05,0.0010462350727889552
12,127.93,0.0009945007084791915
13,130.91,0.0008168674525211304
14,132.12,0.0007494655240952057
15,133.96,0.0006402263541747914
16,137.07999999999998,0.0004624748634401778
17,138.038426,0.0004060811884972986
18,139.95000000000002,0.000405701017195612
19,142.88,0.0005040582522637257
20,146.88,0.0007367084096945973
21,151.0,0.0007678030408483953
22,154.87,0.0008079605934127637
23,158.489319,0.0008526740104191175
24,158.83999999999997,0.0008566024602971775
25,162.17,0.000886268701006749
26,165.94,0.0009414158416899578
27,169.81,0.0009854495187308113
28,172.97,0.0010243789276323868
29,177.0,0.001073286322845472
30,179.87,0.0011108258363098777
31,181.95,0.0011388932725488893
32,181.970086,0.0011391454398746673
33,186.19,0.0012105232575594601
34,190.97,0.0013022177306300205
35,194.07,0.001368558382621388
36,198.14,0.001439496690235861
37,201.82,0.0015227190125998071
38,205.1,0.0015861757347068026
39,208.929613,0.0016175697268146828
40,209.88,0.0016304783310601325
41,215.76000000000002,0.0018491454511705744
42,219.77,0.0019666020296812666
43,222.82,0.0020283981804188255
44,226.96999999999997,0.0021545652379797663
45,230.12,0.0031769590166103603
46,233.86,0.005110397099809859
47,239.86,0.006771655773391943
48,239.88329199999998,0.006770468989570141
49,246.01999999999998,0.006385642849599555
50,251.75,0.006945411474843145
51,257.02,0.005703497786367354
52,259.99,0.006856844529294659
53,264.22,0.007267240435888094
54,269.13,0.007305496414936267
55,274.13,0.007295149477103448
56,275.42287,0.007300614525649362
57,279.23,0.007358508104217067
58,283.77,0.007432897021007437
59,289.71,0.007177909048702327
60,295.78000000000003,0.007339062093838351
61,301.28,0.007227573600963248
62,308.28999999999996,0.007458488849135163
63,316.227766,0.007740308302271774
64,317.66,0.00777709036898311
65,328.07000000000005,0.007767058240114468
66,338.04,0.007675414279036624
67,348.31,0.00754950052173778
68,357.24,0.00751282132089273
69,363.078055,0.007584131642517589
70,366.41,0.007649465653820001
71,374.94,0.007576492184234351
72,384.55999999999995,0.007250677379144788
73,395.33,0.00759307269714743
74,404.53999999999996,0.0077561550916510815
75,413.96000000000004,0.0076534610912411365
76,416.86938299999997,0.007582758746653139
77,421.66,0.007460128920773849
78,430.48999999999995,0.007350221284401679
79,440.52,0.007401362106280176
80,450.78,0.007280130174323386
81,460.22,0.0070548827125619705
82,469.84999999999997,0.006984948715023579
83,478.630092,0.007041519059836177
84,479.69,0.007043584694850274
85,489.73999999999995,0.006657158273299995
86,499.99,0.006801712932912895
87,505.78,0.0064778977825869135
88,511.64,0.007036593160668044
89,519.95,0.006881689032998111
90,529.62,0.006611853457237794
91,539.46,0.006163860450466177
92,549.49,0.0059697480207995795
93,549.5408739999999,0.005970919691567756
94,559.71,0.0062226116149516906
95,570.12,0.006390386031456025
96,579.38,0.006192829758336921
97,590.15,0.0061307504342016355
98,599.74,0.005641690315496215
99,609.49,0.004901732423173184
100,619.39,0.005822772055583646
101,629.45,0.005580603914376499
102,630.957344,0.0055955006557660055
103,639.68,0.005698699953835016
104,650.0699999999999,0.005517360878399645
105,657.6,0.005260440697646196
106,665.22,0.005463554188039119
107,674.4699999999999,0.005497368944749689
108,685.4300000000001,0.005050481453241348
109,694.97,0.005313302594756897
110,704.63,0.004782606964467612
111,716.08,0.005225701571422856
112,724.43596,0.005180095262059614
113,726.04,0.0051705671433430675
114,734.4499999999999,0.005111396523990286
115,744.6700000000001,0.004949710843873112
116,755.03,0.004864290264028307
117,765.53,0.004313701784455869
118,774.4,0.004727712923140866
119,785.1700000000001,0.004451630279807994
120,794.26,0.004558856433206712
121,805.3100000000001,0.0045566799904185745
122,814.64,0.004497814887141351
123,824.0699999999999,0.004476375426915819
124,831.763771,0.004101636744700966
125,835.53,0.003910573530062957
126,845.21,0.004284603031845382
127,854.99,0.004168220788811509
128,864.89,0.00416294905199808
129,874.91,0.004115154821405095
130,885.04,0.004051125971514183
131,895.29,0.003979326627843714
132,905.66,0.0038603937903936877
133,914.04,0.0038251449747879773
134,924.62,0.006724274773223727
135,935.33,0.01006968320339829
136,943.9799999999999,0.013804641776788579
137,954.9100000000001,0.016921596968367286
138,954.992586,0.0169232000389657
139,965.97,0.01714910505565321
140,974.91,0.006605285528288056
141,983.93,0.012771076457053865
142,995.3199999999999,0.01365723864869938
143,1004.53,0.019103148910776222
144,1016.16,0.01945012847081462
145,1025.57,0.011462054873218858
146,1035.05,0.01466675592473769
147,1044.63,0.024280625046420222
148,1054.3,0.023518774431250087
149,1064.05,0.018204336272210908
150,1073.9,0.02128017618333543
151,1083.83,0.01644130855059092
152,1093.86,0.022264178988010103
153,1096.4782,0.021983258210166542
154,1103.98,0.021174845854265635
155,1114.2,0.019954991212393774
156,1124.51,0.017373534797746133
157,1134.9099999999999,0.022593866610322717
158,1145.42,0.020670332922840005
159,1156.01,0.021772184326223274
160,1164.03,0.021815569685537137
161,1174.8,0.014305277543368846
162,1185.67,0.020880056764783023
163,1193.8899999999999,0.014652174851261818
164,1204.93,0.01082294739076619
165,1216.08,0.009117659430211273
166,1224.51,0.015624958380213251
167,1235.84,0.022268831874106776
168,1244.4099999999999,0.023839179733124206
169,1255.92,0.022356219681466172
170,1258.92541,0.021383533664722607
171,1264.6299999999999,0.01954146537741845
172,1276.33,0.025000616578852542
173,1285.1799999999998,0.026168928641475766
174,1294.09,0.019632493633337113
175,1306.06,0.01945516801634276
176,1315.11,0.02505871984309306
177,1324.23,0.02372417508728784
178,1336.4799999999998,0.020363293140071397
179,1345.75,0.025117455707361482
180,1355.07,0.02421715071568334
181,1364.47,0.02116891962965603
182,1373.9299999999998,0.02220794147286684
183,1383.45,0.02220855624531578
184,1396.25,0.018382951149448802
185,1405.93,0.0188073437331994
186,1415.67,0.020228249246188122
187,1425.49,0.020837818664827677
188,1435.37,0.020838181012705355
189,1441.99,0.021958854205311653
190,1445.43977,0.02219529043159633
191,1448.6499999999999,0.02241528416335196
192,1455.34,0.021514098283815234
193,1465.42,0.019640991308369757
194,1475.58,0.019821037610896937
195,1485.81,0.02041648678165019
196,1496.11,0.020697768820629514
197,1506.48,0.01937582372783491
198,1513.43,0.01705900850170931
199,1516.9199999999998,0.018430481503266382
200,1523.92,0.01781317832587369
201,1534.49,0.01509177142801073
202,1545.1200000000001,0.016156266988627255
203,1555.83,0.015509715827216436
204,1566.62,0.016266557943778272
205,1573.85,0.017493684190556965
206,1584.76,0.018601561224077787
207,1595.74,0.01894465112582468
208,1606.8,0.018772354305544223
209,1614.22,0.018901768337507972
210,1625.4099999999999,0.018061506843933085
211,1636.68,0.019514478628330854
212,1644.2300000000002,0.019917757987000163
213,1655.6299999999999,0.018732095098103495
214,1659.58691,0.019608277743206295
215,1663.27,0.02042477932310625
216,1670.95,0.018066267411481637
217,1678.6599999999999,0.021091974476764735
218,1686.41,0.022026303511258123
219,1694.1899999999998,0.02090434152265923
220,1705.94,0.02034494747818146
221,1713.81,0.01926647242030571
222,1725.69,0.019313627275761382
223,1733.6599999999999,0.021011452140911355
224,1745.67,0.020873535896300463
225,1753.73,0.02240009769217359
226,1765.8899999999999,0.021117956332101277
227,1774.04,0.02140954505869755
228,1786.34,0.022359095590861248
229,1794.5800000000002,0.02399695124818067
230,1807.02,0.02438525367258038
231,1815.3600000000001,0.02262354925292552
232,1823.74,0.023625286802480952
233,1836.3799999999999,0.0233091590729321
234,1844.8600000000001,0.021923336545513258
235,1853.3700000000001,0.02237950299500212
236,1866.22,0.023478148103807286
237,1874.8400000000001,0.02571777746862445
238,1883.4899999999998,0.02407833581034933
239,1896.55,0.023646973757508506
240,1905.3,0.025843542022259105
241,1905.46072,0.02583086251673034
242,1914.09,0.025144171705199357
243,1922.9299999999998,0.02491319201880319
244,1936.26,0.026912570489429785
245,1945.19,0.028357666089031848
246,1954.17,0.02666141240307737
247,1967.72,0.03014839601725519
248,1976.8,0.03169717376018763
249,1985.9299999999998,0.030696942217563535
250,1995.09,0.030764009103605515
251,2004.3,0.03279126670409096
252,2013.55,0.03286214887613117
253,2022.85,0.034949631762614834
254,2036.8700000000001,0.03361250409256119
255,2046.27,0.03542367840793178
256,2055.7200000000003,0.03210461343774584
257,2065.2000000000003,0.03422200689622596
258,2074.74,0.03934269721203824
259,2079.52,0.03732377351283307
260,2084.31,0.039610035956516604
261,2093.93,0.03862108541543841
262,2103.6,0.04033503558880369
263,2113.31,0.04212369033372375
264,2123.06,0.04329509965019856
265,2132.86,0.04309332968111683
266,2142.71,0.04388664042647857
267,2152.6,0.04646989574339507
268,2162.53,0.046572925631866345
269,2172.52,0.047977992377669774
270,2182.54,0.04808509755213928
271,2187.7616199999998,0.0496134015083987
272,2192.6200000000003,0.05103875758654637
273,2202.74,0.05174970973548939
274,2212.91,0.05139721726066236
275,2223.12,0.052112297086819304
276,2233.38,0.054437302289206194
277,2243.69,0.055059202867823044
278,2254.0499999999997,0.05461899882266985
279,2264.4500000000003,0.05698458707850062
280,2274.9,0.058776060710561344
281,2285.4,0.060344299718852024
282,2295.95,0.05770306410337266
283,2306.55,0.061035533864123255
284,2317.2000000000003,0.06082245900110381
285,2322.54,0.05495153118246306
286,2333.26,0.061835517846165554
287,2344.03,0.06319293988609799
288,2354.85,0.06532419730226038
289,2365.7200000000003,0.06509457009465273
290,2376.64,0.06621794826327504
291,2387.61,0.06538042180812732
292,2393.11,0.06872175319342243
293,2404.16,0.06942531134024263
294,2415.2599999999998,0.07143554486329279
295,2426.4,0.07452349068732689
296,2437.6,0.07442596496283695
297,2443.2200000000003,0.07769222325108396
298,2454.5,0.07902768212856195
299,2465.83,0.07983393638226989
300,2477.21,0.08027937601220779
301,2482.92,0.08040906197766873
302,2494.38,0.06638378620957455
303,2505.8999999999996,0.08281198889295632
304,2511.6699999999996,0.08013999330989321
305,2511.88643,0.08029295028075853
306,2517.46,0.084229566500492
307,2523.2700000000004,0.08533569499361565
308,2534.9100000000003,0.08799623959946065
309,2546.61,0.0880719470640987
310,2552.4799999999996,0.09235498841601537
311,2564.27,0.09285725516884291
312,2576.1,0.0961911871608658
313,2582.04,0.09723036018137433
314,2593.96,0.09798359146158676
315,2605.9300000000003,0.09919576679079335
316,2617.9599999999996,0.09950380497879296
317,2624.0,0.10267833609728984
318,2636.1099999999997,0.10660549476368014
319,2642.1800000000003,0.11025867231157355
320,2654.38,0.11526772026615337
321,2666.6299999999997,0.10967196226972735
322,2672.78,0.11265033029601146
323,2685.12,0.11615386158777496
324,2697.51,0.11333968692853268
325,2703.7299999999996,0.11615034662340862
326,2716.21,0.11570246125235584
327,2722.4700000000003,0.11721751618642712
328,2735.0400000000004,0.11947682010356386
329,2747.6600000000003,0.11792481806969479
330,2753.9900000000002,0.12057046467235794
331,2766.71,0.12345835073647722
332,2773.08,0.12768579257833568
333,2785.89,0.1263120679306445
334,2792.31,0.12081940382149717
335,2805.2,0.12571486965219666
336,2818.14,0.13293132953189032
337,2824.64,0.13622275590113367
338,2837.6800000000003,0.13382710387881572
339,2844.2200000000003,0.13464052548725441
340,2857.3500000000004,0.13410766275312597
341,2863.9300000000003,0.13997637960076
342,2877.15,0.1439807061548211
343,2883.79,0.14552281586124813
344,2884.0315,0.1455795913290095
345,2897.1000000000004,0.14865345528598398
346,2910.47,0.15682202271969223
347,2930.64,0.15786177359014067
348,2950.96,0.1581691240952231
349,2971.41,0.16180487428365495
350,2992.0099999999998,0.16399432410672074
351,3012.75,0.1643037735887783
352,3026.66,0.17015593970716886
353,3047.64,0.17404388860464076
354,3068.7599999999998,0.18006593716110436
355,3090.03,0.18081008535220194
356,3111.4500000000003,0.1896667331779335
357,3133.0200000000004,0.18869748063829903
358,3147.4800000000005,0.19360984541701415
359,3169.2999999999997,0.19753969226843632
360,3191.27,0.19516813875449243
361,3213.39,0.19912628487518252
362,3228.22,0.19828394875266148
363,3250.6000000000004,0.21083129424005045
364,3273.13,0.21707853936207344
365,3288.2400000000002,0.2201653025575358
366,3311.0299999999997,0.21898664704625764
367,3311.31121,0.219377233414636
368,3318.66,0.22958400418247782
369,3326.31,0.23146494797853917
370,3333.9800000000005,0.2344391908433484
371,3341.67,0.22521743277690556
372,3349.37,0.23995517424483662
373,3357.0899999999997,0.22840331478151554
374,3364.83,0.21940595438694235
375,3372.5899999999997,0.217172593061117
376,3380.36,0.23137803126966563
377,3388.1499999999996,0.2408940685469621
378,3395.96,0.23788990489300646
379,3403.79,0.2392788403077987
380,3411.6400000000003,0.23306027479133878
381,3419.4999999999995,0.2365839088092528
382,3427.3900000000003,0.2446244414302887
383,3435.2899999999995,0.24661807358569846
384,3443.21,0.2325812048098561
385,3451.14,0.2443999355683877
386,3459.1,0.24133906493004112
387,3467.0800000000004,0.24163269336044238
388,3475.07,0.2441594213252176
389,3483.08,0.2422085483587407
390,3491.11,0.2510078744610117
391,3499.16,0.2461654996320305
392,3507.22,0.25218692433742323
393,3515.31,0.24168784764593781
394,3523.4100000000003,0.2533656704888263
395,3531.5299999999997,0.2513441924004627
396,3539.6699999999996,0.26167451338084696
397,3547.83,0.2674569334299791
398,3556.01,0.26288065254785914
399,3564.21,0.26441007073448697
400,3572.42,0.2533912884554888
401,3580.66,0.24905340477961244
402,3586.66,0.1795612254039743
403,3589.3399999999997,0.2867267006161892
404,3592.0200000000004,0.2724239758284042
405,3594.71,0.33808305057499316
406,3597.39,0.1998281257872081
407,3600.07,0.24071510099942306
408,3602.75,0.22557027621163803
409,3605.43,0.263818551423853
410,3608.11,0.25223872663606794
411,3610.79,0.2539512018482829
412,3613.47,0.23058107706049788
413,3616.15,0.24406985227271283
414,3618.83,0.19050802748492782
415,3621.5199999999995,0.2998196022315167
416,3624.2000000000003,0.32171587744373165
417,3626.88,0.34992835265594663
418,3629.56,0.2054834278681616
419,3632.24,0.22433380308037656
420,3634.9199999999996,0.2803236782925915
421,3637.6,0.2510725535048065
422,3640.28,0.28965772871702145
423,3642.96,0.1855942039292364
424,3645.64,0.1566517791414514
425,3648.3300000000004,0.2542012538880403
426,3651.01,0.33747702910025523
427,3653.69,0.3168020043124702
428,3656.37,0.2967444795246852
429,3659.0499999999997,0.28861775473690016
430,3661.7300000000005,0.2409512299491151
431,3664.4100000000003,0.22083760516133008
432,3667.09,0.3130826803735451
433,3669.77,0.33214375558576004
434,3672.45,0.298709830797975
435,3675.14,0.23046510554456387
436,3677.82,0.21634478075677882
437,3680.5,0.2384515559689938
438,3683.18,0.21819763118120875
439,3685.86,0.2728961063934237
440,3688.54,0.25755468160563866
441,3691.2200000000003,0.29282735681785366
442,3693.9,0.2555335320300686
443,3696.58,0.3117481072422836
444,3699.2599999999998,0.2837039824544985
445,3701.95,0.36050765720108746
446,3704.6299999999997,0.3043635324133024
447,3707.31,0.2931207076255174
448,3709.9900000000002,0.28378678283773234
449,3712.67,0.2718842580499473
450,3715.35,0.2628309332621623
451,3718.0299999999997,0.3052059084743773
452,3720.71,0.3628801836865922
453,3723.39,0.46177855889880715
454,3726.07,0.4912685341110221
455,3728.7599999999998,0.45802870885761104
456,3731.4399999999996,0.34078578406982596
457,3734.1200000000003,0.29269835928204097
458,3736.8,0.2667878344942559
459,3739.48,0.2739182097064709
460,3742.16,0.21378768491868586
461,3744.8399999999997,0.28099236013090084
462,3747.5199999999995,0.3311573353431158
463,3750.2000000000003,0.3156195105553307
464,3752.88,0.2570328857675457
465,3755.5699999999997,0.27456246051413463
466,3758.25,0.29460593572634963
467,3760.9300000000003,0.38582631093856457
468,3763.61,0.3541188861507795
469,3766.29,0.28782666136299445
470,3768.97,0.3046278365752095
471,3771.6499999999996,0.2975537117874244
472,3774.3300000000004,0.33759868699963935
473,3777.01,0.4032455622118543
474,3779.69,0.41589213742406933
475,3782.38,0.4217010121706582
476,3785.06,0.3463836873828732
477,3787.74,0.33396186259508814
478,3790.42,0.3595075378073031
479,3793.1,0.34179401301951806
480,3795.78,0.350187688231733
481,3798.46,0.340769563443948
482,3801.14,0.31974353865616295
483,3801.8939600000003,0.30865939129906844
484,3803.82,0.28034423255457436
485,3806.5,0.4040725337678103
486,3809.19,0.41828903461243905
487,3811.87,0.36182213582567496
488,3814.5499999999997,0.3824833370389109
489,3817.2299999999996,0.35762563825214694
490,3819.9100000000003,0.3751426394653829
491,3822.59,0.36802644067861884
492,3825.27,0.37382344189185485
493,3827.95,0.3403615431050908
494,3830.6299999999997,0.2620964443183268
495,3833.31,0.2671073455315628
496,3836.0,0.2706991463761914
497,3838.68,0.2869389475894274
498,3841.3599999999997,0.3084281488026634
499,3844.0400000000004,0.3891635500158993
500,3846.7200000000003,0.38085435122913536
501,3849.4,0.3591687524423713
502,3852.08,0.45817915365560724
503,3854.7599999999998,0.45067005486884326
504,3857.4399999999996,0.4538283560820792
505,3860.1200000000003,0.43809395729531514
506,3862.81,0.42350845813994387
507,3865.49,0.4329126593531798
508,3868.17,0.43872376056641577
509,3870.85,0.4175995617796518
510,3873.53,0.3985527629928877
511,3876.21,0.3749722642061237
512,3878.89,0.3819623654193597
513,3881.5699999999997,0.35584126663259563
514,3884.25,0.31648416784583167
515,3886.9300000000003,0.29638466905906763
516,3889.62,0.31075596990369625
517,3892.3,0.2867544711169322
518,3894.98,0.3083699723301682
519,3897.66,0.35875947354340415
520,3900.34,0.3672794747566402
521,3903.02,0.3718552759698761
522,3905.7,0.41536717718311206
523,3908.38,0.3834071783963481
524,3911.06,0.41042667960958407
525,3913.74,0.44289228082282
526,3916.4300000000003,0.4294015816674487
527,3919.11,0.4157024828806846
528,3921.79,0.4094705840939206
529,3924.47,0.3725699853071566
530,3927.1499999999996,0.36767148652039255
531,3929.8300000000004,0.3406099877336285
532,3932.51,0.2731106889468645
533,3935.19,0.32740219016010047
534,3937.87,0.2787671913733365
535,3940.5499999999997,0.3475300925865724
536,3943.2400000000002,0.3705474934312011
537,3945.92,0.338601594644437
538,3948.6,0.35687649585767306
539,3951.2799999999997,0.435281997070909
540,3953.96,0.413161298284145
541,3956.6400000000003,0.36065249949738093
542,3959.32,0.3590525007106169
543,3962.0,0.3318506019238529
544,3964.68,0.2834824031370889
545,3967.3599999999997,0.23842660435032484
546,3970.0400000000004,0.2761837055635608
547,3972.73,0.2737541064081895
548,3975.41,0.3614092076214254
549,3978.09,0.38870940883466143
550,3980.77,0.4416816100478974
551,3983.4500000000003,0.46171121126113335
552,3986.13,0.48161441247436937
553,3988.81,0.45830061368760533
554,3991.49,0.4826814149008413
555,3994.17,0.4960018161140773
556,3996.85,0.4792850173273132
557,3999.54,0.46979441817194184
558,4002.2200000000003,0.5565793193851779
559,4004.9,0.5060778205984139
560,4007.58,0.5130118218116497
561,4010.2599999999998,0.4848275230248858
562,4012.94,0.5205636242381217
563,4015.62,0.46222972545135776
564,4018.3,0.5073418266645937
565,4020.98,0.5112440278778297
566,4023.66,0.5087738290910656
567,4026.3500000000004,0.5105680299356943
568,4029.03,0.49800593114893027
569,4031.71,0.4835350323621663
