,lambda (Angstroms),Total Flux (erg/s/cm^2/Angstrom)
0,102.08,3.710527904998545
1,103.97999999999999,3.699951776547844
2,104.712855,3.695872425176588
3,105.91,3.6608686165752347
4,107.88000000000001,3.603266988662842
5,109.88,3.544788187623503
6,114.00999999999999,3.4240294521961663
7,118.01,3.307071843801437
8,120.22644299999999,3.2422645388503137
9,121.04,3.2223209257939893
10,125.01,3.1249997544643877
11,127.04,3.075236028590769
12,127.92,3.0536635890282637
13,130.9,2.9806114267973554
14,132.11,2.950949381316585
15,133.95000000000002,2.905843363281864
16,137.07,2.82935935687879
17,138.038426,2.805619237149088
18,139.94,2.772299314676562
19,142.87,2.720960504483331
20,146.87,2.6508746624601964
21,150.98,2.5788586902012307
22,154.85999999999999,2.51087301227173
23,158.489319,2.4472798896611723
24,158.83,2.4427669135797845
25,162.16000000000003,2.3986545802265336
26,165.93,2.3487139668614807
27,170.19,2.292282141867899
28,172.95999999999998,2.2555884730593965
29,176.98,2.202336136567706
30,179.85999999999999,2.164185341975003
31,181.94,2.1366319620519385
32,181.970086,2.136233418339518
33,186.17999999999998,2.0936881780990135
34,190.95999999999998,2.0453819983097468
35,194.06,2.0140538497795104
36,198.12,1.973023888392685
37,201.81,1.9357335416889199
38,205.07999999999998,1.9026873961124129
39,208.929613,1.8637830218462035
40,209.86,1.8567141307891222
41,216.24,1.8082429185265751
42,219.75000000000003,1.7815761081556598
43,222.80999999999997,1.7583273807712725
44,226.95,1.7268741544612183
45,230.11,1.7028863406753798
46,233.85,1.6745137548811284
47,239.85,1.6289561275940936
48,239.88329199999998,1.628703157982451
49,246.0,1.5928863246081926
50,251.73000000000002,1.559348664052557
51,257.0,1.5284704696902185
52,259.98,1.5110449411640765
53,264.2,1.4863464930820902
54,269.11,1.457601001910158
55,274.12,1.4282692709353353
56,275.42287,1.4206413473193353
57,279.21000000000004,1.4036253117026525
58,283.75,1.3832279986044216
59,289.69,1.3565314708406562
60,295.76,1.3292613396350916
61,301.25,1.304590020785248
62,308.27,1.2730507274280711
63,316.227766,1.2372989790661966
64,317.64,1.2325604097583254
65,328.05,1.1976251786326788
66,338.01,1.164198584413905
67,348.28,1.1297306624459522
68,357.21999999999997,1.0997278925760887
69,363.078055,1.0800699106644578
70,366.38,1.0717723179956642
71,374.91999999999996,1.050307615435761
72,385.42,1.0239101690030927
73,395.30999999999995,0.9990623214961323
74,405.45,0.9735817865360128
75,413.94,0.9522447386667411
76,416.86938299999997,0.9448817832104087
77,421.63,0.9357440064188401
78,430.46000000000004,0.9187967146562365
79,441.5,0.8976181155463675
80,450.74999999999994,0.8798705759725192
81,460.19,0.8617525579959643
82,469.82000000000005,0.8432793091167035
83,478.630092,0.8263889087876911
84,479.66,0.8248708782504339
85,489.7,0.8100500973279962
86,499.96,0.7949452303349472
87,505.75,0.7864036017265892
88,511.59999999999997,0.7779345190989736
89,519.92,0.7656761834285869
90,529.5799999999999,0.751442108428114
91,539.43,0.7368866383166587
92,549.46,0.7221665978474304
93,549.5408739999999,0.7220486053419001
94,559.6700000000001,0.7108166550378974
95,570.08,0.6992366508980092
96,579.34,0.6888565571418743
97,590.11,0.676882554685333
98,599.7,0.6660673443555993
99,609.4399999999999,0.6551976083105937
100,619.35,0.6444009446549459
101,629.41,0.6331652792840262
102,630.957344,0.6314574621010179
103,639.64,0.6239008997856209
104,650.0300000000001,0.6147798640289994
105,657.56,0.6080956045691961
106,665.1700000000001,0.6016004708003904
107,674.4300000000001,0.5935822787834208
108,685.38,0.5836997668637864
109,694.92,0.5758088752653101
110,704.5899999999999,0.5668984082897058
111,716.03,0.5575667631024345
112,724.43596,0.5502968796545622
113,726.0,0.5493040543414719
114,734.4000000000001,0.543986736353007
115,744.62,0.5374786664337082
116,754.9799999999999,0.5308941759812682
117,765.48,0.523869798995687
118,774.34,0.51874252639833
119,785.12,0.5116495523464668
120,794.21,0.5062187544446638
121,805.26,0.4993214490788856
122,814.58,0.49351902687263643
123,825.91,0.4865256394405761
124,831.763771,0.4819754194327726
125,835.48,0.47970862393294045
126,845.1500000000001,0.4766050899542367
127,854.94,0.472019843029572
128,864.84,0.4677726064877762
129,874.8499999999999,0.4633247553288494
130,884.9799999999999,0.4588227422239613
131,895.23,0.454217340173112
132,905.59,0.44928054150513175
133,913.97,0.4465978119455106
134,924.56,0.47546858671443815
135,935.26,0.5147295648662344
136,943.9200000000001,0.5767153220993706
137,954.85,0.6222539336880748
138,954.992586,0.6225248015591744
139,965.9,0.6433621102398083
140,974.84,0.45836574864229124
141,986.1300000000001,0.595906378817239
142,995.25,0.5974719232278257
143,1004.4599999999999,0.6708085506424643
144,1016.09,0.6606850654993857
145,1025.5,0.5209498662563616
146,1034.98,0.5882664426831556
147,1044.56,0.7281326557811184
148,1054.23,0.711307451883133
149,1063.98,0.6426071773220826
150,1073.8300000000002,0.6832506394322009
151,1083.76,0.6209844308792541
152,1093.79,0.6889765589974761
153,1096.4782,0.682393075149541
154,1103.91,0.6648451723994545
155,1114.12,0.6498561032646302
156,1124.43,0.6093711547063498
157,1134.84,0.6732373267246141
158,1145.34,0.6432501872617681
159,1155.94,0.6517027683754664
160,1163.95,0.6523427465566668
161,1174.72,0.5410682726504905
162,1185.59,0.6369139193208586
163,1193.81,0.5676578707128019
164,1204.85,0.5017110623632954
165,1216.0,0.44407660664798754
166,1224.43,0.549574731250674
167,1235.76,0.625388352573146
168,1244.32,0.6377901939253402
169,1255.84,0.6205202243432463
170,1258.92541,0.6110340036826232
171,1264.5400000000002,0.5944113635734432
172,1276.2399999999998,0.6402631079183478
173,1285.0900000000001,0.6453772260766728
174,1293.9999999999998,0.5767915721547157
175,1305.9699999999998,0.5798079421383486
176,1315.02,0.632663586695732
177,1324.14,0.6111223304927856
178,1336.39,0.5806824974351001
179,1345.6599999999999,0.6156224110314477
180,1354.98,0.6048197812275595
181,1364.38,0.5727586219832946
182,1373.8300000000002,0.5745616193387943
183,1386.54,0.5717226669989428
184,1396.1599999999999,0.506626276793642
185,1405.8300000000002,0.5113031431881057
186,1415.58,0.5431046801421928
187,1425.39,0.5389227450159972
188,1435.27,0.5432344091294722
189,1441.9,0.5508309942582514
190,1445.43977,0.5498316228476887
191,1448.5500000000002,0.5492192065747108
192,1455.2399999999998,0.5391352981391406
193,1465.32,0.5176199504514654
194,1475.48,0.5190135071472212
195,1485.71,0.5183561426784793
196,1496.0100000000002,0.5163227570452396
197,1506.3799999999999,0.4976086502475023
198,1513.33,0.4703120060580833
199,1516.8200000000002,0.4816549222852671
200,1523.82,0.4796609058354926
201,1534.3799999999999,0.44368598444840424
202,1545.02,0.43998066744474695
203,1555.7299999999998,0.43208422927659196
204,1566.5100000000002,0.44608216994393923
205,1573.7400000000002,0.4601532410965292
206,1584.6499999999999,0.4645953138869522
207,1595.64,0.46486539106080615
208,1606.7,0.4596311470701624
209,1614.11,0.4563588780854726
210,1625.3000000000002,0.4470273662179044
211,1636.57,0.4586247587337675
212,1644.1200000000001,0.4583741474200821
213,1655.52,0.44697847205902075
214,1659.58691,0.453035835670069
215,1663.1599999999999,0.45856906632977507
216,1670.8400000000001,0.43928691798883635
217,1678.55,0.46215772102156594
218,1686.3,0.46301949255251973
219,1694.08,0.44869791545714177
220,1705.8200000000002,0.43978511968596723
221,1713.7,0.42584891383615
222,1725.58,0.4219381578087605
223,1733.5400000000002,0.4341615889553917
224,1745.56,0.4266203726717872
225,1753.61,0.43437875793942315
226,1765.7700000000002,0.4209358813996035
227,1773.9199999999998,0.4169501379128001
228,1786.21,0.42041838399220943
229,1794.46,0.4281301117509667
230,1806.8999999999999,0.4270082146987171
231,1815.24,0.40562489657847905
232,1823.62,0.41064724695646526
233,1836.2600000000002,0.40216199239533695
234,1844.73,0.3839054968943278
235,1853.25,0.3827270870160989
236,1866.1,0.38562759207064823
237,1874.71,0.3979558363134239
238,1883.3600000000001,0.377026949054424
239,1896.42,0.3652298137246507
240,1905.1699999999998,0.3786555977112115
241,1905.46072,0.3782616589638138
242,1913.96,0.36705878242130535
243,1922.8,0.3593167417099273
244,1936.13,0.36882398688157103
245,1945.0600000000002,0.37356462561996395
246,1954.04,0.3556692973860075
247,1967.59,0.3712797478793138
248,1976.67,0.37721208570065845
249,1985.79,0.36379216994412367
250,1994.96,0.35835658721523933
251,2004.17,0.36396625090847556
252,2013.4199999999998,0.35897996102383223
253,2022.71,0.36569551756130936
254,2036.73,0.35019203851453107
255,2046.1299999999999,0.3541623477128394
256,2055.58,0.3369126899387984
257,2065.06,0.3415596919813477
258,2074.6,0.35733811365707774
259,2079.38,0.3424914111004729
260,2084.17,0.3498094951493981
261,2093.79,0.338648809669369
262,2103.46,0.3414902572169905
263,2113.17,0.3424427511867325
264,2122.92,0.34292199157859493
265,2132.72,0.3347025649981079
266,2142.56,0.3308840848397414
267,2157.42,0.33602058065749274
268,2167.3700000000003,0.3311920531599574
269,2177.3799999999997,0.32922854529560297
270,2187.43,0.3235513838533688
271,2187.7616199999998,0.32370187929981986
272,2197.53,0.3284551471806797
273,2202.59,0.32481962821811783
274,2212.76,0.31815586224000425
275,2222.97,0.31298225381949896
276,2233.23,0.31720281734600386
277,2243.54,0.312901152819519
278,2253.9,0.30649256024004445
279,2264.2999999999997,0.30883082521817806
280,2274.75,0.30899326214332196
281,2285.25,0.3095969710154761
282,2295.8,0.2989464518346405
283,2306.4,0.30035700460081516
284,2317.04,0.29460991492459804
285,2322.38,0.26851869886529356
286,2333.1,0.28544052430429284
287,2343.8700000000003,0.2831453216903024
288,2354.69,0.2867976910233222
289,2365.56,0.2797518323033522
290,2376.48,0.2794105455303926
291,2387.4500000000003,0.2721989307044431
292,2392.9500000000003,0.27638084487557146
293,2404.0,0.27147204516483847
294,2415.09,0.27186150301171363
295,2426.2400000000002,0.27455394719500115
296,2437.44,0.26849116332529893
297,2443.06,0.2722782501692519
298,2454.33,0.270002767025364
299,2465.66,0.26736177021788843
300,2477.04,0.26326264535742316
301,2482.75,0.26361806170599456
302,2494.21,0.24640305196074563
303,2505.73,0.26208362855190903
304,2511.5,0.2516818312368928
305,2511.88643,0.25198504406790345
306,2517.29,0.2563194022630364
307,2523.1,0.25284490534809856
308,2534.74,0.25227208984209576
309,2546.4399999999996,0.2489165093077115
310,2552.31,0.25281414736439217
311,2564.09,0.25012688012549933
312,2575.9300000000003,0.252713747858225
313,2587.82,0.25071436140063275
314,2593.78,0.24901230191474125
315,2605.7599999999998,0.24530231791457685
316,2617.78,0.2430060905621581
317,2623.82,0.244411944371758
318,2635.9300000000003,0.24519661947676707
319,2642.01,0.24910582993411273
320,2654.2,0.24957391833461323
321,2666.4500000000003,0.24094314170673226
322,2672.6,0.24303687629763282
323,2684.94,0.24243310212717967
324,2697.33,0.2367282737664086
325,2703.55,0.23708823249086414
326,2716.0299999999997,0.23315760658752094
327,2722.29,0.23186892195972217
328,2734.85,0.23321280935187033
329,2747.48,0.22456772087757346
330,2753.81,0.22487966038332965
331,2766.52,0.22551158520452416
332,2772.8999999999996,0.22774817051996255
333,2785.7,0.2236156977985848
334,2792.1200000000003,0.2113011397617688
335,2805.01,0.21443856949781898
336,2817.9500000000003,0.2223341450435512
337,2824.45,0.22327800030222666
338,2837.49,0.21825436746732313
339,2844.03,0.21670767937374422
340,2857.15,0.21363975983433212
341,2863.7400000000002,0.2178827175504353
342,2876.96,0.2166087896303875
343,2883.5899999999997,0.21566640399423637
344,2884.0315,0.2156140169024447
345,2896.9,0.21428018796953646
346,2910.27,0.21721763260966856
347,2930.45,0.2131217898899876
348,2950.76,0.20969975710323235
349,2971.21,0.20899397347501253
350,2991.81,0.20679497823093781
351,3012.5499999999997,0.2049023321453985
352,3033.43,0.20359313521839456
353,3047.43,0.20194475107193605
354,3068.5499999999997,0.20063819555956428
355,3089.8199999999997,0.19818712843133762
356,3111.2400000000002,0.19716004968725598
357,3132.81,0.1938879593273195
358,3147.27,0.19283157955890587
359,3169.0800000000004,0.19097573061360149
360,3191.05,0.18616950927805187
361,3213.17,0.18620237632664738
362,3227.9999999999995,0.18252834790579164
363,3250.38,0.1843730348202386
364,3272.91,0.18439161011883065
365,3288.02,0.18227388001504574
366,3310.81,0.18017047517948925
367,3311.31121,0.18034399560155343
368,3318.4399999999996,0.18288702176474714
369,3326.0899999999997,0.18297233158090626
370,3333.76,0.18305193031161746
371,3341.44,0.1776090734996047
372,3349.14,0.18322060560214398
373,3356.8700000000003,0.1777486710765113
374,3364.6,0.17300933655087863
375,3372.3599999999997,0.1715928353970741
376,3380.13,0.17641367870054553
377,3387.9300000000003,0.17908345537584502
378,3395.73,0.17680953205114458
379,3403.56,0.17636014209827217
380,3411.4100000000003,0.1728718410599518
381,3419.27,0.17419068447890748
382,3427.15,0.17527601681241523
383,3435.06,0.175856882517751
384,3442.9700000000003,0.1698733482230868
385,3450.91,0.1724131473002507
386,3458.87,0.1699803352919666
387,3466.84,0.16929496774095854
388,3474.83,0.17108158910450255
389,3482.8399999999997,0.1676844993825986
390,3490.87,0.1709418985752467
391,3498.9199999999996,0.16729438668244684
392,3506.98,0.169058619246923
393,3515.07,0.16450458518322725
394,3523.17,0.16768089557680754
395,3531.2900000000004,0.16626629488493985
396,3539.4300000000003,0.16876378310762422
397,3547.5899999999997,0.17031836024486066
398,3555.77,0.16861642629664914
399,3563.9700000000003,0.16742688126298963
400,3572.18,0.1628762806866062
401,3580.42,0.16010791348205083
402,3588.67,0.15495798073477146
403,3596.95,0.1601674013593202
404,3605.2400000000002,0.16160215644114495
405,3613.5499999999997,0.15907083043752174
406,3614.78,0.15788543868247282
407,3617.52,0.15818055997610367
408,3620.26,0.17089113126973451
409,3622.99,0.16262596810608937
410,3625.7299999999996,0.17618894939972024
411,3628.47,0.16057433069335109
412,3631.2,0.16265976752970593
413,3633.94,0.16531624882333676
414,3636.68,0.16892563011696762
415,3639.4100000000003,0.16511316695332245
416,3642.15,0.15975904824695333
417,3644.89,0.1697271295405842
418,3647.62,0.164162166376939
419,3650.36,0.16266774767056988
420,3653.1000000000004,0.15431706896420072
421,3655.84,0.15779944025783157
422,3658.5699999999997,0.15714237709418644
423,3661.31,0.15679687838781728
424,3664.0499999999997,0.15658374968144814
425,3666.78,0.16396364651780296
426,3669.52,0.15686243781143383
427,3672.2599999999998,0.1515560691050647
428,3674.9900000000002,0.15745349594141952
429,3677.73,0.15814572723505038
430,3680.4700000000003,0.15992330852868122
431,3683.2,0.15253169536503608
432,3685.9399999999996,0.15173618665866695
433,3688.68,0.16337200795229778
434,3691.42,0.16289408924592863
435,3694.15,0.15725502608228348
436,3696.89,0.15826490737591434
437,3699.6299999999997,0.1531755886695452
438,3702.36,0.1477164155059
439,3705.1,0.1491816467995309
440,3707.84,0.14955620809316172
441,3710.57,0.16180172492951655
442,3713.3100000000004,0.17827660622314742
443,3716.05,0.23562988751677827
444,3718.79,0.3110474688104091
445,3721.52,0.476911905646764
446,3724.2599999999998,0.7056243869403948
447,3726.9999999999995,0.7617800682340257
448,3729.73,0.5806376050703805
449,3732.47,0.35159808636401135
450,3735.21,0.21509006765764224
451,3737.94,0.17564610449399706
452,3740.6800000000003,0.1634992857876279
453,3743.42,0.1634714670812588
454,3746.1499999999996,0.15339025391761363
455,3748.89,0.1554802152112445
456,3751.63,0.16005326650487534
457,3754.3700000000003,0.1647956477985062
458,3757.1,0.171344384634861
459,3759.8399999999997,0.1688492659284919
460,3762.58,0.16847734722212274
461,3765.31,0.16695198405847758
462,3768.05,0.16654296535210844
463,3770.79,0.1645032466457393
464,3773.52,0.16462978348209412
465,3776.26,0.175159064775725
466,3779.0,0.17879494606935584
467,3781.73,0.1757765829057107
468,3784.47,0.17199506419934155
469,3787.2099999999996,0.1824554454929724
470,3789.9500000000003,0.17059982678660324
471,3792.68,0.16668146362295808
472,3795.42,0.15689064491658894
473,3798.16,0.1622154262102198
474,3800.8900000000003,0.1652009630465746
475,3801.8939600000003,0.1677922355777988
476,3803.63,0.17228591100107418
477,3806.37,0.1720082998053501
478,3809.1000000000004,0.17233507003734763
479,3811.84,0.17879205884162352
480,3814.5800000000004,0.17737094764589945
481,3817.32,0.16946403645017535
482,3820.0499999999997,0.1729093066821729
483,3822.79,0.1716998954864488
484,3825.5299999999997,0.16610148429072472
485,3828.26,0.16283865452272223
486,3831.0,0.16224874332699812
487,3833.74,0.15973163213127406
488,3836.4700000000003,0.16368510236327158
489,3839.21,0.16062259116754748
490,3841.9500000000003,0.16793197997182338
491,3844.68,0.17044015020382092
492,3847.4199999999996,0.17329153900809685
493,3850.1600000000003,0.17765722781237273
494,3852.9,0.17991041661664867
495,3855.63,0.18486988684864616
496,3858.37,0.1912209756529221
497,3861.1099999999997,0.19579306445719802
498,3863.84,0.20130853468919552
499,3866.58,0.20528762349347143
500,3869.32,0.20421051229774737
501,3872.05,0.1924449825297449
502,3874.79,0.17534157133402078
503,3877.53,0.17465636013829672
504,3880.27,0.1750353489425726
505,3883.0,0.18289611917457016
506,3885.74,0.19020020797884607
507,3888.4800000000005,0.18123969678312196
508,3891.21,0.17558386701511947
509,3893.95,0.1674281558193954
510,3896.69,0.17033784462367133
511,3899.42,0.17168651485566883
512,3902.16,0.17747110365994476
513,3904.9,0.18088899246422066
514,3907.63,0.1849007626962182
515,3910.3700000000003,0.1792916515004941
516,3913.11,0.18084594030477003
517,3915.8500000000004,0.1782653291090459
518,3918.58,0.18024399934104346
519,3921.3199999999997,0.17759988814531938
520,3924.06,0.1707836769495953
521,3926.79,0.1630470471815928
522,3929.5299999999997,0.1589786359858687
523,3932.27,0.1573563247901446
524,3935.0,0.16038319502214216
525,3937.7400000000002,0.17069458382641806
526,3940.48,0.17267247263069396
527,3943.2099999999996,0.1732957428626915
528,3945.95,0.1780744316669674
529,3948.69,0.1727936204712433
530,3951.4300000000003,0.1778369092755192
531,3954.16,0.17153507950751676
532,3956.8999999999996,0.16582016831179267
533,3959.64,0.16579145711606857
534,3962.37,0.1698984273480661
535,3965.11,0.169774416152342
536,3967.85,0.17909040495661793
537,3970.5800000000004,0.16995067518861545
538,3973.32,0.16516226399289136
539,3976.06,0.17005215279716726
540,3978.8,0.17069584160144316
541,3981.5299999999997,0.1691907118334407
542,3984.27,0.17730490063771662
543,3987.01,0.18122048944199254
544,3989.74,0.17949835967399008
545,3992.48,0.18042794847826596
546,3995.22,0.18285583728254187
547,3997.9500000000003,0.1864176075145394
548,4000.69,0.18409099631881531
549,4003.43,0.18199218512309123
550,4006.1600000000003,0.18302315535508873
551,4008.9,0.17969064415936464
552,4011.6400000000003,0.18425753296364056
553,4014.38,0.1906456217679165
554,4017.1099999999997,0.18279789199991403
555,4019.85,0.19031368080418992
556,4022.5899999999997,0.19188916960846583
557,4025.32,0.18826633984046334
558,4028.06,0.18755992864473925
559,4030.7999999999997,0.17877951744901519
560,4033.53,0.1862538876810127
561,4036.27,0.18898347648528863
562,4039.01,0.18280266528956451
563,4041.74,0.18073633552156207
564,4044.4799999999996,0.18851162432583798
565,4047.2200000000003,0.18811231313011387
566,4049.96,0.19013780193438978
567,4052.69,0.18236947216638733
568,4055.43,0.1838813609706632
569,4058.1699999999996,0.18879764977493912
570,4060.9,0.18323182000693666
571,4063.64,0.1868138088112126
572,4066.38,0.19032179761548848
573,4069.11,0.18629656784748602
574,4071.8500000000004,0.18211175665176194
575,4074.59,0.18297774545603784
576,4077.33,0.18235073426031373
577,4080.06,0.17798140449231128
578,4082.7999999999997,0.1782120932965872
579,4085.5399999999995,0.1749855821008631
580,4088.27,0.1691708523328606
581,4091.0099999999998,0.17673964113713653
582,4093.75,0.18291592994141243
