,lambda (Angstroms),Total Flux (erg/s/cm^2/Angstrom)
0,102.01,0.00018309662019238006
1,103.9,0.00021410740135219684
2,104.712855,0.00022744743651682592
3,106.08,0.0002087544021867158
4,108.05,0.00018182546857980968
5,110.06,0.00015442063776717954
6,113.93,0.00010153189803838422
7,117.92999999999999,4.685443856598621e-05
8,120.22644299999999,1.5987352409727974e-05
9,120.96000000000001,1.5701000425921157e-05
10,124.92,1.337463631405326e-05
11,126.95,1.217251755216138e-05
12,128.12,1.1487636132745862e-05
13,131.10999999999999,9.715953616461778e-06
14,132.02,9.317108068027469e-06
15,133.85,8.245613129967314e-06
16,136.97,6.570850678192599e-06
17,138.038426,5.953709422079079e-06
18,139.84,6.013529465338155e-06
19,143.1,7.5809914645676005e-06
20,147.11,9.951387531104436e-06
21,150.88,1.0380248616102906e-05
22,155.11,1.0872660915716573e-05
23,158.489319,1.1353987122477825e-05
24,159.09,1.143233750963934e-05
25,162.04,1.1819731856109918e-05
26,165.82,1.2400920781417984e-05
27,170.07000000000002,1.2907777721248477e-05
28,172.82999999999998,1.3362195380997224e-05
29,176.86,1.3906516420412962e-05
30,180.15,1.4327203522069982e-05
31,181.82,1.4657973084309259e-05
32,181.970086,1.4678600475914588e-05
33,186.05,1.542462737978733e-05
34,190.82,1.637456877037208e-05
35,193.92,1.7029235145804516e-05
36,197.98,1.7826886140725714e-05
37,202.13,1.8664922256223975e-05
38,204.93999999999997,1.9297982132019183e-05
39,208.929613,1.966523076380407e-05
40,210.20000000000002,1.9853426640654237e-05
41,216.09,2.1982078295658572e-05
42,220.10999999999999,2.309243638617087e-05
43,223.17,2.3755654037157842e-05
44,226.79000000000002,2.494747361120126e-05
45,229.95000000000002,3.5674995891305455e-05
46,234.21999999999997,5.65429305546108e-05
47,239.88329199999998,7.241539400989329e-05
48,240.23,7.334465234365095e-05
49,245.83,7.009216269358046e-05
50,252.13,7.380277433725113e-05
51,256.82,5.971739900531708e-05
52,259.8,7.147620794152956e-05
53,264.02,7.525839945522643e-05
54,268.93,7.49839053870396e-05
55,273.92,7.455038632385178e-05
56,275.42287,7.422433619280881e-05
57,279.02,7.385532287194457e-05
58,284.2,7.465415120380275e-05
59,290.16,7.178958144663573e-05
60,296.23,7.247108759999078e-05
61,301.05,6.907407658832213e-05
62,308.06,7.0843703249775e-05
63,316.227766,7.244310576223737e-05
64,318.15000000000003,7.262285362816027e-05
65,327.82,7.143154549173902e-05
66,337.78000000000003,6.933373333674878e-05
67,348.04,6.72665546108251e-05
68,356.96999999999997,6.6587045349373e-05
69,363.078055,6.6809297222331e-05
70,366.13,6.715539042135198e-05
71,374.65999999999997,6.613618419935005e-05
72,385.15000000000003,6.299035550429726e-05
73,395.03000000000003,6.525978385442868e-05
74,405.16,6.616471194014033e-05
75,413.65,6.574487536044556e-05
76,416.86938299999997,6.538995230332241e-05
77,422.31,6.471667789017887e-05
78,430.15999999999997,6.405994944884544e-05
79,441.2,6.565090437975996e-05
80,451.46999999999997,6.627961297944221e-05
81,459.87,6.561475477470327e-05
82,469.5,6.692073018998468e-05
83,478.630092,6.97498448868869e-05
84,480.43,7.022331927580017e-05
85,490.49,6.936796279095104e-05
86,499.60999999999996,7.524481017247944e-05
87,506.56,8.141591690511349e-05
88,512.43,0.00013755983552677707
89,519.5500000000001,0.0001404541475176194
90,530.43,0.00014363800404295154
91,540.3000000000001,0.0001380445834459872
92,549.5408739999999,0.00016094857255622683
93,550.34,0.00016294356325404467
94,560.57,0.00019847513717352779
95,569.68,0.0002236007921497244
96,580.27,0.00022553535430097822
97,589.7,0.000257673643260971
98,600.66,0.0002558405072059891
99,610.42,0.0002781572437117716
100,620.34,0.00034279189720945225
101,630.42,0.0003603181676990309
102,630.957344,0.0003619292299133436
103,640.67,0.00039124678834859744
104,649.58,0.00042290030168398436
105,658.61,0.00043178291317877047
106,664.71,0.0004774635862815606
107,675.51,0.0005126048206274842
108,684.91,0.0004977403431137509
109,694.4300000000001,0.0006017646637594169
110,705.7199999999999,0.0005620343072562204
111,715.5400000000001,0.0006968199233003843
112,724.43596,0.0007321008810901164
113,725.49,0.0007362758605383027
114,735.5799999999999,0.0007743793495991151
115,745.8199999999999,0.0008219019330463617
116,754.4499999999999,0.0008644336434125472
117,764.9499999999999,0.0008644961504629465
118,775.59,0.0009694444856073513
119,784.5699999999999,0.00099651911620855
120,795.4799999999999,0.0010699236412485364
121,804.7,0.00112791376286803
122,815.89,0.0011781699440960272
123,825.3399999999999,0.0012592245904413867
124,831.763771,0.001152142217515878
125,834.89,0.0010999629947361638
126,844.5600000000001,0.001339539243333276
127,854.3399999999999,0.0013799319022039854
128,864.23,0.0014713239713482914
129,874.24,0.0015438333062456123
130,884.36,0.00161995805141653
131,894.61,0.0016881169178198808
132,904.9599999999999,0.0017153283390174106
133,915.44,0.0020330148814473726
134,926.0400000000001,0.00834537668963035
135,934.61,0.01657032883549149
136,945.4300000000001,0.029599722464221663
137,954.1800000000001,0.03937931600871233
138,954.992586,0.03987022901628702
139,965.23,0.046055150880106574
140,974.1600000000001,0.011025050481533693
141,985.44,0.04317654471491531
142,994.5600000000001,0.04268553388233024
143,1006.08,0.05536499756748594
144,1015.39,0.05191124630088867
145,1024.78,0.023784534851549435
146,1034.26,0.03983537319662547
147,1043.83,0.0664120313361168
148,1055.92,0.06475248371923593
149,1065.69,0.054229931401872315
150,1075.55,0.06169402887892398
151,1085.5,0.05167042615039092
152,1095.55,0.0631307231934304
153,1096.4782,0.06282006974239739
154,1105.69,0.05973698521463498
155,1115.92,0.05811037207661865
156,1126.24,0.052270098295159356
157,1134.05,0.06212391245860926
158,1144.54,0.05718027746175771
159,1155.13,0.05918957174996955
160,1165.8200000000002,0.06029207532324476
161,1173.8999999999999,0.044081857556365775
162,1184.76,0.058110169914248735
163,1195.73,0.0454215114857014
164,1204.01,0.03558435228894919
165,1215.15,0.022043642645009603
166,1226.4,0.04161346221463973
167,1234.9,0.056266311445026945
168,1246.33,0.05973559972777117
169,1254.96,0.057579078028740766
170,1258.92541,0.05521370084534262
171,1263.66,0.05238954208625237
172,1275.3600000000001,0.06056863803605042
173,1284.2,0.06155104253145338
174,1296.08,0.05202708857278679
175,1305.0600000000002,0.05214798313938392
176,1314.11,0.05987297774157815
177,1326.27,0.057046373925299876
178,1335.46,0.05251061859868826
179,1344.72,0.05784357330767373
180,1354.04,0.05639447804717098
181,1366.57,0.05214769441904872
182,1376.04,0.05287227923482544
183,1385.58,0.053117834086199224
184,1395.18,0.04500319896808481
185,1404.85,0.046053823885567474
186,1414.59,0.049572048838647215
187,1424.4,0.04911641382732404
188,1434.27,0.04968863884651265
189,1440.8899999999999,0.05096062221297958
190,1445.43977,0.0508008352359211
191,1447.54,0.05072707542305912
192,1454.22,0.049571708274108485
193,1464.31,0.046802082580558804
194,1474.46,0.046693266912617354
195,1484.6799999999998,0.046584451274552165
196,1494.9699999999998,0.04647623566636325
197,1505.33,0.04418157008805059
198,1512.28,0.04057468305433699
199,1515.76,0.0421934045396142
200,1526.2700000000002,0.041806779025322115
201,1533.32,0.037260642034288895
202,1543.94,0.03743332656694523
203,1554.6499999999999,0.0361618411380139
204,1565.4199999999998,0.0377791457346908
205,1576.27,0.03965127036551201
206,1583.55,0.04029721347264366
207,1594.5300000000002,0.040667328158949356
208,1605.5800000000002,0.039651162875131325
209,1616.71,0.03937799762545759
210,1624.17,0.038216960809413926
211,1635.4299999999998,0.03974234561522469
212,1646.76,0.039559790450911715
213,1654.3700000000001,0.038128963698888615
214,1659.58691,0.03890511102789397
215,1665.8300000000002,0.03983394538437447
216,1673.52,0.03743298935309114
217,1677.3799999999999,0.040017641384202496
218,1685.12,0.04029728550876257
219,1696.8,0.03857055191378345
220,1704.64,0.037261286350030356
221,1716.4499999999998,0.03558443316024411
222,1724.3700000000001,0.03517727784584047
223,1736.3300000000002,0.036581085123584454
224,1744.3400000000001,0.035748840089698954
225,1756.4299999999998,0.03675047777263581
226,1764.54,0.03493519305043713
227,1776.77,0.03485479116973554
228,1784.9699999999998,0.035177416728055
229,1793.21,0.036079712411049195
230,1805.64,0.03599645115372125
231,1813.98,0.03359384714840226
232,1826.5500000000002,0.03421865632743587
233,1834.98,0.03328611260263502
234,1843.45,0.031065009002508897
235,1856.23,0.030850878836084835
236,1864.8000000000002,0.03135223554764554
237,1873.4,0.03283005235271229
238,1886.39,0.03035768284083055
239,1895.1000000000001,0.028925139988752808
240,1903.84,0.03070932723018111
241,1905.46072,0.0305396478090245
242,1917.0400000000002,0.02932728575993532
243,1925.89,0.02846265020348659
244,1934.7800000000002,0.02966708448633075
245,1943.7099999999998,0.030218288608467796
246,1957.18,0.028136894490347526
247,1966.2199999999998,0.02994121817054001
248,1975.2900000000002,0.030709181730202158
249,1984.41,0.029125265088980418
250,1993.5700000000002,0.028396658287051565
251,2002.7700000000002,0.029125251324415596
252,2016.65,0.02852799555904742
253,2025.96,0.029394668154466893
254,2035.31,0.027750630589179252
255,2044.71,0.028071562823007722
256,2054.15,0.026137714896129077
257,2063.63,0.026808316808543318
258,2073.15,0.02852781856025045
259,2077.93,0.026931969355750453
260,2082.7200000000003,0.027686440111073685
261,2097.1600000000003,0.026379582095805928
262,2106.84,0.026869823204684607
263,2116.56,0.02693175415285617
264,2126.33,0.027118474900143845
265,2136.15,0.026197795446547628
266,2146.0099999999998,0.0258382558322443
267,2155.91,0.026501026057233857
268,2165.87,0.025897686041162743
269,2175.86,0.025719525904561294
270,2185.91,0.02513414552689918
271,2187.7616199999998,0.025241537552998756
272,2196.0,0.02571941447739653
273,2206.13,0.025192076926465634
274,2216.31,0.02456229953569796
275,2226.5499999999997,0.02394778233712615
276,2236.8199999999997,0.02444913523465228
277,2247.15,0.02394795832437428
278,2257.52,0.023295411542226852
279,2262.72,0.02356520819920211
280,2273.17,0.02361952167331584
281,2283.6600000000003,0.023674045275560152
282,2294.2000000000003,0.02266240903796769
283,2304.79,0.02272859296053845
284,2315.43,0.022122727043272433
285,2326.1200000000003,0.019235631286169636
286,2336.85,0.02129962565719742
287,2347.64,0.021020230220421075
288,2353.0499999999997,0.02136849755008187
289,2363.91,0.02070345233753404
290,2374.83,0.02071628731718207
291,2385.79,0.020025652424960686
292,2396.8,0.02055213769290252
293,2402.32,0.01999845537492241
294,2413.41,0.020057190899125405
295,2424.55,0.020302286583491626
296,2435.7400000000002,0.019716292428021066
297,2446.99,0.020095438464746374
298,2452.63,0.019871676531157997
299,2463.95,0.019656662792111822
300,2475.32,0.01926628921322887
301,2486.75,0.019457195826541786
302,2492.48,0.01791549418124721
303,2503.98,0.01934221101878864
304,2511.88643,0.018667912250892947
305,2515.54,0.018356301815670002
306,2527.15,0.01845334742219936
307,2532.98,0.01837432019447035
308,2544.67,0.01805110570181989
309,2556.4199999999996,0.018398391134784572
310,2562.31,0.018194043832670696
311,2574.14,0.018501879166455563
312,2586.02,0.018344504438253046
313,2597.95,0.01818873964806314
314,2603.94,0.0178216222219745
315,2615.96,0.017670277320207307
316,2621.9900000000002,0.017716979844528753
317,2634.1,0.01772892483118427
318,2646.25,0.018112299768249875
319,2652.35,0.018076742205788986
320,2664.6,0.017435087018879823
321,2676.8999999999996,0.01756780176998328
322,2683.07,0.01749305412074005
323,2695.45,0.01706755877266369
324,2707.89,0.017079633350202468
325,2714.14,0.016734915601779424
326,2726.6600000000003,0.01663158008013839
327,2732.9500000000003,0.01675262228212544
328,2745.5600000000004,0.01601002664890711
329,2751.8900000000003,0.015978628801304254
330,2764.6,0.016100863044111152
331,2777.3599999999997,0.016298497224930673
332,2783.76,0.016043669290545477
333,2796.61,0.014914913359787703
334,2803.05,0.015303065375812603
335,2815.99,0.015925379333477534
336,2822.48,0.015857731287515046
337,2835.5099999999998,0.01540122513360269
338,2842.0499999999997,0.01526554702565282
339,2855.17,0.01513671076016317
340,2861.75,0.015388282602623394
341,2874.9599999999996,0.01525822622555645
342,2884.0315,0.015217745288152906
343,2888.23,0.015199014872662163
344,2894.89,0.015099984703686536
345,2908.25,0.015251014364720412
346,2928.4100000000003,0.014920493853226621
347,2948.71,0.01463102333818079
348,2969.1499999999996,0.014546542819582921
349,2989.73,0.01433032229743301
350,3010.4500000000003,0.01418223177173106
351,3031.32,0.01406835124222335
352,3052.33,0.013891570709163602
353,3073.49,0.013748300172298096
354,3087.67,0.013539019812527166
355,3109.0800000000004,0.013430669269318731
356,3130.6299999999997,0.013170638722558256
357,3152.33,0.013065188171992023
358,3166.88,0.012896477802833558
359,3188.8300000000004,0.012531047245924397
360,3210.9300000000003,0.012517366685209478
361,3233.19,0.012275426120435085
362,3248.12,0.012313615741635368
363,3270.63,0.012272145170518046
364,3293.3,0.012118434595341248
365,3308.5,0.01196218420969117
366,3311.31121,0.011994646526008382
367,3323.77,0.012138508095734819
368,3331.44,0.012171484375712189
369,3339.12,0.011682030650839462
370,3346.81,0.012014566921116642
371,3354.53,0.011611583176843538
372,3362.26,0.01148313942772034
373,3370.0099999999998,0.011330605668896949
374,3377.78,0.011257311900373374
375,3385.57,0.011550728122149604
376,3393.37,0.011689234339075743
377,3401.19,0.011911480546301692
378,3409.03,0.011301986743827451
379,3416.8900000000003,0.01141151293165302
380,3424.77,0.0116018791097784
381,3432.67,0.011768095278203591
382,3440.58,0.011478691441778687
383,3448.51,0.011196467595653596
384,3456.46,0.010971473739828314
385,3464.43,0.010726289874302842
386,3472.4100000000003,0.011056806003927274
387,3480.42,0.010785052119001425
388,3488.44,0.010965018229225479
389,3496.48,0.010919144329749345
390,3504.54,0.01070013042057302
391,3512.6200000000003,0.010606356501696506
392,3520.72,0.010783442573119804
393,3528.8399999999997,0.010542678634842912
394,3536.97,0.010792684691715924
395,3545.13,0.010847390734038653
396,3553.2999999999997,0.010876796771511288
397,3561.49,0.010831732799283733
398,3569.7000000000003,0.010516908817355989
399,3577.9300000000003,0.010164294825728056
400,3586.18,0.009983514824399933
401,3594.44,0.010126896818221714
402,3602.73,0.010390922797493212
403,3611.03,0.010182428771914616
404,3619.3599999999997,0.010352254731785734
405,3627.7,0.010573670686806758
406,3634.75,0.01240603726749
407,3637.49,0.009407089938564053
408,3640.23,0.011722534609638107
409,3642.97,0.01403315328071216
410,3645.7099999999996,0.015243621951786213
411,3648.46,0.009632082618010173
412,3651.2,0.011571139289084226
413,3653.94,0.01009139796015828
414,3656.68,0.015077726631232333
415,3659.42,0.009042780302306387
416,3662.16,0.00982171097338044
417,3664.8999999999996,0.009714236644454494
418,3667.64,0.009130551315528548
419,3670.39,0.009239193981752507
420,3673.13,0.009027058652826561
421,3675.87,0.011804217323900613
422,3678.61,0.012678145994974667
423,3681.35,0.014134964666048721
424,3684.0899999999997,0.0032063123371227752
425,3686.83,0.01361530200819683
426,3689.58,0.008901849674420788
427,3692.32,0.010042669345494842
428,3695.06,0.008347556016568895
429,3697.8,0.008862013687642948
430,3700.54,0.009457785358717002
431,3703.2799999999997,0.009230755029791055
432,3706.02,0.012502652700865109
433,3708.77,0.009362348367089069
434,3711.51,0.01093992003816312
435,3714.25,0.014642938709237175
436,3716.9900000000002,0.01552048738031123
437,3719.73,0.028575036051385283
438,3722.47,0.054341964722459335
439,3725.21,0.10271589339353339
440,3727.95,0.12196169206460745
441,3730.7000000000003,0.1011656907308314
442,3733.44,0.05210368940190546
443,3736.18,0.02302068807297951
444,3738.92,0.013649456744053564
445,3741.66,0.009564843415127616
446,3744.4,0.00916874508620167
447,3747.14,0.011404492757275723
448,3749.8900000000003,0.011627441423499682
449,3752.63,0.011717620094573738
450,3755.37,0.00708112076564779
451,3758.11,0.011371847436721844
452,3760.85,0.011009166107795898
453,3763.59,0.00968278177886995
454,3766.33,0.012092423449944005
455,3769.0699999999997,0.01350899212101806
456,3771.82,0.013469480787242017
457,3774.56,0.012771479458316071
458,3777.3,0.012468368129390124
459,3780.04,0.012060596800464177
460,3782.78,0.01053697547153823
461,3785.52,0.009108745142612286
462,3788.2599999999998,0.012151192813686339
463,3791.01,0.010821131479910298
464,3793.75,0.010131180150984352
465,3796.4900000000002,0.014008088822058404
466,3799.23,0.013273047493132458
467,3801.8939600000003,0.010636367484882168
468,3801.9700000000003,0.010561106171890926
469,3804.71,0.010815925119862523
470,3807.45,0.010254784067834123
471,3810.19,0.009685997015805723
472,3812.94,0.007687320959937803
473,3815.6800000000003,0.007809697907909403
474,3818.42,0.011296539855881004
475,3821.1600000000003,0.009165076803852602
476,3823.9,0.008896985751824201
477,3826.64,0.009047139699795802
478,3829.38,0.011197545647767402
479,3832.13,0.011886244591899481
480,3834.8700000000003,0.01502006353987108
481,3837.61,0.01276219248784268
482,3840.3500000000004,0.01238784143581428
483,3843.09,0.01115404038378588
484,3845.83,0.01064603933175748
485,3848.57,0.012333118279729079
486,3851.3199999999997,0.010623457223861158
487,3854.0600000000004,0.012448596171832759
488,3856.8,0.013544735119804358
489,3859.5400000000004,0.012764204067775958
490,3862.28,0.021105753015747557
491,3865.02,0.03379077196371916
492,3867.76,0.04109820091169076
493,3870.5,0.03510230985966236
494,3873.2499999999995,0.023503248803794438
495,3875.9900000000002,0.012781897751766037
496,3878.73,0.010162956699737637
497,3881.4700000000003,0.013666305647709235
498,3884.21,0.017645474595680836
499,3886.9500000000003,0.022246573543652434
500,3889.69,0.023667982491624037
501,3892.4399999999996,0.017364841435756114
502,3895.18,0.013194900383727715
503,3897.92,0.010415739331699314
504,3900.6600000000003,0.008637707279670915
505,3903.4,0.010250707227642514
506,3906.1400000000003,0.008899370175614112
507,3908.88,0.011466005123585712
508,3911.62,0.010401274071557312
509,3914.37,0.012270243015689393
510,3917.1099999999997,0.009421042963660992
511,3919.85,0.010709590911632592
512,3922.59,0.01218170985960419
513,3925.3300000000004,0.008853873807575791
514,3928.07,0.00923066075554739
515,3930.81,0.00877015370351899
516,3933.56,0.009712066647651072
517,3936.2999999999997,0.008828085595622669
518,3939.04,0.009329660543594269
519,3941.7799999999997,0.009675453491565868
520,3944.5200000000004,0.009737450439537469
521,3947.26,0.009238300387509068
522,3950.0,0.009826020335480669
523,3952.75,0.009708836279612748
524,3955.49,0.010450327227584348
525,3958.23,0.010234566175555947
526,3960.97,0.014032985123527547
527,3963.7099999999996,0.021128654071499147
528,3966.4500000000003,0.027095993019470743
529,3969.19,0.025976541967442347
530,3971.9300000000003,0.019760040915413946
531,3974.68,0.012251299859546025
532,3977.4199999999996,0.010487758807517625
533,3980.16,0.010036917755489224
534,3982.8999999999996,0.009562322703460824
535,3985.64,0.010612975651432426
536,3988.38,0.008654191599404025
537,3991.1200000000003,0.009020108547375623
538,3993.87,0.010158062491507703
539,3996.6099999999997,0.008943591439479303
540,3999.35,0.011831850387450903
541,4002.0899999999997,0.010852069335422503
542,4004.83,0.011874538283394104
543,4007.5699999999997,0.009275711231365702
544,4010.3100000000004,0.010173396179337301
545,4013.05,0.010229755127308901
546,4015.7999999999997,0.011974334071440981
547,4018.54,0.009298630019412581
548,4021.2799999999997,0.01049419196738418
549,4024.02,0.01170868091535578
550,4026.7599999999998,0.00963114786332738
551,4029.4999999999995,0.01240911881129898
552,4032.2400000000002,0.01064194775927058
553,4034.99,0.01112052670340266
554,4037.73,0.010317865651374257
555,4040.47,0.010795284599345858
556,4043.21,0.009802214547317457
