,lambda (Angstroms),Total Flux (erg/s/cm^2/Angstrom)
0,100.00999999999999,30.19555904321519
1,102.10000000000001,30.101178951119085
2,104.0,30.01537886739536
3,104.712855,29.983187804930687
4,105.94,29.69209913362311
5,107.91,29.224799277065056
6,109.91000000000001,28.750383179036575
7,114.03999999999999,27.770713936607777
8,118.04,26.821881740550815
9,120.22644299999999,26.303239862239977
10,121.07,26.135478268348066
11,125.03999999999999,25.34594830445602
12,127.07,24.942233990425578
13,127.95,24.76722482966361
14,130.93,24.174580171628772
15,132.14,23.933942575581074
16,133.98,23.568014330351517
17,137.1,22.94752730583182
18,138.038426,22.76089873003954
19,139.97,22.48632178327896
20,142.9,22.06981666672196
21,146.91,21.499787479898217
22,151.02,20.915543101383115
23,154.9,20.36399366375817
24,158.489319,19.85376508749362
25,158.86999999999998,19.81285350759478
26,161.82999999999998,19.494743918462255
27,165.98000000000002,19.048745676942026
28,169.84,18.633913577600413
29,173.0,18.29431009731044
30,177.03,17.86120819048508
31,179.91,17.55169615781599
32,181.970086,17.330299836519817
33,181.99,17.32866710887654
34,185.79999999999998,17.01628926811749
35,191.01,16.589126918943528
36,194.11,16.33496122173877
37,198.17000000000002,16.00208614733586
38,201.85999999999999,15.69954697872955
39,205.14000000000001,15.430623273302093
40,208.929613,15.119916940957568
41,209.92000000000002,15.058869034785486
42,215.79999999999998,14.69642315425003
43,219.81,14.449244926201123
44,222.87,14.260625131233306
45,227.01,14.005433643928761
46,230.17,13.810649803429545
47,233.91,13.580114498607497
48,239.88329199999998,13.211918056862924
49,239.91,13.21064940869917
50,246.06,12.918520226118517
51,251.79,12.646341329295831
52,257.07,12.395537738314676
53,260.04,12.254460718697635
54,264.27,12.053532842123849
55,269.18,11.820304503151933
56,274.19,11.582326096248769
57,275.42287,11.523763932889912
58,279.28000000000003,11.383153596108292
59,283.82,11.217649470441447
60,289.77,11.000744283597346
61,295.83000000000004,10.779829085370729
62,301.33,10.579328492630658
63,308.35,10.323416827901816
64,316.227766,10.036235602064957
65,317.72,9.995604977018516
66,328.13,9.71216095533638
67,338.1,9.440697277848761
68,348.37,9.161065185950871
69,357.31,8.917646404618724
70,363.078055,8.760593507035496
71,365.63,8.708556990688841
72,375.01,8.51729012426969
73,384.63,8.321129437440046
74,395.41,8.101315283542089
75,404.62,7.913514883736472
76,414.04,7.721432389387189
77,416.86938299999997,7.663738659723558
78,421.74,7.587894499183793
79,429.58000000000004,7.465811771244366
80,440.6,7.294210799794047
81,450.86,7.134444380302389
82,460.31,6.987291101749929
83,469.94,6.8373349125579495
84,478.630092,6.702014764440251
85,479.78,6.688243325174693
86,489.83,6.567883293782775
87,500.09,6.445008290380852
88,505.88,6.37566672232653
89,511.73999999999995,6.305487528427941
90,520.0500000000001,6.205966072540752
91,529.72,6.090157155027321
92,539.5699999999999,5.972192432474828
93,549.5408739999999,5.852780719691956
94,549.6,5.85224055028769
95,559.8199999999999,5.758871673866892
96,570.22,5.663858262836723
97,579.49,5.579168039326156
98,590.26,5.48077474875917
99,599.85,5.393161289125167
100,609.6,5.304087024014946
101,619.51,5.213551424675507
102,629.5699999999999,5.121644931510926
103,630.957344,5.108970366958109
104,639.8,5.044928875555551
105,650.1999999999999,4.969609483492323
106,657.73,4.915075227008399
107,665.3399999999999,4.859962109827143
108,674.6,4.792899075415902
109,685.5600000000001,4.713522850791347
110,695.1,4.644435853519443
111,704.77,4.5744018932768755
112,716.22,4.491483673993657
113,724.43596,4.431983067278929
114,726.1800000000001,4.422607739190745
115,734.5899999999999,4.377399435943678
116,744.8100000000001,4.322463251052506
117,755.17,4.266773568804332
118,765.68,4.2102778726622265
119,774.54,4.1626548395933645
120,785.32,4.104710949004183
121,794.41,4.05585090831596
122,805.46,3.9964543892797026
123,814.79,3.946304973565189
124,824.23,3.8955696957044585
125,831.763771,3.8550638561056876
126,835.69,3.8392844006342446
127,845.37,3.800413097856399
128,855.16,3.7610854599617594
129,865.06,3.7213205299503263
130,875.08,3.681074042775118
131,885.21,3.6403889292831155
132,895.46,3.5992202418273394
133,905.8299999999999,3.5575642788077877
134,914.21,3.524021991737503
135,924.8000000000001,3.4834591259843637
136,935.51,3.4432954262674498
137,944.16,3.414041819628672
138,954.992586,3.375028850301119
139,955.0899999999999,3.3746864747776515
140,963.9300000000001,3.344233280554129
141,975.09,3.2859535785434373
142,984.12,3.268441408147691
143,995.51,3.2242781342443063
144,1004.72,3.194064902106451
145,1014.0200000000001,3.1549101520975418
146,1025.76,3.092704413140059
147,1035.25,3.0674903809589247
148,1044.8300000000002,3.046766510906736
149,1054.5,3.0105951829834945
150,1064.26,2.9682124371891985
151,1074.1000000000001,2.9357199599539654
152,1084.04,2.892420198417562
153,1094.07,2.861246939010104
154,1096.4782,2.8517385538708027
155,1104.2,2.826752873769657
156,1114.41,2.7950612392958587
157,1124.72,2.7598131909584573
158,1135.13,2.7339876687574542
159,1145.6299999999999,2.697771043079209
160,1156.24,2.6670422031510013
161,1164.25,2.6443795736764537
162,1175.02,2.5989279375664824
163,1185.89,2.574974527592908
164,1194.1200000000001,2.5366729196184354
165,1205.16,2.4915768430767375
166,1216.32,2.4367451118987176
167,1224.75,2.43373486619704
168,1236.08,2.4166915184508957
169,1244.65,2.397157227340175
170,1256.16,2.361485502639546
171,1258.92541,2.350984591103046
172,1264.87,2.333905811467324
173,1273.64,2.3272451237204312
174,1285.4199999999998,2.304468070806133
175,1294.33,2.2766632111909884
176,1306.31,2.249950728464902
177,1315.37,2.241259058990917
178,1324.48,2.2198374595639843
179,1333.66,2.1954349142029264
180,1346.0,2.1766227638156224
181,1355.33,2.155325258595724
182,1364.73,2.130171807441699
183,1374.19,2.1124861883441386
184,1383.71,2.0939136613030414
185,1396.52,2.057931795358036
186,1406.2,2.0402128904675085
187,1415.94,2.021639977633445
188,1425.76,2.0011051508746664
189,1435.6399999999999,1.9799821361723517
190,1442.27,1.9696270184115874
191,1445.43977,1.9637652039235352
192,1445.59,1.963591495259586
193,1455.61,1.9476617909444134
194,1465.7,1.9285778608505912
195,1475.86,1.9134244049781208
196,1486.09,1.8989393233270009
197,1496.3999999999999,1.8851362979288542
198,1503.3,1.872940099747747
199,1513.72,1.8502813766974373
200,1517.21,1.84968860573337
201,1524.21,1.8378669278684787
202,1534.78,1.8140799352924928
203,1545.42,1.804369516937858
204,1556.13,1.7837712728045743
205,1563.31,1.7746948715088715
206,1574.15,1.7645642937866683
207,1585.0600000000002,1.7513564902858163
208,1596.05,1.7381776430379374
209,1603.42,1.7239416003430446
210,1614.5300000000002,1.7077012374746239
211,1625.72,1.6873036308591765
212,1633.23,1.6815740366069862
213,1644.55,1.6659723964026192
214,1655.9499999999998,1.6418638124512253
215,1659.58691,1.6411810693127942
216,1663.5900000000001,1.642350760807769
217,1671.27,1.6253369721036361
218,1675.12,1.631127259016278
219,1686.7299999999998,1.622446807342452
220,1694.52,1.6096653125501088
221,1706.26,1.5946947173174888
222,1714.14,1.584462253907519
223,1726.02,1.5718708963808135
224,1733.99,1.5698985643532173
225,1746.01,1.5552109445324258
226,1754.0700000000002,1.5534269438872028
227,1766.23,1.5315063617723257
228,1774.38,1.528884492509476
229,1786.6799999999998,1.5176038481005134
230,1794.92,1.5149391102200376
231,1803.21,1.5065573786631021
232,1815.71,1.4879824595483024
233,1824.09,1.4809094593737409
234,1836.73,1.4650555779648553
235,1845.2099999999998,1.4477619904373755
236,1853.73,1.4407645279687278
237,1866.58,1.4306294531187138
238,1875.1899999999998,1.4283920220324398
239,1883.85,1.4123312972697064
240,1896.91,1.3946137289785634
241,1905.46072,1.3918135945230994
242,1905.66,1.3918080689150116
243,1914.46,1.3829471437405219
244,1923.3,1.3751439334516022
245,1936.63,1.3671819690679714
246,1945.5700000000002,1.3679093459929779
247,1954.55,1.3542936378035555
248,1968.1000000000001,1.353175305290562
249,1977.18,1.3498968843150658
250,1981.7399999999998,1.3408800812701027
251,1995.48,1.3273423444635692
252,2004.69,1.323081646866177
253,2013.9399999999998,1.314488564154355
254,2023.23,1.3118064963281035
255,2037.26,1.2975573424419564
256,2046.6599999999999,1.2940354405510242
257,2056.1099999999997,1.2816387322670548
258,2065.6,1.2768150388686559
259,2075.13,1.2778378603558271
260,2079.92,1.2700206679028947
261,2084.71,1.2697339754499621
262,2094.34,1.2565970841510599
263,2104.0,1.2517417290163355
264,2113.71,1.2456222674885744
265,2123.4700000000003,1.2407645995677763
266,2133.27,1.225329846532549
267,2143.12,1.2220093871042845
268,2153.0099999999998,1.217914942561591
269,2162.95,1.20607859162586
270,2172.93,1.1980556555756998
271,2182.96,1.1908428131325024
272,2187.7616199999998,1.1902981775532326
273,2193.04,1.1911030827511873
274,2203.1600000000003,1.18214474318247
275,2213.33,1.171515393141576
276,2223.55,1.163890632628504
277,2233.81,1.1682827237376903
278,2244.12,1.157480704374699
279,2254.48,1.1484761745395302
280,2264.88,1.1446946963266194
281,2275.3399999999997,1.144558845547096
282,2285.84,1.14352274638983
283,2296.39,1.1313102367603873
284,2306.99,1.1288379166587668
285,2317.64,1.1205919860849687
286,2322.98,1.0942487276564163
287,2333.71,1.1077938003271344
288,2344.48,1.0961758246201105
289,2355.2999999999997,1.1026027384409094
290,2366.17,1.0872919417895304
291,2377.09,1.0880605346659742
292,2382.57,1.074864806915325
293,2393.5699999999997,1.078081403036285
294,2404.62,1.0687871886850675
295,2415.7200000000003,1.066006963861672
296,2426.8700000000003,1.0696432285660995
297,2432.46,1.0616817177766602
298,2443.69,1.0645825857256037
299,2454.97,1.05727004320237
300,2466.2999999999997,1.0513396902069585
301,2477.69,1.041175464644934
302,2483.4,1.0423941087222686
303,2494.86,1.0303352484991957
304,2506.38,1.04008011570951
305,2511.88643,1.0243438185935283
306,2512.15,1.0236279578138587
307,2517.94,1.0237641473411974
308,2523.75,1.0154961484040363
309,2535.4,1.0133490178329645
310,2547.1,1.0093505661006437
311,2552.97,1.0186331017699835
312,2564.7599999999998,1.012178351947414
313,2576.59,1.0167011251958447
314,2582.54,1.0149576070071857
315,2594.46,1.009419582165368
316,2606.4300000000003,0.9998147361623009
317,2612.4399999999996,0.9965290525801431
318,2624.5,1.0001060084868274
319,2636.6099999999997,1.0018474432322628
320,2642.6899999999996,1.016753650024356
321,2654.89,1.0180104866795425
322,2667.14,0.9996458021734799
323,2673.29,1.0047132993398238
324,2685.63,1.0041635167435126
325,2698.03,0.9897253687537022
326,2704.2500000000005,0.9936953562942973
327,2716.73,0.9793262544464885
328,2722.9900000000002,0.9758514650580841
329,2735.5600000000004,0.9819726651200262
330,2741.8700000000003,0.9572927545703729
331,2754.5199999999995,0.9584596007743167
332,2767.2400000000002,0.963170937352511
333,2773.62,0.9694913171771087
334,2786.42,0.9548330998973045
335,2792.8399999999997,0.9136412027929028
336,2805.73,0.9221421874228498
337,2812.2000000000003,0.9586534691571986
338,2825.18,0.9624082556968975
339,2838.2200000000003,0.9532143768430967
340,2844.76,0.9446936489516968
341,2857.8900000000003,0.9314855720076478
342,2864.48,0.9496787229549986
343,2877.7000000000003,0.9492415479207008
344,2884.0315,0.9475054675804451
345,2884.34,0.9474584347658809
346,2897.65,0.9454458326505266
347,2911.03,0.9616532427704785
348,2931.2,0.9504824397151297
349,2951.5200000000004,0.944107934306865
350,2971.98,0.9445955533692132
351,2992.5800000000004,0.9430606969021735
352,3013.3300000000004,0.9429922380822185
353,3027.24,0.9439701265552032
354,3048.22,0.9425702507941113
355,3069.35,0.9396905726801041
356,3090.62,0.9383390190367094
357,3112.05,0.9370071362168714
358,3126.41,0.9312314176311098
359,3148.08,0.9291127910466075
360,3169.9100000000003,0.930186535285662
361,3191.88,0.9146610039953289
362,3206.6099999999997,0.923809892939043
363,3228.84,0.9088933642369899
364,3251.2200000000003,0.9255708331820216
365,3273.76,0.9348858729506102
366,3288.87,0.9322221426002721
367,3311.31121,0.9269616720565601
368,3311.6600000000003,0.9269096881202432
369,3319.3,0.921359724751998
370,3326.9500000000003,0.9219766882641607
371,3334.62,0.9343106055371396
372,3342.31,0.9083544765709346
373,3350.0099999999998,0.9220880744851376
374,3357.73,0.9147271261601568
375,3365.47,0.8831222315959921
376,3373.23,0.8811161907926434
377,3381.0099999999998,0.8990735037501109
378,3388.8,0.9208457435879862
379,3396.61,0.908026837186678
380,3404.44,0.9185289845461857
381,3412.29,0.9048014856665096
382,3420.16,0.9189564405476496
383,3428.04,0.9252303223091976
384,3435.94,0.9297499578315618
385,3443.87,0.8956601739951502
386,3451.7999999999997,0.9332156901587384
387,3459.76,0.9159105869635509
388,3467.7400000000002,0.9156709375291794
389,3475.73,0.9249304149752162
390,3483.7400000000002,0.9189897461820689
391,3491.7799999999997,0.9333289580301458
392,3499.82,0.8988681698782226
393,3507.8900000000003,0.9248491623675238
394,3515.98,0.903479108617641
395,3524.08,0.9115216817481663
396,3532.21,0.9237016355199157
397,3540.35,0.9312952161720732
398,3548.51,0.9484253505850467
399,3556.69,0.9387535387588365
400,3564.89,0.9415351806934424
401,3573.1099999999997,0.9041884763888643
402,3581.35,0.8999239258451023
403,3589.6,0.8682261021817483
404,3597.88,0.9087395591596187
405,3606.17,0.911290543017897
406,3607.63,0.8098347675574731
407,3610.33,0.9987534252676482
408,3613.0299999999997,0.9420488829778233
409,3615.7299999999996,0.9293210406879986
410,3618.4300000000003,0.9369762983981735
411,3621.13,0.9514300561083486
412,3623.83,0.9088262138185237
413,3626.53,1.0102826715286988
414,3629.23,0.8616717292388738
415,3631.93,0.8234428869490491
416,3634.6299999999997,0.9234075446592241
417,3637.33,1.0929818023693991
418,3640.03,0.9497089600795742
419,3642.73,1.0115323177897493
420,3645.43,1.0378395754999246
421,3648.13,0.9182609332100995
422,3650.83,0.9251857909202745
423,3653.5299999999997,1.0578465486304496
424,3656.2299999999996,0.8780124063406248
425,3658.9300000000003,1.0104466640507999
426,3661.63,0.969794221760975
427,3664.33,0.82813267947115
428,3667.03,0.946755637181325
429,3669.73,0.9707903948915002
430,3672.43,0.9217027526016752
431,3675.1299999999997,0.9003382103118505
432,3677.8300000000004,0.8978458680220254
433,3680.53,0.7935450257322005
434,3683.23,0.8980735834423756
435,3685.93,0.9451542411525508
436,3688.63,0.9079198988627257
437,3691.33,1.0474485565729008
438,3694.0299999999997,0.916337314283076
439,3696.7299999999996,0.9201778719932512
440,3699.4300000000003,0.9934896297034261
441,3702.13,0.9438731874136013
442,3704.83,0.9831858451237763
443,3707.53,1.0105632028339513
444,3710.23,0.9791140605441264
445,3712.93,0.9398277182543016
446,3715.6299999999997,0.9956016759644767
447,3718.3300000000004,1.0629648336746516
448,3721.03,1.256498091384827
449,3723.73,1.5687352490950017
450,3726.43,1.558544506805177
451,3729.13,1.279935964515352
452,3731.83,1.1415161222255272
453,3734.5299999999997,0.9781054799357023
454,3737.2300000000005,0.8892649376458772
455,3739.9300000000003,0.8809497953560523
456,3742.63,0.8864332530662276
457,3745.3399999999997,0.8781515376568108
458,3748.0400000000004,0.9956408953669857
459,3750.7400000000002,0.9696307530771608
460,3753.44,0.930237510787336
461,3756.14,0.996939368497511
462,3758.84,0.976021726207686
463,3761.54,0.9542416839178611
464,3764.24,0.8768270416280364
465,3766.9399999999996,0.9667949993382114
466,3769.6400000000003,0.9478853570483864
467,3772.34,0.9942356147585616
468,3775.04,0.9794241724687367
469,3777.74,1.1412490301789118
470,3780.44,1.1342684878890867
471,3783.14,0.9973664455992619
472,3785.8399999999997,1.1085357033094372
473,3788.5400000000004,1.000722661019612
474,3791.2400000000002,0.9648168187297871
475,3793.94,0.9443902764399623
476,3796.64,0.9543242341501373
477,3799.34,0.9504847918603123
478,3801.8939600000003,1.0644775403601354
479,3802.04,1.07100463046555
480,3804.74,1.0325858301140236
481,3807.44,1.010011429762497
482,3810.1400000000003,1.0362668294109703
483,3812.84,1.0289009290594437
484,3815.54,0.955929028707917
485,3818.24,1.0270675283563904
486,3820.94,1.0271485280048638
487,3823.64,0.9987701276533371
488,3826.3399999999997,0.9055221273018106
489,3829.0400000000004,0.9359133269502837
490,3831.7400000000002,0.8949324265987573
491,3834.44,0.9753560262472306
492,3837.14,0.941790525895704
493,3839.84,0.9930746255441771
494,3842.54,1.0154461251926508
495,3845.24,1.054222324841124
496,3847.94,1.1159311244895973
497,3850.6400000000003,1.0698323241380707
498,3853.34,1.119416823786544
499,3856.04,1.1093882234350176
500,3858.74,1.138640123083491
501,3861.44,1.1259046227319642
502,3864.14,1.1467213223804378
503,3866.84,1.140406622028911
504,3869.5400000000004,1.1278600216773844
505,3872.2400000000002,1.0209142213258577
506,3874.94,1.047792920974331
507,3877.64,1.0218064206228046
508,3880.3399999999997,1.062376720271278
509,3883.04,0.9522329199197512
510,3885.74,0.9645262195682247
511,3888.44,0.943896819216698
512,3891.1400000000003,1.0208646188651713
513,3893.84,0.9615211185136447
514,3896.54,1.0315518181621182
515,3899.24,1.0805574178105914
516,3901.94,1.102695917459065
517,3904.64,1.1272266171075382
518,3907.34,1.1265773167560114
519,3910.04,1.168230416404485
520,3912.7400000000002,1.1030579160529583
521,3915.44,1.1295400157014317
522,3918.14,1.157218215349905
523,3920.8399999999997,1.1001661149983784
524,3923.54,1.0681680146468517
525,3926.24,0.9422490142953253
526,3928.94,0.9380180139437986
527,3931.6400000000003,0.9007888135922719
528,3934.34,1.0254472132407453
529,3937.04,1.0424681128892186
530,3939.74,1.076107612537692
531,3942.44,1.1270772121861654
532,3945.14,1.1434874118346388
533,3947.84,1.166822011483112
534,3950.54,1.1173869111315855
535,3953.2400000000002,1.1465758107800588
536,3955.94,1.1308817104285322
537,3958.64,1.0300292100770057
538,3961.3399999999997,1.034686609725479
539,3964.04,0.9139420093739523
540,3966.7400000000002,0.9220618090224257
541,3969.44,0.948663508670899
542,3972.1400000000003,0.9636700083193724
543,3974.84,1.005348107967846
544,3977.54,1.0634310076163191
545,3980.24,1.0963971072647927
546,3982.9399999999996,1.143526806913266
547,3985.64,1.1996583065617394
548,3988.34,1.2047375062102126
549,3991.04,1.1899247058586861
550,3993.7400000000002,1.1836101055071595
551,3996.44,1.2047415051556327
552,3999.14,1.213031204804106
553,4001.8399999999997,1.2628047044525796
554,4004.54,1.264673604101053
555,4007.2400000000002,1.2590515037495262
556,4009.94,1.2960462033979998
557,4012.64,1.281611103046473
558,4015.34,1.2751075026949463
559,4018.04,1.2579655023434198
560,4020.74,1.2166509019918932
561,4023.4399999999996,1.2504352016403666
562,4026.1400000000003,1.1961528012888398
563,4028.84,1.2430307009373132
564,4031.5499999999997,1.259687028732633
565,4034.25,1.2186243283811062
566,4036.9500000000003,1.2252772280295794
567,4039.65,1.259565227678053
568,4042.35,1.2154178273265264
569,4045.05,1.2171607269749996
570,4047.75,1.245216626623473
571,4050.45,1.2086862262719464
572,4053.1499999999996,1.20898142592042
573,4055.85,1.253026225568893
574,4058.55,1.1943377252173666
575,4061.25,1.2320248248658399
576,4063.9500000000003,1.1907103245143134
577,4066.65,1.1532986241627865
578,4069.35,1.17726262381126
579,4072.0499999999997,1.1614426234597333
580,4074.7499999999995,1.200892323108207
581,4077.4500000000003,1.18123242275668
582,4080.15,1.1469682224051534
583,4082.85,1.1427309220536268
584,4085.55,1.1725493217021001
585,4088.25,1.1967653213505736
586,4090.95,1.153625220999047
587,4093.6499999999996,1.1250264206475205
588,4096.35,1.1068142202959936
589,4099.05,1.0852030199444669
590,4101.75,1.0851833195929403
591,4104.45,1.1274656192414139
592,4107.15,1.1359442188898872
593,4109.849999999999,1.1794227185383606
594,4112.55,1.217676418186834
595,4115.25,1.1756064178353072
596,4117.95,1.1558205174837808
597,4120.650000000001,1.191996917132254
598,4123.35,1.2362307167807274
