,lambda (Angstroms),Total Flux (erg/s/cm^2/Angstrom)
0,100.03,0.0005235838871631463
1,101.89,0.0006297559997210278
2,104.02,0.0007513401931340852
3,104.712855,0.0007908895904708011
4,105.96,0.0007314906821391983
5,107.93,0.0006376637017854629
6,109.92999999999999,0.0005424078841674587
7,114.05999999999999,0.000345704620786279
8,118.07,0.00015471670646217907
9,120.22644299999999,5.200983590636761e-05
10,121.09,5.010671295071751e-05
11,125.06,4.135755321496093e-05
12,127.09,3.688380151128691e-05
13,127.98,3.49224029811047e-05
14,130.96,2.8355023632854163e-05
15,131.85999999999999,2.6371586916939622e-05
16,134.01,2.1633376984476975e-05
17,137.13,1.4757463035973052e-05
18,138.038426,1.2755456944760371e-05
19,140.0,1.2602780383774051e-05
20,142.93,1.2374727644652349e-05
21,146.94,1.2062614510222988e-05
22,151.05,1.1742718005857734e-05
23,154.93,1.144072325234504e-05
24,158.489319,1.1163688287376476e-05
25,158.9,1.1114575133722237e-05
26,161.85000000000002,1.0761785977954147e-05
27,166.01000000000002,1.0264293473549048e-05
28,169.86999999999998,9.802677832442651e-06
29,173.03,9.424774872366157e-06
30,177.06,8.942829008726423e-06
31,179.94,8.598411121066257e-06
32,181.970086,8.355634061385347e-06
33,182.01999999999998,8.357554946525952e-06
34,185.82999999999998,8.504178586917542e-06
35,191.04,8.704679680535456e-06
36,194.14000000000001,8.823979755519497e-06
37,198.20999999999998,8.980609209029787e-06
38,201.9,9.122614782944372e-06
39,205.18,9.24884196032062e-06
40,208.929613,9.39314167755632e-06
41,209.95,9.631611140317167e-06
42,215.84,1.1008133133261121e-05
43,219.85000000000002,1.1945289886062568e-05
44,222.91,1.2660426972133336e-05
45,227.04999999999998,1.3627965417615925e-05
46,230.21,1.436710246201306e-05
47,233.95,1.5241581450818483e-05
48,239.88329199999998,1.662870889454694e-05
49,239.95,1.661587196982244e-05
50,246.11,1.543029831802304e-05
51,251.84,1.4327717777975876e-05
52,257.11,1.3313193574524117e-05
53,260.09000000000003,1.2740079769101675e-05
54,263.71,1.2043725549024769e-05
55,269.23,1.0981585288879845e-05
56,274.24,1.0017757002068973e-05
57,275.42287,9.79024554097337e-06
58,278.69,1.0462348984954093e-05
59,283.87,1.1528129637411754e-05
60,289.82,1.2752203709667171e-05
61,295.89,1.4001582371423538e-05
62,300.69,1.4989794820461522e-05
63,307.7,1.6434156686308668e-05
64,316.227766,1.819300881980814e-05
65,317.78000000000003,1.7960422463317734e-05
66,328.19,1.640514242078285e-05
67,338.15999999999997,1.4922628091073648e-05
68,347.64000000000004,1.3524329969283942e-05
69,357.38,1.2146526729006349e-05
70,363.078055,1.1435799198536212e-05
71,365.7,1.1811573291012289e-05
72,375.08,1.310460984476621e-05
73,384.7,1.4432230490087396e-05
74,394.57,1.660602421829115e-05
75,404.69,1.928255442937747e-05
76,414.11999999999995,2.18381092397079e-05
77,416.86938299999997,2.2573415052792898e-05
78,421.82,2.3664743557295002e-05
79,429.65999999999997,2.5981045836311588e-05
80,440.68,3.197450614431704e-05
81,450.95000000000005,3.7793961860579834e-05
82,460.39,4.1550264135314085e-05
83,470.03000000000003,5.030195603451305e-05
84,478.630092,6.327347438179836e-05
85,479.87,6.494160722462602e-05
86,489.92,6.940240964523119e-05
87,500.18,9.602781101193855e-05
88,505.97,0.00012844133052589913
89,511.83,0.0005018996696885605
90,520.15,0.0005501910222198475
91,529.82,0.0006074118894046486
92,539.67,0.0005904077185432517
93,549.5408739999999,0.0008956496769953003
94,549.6999999999999,0.0009005803309113152
95,559.92,0.0011793324618213188
96,570.33,0.0014405972765740719
97,579.6,0.0014468603882703275
98,590.37,0.001859478372409343
99,599.97,0.0019284115560430058
100,609.7099999999999,0.0023261165277713262
101,619.62,0.0028780693850431597
102,629.6899999999999,0.0031541344287088872
103,630.957344,0.003188713002917754
104,639.92,0.0034338857617638593
105,650.32,0.003914001511291541
106,657.8499999999999,0.004154869874170717
107,665.4699999999999,0.004660472886805421
108,674.72,0.004993336000568023
109,685.69,0.004857915865214048
110,695.23,0.006458465739300018
111,704.9,0.005946472885255082
112,716.35,0.0077984612152639235
113,724.43596,0.008265986484762169
114,726.32,0.008374887594924127
115,734.73,0.008911240641396813
116,744.95,0.00983705845054674
117,755.3100000000001,0.010612722489958992
118,765.8199999999999,0.010834624990366597
119,774.6899999999999,0.012437269650558363
120,785.46,0.012874208150024576
121,794.56,0.01417996811707588
122,805.6099999999999,0.015192843077066748
123,814.9399999999999,0.01605501835097759
124,824.38,0.01760282616295169
125,831.763771,0.015526560388905361
126,835.85,0.014377240990044214
127,845.52,0.0190343045805971
128,855.31,0.019702142135045165
129,865.22,0.021550733653388405
130,875.24,0.023037349638635553
131,885.37,0.024797170090786615
132,895.62,0.02626478450683285
133,906.0,0.026568252383765523
134,914.3800000000001,0.03422205086244528
135,924.9699999999999,0.1832901681761945
136,935.68,0.3882677294538389
137,944.33,0.7246676943512828
138,954.992586,1.0229005656118997
139,955.27,1.0306598558083144
140,964.11,1.1171657855259416
141,975.27,0.18669899679842092
142,984.3000000000001,0.8672287250054541
143,995.69,0.9530561344493198
144,1004.91,1.4524734611457588
145,1014.2099999999999,1.4227023872061586
146,1025.95,0.6443180938673511
147,1035.44,0.9640848184171567
148,1045.02,1.8928241422514176
149,1054.6899999999998,1.8412650653701343
150,1064.45,1.4031749877733062
151,1074.3,1.694779909460934
152,1084.24,1.3005278304330168
153,1094.27,1.7787817506895551
154,1096.4782,1.7579311370621964
155,1104.3999999999999,1.6831305360102993
156,1114.6200000000001,1.5853272816998152
157,1124.93,1.3903270251498068
158,1135.34,1.828601766111437
159,1145.8400000000001,1.6486305048335426
160,1153.79,1.754369307008851
161,1164.46,1.7911300415007432
162,1175.24,1.1752037732554383
163,1186.11,1.7382335027706084
164,1194.33,1.1861232982273424
165,1205.3899999999999,0.8338967230146271
166,1213.74,0.625323015236492
167,1224.97,1.213692535793563
168,1236.31,1.8160272536134372
169,1244.88,1.950348040360908
170,1256.39,1.8327877539505686
171,1258.92541,1.7618096010854476
172,1265.1000000000001,1.5889537017891628
173,1273.87,2.014278717311667
174,1285.66,2.0802167381794345
175,1294.57,1.5780567539497325
176,1303.54,1.5962947698262275
177,1315.6100000000001,2.0049867911895825
178,1324.73,1.8797818073315709
179,1333.91,1.6485978235797563
180,1346.25,1.968425845420999
181,1355.5800000000002,1.901595861934678
182,1364.98,1.6792448785722536
183,1374.44,1.7422908953160263
184,1383.97,1.7543629121836963
185,1393.5600000000002,1.4425269291575633
186,1406.46,1.4932119519899807
187,1416.2,1.592639969229341
188,1426.02,1.6222649866102976
189,1435.9099999999999,1.6334740041151512
190,1442.53,1.706551015832252
191,1445.43977,1.713440098063495
192,1445.86,1.7144350216066675
193,1455.8799999999999,1.656217036491427
194,1465.97,1.520931051480172
195,1476.1299999999999,1.5315270665729022
196,1486.37,1.5492000817844724
197,1496.6699999999998,1.5563650970851735
198,1503.58,1.4491851073500126
199,1510.52,1.2826941176594169
200,1517.49,1.3712631280133862
201,1524.49,1.3462461384119209
202,1535.06,1.148494154113708
203,1545.7,1.1970671699194808
204,1556.42,1.1510941858440937
205,1563.6,1.208157196510019
206,1574.44,1.2827112126128926
207,1585.3500000000001,1.3369602288197515
208,1596.34,1.3462382451454509
209,1603.71,1.3307842560936223
210,1614.83,1.333893272612437
211,1626.02,1.2738612892352372
212,1633.53,1.3555633003913796
213,1644.85,1.3649103172072954
214,1656.25,1.2856283341420518
215,1659.58691,1.325727092364407
216,1663.9,1.3775563858890203
217,1671.58,1.2621474692044592
218,1675.43,1.3871465109706624
219,1683.1599999999999,1.4227235948285195
220,1694.83,1.3400067214289326
221,1706.5800000000002,1.288616848897215
222,1714.4499999999998,1.202613934273843
223,1726.3400000000001,1.1915800632608964
224,1734.31,1.2680061497223611
225,1746.3300000000002,1.2363052801197019
226,1754.39,1.2975313675575193
227,1766.55,1.213696499473631
228,1774.6999999999998,1.2053525878878013
229,1787.01,1.2362997214311675
230,1795.25,1.2945458108216905
231,1803.54,1.297532900754632
232,1816.04,1.1725350363591875
233,1824.4299999999998,1.2136851273769653
234,1837.0700000000002,1.167110264500292
235,1845.55,1.0718243564944225
236,1854.07,1.0595484489224878
237,1866.92,1.0867095883239708
238,1875.54,1.1833616818368724
239,1884.2,1.0693257757837085
240,1892.89,1.0118518700559955
241,1905.46072,1.093248376561894
242,1906.01,1.0968049987468014
243,1914.8100000000002,1.0306488756905716
244,1923.65,1.0025577520749953
245,1936.98,1.0619815656727745
246,1945.9199999999998,1.0842224406588319
247,1954.91,0.9934004149457064
248,1968.46,1.0942361254670798
249,1977.5400000000002,1.1301149984954244
250,1982.1,1.0595559347299237
251,1995.8400000000001,1.0306557425944012
252,2005.05,1.0742546138048699
253,2014.31,1.0378094843161554
254,2023.6100000000001,1.0942363542680944
255,2032.95,1.0095322236606867
256,2047.04,1.0401770266308825
257,2056.49,0.9685504944852722
258,2065.98,0.9887977617803153
259,2075.52,1.0668946283761753
260,2080.2999999999997,0.9842491615342687
261,2085.09,1.0306514945525254
262,2094.72,0.9730347598898558
263,2104.39,0.9934035246678397
264,2114.1,1.002561088886477
265,2123.86,1.0118419524059312
266,2133.66,0.966314615366039
267,2143.51,0.9552279776269637
268,2153.41,0.9934058391887052
269,2163.35,0.9730375001911001
270,2173.33,0.9640667606341486
271,2183.36,0.9334917203780141
272,2187.7616199999998,0.9488017420595857
273,2193.44,0.9685528221358988
274,2203.57,0.9486802350759727
275,2213.74,0.9164841484620092
276,2223.9500000000003,0.8874011622940086
277,2234.2200000000003,0.9164887767949522
278,2244.53,0.8935700917418585
279,2254.89,0.8632390072462184
280,2265.3,0.8832936233080316
281,2275.76,0.8914438399272985
282,2286.2599999999998,0.897553856992528
283,2296.81,0.847359674615211
284,2307.42,0.8512109929068382
285,2312.7400000000002,0.8166467522198879
286,2323.41,0.6699137711804591
287,2334.13,0.776231890698484
288,2344.91,0.772614910885453
289,2355.73,0.7906157315183848
290,2366.61,0.7602227528202607
291,2377.5299999999997,0.7601608745680994
292,2383.01,0.7326944356650003
293,2394.01,0.7601600583047645
294,2405.06,0.7343118815019823
295,2416.16,0.7410427052566535
296,2427.31,0.7548046295687783
297,2432.91,0.7274613920035673
298,2444.14,0.7513184172076176
299,2455.42,0.7409818429691213
300,2466.76,0.7358078693995692
301,2472.44,0.7157567327262838
302,2483.85,0.7290237599371667
303,2495.32,0.6542177878169937
304,2506.84,0.725592316254274
305,2511.88643,0.6860621496980679
306,2512.62,0.6803158693519303
307,2518.41,0.7090245443681763
308,2524.21,0.6865483193412725
309,2535.8599999999997,0.6881035690717155
310,2547.57,0.6692921185432598
311,2553.44,0.689659693214307
312,2565.23,0.6801274423406524
313,2577.07,0.7008067912512487
314,2583.01,0.6927731656202472
315,2594.93,0.6879160141856447
316,2606.91,0.6722836624921433
317,2612.92,0.664555736559093
318,2624.98,0.6706639845203929
319,2637.1,0.6705957322227938
320,2643.18,0.6877899059876946
321,2655.38,0.6846118533448968
322,2667.6299999999997,0.6507956004863499
323,2673.78,0.6643717739492019
324,2686.1200000000003,0.6582701207023064
325,2692.32,0.6403264939494092
326,2704.74,0.640270140357315
327,2717.23,0.628557186463172
328,2723.4900000000002,0.6285597594513759
329,2736.06,0.6372791052120342
330,2742.37,0.6002126779844889
331,2755.03,0.5987981233567986
332,2767.7400000000002,0.6043131685133595
333,2774.12,0.6169515409837651
334,2786.9300000000003,0.6098619857088275
335,2793.35,0.5549053580066339
336,2806.25,0.5756989023433478
337,2812.7200000000003,0.605601074425405
338,2825.7,0.6027869184169202
339,2832.21,0.5769713903263781
340,2845.29,0.574289433886395
341,2851.8500000000004,0.5716362055801036
342,2865.01,0.5822339487949217
343,2878.23,0.5728970917508409
344,2884.0315,0.5717319612581272
345,2884.87,0.5715635666434191
346,2898.1800000000003,0.5649954654680515
347,2911.5600000000004,0.5715020642865024
348,2931.74,0.5610326625044649
349,2952.0600000000004,0.5494824607100645
350,2972.5299999999997,0.545653058902418
351,2993.13,0.5381243570832915
352,3006.95,0.5319325558628873
353,3027.7900000000004,0.5282297540225672
354,3048.7799999999997,0.5197455521690011
355,3069.9100000000003,0.5125718503030718
356,3091.1899999999996,0.5054967484238966
357,3112.62,0.4985204465314752
358,3126.9900000000002,0.48938904526250204
359,3148.66,0.48598324334888704
360,3170.4900000000002,0.4759717414211429
361,3192.4599999999996,0.4640285394810357
362,3207.2000000000003,0.4629386381793889
363,3229.43,0.4554968362163219
364,3251.82,0.45231783423912575
365,3266.83,0.44609103291363605
366,3289.47,0.4409480309143632
367,3311.31121,0.4360718830583484
368,3312.27,0.43585782736710355
369,3319.91,0.44702501447008275
370,3327.56,0.449074001556181
371,3335.23,0.4449445886085174
372,3342.9199999999996,0.42490837562709194
373,3350.63,0.4438915626119047
374,3358.35,0.4123517495798365
375,3366.0899999999997,0.4248662365140065
376,3373.85,0.4180645234144147
377,3381.63,0.415174110281061
378,3389.43,0.4307376971139455
379,3397.2400000000002,0.430724483929949
380,3405.07,0.41038487071219076
381,3412.9199999999996,0.41226485746067065
382,3420.7900000000004,0.41798134417538874
383,3428.6699999999996,0.4179703308732258
384,3436.5800000000004,0.41892201752042024
385,3444.5,0.40655410415073373
386,3452.44,0.4188971907472854
387,3460.4,0.39911117731007517
388,3468.3799999999997,0.39818186383910315
389,3476.37,0.3945204503512502
390,3484.38,0.3917932368296354
391,3492.42,0.4018253232573779
392,3500.47,0.3963015096682394
393,3508.54,0.38372109604533916
394,3516.62,0.38106828240555796
395,3524.73,0.389034568715134
396,3532.8599999999997,0.3872326549909482
397,3541.0000000000005,0.3908038412498815
398,3549.1600000000003,0.39441012747505294
399,3557.34,0.3880884136664625
400,3565.54,0.3916696998241103
401,3573.77,0.38450498593111543
402,3582.0,0.36719257203812045
403,3590.26,0.3579932580944827
404,3598.54,0.3671651441170832
405,3606.83,0.36800133012280273
406,3613.6600000000003,0.39775451859313615
407,3616.37,0.4170909140184076
408,3619.0699999999997,0.37731780946055987
409,3621.7700000000004,0.38425620490271223
410,3624.4700000000003,0.43007080034486456
411,3627.17,0.43223839578701684
412,3629.87,0.3924652912291692
413,3632.57,0.38601298667132145
414,3635.27,0.3542929821134738
415,3637.97,0.3620595775556261
416,3640.6699999999996,0.37038687299777845
417,3643.3700000000003,0.38574566843993074
418,3646.07,0.3700257638820831
419,3648.77,0.32447905932423543
420,3651.47,0.36447675476638774
421,3654.17,0.3437182502085401
422,3656.87,0.32020684565069235
423,3659.5699999999997,0.3357961410928447
424,3662.28,0.3118408365181161
425,3664.98,0.3105081319602684
426,3667.68,0.33369572740242076
427,3670.3799999999997,0.34457022284457306
428,3673.0800000000004,0.30665311828672537
429,3675.78,0.34528051372887775
430,3678.48,0.35000780917103
431,3681.18,0.35878340461318237
432,3683.88,0.33060720005533467
433,3686.58,0.31508659549748697
434,3689.2799999999997,0.3530350909396393
435,3691.9800000000005,0.37125268638179165
436,3694.6800000000003,0.32100368182394395
437,3697.38,0.3647506772660963
438,3700.08,0.3272320727082486
439,3702.7799999999997,0.3312182681504009
440,3705.48,0.33382796359255323
441,3708.19,0.36118665901782465
442,3710.89,0.4353457544599769
443,3713.59,0.3779718499021293
444,3716.29,0.4919726453442816
445,3718.99,0.9676194407864339
446,3721.69,1.9914093362285863
447,3724.3900000000003,3.4040883316707387
448,3727.09,4.098283327112891
449,3729.79,3.4793893225550434
450,3732.49,2.1649293179971956
451,3735.19,1.0774243134393477
452,3737.89,0.5586716088815001
453,3740.5899999999997,0.4810248043236525
454,3743.2900000000004,0.4315854997658048
455,3745.9900000000002,0.4111570952079571
456,3748.69,0.3817911906501094
457,3751.39,0.3823518860922618
458,3754.1000000000004,0.3385969815175332
459,3756.8,0.3482009769596855
460,3759.5,0.3493096724018378
461,3762.2,0.3567150678439901
462,3764.9,0.3488054632861424
463,3767.6,0.3708158587282948
464,3770.2999999999997,0.3506864541704471
465,3773.0000000000005,0.39944084961259946
466,3775.7000000000003,0.37508254505475175
467,3778.4,0.33350944049690406
468,3781.1,0.37663983593905637
469,3783.7999999999997,0.3772814313812087
470,3786.5,0.35312862682336105
471,3789.2,0.33775122226551335
472,3791.9,0.3919928177076657
473,3794.6000000000004,0.35492881314981795
474,3797.3,0.3932075085919703
475,3800.0099999999998,0.4163931040172417
476,3801.8939600000003,0.4046986633539791
477,3802.71,0.3996331997464231
478,3805.4100000000003,0.3708528961382572
479,3808.11,0.3826740925300914
480,3810.81,0.39017918892192555
481,3813.5099999999998,0.36306798531375967
482,3816.21,0.36152348170559384
483,3818.91,0.37827127809742805
484,3821.6099999999997,0.3639028744892622
485,3824.3100000000004,0.36816927088109636
486,3827.01,0.3814479672729305
487,3829.71,0.3881558636647646
488,3832.41,0.3690540600565988
489,3835.11,0.44107085644843297
490,3837.81,0.4048664528402671
491,3840.5099999999998,0.37353244923210127
492,3843.21,0.3652614456239355
493,3845.92,0.3788558420024061
494,3848.62,0.40236733839424016
495,3851.3199999999997,0.40287813478607437
496,3854.0200000000004,0.3879181311779085
497,3856.7200000000003,0.3835274275697427
498,3859.42,0.41511072396157683
499,3862.12,0.532892120353411
500,3864.8199999999997,0.8089881167452452
501,3867.52,0.9475033131370794
502,3870.22,0.9670602095289135
503,3872.92,0.6968190059207476
504,3875.6200000000003,0.4504253023125818
505,3878.32,0.38132979870441597
506,3881.02,0.40146569509625013
507,3883.72,0.4955428914880843
508,3886.42,0.5834042878799185
509,3889.12,0.6169121842717525
510,3891.83,0.5081028806502231
511,3894.5299999999997,0.4106196770420574
512,3897.23,0.36325437343389155
513,3899.93,0.3668045698257257
514,3902.63,0.3444330662175598
515,3905.3300000000004,0.350069662609394
516,3908.03,0.3598729590012281
517,3910.73,0.3593623553930623
518,3913.43,0.3506679517848965
519,3916.13,0.39524944817673063
520,3918.83,0.3842131445685648
521,3921.5299999999997,0.342272540960399
522,3924.23,0.3874645373522331
523,3926.9300000000003,0.3460096337440673
524,3929.63,0.3457357301359015
525,3932.33,0.32010672652773564
526,3935.0299999999997,0.3275433229195697
527,3937.7400000000002,0.34974521929804037
528,3940.44,0.3714069156898745
529,3943.14,0.37215441208170863
530,3945.8399999999997,0.3618033084735428
531,3948.54,0.363348004865377
532,3951.24,0.3761969012572111
533,3953.94,0.3485873976490453
534,3956.6400000000003,0.39487549404087946
535,3959.34,0.3615671904327137
536,3962.04,0.46976348682454777
537,3964.74,0.625630583216382
538,3967.44,0.7638967796082161
539,3970.14,0.7269637760000504
540,3972.84,0.5813484723918845
541,3975.54,0.4354342687837186
542,3978.2400000000002,0.35447396517555274
543,3980.94,0.37277876156738693
544,3983.65,0.3355262579458575
545,3986.3500000000004,0.38610535433769166
546,3989.05,0.3749383507295258
547,3991.75,0.38632364712135997
548,3994.45,0.3574685435131942
549,3997.15,0.36413283990502826
550,3999.85,0.35194433629686245
551,4002.55,0.3743160326886966
552,4005.25,0.3683371290805308
553,4007.9500000000003,0.39116362547236494
554,4010.65,0.3561176218641991
555,4013.35,0.33631821825603325
556,4016.0499999999997,0.36073291464786744
557,4018.75,0.3571829110397016
558,4021.45,0.38167230743153574
559,4024.15,0.3502574038233699
560,4026.8500000000004,0.34755440021520406
561,4029.56,0.3684607965936747
562,4032.2599999999998,0.3652035929855088
563,4034.96,0.357200489377343
564,4037.6600000000003,0.3521369857691771
565,4040.36,0.35891338216101126
566,4043.06,0.36296177855284545
567,4045.7599999999998,0.3404656749446796
568,4048.46,0.35187587133651377
569,4051.16,0.34776536772834793
570,4053.86,0.3547222641201821
571,4056.56,0.34892396051201624
572,4059.26,0.3432127569038504
573,4061.96,0.3612497532956846
574,4064.66,0.36139314968751873
575,4067.3599999999997,0.3526550460793529
576,4070.06,0.36099464247118707
577,4072.76,0.3686555388630212
578,4075.47,0.3581282352414918
579,4078.17,0.37950343163332595
