,lambda (Angstroms),Total Flux (erg/s/cm^2/Angstrom)
0,102.01,7.335382299695203e-05
1,103.9,8.576666836087875e-05
2,104.712855,9.11080659057363e-05
3,106.08,8.363990667468633e-05
4,108.05,7.288555875192387e-05
5,110.06,6.198373160687182e-05
6,113.93,4.086943177535368e-05
7,117.92999999999999,1.9033770646394483e-05
8,120.22644299999999,7.021513968436712e-06
9,120.96000000000001,7.013847970368463e-06
10,124.92,6.191929325621305e-06
11,126.95,5.761028820864552e-06
12,128.12,5.5206426530983445e-06
13,131.10999999999999,4.8848924465847114e-06
14,132.02,4.831765427210988e-06
15,133.85,4.455506651986926e-06
16,136.97,3.96606487127704e-06
17,138.038426,3.754829840581178e-06
18,139.84,3.838822586135262e-06
19,143.1,5.45002578582704e-06
20,147.11,7.874226212441773e-06
21,150.88,8.353671446441163e-06
22,155.11,8.902839966286628e-06
23,158.489319,9.429508341699773e-06
24,159.09,9.520242203855737e-06
25,162.04,9.968452942443968e-06
26,165.82,1.0627569312567194e-05
27,170.07000000000002,1.1222043088499391e-05
28,172.82999999999998,1.173336015239889e-05
29,176.86,1.2360762568165184e-05
30,180.15,1.2849275408827993e-05
31,181.82,1.3214473233723703e-05
32,181.970086,1.3238194757202716e-05
33,186.05,1.3957154951914932e-05
34,190.82,1.4875451508148832e-05
35,193.92,1.5509552058321807e-05
36,197.98,1.6280268456290286e-05
37,202.13,1.7090772902489593e-05
38,204.93999999999997,1.7705190852807673e-05
39,208.929613,1.8045971844653568e-05
40,210.20000000000002,1.8182986656261693e-05
41,216.09,2.007434331826343e-05
42,220.10999999999999,2.1022744554468348e-05
43,223.17,2.1562681614863135e-05
44,226.79000000000002,2.2608659444480502e-05
45,229.95000000000002,3.320887235652218e-05
46,234.21999999999997,5.390477822184432e-05
47,239.88329199999998,6.954908024495166e-05
48,240.23,7.048984493746038e-05
49,245.83,6.742320507743218e-05
50,252.13,7.134289773490045e-05
51,256.82,5.741317160212683e-05
52,259.8,6.927087917661182e-05
53,264.02,7.319312178209057e-05
54,268.93,7.308157815481584e-05
55,273.92,7.281366452954071e-05
56,275.42287,7.253749084027646e-05
57,279.02,7.204102314877783e-05
58,284.2,7.26563124815211e-05
59,290.16,6.958056657865428e-05
60,296.23,7.004699903999632e-05
61,301.05,6.647920463532886e-05
62,308.06,6.800045129991e-05
63,316.227766,6.931045157363786e-05
64,318.15000000000003,6.954008745126411e-05
65,327.82,6.85997461966956e-05
66,337.78000000000003,6.676042733469952e-05
67,348.04,6.495952784433004e-05
68,356.96999999999997,6.451178013974921e-05
69,363.078055,6.489255523065292e-05
70,366.13,6.517683016854079e-05
71,374.65999999999997,6.398484567974002e-05
72,385.15000000000003,6.06265382017189e-05
73,395.03000000000003,6.269584354177146e-05
74,405.16,6.339558477605614e-05
75,413.65,6.280378014417822e-05
76,416.86938299999997,6.238364730805136e-05
77,422.31,6.164425315607154e-05
78,430.15999999999997,6.089212377953817e-05
79,441.2,6.234890975190398e-05
80,451.46999999999997,6.285280719177688e-05
81,459.87,6.208586390988131e-05
82,469.5,6.327480607599387e-05
83,478.630092,6.599296289834048e-05
84,480.43,6.649511771032007e-05
85,490.49,6.580006111638042e-05
86,499.60999999999996,7.182223006899178e-05
87,506.56,7.810408076204539e-05
88,512.43,0.00013434153421071083
89,519.5500000000001,0.00013734929900704776
90,530.43,0.00014070652161718062
91,540.3000000000001,0.00013527037337839488
92,549.5408739999999,0.0001583216101123033
93,550.34,0.00016032074530161788
94,560.57,0.0001959053748694111
95,569.68,0.00022107827685988976
96,580.27,0.0002230677617203913
97,589.7,0.0002552549573043884
98,600.66,0.00025347866288239564
99,610.42,0.0002758460174847086
100,620.34,0.0003405321188837809
101,630.42,0.0003581106670796124
102,630.957344,0.00035972451611057074
103,640.67,0.000388974175339439
104,649.58,0.0004205654006735938
105,658.61,0.00042938488527150817
106,664.71,0.00047502291451262423
107,675.51,0.0005100886482509937
108,684.91,0.0004951584572455004
109,694.4300000000001,0.0005991162255037667
110,705.7199999999999,0.0005593069429024882
111,715.5400000000001,0.0006940239093201537
112,724.43596,0.0007292426772594436
113,725.49,0.0007334134642153211
114,735.5799999999999,0.000771476819839646
115,745.8199999999999,0.0008189586732185448
116,754.4499999999999,0.0008614560573650189
117,764.9499999999999,0.0008614768001851786
118,775.59,0.0009663828142429405
119,784.5699999999999,0.00099342172648342
120,795.4799999999999,0.0010667828564994146
121,804.7,0.0011247363051472118
122,815.89,0.001174947977638411
123,825.3399999999999,0.0012559650361765548
124,831.763771,0.001148857112408089
125,834.89,0.0010967049978944654
126,844.5600000000001,0.0013363650973333104
127,854.3399999999999,0.001376842560881594
128,864.23,0.0014683203885393166
129,874.24,0.001540916522498245
130,884.36,0.001617129020566612
131,894.61,0.0016853767671279522
132,904.9599999999999,0.0017126779356069642
133,915.44,0.002030455352578949
134,926.0400000000001,0.00834290907585214
135,934.61,0.016567935534196596
136,945.4300000000001,0.029597422985688664
137,954.1800000000001,0.03937709240348493
138,954.992586,0.03986801245718373
139,965.23,0.04605294835204263
140,974.1600000000001,0.011022860192613478
141,985.44,0.043174369885966124
142,994.5600000000001,0.042683371552932094
143,1006.08,0.05536285102699438
144,1015.39,0.05190911252035547
145,1024.78,0.023782413940619775
146,1034.26,0.039833265278650186
147,1043.83,0.06640993653444673
148,1055.92,0.06475040548769438
149,1065.69,0.054227866560748926
150,1075.55,0.06169197755156959
151,1085.5,0.051668388460156374
152,1095.55,0.06312869927737216
153,1096.4782,0.0628180470984974
154,1105.69,0.05973500208585399
155,1115.92,0.05810843283064746
156,1126.24,0.05226820331806374
157,1134.05,0.0621220509834437
158,1144.54,0.05717846098470308
159,1155.13,0.05918780069998782
160,1165.8200000000002,0.060290350129297905
161,1173.8999999999999,0.04408016702254631
162,1184.76,0.058108525965699494
163,1195.73,0.04541991459428056
164,1204.01,0.03558279091557968
165,1215.15,0.022042129058003842
166,1226.4,0.041611996885855894
167,1234.9,0.05626488257801077
168,1246.33,0.05973421989110847
169,1254.96,0.057577735211496305
170,1258.92541,0.05521237503819912
171,1263.66,0.05238821483450095
172,1275.3600000000001,0.06056730721442017
173,1284.2,0.061549709012581354
174,1296.08,0.05202575142911472
175,1305.0600000000002,0.05214664325575357
176,1314.11,0.05987163509663126
177,1326.27,0.05704502757011995
178,1335.46,0.05250926943947531
179,1344.72,0.057842221323069494
180,1354.04,0.05639312321886839
181,1366.57,0.05214633576761949
182,1376.04,0.052870917693930174
183,1385.58,0.05311646963447969
184,1395.18,0.04500183158723392
185,1404.85,0.04605245355422699
186,1414.59,0.04957067553545888
187,1424.4,0.04911503753092961
188,1434.27,0.04968725953860506
189,1440.8899999999999,0.05095924088519183
190,1445.43977,0.05079945251991731
191,1447.54,0.05072569216922365
192,1454.22,0.049570323309643394
193,1464.31,0.04680069503222352
194,1474.46,0.04669187676504694
195,1484.6799999999998,0.04658305850982086
196,1494.9699999999998,0.046474840266545296
197,1505.33,0.04418017203522024
198,1512.28,0.04057328322173479
199,1515.76,0.04219200381584568
200,1526.2700000000002,0.04180537561012884
201,1533.32,0.03725923681371556
202,1543.94,0.03743191862677809
203,1554.6499999999999,0.03616043045520556
204,1565.4199999999998,0.03777773229387632
205,1576.27,0.039649854146204803
206,1583.55,0.04029579538905746
207,1594.5300000000002,0.04066590726357974
208,1605.5800000000002,0.03964973915005253
209,1616.71,0.03937657105018304
210,1624.17,0.038215532323765566
211,1635.4299999999998,0.03974091424608987
212,1646.76,0.039558356180364684
213,1654.3700000000001,0.038127527479555445
214,1659.58691,0.038903673472602596
215,1665.8300000000002,0.039832496153749786
216,1673.52,0.037431525741236454
217,1677.3799999999999,0.040016170553681
218,1685.12,0.040295800203505025
219,1696.8,0.03856904476551338
220,1704.64,0.03725976454001214
221,1716.4499999999998,0.035582889264097646
222,1724.3700000000001,0.035175719138336184
223,1736.3300000000002,0.03657950404943378
224,1744.3400000000001,0.03574724403587958
225,1756.4299999999998,0.03674885910905432
226,1764.54,0.034933559220174853
227,1776.77,0.03485313446789422
228,1784.9699999999998,0.035175744691222
229,1793.21,0.036078024964419676
230,1805.64,0.0359947404614885
231,1813.98,0.0335921208593609
232,1826.5500000000002,0.034216906530974346
233,1834.98,0.033284347041054006
234,1843.45,0.031063227601003558
235,1856.23,0.030849073534433932
236,1864.8000000000002,0.031350414219058216
237,1873.4,0.03282821494108491
238,1886.39,0.030355821136332218
239,1895.1000000000001,0.028923261995501125
240,1903.84,0.030707432892072443
241,1905.46072,0.03053775043997343
242,1917.0400000000002,0.02932541630397413
243,1925.89,0.028460802081394638
244,1934.7800000000002,0.029665257794532298
245,1943.7099999999998,0.030216483443387118
246,1957.18,0.02813512179613901
247,1966.2199999999998,0.029939467268216006
248,1975.2900000000002,0.030707452692080865
249,1984.41,0.029123558035592165
250,1993.5700000000002,0.02839497331482063
251,2002.7700000000002,0.029123588529766237
252,2016.65,0.028526366223618968
253,2025.96,0.029393061261786757
254,2035.31,0.0277490462356717
255,2044.71,0.02807000112920309
256,2054.15,0.026136175958451628
257,2063.63,0.026806800723417328
258,2073.15,0.02852632542410018
259,2077.93,0.026930487742300183
260,2082.7200000000003,0.027684970044429474
261,2097.1600000000003,0.02637814683832237
262,2106.84,0.026868411281873842
263,2116.56,0.02693036566114247
264,2126.33,0.027117109960057537
265,2136.15,0.02619645417861905
266,2146.0099999999998,0.02583693833289772
267,2155.91,0.026499732422893545
268,2165.87,0.025896416416465097
269,2175.86,0.025718280361824518
270,2185.91,0.02513292421075967
271,2187.7616199999998,0.025240320700386815
272,2196.0,0.025718181790958614
273,2206.13,0.02519082477058625
274,2216.31,0.024561027814279185
275,2226.5499999999997,0.023946490934850462
276,2236.8199999999997,0.024447824093860912
277,2247.15,0.023946627329749712
278,2257.52,0.02329406061689074
279,2262.72,0.023563847279680843
280,2273.17,0.023618140669326337
281,2283.6600000000003,0.02367264411022406
282,2294.2000000000003,0.022660987615187075
283,2304.79,0.02272715118421538
284,2315.43,0.022121264817308972
285,2326.1200000000003,0.019234148514467853
286,2336.85,0.021298122262878968
287,2347.64,0.02101870608816843
288,2353.0499999999997,0.02136696302003275
289,2363.91,0.020701896935013616
290,2374.83,0.020714710926872826
291,2385.79,0.020024054969984276
292,2396.8,0.020550519077161006
293,2402.32,0.019996826149968967
294,2413.41,0.02005554035965016
295,2424.55,0.02030061463339665
296,2435.7400000000002,0.019714598971208426
297,2446.99,0.02009372338589855
298,2452.63,0.0198699506124632
299,2463.95,0.01965491511684473
300,2475.32,0.01926451968529155
301,2486.75,0.019455404330616714
302,2492.48,0.017913691672498885
303,2503.98,0.019340386407515456
304,2511.88643,0.018666072443787974
305,2515.54,0.018354464726268
306,2527.15,0.018451518968879744
307,2532.98,0.01837249607778814
308,2544.67,0.018049290280727957
309,2556.4199999999996,0.018396584453913827
310,2562.31,0.01819224153306828
311,2574.14,0.018500085666582226
312,2586.02,0.01834271977530122
313,2597.95,0.018186963859225257
314,2603.94,0.0178198508887898
315,2615.96,0.017668514928082923
316,2621.9900000000002,0.017715221937811502
317,2634.1,0.017727175932473707
318,2646.25,0.018110559907299952
319,2652.35,0.018075006882315593
320,2664.6,0.01743336080755193
321,2676.8999999999996,0.017566084707993312
322,2683.07,0.01749134164829602
323,2695.45,0.017065855509065475
324,2707.89,0.017077939340080988
325,2714.14,0.01673322624071177
326,2726.6600000000003,0.016629900032055354
327,2732.9500000000003,0.016750946912850177
328,2745.5600000000004,0.016008360659562845
329,2751.8900000000003,0.015976967520521704
330,2764.6,0.01609921121764446
331,2777.3599999999997,0.01629685488997227
332,2783.76,0.01604203171621819
333,2796.61,0.014913285343915082
334,2803.05,0.01530144215032504
335,2815.99,0.015923765733391014
336,2822.48,0.015856122515006017
337,2835.5099999999998,0.015399626053441078
338,2842.0499999999997,0.015263952810261128
339,2855.17,0.015135126304065268
340,2861.75,0.015386703041049358
341,2874.9599999999996,0.01525665649022258
342,2884.0315,0.01521618230064172
343,2888.23,0.015197451949064866
344,2894.89,0.015098421881474615
345,2908.25,0.015249451745888166
346,2928.4100000000003,0.014918931541290648
347,2948.71,0.014629461335272317
348,2969.1499999999996,0.014544981127833168
349,2989.73,0.014328760918973204
350,3010.4500000000003,0.014180670708692424
351,3031.32,0.01406679049688934
352,3052.33,0.013890010283665441
353,3073.49,0.013746740068919237
354,3087.67,0.013537459925010866
355,3109.0800000000004,0.013429109707727493
356,3130.6299999999997,0.013169079489023303
357,3152.33,0.01306362926879681
358,3166.88,0.012894919121133424
359,3188.8300000000004,0.012529488898369759
360,3210.9300000000003,0.01251580867408379
361,3233.19,0.012273868448174035
362,3248.12,0.012312058296654148
363,3270.63,0.012270588068207218
364,3293.3,0.0121168778381365
365,3308.5,0.011960627683876469
366,3311.31121,0.011993090042988814
367,3323.77,0.012136955238293928
368,3331.44,0.012169933750284875
369,3339.12,0.011680482260335785
370,3346.81,0.012013020768446656
371,3354.53,0.011610039270737414
372,3362.26,0.011481597771088136
373,3370.0099999999998,0.01132906626755878
374,3377.78,0.01125577476014935
375,3385.57,0.011549193248859842
376,3393.37,0.011687701735630296
377,3401.19,0.011909950218520676
378,3409.03,0.01130045869753098
379,3416.8900000000003,0.011409987172661208
380,3424.77,0.01160035564391136
381,3432.67,0.011766574111281437
382,3440.58,0.011477172576711474
383,3448.51,0.011194951038261437
384,3456.46,0.010969959495931325
385,3464.43,0.010724777949721136
386,3472.4100000000003,0.01105529640157091
387,3480.42,0.01078354484760057
388,3488.44,0.010963513291690192
389,3496.48,0.010917641731899737
390,3504.54,0.010698630168229207
391,3512.6200000000003,0.010604858600678602
392,3520.72,0.010781947029247922
393,3528.8399999999997,0.010541185453937164
394,3536.97,0.01079119387668637
395,3545.13,0.010845902293615461
396,3553.2999999999997,0.010875310708604514
397,3561.49,0.010830249119713494
398,3569.7000000000003,0.010515427526942395
399,3577.9300000000003,0.010162815930291223
400,3586.18,0.009982038329759973
401,3594.44,0.010125422727288686
402,3602.73,0.010389451118997285
403,3611.03,0.010180959508765845
404,3619.3599999999997,0.010350787892714293
405,3627.7,0.010572206274722704
406,3634.75,0.012404574906996
407,3637.49,0.009405628375425622
408,3640.23,0.011721073843855243
409,3642.97,0.014031693312284864
410,3645.7099999999996,0.015242162780714486
411,3648.46,0.00963062424720407
412,3651.2,0.01156968171563369
413,3653.94,0.010089941184063311
414,3656.68,0.015076270652492934
415,3659.42,0.009041325120922554
416,3662.16,0.009820256589352176
417,3664.8999999999996,0.009712783057781798
418,3667.64,0.009129098526211419
419,3670.39,0.009237741992701002
420,3673.13,0.009025607461130625
421,3675.87,0.011802766929560246
422,3678.61,0.012676696397989866
423,3681.35,0.01413351586641949
424,3684.0899999999997,0.0032048643348491102
425,3686.83,0.013613854803278732
426,3689.58,0.008900403269768315
427,3692.32,0.010041223738197937
428,3695.06,0.008346111206627559
429,3697.8,0.008860569675057179
430,3700.54,0.0094563421434868
431,3703.2799999999997,0.009229312611916422
432,3706.02,0.012501211080346042
433,3708.77,0.009360907546835627
434,3711.51,0.010938480015265248
435,3714.25,0.014641499483694871
436,3716.9900000000002,0.015519048952124491
437,3719.73,0.028573598420554115
438,3722.47,0.05434052788898373
439,3725.21,0.10271445735741336
440,3727.95,0.12196025682584298
441,3730.7000000000003,0.10116425629233256
442,3733.44,0.05210225576076218
443,3736.18,0.023019255229191803
444,3738.92,0.013648024697621426
445,3741.66,0.009563412166051046
446,3744.4,0.009167314634480667
447,3747.14,0.01140306310291029
448,3749.8900000000003,0.011626012569399873
449,3752.63,0.011716192037829495
450,3755.37,0.007079693506259116
451,3758.11,0.011370420974688737
452,3760.85,0.01100774044311836
453,3763.59,0.009681356911547982
454,3766.33,0.012090999379977601
455,3769.0699999999997,0.013507568848407224
456,3771.82,0.013468058314896806
457,3774.56,0.01277005778332643
458,3777.3,0.012466947251756049
459,3780.04,0.012059176720185671
460,3782.78,0.010535556188615293
461,3785.52,0.009107326657044914
462,3788.2599999999998,0.012149775125474535
463,3791.01,0.01081971459196412
464,3793.75,0.010129764060393742
465,3796.4900000000002,0.01400667352882336
466,3799.23,0.013271632997252984
467,3801.8939600000003,0.010634953764230189
468,3801.9700000000003,0.01055969246875637
469,3804.71,0.01081451204794501
470,3807.45,0.01025337162713365
471,3810.19,0.00968458520632229
472,3812.94,0.007685909783975121
473,3815.6800000000003,0.007808287363163762
474,3818.42,0.011295129942352402
475,3821.1600000000003,0.009163667521541042
476,3823.9,0.008895577100729682
477,3826.64,0.00904573167991832
478,3829.38,0.011196138259106961
479,3832.13,0.011884837836759792
480,3834.8700000000003,0.015018657415948433
481,3837.61,0.012760786995137071
482,3840.3500000000004,0.012386436574325713
483,3843.09,0.011152636153514353
484,3845.83,0.010644635732702993
485,3848.57,0.01233171531189163
486,3851.3199999999997,0.010622054889544463
487,3854.0600000000004,0.012447194468733104
488,3856.8,0.013543334047921744
489,3859.5400000000004,0.012762803627110382
490,3862.28,0.021104353206299026
491,3865.02,0.033789372785487666
492,3867.76,0.041096802364676305
493,3870.5,0.03510091194386494
494,3873.2499999999995,0.023501851521517778
495,3875.9900000000002,0.012780501100706415
496,3878.73,0.010161560679895055
497,3881.4700000000003,0.013664910259083694
498,3884.21,0.017644079838272334
499,3886.9500000000003,0.022245179417460976
500,3889.69,0.023666588996649616
501,3892.4399999999996,0.017363448574302446
502,3895.18,0.013193508153491086
503,3897.92,0.010414347732679725
504,3900.6600000000003,0.008636316311868366
505,3903.4,0.010249316891057006
506,3906.1400000000003,0.008897980470245644
507,3908.88,0.011464616049434285
508,3911.62,0.010399885628622926
509,3914.37,0.012268855206275757
510,3917.1099999999997,0.009419655785464396
511,3919.85,0.010708204364653036
512,3922.59,0.012180323943841677
513,3925.3300000000004,0.008852488523030317
514,3928.07,0.009229276102218955
515,3930.81,0.008768769681407596
516,3933.56,0.009710683259060429
517,3936.2999999999997,0.008826702838249068
518,3939.04,0.009328278417437708
519,3941.7799999999997,0.009674071996626347
520,3944.5200000000004,0.009736069575814988
521,3947.26,0.009236920155003627
522,3950.0,0.009824640734192269
523,3952.75,0.0097074573118451
524,3955.49,0.01044894889103374
525,3958.23,0.010233188470222379
526,3960.97,0.01403160804941102
527,3963.7099999999996,0.02112727762859966
528,3966.4500000000003,0.0270946172077883
529,3969.19,0.02597516678697694
530,3971.9300000000003,0.019758666366165578
531,3974.68,0.012249925943818409
532,3977.4199999999996,0.01048638552300705
533,3980.16,0.01003554510219569
534,3982.8999999999996,0.00956095068138433
535,3985.64,0.01061160426057297
536,3988.38,0.00865282083976161
537,3991.1200000000003,0.00901873841895025
538,3993.87,0.010156692996603081
539,3996.6099999999997,0.008942222575791721
540,3999.35,0.01183048215498036
541,4002.0899999999997,0.010850701734169
542,4004.83,0.011873171313357642
543,4007.5699999999997,0.009274344892546282
544,4010.3100000000004,0.01017203047173492
545,4013.05,0.010228390050923561
546,4015.7999999999997,0.011972969628576392
547,4018.54,0.009297266207765033
548,4021.2799999999997,0.010492828786953672
549,4024.02,0.011707318366142312
550,4026.7599999999998,0.009629785945330952
551,4029.4999999999995,0.012407757524519593
552,4032.2400000000002,0.010640587103708231
553,4034.99,0.011119166681361063
554,4037.73,0.010316506260549703
555,4040.47,0.010793925839738344
556,4043.21,0.009800856418926982
