,lambda (Angstroms),Total Flux (erg/s/cm^2/Angstrom)
0,102.01,5.5063356797714025e-05
1,103.9,6.437654619565906e-05
2,104.712855,6.83848374705547e-05
3,106.08,6.278749075601474e-05
4,108.05,5.472890711394291e-05
5,110.06,4.657758058015387e-05
6,113.93,3.075902073151527e-05
7,117.92999999999999,1.4396992659795863e-05
8,120.22644299999999,5.527207561554835e-06
9,120.96000000000001,5.565989227776348e-06
10,124.92,4.9948114942159786e-06
11,126.95,4.692447365648414e-06
12,128.12,4.526143739823759e-06
13,131.10999999999999,4.0797155849385336e-06
14,132.02,4.084208320408241e-06
15,133.85,3.823822238990194e-06
16,136.97,3.53193390345778e-06
17,138.038426,3.388349910331528e-06
18,139.84,3.4763714396014465e-06
19,143.1,5.09486483937028e-06
20,147.11,7.52803265933133e-06
21,150.88,8.015908584830872e-06
22,155.11,8.574536474714971e-06
23,158.489319,9.108761878236763e-06
24,159.09,9.201559652891803e-06
25,162.04,9.659906456832975e-06
26,165.82,1.0332010734425395e-05
27,170.07000000000002,1.0941087316374545e-05
28,172.82999999999998,1.1461887614299168e-05
29,176.86,1.210313692612389e-05
30,180.15,1.2602954056620993e-05
31,181.82,1.2973889925292779e-05
32,181.970086,1.2998127137417405e-05
33,186.05,1.3712576213936198e-05
34,190.82,1.4625598631111625e-05
35,193.92,1.5256271543741354e-05
36,197.98,1.6022498842217713e-05
37,202.13,1.6828414676867194e-05
38,204.93999999999997,1.7439725639605756e-05
39,208.929613,1.777609535812848e-05
40,210.20000000000002,1.7904579992196272e-05
41,216.09,1.975638748869757e-05
42,220.10999999999999,2.0677795915851264e-05
43,223.17,2.1197186211147353e-05
44,226.79000000000002,2.2218857083360376e-05
45,229.95000000000002,3.2797851767391636e-05
46,234.21999999999997,5.3465086166383237e-05
47,239.88329199999998,6.907136128412805e-05
48,240.23,7.001404370309529e-05
49,245.83,6.697837880807414e-05
50,252.13,7.093291830117534e-05
51,256.82,5.702913370159512e-05
52,259.8,6.890332438245887e-05
53,264.02,7.284890883656792e-05
54,268.93,7.276452361611188e-05
55,273.92,7.252421089715553e-05
56,275.42287,7.225634994818774e-05
57,279.02,7.173863986158337e-05
58,284.2,7.232333936114082e-05
59,290.16,6.921239743399072e-05
60,296.23,6.964298427999724e-05
61,301.05,6.604672597649665e-05
62,308.06,6.75265759749325e-05
63,316.227766,6.878834254220461e-05
64,318.15000000000003,6.902629308844808e-05
65,327.82,6.812777964752171e-05
66,337.78000000000003,6.633154300102464e-05
67,348.04,6.457502338324752e-05
68,356.96999999999997,6.41659026048119e-05
69,363.078055,6.457309823203991e-05
70,366.13,6.484707012640559e-05
71,374.65999999999997,6.362628925980502e-05
72,385.15000000000003,6.023256865128918e-05
73,395.03000000000003,6.226852015632861e-05
74,405.16,6.29340635820421e-05
75,413.65,6.231359760813366e-05
76,416.86938299999997,6.18825964755062e-05
77,422.31,6.113218236705367e-05
78,430.15999999999997,6.036415283465363e-05
79,441.2,6.179857731392798e-05
80,451.46999999999997,6.228167289383266e-05
81,459.87,6.149771543241097e-05
82,469.5,6.26671520569954e-05
83,478.630092,6.536681590024942e-05
84,480.43,6.587375078274005e-05
85,490.49,6.520541083728532e-05
86,499.60999999999996,7.125180005174383e-05
87,506.56,7.755210807153405e-05
88,512.43,0.0001338051506580331
89,519.5500000000001,0.00013683182425528582
90,530.43,0.00014021794121288545
91,540.3000000000001,0.00013480800503379615
92,549.5408739999999,0.00015788378303831607
93,550.34,0.0001598836089762134
94,560.57,0.00019547708115205833
95,569.68,0.00022065785764491732
96,580.27,0.00022265649629029348
97,589.7,0.0002548518429782913
98,600.66,0.0002530850221617967
99,610.42,0.00027546081311353147
100,620.34,0.0003401554891628357
101,630.42,0.0003577427503097093
102,630.957344,0.0003593570638101086
103,640.67,0.0003885954065045792
104,649.58,0.00042017625050519533
105,658.61,0.0004289852139536311
106,664.71,0.0004746161358844682
107,675.51,0.0005096692861882453
108,684.91,0.0004947281429341253
109,694.4300000000001,0.000598674819127825
110,705.7199999999999,0.0005588523821768661
111,715.5400000000001,0.0006935579069901153
112,724.43596,0.0007287663099543315
113,725.49,0.0007329363981614908
114,735.5799999999999,0.0007709930648797346
115,745.8199999999999,0.0008184681299139086
116,754.4499999999999,0.0008609597930237642
117,764.9499999999999,0.0008609735751388839
118,775.59,0.0009658725356822054
119,784.5699999999999,0.0009929054948625649
120,795.4799999999999,0.001066259392374561
121,804.7,0.0011242067288604089
122,815.89,0.0011744109832288083
123,825.3399999999999,0.001255421777132416
124,831.763771,0.001148309594890124
125,834.89,0.001096161998420849
126,844.5600000000001,0.0013358360729999828
127,854.3399999999999,0.0013763276706611957
128,864.23,0.0014678197914044875
129,874.24,0.0015404303918736836
130,884.36,0.001616657515424959
131,894.61,0.0016849200753459642
132,904.9599999999999,0.0017122362017052233
133,915.44,0.002030028764434212
134,926.0400000000001,0.008342497806889105
135,934.61,0.016567536650647446
136,945.4300000000001,0.029597039739266497
137,954.1800000000001,0.039376721802613694
138,954.992586,0.03986764303066651
139,965.23,0.04605258126403197
140,974.1600000000001,0.011022495144460109
141,985.44,0.04317400741447459
142,994.5600000000001,0.042683011164699074
143,1006.08,0.05536249327024578
144,1015.39,0.051908756890266604
145,1024.78,0.02378206045546483
146,1034.26,0.03983291395898764
147,1043.83,0.06640958740083504
148,1055.92,0.06475005911577078
149,1065.69,0.0542275224205617
150,1075.55,0.06169163566367719
151,1085.5,0.051668048845117276
152,1095.55,0.06312836195802912
153,1096.4782,0.06281770999118073
154,1105.69,0.05973467156439049
155,1115.92,0.0581081096229856
156,1126.24,0.052267887488547805
157,1134.05,0.062121740737582774
158,1144.54,0.057178158238527316
159,1155.13,0.059187505524990865
160,1165.8200000000002,0.06029006259697343
161,1173.8999999999999,0.04407988526690973
162,1184.76,0.05810825197427462
163,1195.73,0.04541964844571042
164,1204.01,0.03558253068668476
165,1215.15,0.02204187679350288
166,1226.4,0.04161175266439192
167,1234.9,0.05626464443350808
168,1246.33,0.05973398991833135
169,1254.96,0.05757751140862223
170,1258.92541,0.055212154070341864
171,1263.66,0.05238799362587571
172,1275.3600000000001,0.060567085410815125
173,1284.2,0.061549486759436015
174,1296.08,0.05202552857183604
175,1305.0600000000002,0.052146419941815174
176,1314.11,0.05987141132247344
177,1326.27,0.05704480317758996
178,1335.46,0.05250904457960648
179,1344.72,0.05784199599230212
180,1354.04,0.056392897414151294
181,1366.57,0.05214610932571462
182,1376.04,0.052870690770447634
183,1385.58,0.05311624222585977
184,1395.18,0.04500160369042544
185,1404.85,0.046052225165670244
186,1414.59,0.049570446651594165
187,1424.4,0.04911480814819721
188,1434.27,0.0496870296539538
189,1440.8899999999999,0.050959010663893876
190,1445.43977,0.05079922206725001
191,1447.54,0.05072546162691774
192,1454.22,0.04957009248223254
193,1464.31,0.04680046377416764
194,1474.46,0.04669164507378521
195,1484.6799999999998,0.04658282638236565
196,1494.9699999999998,0.04647460769990897
197,1505.33,0.04417993902641518
198,1512.28,0.0405730499163011
199,1515.76,0.042191770361884255
200,1526.2700000000002,0.04180514170759663
201,1533.32,0.03725900261028667
202,1543.94,0.03743168397008357
203,1554.6499999999999,0.036160195341404175
204,1565.4199999999998,0.03777749672040724
205,1576.27,0.0396496181096536
206,1583.55,0.0402955590417931
207,1594.5300000000002,0.04066567044768481
208,1605.5800000000002,0.0396495018625394
209,1616.71,0.039376333287637275
210,1624.17,0.038215294242824174
211,1635.4299999999998,0.039740675684567406
212,1646.76,0.03955811713527351
213,1654.3700000000001,0.038127288109666584
214,1659.58691,0.03890343388005404
215,1665.8300000000002,0.03983225461531234
216,1673.52,0.03743128180592734
217,1677.3799999999999,0.04001592541526075
218,1685.12,0.04029555265262877
219,1696.8,0.038568793574135035
220,1704.64,0.037259510905009105
221,1716.4499999999998,0.035582631948073234
222,1724.3700000000001,0.03517545935375214
223,1736.3300000000002,0.036579240537075335
224,1744.3400000000001,0.03574697802690969
225,1756.4299999999998,0.036748589331790746
226,1764.54,0.03493328691513114
227,1776.77,0.03485285835092066
228,1784.9699999999998,0.0351754660184165
229,1793.21,0.03607774372331476
230,1805.64,0.03599445534611637
231,1813.98,0.033591833144520675
232,1826.5500000000002,0.03421661489823076
233,1834.98,0.0332840527807905
234,1843.45,0.03106293070075267
235,1856.23,0.03084877265082545
236,1864.8000000000002,0.03135011066429366
237,1873.4,0.03282790870581369
238,1886.39,0.030355510852249166
239,1895.1000000000001,0.028922948996625845
240,1903.84,0.030707117169054332
241,1905.46072,0.030537434211798255
242,1917.0400000000002,0.029325104727980597
243,1925.89,0.028460494061045977
244,1934.7800000000002,0.029664953345899223
245,1943.7099999999998,0.03021618258254034
246,1957.18,0.028134826347104257
247,1966.2199999999998,0.029939175451162005
248,1975.2900000000002,0.030707164519060647
249,1984.41,0.029123273526694124
250,1993.5700000000002,0.02839469248611547
251,2002.7700000000002,0.02912331139732468
252,2016.65,0.028526094667714226
253,2025.96,0.029392793446340066
254,2035.31,0.027748782176753774
255,2044.71,0.028069740846902315
256,2054.15,0.026135919468838722
257,2063.63,0.026806548042562994
258,2073.15,0.028526076568075136
259,2077.93,0.026930240806725136
260,2082.7200000000003,0.027684725033322106
261,2097.1600000000003,0.026377907628741776
262,2106.84,0.026868175961405383
263,2116.56,0.02693013424585685
264,2126.33,0.027116882470043152
265,2136.15,0.026196230633964288
266,2146.0099999999998,0.02583671874967329
267,2155.91,0.02649951681717016
268,2165.87,0.025896204812348823
269,2175.86,0.025718072771368387
270,2185.91,0.025132720658069752
271,2187.7616199999998,0.025240117891618157
272,2196.0,0.02571797634321896
273,2206.13,0.02519061607793969
274,2216.31,0.02456081586070939
275,2226.5499999999997,0.023946275701137845
276,2236.8199999999997,0.024447605570395683
277,2247.15,0.023946405497312282
278,2257.52,0.023293835462668055
279,2262.72,0.023563620459760633
280,2273.17,0.023617910501994754
281,2283.6600000000003,0.023672410582668044
282,2294.2000000000003,0.022660750711390305
283,2304.79,0.022726910888161533
284,2315.43,0.02212102111298173
285,2326.1200000000003,0.01923390138585089
286,2336.85,0.021297871697159226
287,2347.64,0.021018452066126323
288,2353.0499999999997,0.02136670726502456
289,2363.91,0.02070163770126021
290,2374.83,0.02071444819515462
291,2385.79,0.020023788727488206
292,2396.8,0.020550249307870756
293,2402.32,0.019996554612476725
294,2413.41,0.02005526526973762
295,2424.55,0.02030033597504749
296,2435.7400000000002,0.01971431672840632
297,2446.99,0.02009343753942391
298,2452.63,0.0198696629593474
299,2463.95,0.01965462383763355
300,2475.32,0.019264224763968663
301,2486.75,0.019455105747962536
302,2492.48,0.01791339125437416
303,2503.98,0.01934008230563659
304,2511.88643,0.018665765809270478
305,2515.54,0.018354158544701002
306,2527.15,0.018451214226659806
307,2532.98,0.018372192058341105
308,2544.67,0.018048987710545968
309,2556.4199999999996,0.01839628334043537
310,2562.31,0.01819194114980121
311,2574.14,0.01849978674993667
312,2586.02,0.018342422331475917
313,2597.95,0.018186667894418942
314,2603.94,0.01781955566659235
315,2615.96,0.017668221196062192
316,2621.9900000000002,0.017714928953358626
317,2634.1,0.01772688444935528
318,2646.25,0.018110269930474963
319,2652.35,0.018074717661736694
320,2664.6,0.017433073105663947
321,2676.8999999999996,0.017565798530994985
322,2683.07,0.017491056236222016
323,2695.45,0.017065571631799104
324,2707.89,0.017077657005060743
325,2714.14,0.016732944680533827
326,2726.6600000000003,0.016629620024041517
327,2732.9500000000003,0.01675066768463763
328,2745.5600000000004,0.016008082994672133
329,2751.8900000000003,0.015976690640391276
330,2764.6,0.016098935913233345
331,2777.3599999999997,0.0162965811674792
332,2783.76,0.016041758787163643
333,2796.61,0.014913014007936312
334,2803.05,0.015301171612743782
335,2815.99,0.01592349680004326
336,2822.48,0.015855854386254514
337,2835.5099999999998,0.015399359540080808
338,2842.0499999999997,0.015263687107695845
339,2855.17,0.01513486222804895
340,2861.75,0.015386439780787018
341,2874.9599999999996,0.015256394867666934
342,2884.0315,0.015215921802723189
343,2888.23,0.015197191461798648
344,2894.89,0.01509816141110596
345,2908.25,0.015249191309416123
346,2928.4100000000003,0.014918671155967986
347,2948.71,0.014629201001454237
348,2969.1499999999996,0.014544720845874876
349,2989.73,0.014328500689229903
350,3010.4500000000003,0.014180410531519317
351,3031.32,0.014066530372667006
352,3052.33,0.013889750212749082
353,3073.49,0.013746480051689429
354,3087.67,0.01353719994375815
355,3109.0800000000004,0.013428849780795619
356,3130.6299999999997,0.013168819616767477
357,3152.33,0.013063369451597608
358,3166.88,0.012894659340850068
359,3188.8300000000004,0.012529229173777318
360,3210.9300000000003,0.012515549005562843
361,3233.19,0.012273608836130526
362,3248.12,0.012311798722490611
363,3270.63,0.012270328551155413
364,3293.3,0.012116618378602374
365,3308.5,0.011960368262907351
366,3311.31121,0.01199283062915222
367,3323.77,0.012136696428720445
368,3331.44,0.012169675312713657
369,3339.12,0.011680224195251838
370,3346.81,0.012012763076334993
371,3354.53,0.011609781953053061
372,3362.26,0.011481340828316103
373,3370.0099999999998,0.011328809700669084
374,3377.78,0.011255518570112012
375,3385.57,0.011548937436644882
376,3393.37,0.011687446301722722
377,3401.19,0.011909695163890507
378,3409.03,0.011300204023148235
379,3416.8900000000003,0.011409732879495905
380,3424.77,0.01160010173293352
381,3432.67,0.011766320583461077
382,3440.58,0.011476919432533607
383,3448.51,0.011194698278696078
384,3456.46,0.010969707121948493
385,3464.43,0.010724525962290853
386,3472.4100000000003,0.011055044801178183
387,3480.42,0.010783293635700427
388,3488.44,0.010963262468767644
389,3496.48,0.010917391298924804
390,3504.54,0.010698380126171907
391,3512.6200000000003,0.010604608950508953
392,3520.72,0.01078169777193594
393,3528.8399999999997,0.010540936590452873
394,3536.97,0.010790945407514777
395,3545.13,0.010845654220211595
396,3553.2999999999997,0.010875063031453386
397,3561.49,0.01083000183978512
398,3569.7000000000003,0.010515180645206797
399,3577.9300000000003,0.010162569447718416
400,3586.18,0.009981792247319978
401,3594.44,0.010125177045466515
402,3602.73,0.010389205839247965
403,3611.03,0.010180714631574385
404,3619.3599999999997,0.010350543419535719
405,3627.7,0.010571962206042026
406,3634.75,0.012404331180247
407,3637.49,0.009405384781569217
408,3640.23,0.011720830382891432
409,3642.97,0.014031449984213648
410,3645.7099999999996,0.015241919585535864
411,3648.46,0.009630381185403053
412,3651.2,0.011569438786725268
413,3653.94,0.010089698388047482
414,3656.68,0.0150760279893697
415,3659.42,0.009041082590691916
416,3662.16,0.009820014192014132
417,3664.8999999999996,0.009712540793336347
418,3667.64,0.009128856394658564
419,3670.39,0.009237499994525751
420,3673.13,0.009025365595847969
421,3675.87,0.011802525197170184
422,3678.61,0.012676454798492399
423,3681.35,0.014133274399814617
424,3684.0899999999997,0.0032046230011368326
425,3686.83,0.01361361360245905
426,3689.58,0.008900162202326237
427,3692.32,0.010040982803648454
428,3695.06,0.008345870404970668
429,3697.8,0.008860329006292885
430,3700.54,0.0094561016076151
431,3703.2799999999997,0.009229072208937317
432,3706.02,0.012500970810259531
433,3708.77,0.00936066741012672
434,3711.51,0.010938240011448936
435,3714.25,0.014641259612771153
436,3716.9900000000002,0.01551880921409337
437,3719.73,0.028573358815415586
438,3722.47,0.0543402884167378
439,3725.21,0.10271421801806002
440,3727.95,0.12196001761938224
441,3730.7000000000003,0.10116401721924942
442,3733.44,0.05210201682057164
443,3736.18,0.023019016421893853
444,3738.92,0.01364778602321607
445,3741.66,0.009563173624538285
446,3744.4,0.0091670762258605
447,3747.14,0.011402824827182717
448,3749.8900000000003,0.011625774427049904
449,3752.63,0.011715954028372121
450,3755.37,0.007079455629694337
451,3758.11,0.011370183231016552
452,3760.85,0.01100750283233877
453,3763.59,0.009681119433660986
454,3766.33,0.012090762034983202
455,3769.0699999999997,0.013507331636305417
456,3771.82,0.013467821236172604
457,3774.56,0.012769820837494821
458,3777.3,0.012466710438817037
459,3780.04,0.012058940040139254
460,3782.78,0.010535319641461469
461,3785.52,0.009107090242783685
462,3788.2599999999998,0.012149538844105901
463,3791.01,0.01081947844397309
464,3793.75,0.010129528045295306
465,3796.4900000000002,0.01400643764661752
466,3799.23,0.013271397247939737
467,3801.8939600000003,0.010634718144121525
468,3801.9700000000003,0.010559456851567279
469,3804.71,0.010814276535958758
470,3807.45,0.010253136220350238
471,3810.19,0.009684349904741717
472,3812.94,0.007685674587981341
473,3815.6800000000003,0.007808052272372821
474,3818.42,0.011294894956764301
475,3821.1600000000003,0.00916343264115578
476,3823.9,0.00889534232554726
477,3826.64,0.00904549700993874
478,3829.38,0.011195903694330222
479,3832.13,0.011884603377569844
480,3834.8700000000003,0.015018423061961324
481,3837.61,0.012760552746352804
482,3840.3500000000004,0.012386202430744285
483,3843.09,0.011152402115135764
484,3845.83,0.010644401799527244
485,3848.57,0.012331481483918723
486,3851.3199999999997,0.010621821167158348
487,3854.0600000000004,0.012446960851549829
488,3856.8,0.013543100535941308
489,3859.5400000000004,0.012762570220332788
490,3862.28,0.02110411990472427
491,3865.02,0.03378913958911575
492,3867.76,0.04109656927350723
493,3870.5,0.03510067895789871
494,3873.2499999999995,0.023501618641138332
495,3875.9900000000002,0.012780268325529812
496,3878.73,0.010161328009921292
497,3881.4700000000003,0.01366467769431277
498,3884.21,0.01764384737870425
499,3886.9500000000003,0.02224494706309573
500,3889.69,0.02366635674748721
501,3892.4399999999996,0.017363216430726833
502,3895.18,0.013193276115118314
503,3897.92,0.010414115799509793
504,3900.6600000000003,0.008636084483901274
505,3903.4,0.010249085168292753
506,3906.1400000000003,0.008897748852684234
507,3908.88,0.011464384537075715
508,3911.62,0.010399654221467195
509,3914.37,0.012268623904706817
510,3917.1099999999997,0.009419424589098297
511,3919.85,0.010707973273489777
512,3922.59,0.012180092957881257
513,3925.3300000000004,0.008852257642272737
514,3928.07,0.009229045326664216
515,3930.81,0.008768539011055697
516,3933.56,0.009710452694295322
517,3936.2999999999997,0.0088264723786868
518,3939.04,0.00932804806307828
519,3941.7799999999997,0.00967384174746976
520,3944.5200000000004,0.00973583943186124
521,3947.26,0.00923669011625272
522,3950.0,0.0098244108006442
523,3952.75,0.009707227483883826
524,3955.49,0.010448719168275306
525,3958.23,0.010232958852666785
526,3960.97,0.014031378537058265
527,3963.7099999999996,0.021127048221449743
528,3966.4500000000003,0.027094387905841223
529,3969.19,0.025974937590232703
530,3971.9300000000003,0.019758437274624185
531,3974.68,0.012249696957863807
532,3977.4199999999996,0.010486156642255287
533,3980.16,0.010035316326646766
534,3982.8999999999996,0.009560722011038247
535,3985.64,0.010611375695429729
536,3988.38,0.008652592379821208
537,3991.1200000000003,0.009018510064212688
538,3993.87,0.01015646474745231
539,3996.6099999999997,0.00894199443184379
540,3999.35,0.01183025411623527
541,4002.0899999999997,0.01085047380062675
542,4004.83,0.01187294348501823
543,4007.5699999999997,0.00927411716940971
544,4010.3100000000004,0.010171802853801192
545,4013.05,0.010228162538192672
546,4015.7999999999997,0.011972742221432294
547,4018.54,0.009297038905823774
548,4021.2799999999997,0.010492601590215254
549,4024.02,0.011707091274606734
550,4026.7599999999998,0.009629558958998214
551,4029.4999999999995,0.012407530643389694
552,4032.2400000000002,0.010640360327781173
553,4034.99,0.011118940011020798
554,4037.73,0.010316279695412277
555,4040.47,0.010793699379803758
556,4043.21,0.009800630064195237
