,lambda (Angstroms),Total Flux (erg/s/cm^2/Angstrom)
0,100.00999999999999,6.039111808643039
1,102.10000000000001,6.0202357902238175
2,104.0,6.003075773479072
3,104.712855,5.996637560986137
4,105.94,5.938419826724623
5,107.91,5.844959855413012
6,109.91000000000001,5.750076635807315
7,114.03999999999999,5.554142787321556
8,118.04,5.364376348110163
9,120.22644299999999,5.2606479724479955
10,121.07,5.227095653669614
11,125.03999999999999,5.069189660891205
12,127.07,4.988446798085117
13,127.95,4.953444965932723
14,130.93,4.834916034325755
15,132.14,4.786788515116217
16,133.98,4.713602866070305
17,137.1,4.589505461166367
18,138.038426,4.552179746007912
19,139.97,4.497264356655797
20,142.9,4.413963333344403
21,146.91,4.299957495979668
22,151.02,4.183108620276666
23,154.9,4.072798732751708
24,158.489319,3.970753017498844
25,158.86999999999998,3.962570701519081
26,161.82999999999998,3.8989487836926324
27,165.98000000000002,3.8097491353886994
28,169.84,3.72678271552055
29,173.0,3.658862019462741
30,177.03,3.57224163809802
31,179.91,3.5103392315645703
32,181.970086,3.466059967305645
33,181.99,3.4657334217769926
34,185.79999999999998,3.403257853626006
35,191.01,3.3178253837927234
36,194.11,3.2669922443530615
37,198.17000000000002,3.200417229474752
38,201.85999999999999,3.139909395756564
39,205.14000000000001,3.086124654674106
40,208.929613,3.0239833882101714
41,209.92000000000002,3.0117738069770543
42,215.79999999999998,2.939284630882501
43,219.81,2.8898489852839373
44,222.87,2.8521250263006728
45,227.01,2.801086728857578
46,230.17,2.7621299608129974
47,233.91,2.7160228999720673
48,239.88329199999998,2.6423836117960673
49,239.91,2.64212988216409
50,246.06,2.583704045787792
51,251.79,2.52926826664819
52,257.07,2.479107548505897
53,260.04,2.450892144860716
54,264.27,2.4107065698226076
55,269.18,2.3640609023731947
56,274.19,2.3164652214023587
57,275.42287,2.3047527888459345
58,279.28000000000003,2.2766307218504833
59,283.82,2.2435298972985103
60,289.77,2.2001488605939414
61,295.83000000000004,2.155965822005237
62,301.33,2.1158657041840634
63,308.35,2.0646833728971594
64,316.227766,2.0072471302784676
65,317.72,1.999121005751959
66,328.13,1.942432205042188
67,338.1,1.8881394740574002
68,348.37,1.832213061255206
69,357.31,1.783529311190393
70,363.078055,1.7521187369602638
71,365.63,1.7417114360298322
72,375.01,1.7034580713139622
73,384.63,1.6642259438004732
74,395.41,1.6202631276809139
75,404.62,1.5827030637694544
76,414.04,1.544286580725598
77,416.86938299999997,1.5327478404531956
78,421.74,1.5175790180891588
79,429.58000000000004,1.493162489585593
80,440.6,1.4588423239749693
81,450.86,1.426889068540958
82,460.31,1.397458441094226
83,469.94,1.36746723921951
84,478.630092,1.3404032465084432
85,479.78,1.3376489635397388
86,489.83,1.3135770010919152
87,500.09,1.2890020561344107
88,505.88,1.2751339128747463
89,511.73999999999995,1.2610988069375884
90,520.0500000000001,1.2411946498489506
91,529.72,1.2180330583742645
92,539.5699999999999,1.1944402242893657
93,549.5408739999999,1.1705584819686699
94,549.6,1.1704504516471381
95,559.8199999999999,1.1517773338693784
96,570.22,1.1327752623585448
97,579.49,1.1158374539772313
98,590.26,1.0961597525086342
99,599.85,1.0786375184506334
100,609.6,1.0608238841397892
101,619.51,1.0427183208231015
102,629.5699999999999,1.0243381810781853
103,630.957344,1.0218034122767254
104,639.8,1.00899603251911
105,650.1999999999999,0.9939339614584647
106,657.73,0.9830283229696798
107,665.3399999999999,0.9720073416374286
108,674.6,0.9585964988111806
109,685.5600000000001,0.9427222201662694
110,695.1,0.9289097269678888
111,704.77,0.9149034873113752
112,716.22,0.8983262608627314
113,724.43596,0.8864287059811158
114,726.1800000000001,0.8845541851581492
115,734.5899999999999,0.8755158029567356
116,744.8100000000001,0.8645340286585012
117,755.17,0.8534008722168664
118,765.68,0.8421068253244454
119,774.54,0.8325890836306729
120,785.32,0.8210080644888366
121,794.41,0.8112425044551921
122,805.46,0.7993700790639405
123,814.79,0.7893473415130379
124,824.23,0.7792118323408918
125,831.763771,0.7711074079913537
126,835.69,0.767949819806849
127,845.37,0.7601973527712799
128,855.16,0.7523421737523519
129,865.06,0.7444033257500653
130,875.08,0.7363686912750236
131,885.21,0.7282490536166231
132,895.46,0.7200316126854679
133,905.8299999999999,0.7117126668815575
134,914.21,0.7051100330675006
135,924.8000000000001,0.6985914307968728
136,935.51,0.69285776525349
137,944.16,0.6914117959257344
138,954.992586,0.6872229448211242
139,955.0899999999999,0.6871869669555303
140,963.9300000000001,0.6845383521108258
141,975.09,0.6613603589086876
142,984.12,0.6722503776295381
143,995.51,0.6639122348488613
144,1004.72,0.6626673484212903
145,1014.0200000000001,0.6527640224195084
146,1025.76,0.6274842746280118
147,1035.25,0.632119276191785
148,1044.8300000000002,0.6415275181813472
149,1054.5,0.6357713805966989
150,1064.26,0.6240869034378398
151,1074.1000000000001,0.6225443199907931
152,1084.04,0.6105089836835125
153,1094.07,0.6108832278020208
154,1096.4782,0.608949388823361
155,1104.2,0.6038491267539314
156,1114.41,0.5984505998591717
157,1124.72,0.5897531821916915
158,1135.13,0.5907358137514909
159,1145.6299999999999,0.5815591126158419
160,1156.24,0.5781534726302002
161,1164.25,0.5761184427352908
162,1175.02,0.5584020435132965
163,1185.89,0.5624413935185817
164,1194.1200000000001,0.5453339359236872
165,1205.16,0.5286684086153475
166,1216.32,0.5025762543797435
167,1224.75,0.5212752052394081
168,1236.08,0.5334092236901792
169,1244.65,0.535944661468035
170,1256.16,0.5299138445279092
171,1258.92541,0.5265345022989651
172,1264.87,0.5203690342934649
173,1273.64,0.5298086567440863
174,1285.4199999999998,0.5286577901612266
175,1294.33,0.5172102582381978
176,1306.31,0.5124911296929804
177,1315.37,0.5204321637981834
178,1324.48,0.5157350599127969
179,1333.66,0.5081855188405853
180,1346.0,0.5120276247631245
181,1355.33,0.5078584997191448
182,1364.73,0.4999619374883398
183,1374.19,0.4996433576688277
184,1383.71,0.4985480202606083
185,1396.52,0.4860832550716072
186,1406.2,0.4861352740935017
187,1415.94,0.485443435526689
188,1425.76,0.4829365501749333
189,1435.6399999999999,0.4799516272344704
190,1442.27,0.4817681236823175
191,1445.43977,0.48172549736470704
192,1445.59,0.48174429905191724
193,1455.61,0.4786545981888827
194,1465.7,0.47250037217011825
195,1475.86,0.47036632099562414
196,1486.09,0.46899034466540024
197,1496.3999999999999,0.4683989395857709
198,1503.3,0.46504465994954947
199,1513.72,0.45573851533948745
200,1517.21,0.45961796114667397
201,1524.21,0.4567663455736958
202,1534.78,0.4465241470584986
203,1545.42,0.4504482233875716
204,1556.13,0.44357417456091486
205,1563.31,0.4436984943017743
206,1574.15,0.44745869875733374
207,1585.0600000000002,0.4482313780571633
208,1596.05,0.44913552860758743
209,1603.42,0.4443436800686089
210,1614.5300000000002,0.4423400874949248
211,1625.72,0.43628176617183534
212,1633.23,0.44017576732139724
213,1644.55,0.4390799992805239
214,1655.9499999999998,0.4295798024902451
215,1659.58691,0.43355753210182585
216,1663.5900000000001,0.4383199921615538
217,1671.27,0.42819899442072723
218,1675.12,0.43744465180325565
219,1686.7299999999998,0.43918416146849043
220,1694.52,0.4333941825100217
221,1706.26,0.42896022346349777
222,1714.14,0.4258000507815038
223,1726.02,0.4238709792761627
224,1733.99,0.4290517128706435
225,1746.01,0.4251520289064852
226,1754.0700000000002,0.43060186877744056
227,1766.23,0.41959487235446513
228,1774.38,0.4242876185018952
229,1786.6799999999998,0.42404620962010275
230,1794.92,0.4287768620440075
231,1803.21,0.4278353957326204
232,1815.71,0.42047921190966053
233,1824.09,0.42092725187474817
234,1836.73,0.4164177555929711
235,1845.2099999999998,0.4067349580874751
236,1853.73,0.40738418559374556
237,1866.58,0.4087819706237428
238,1875.1899999999998,0.414272004406488
239,1883.85,0.4059836194539413
240,1896.91,0.3999873857957127
241,1905.46072,0.40486151247901986
242,1905.66,0.40498705378300237
243,1914.46,0.4019139087481044
244,1923.3,0.3999247866903205
245,1936.63,0.4007299938135943
246,1945.5700000000002,0.4073372291985956
247,1954.55,0.3996276875607111
248,1968.1000000000001,0.4074212210581124
249,1977.18,0.41011473686301314
250,1981.7399999999998,0.4040970562540206
251,1995.48,0.3995961488927139
252,2004.69,0.4013928893732354
253,2013.9399999999998,0.39888355283087107
254,2023.23,0.40231153926562074
255,2037.26,0.3972899484883913
256,2046.6599999999999,0.39995044811020486
257,2056.1099999999997,0.39376902645341094
258,2065.6,0.39518692777373116
259,2075.13,0.4024776520711655
260,2079.92,0.39781085358057894
261,2084.71,0.4006745550899924
262,2094.34,0.393871336830212
263,2104.0,0.39536938580326714
264,2113.71,0.39563621349771494
265,2123.4700000000003,0.39719771991355524
266,2133.27,0.38820844930650983
267,2143.12,0.3913663574208569
268,2153.0099999999998,0.39377658851231817
269,2162.95,0.38847779832517204
270,2172.93,0.38701873111513996
271,2182.96,0.3864026426265005
272,2187.7616199999998,0.3890160435101702
273,2193.04,0.3921696565502375
274,2203.1600000000003,0.387714388636494
275,2213.33,0.38161035862831516
276,2223.55,0.3785331665257008
277,2233.81,0.3874906247475381
278,2244.12,0.38127622087493984
279,2254.48,0.37688155490790604
280,2264.88,0.3777277392653239
281,2275.3399999999997,0.38224624910941923
282,2285.84,0.3858823092779661
283,2296.39,0.37836420735207743
284,2306.99,0.38060854333175337
285,2317.64,0.3771015172169938
286,2322.98,0.3531343855312833
287,2333.71,0.3714539600654269
288,2344.48,0.3646282849240221
289,2355.2999999999997,0.37586974768818193
290,2366.17,0.3653957483579061
291,2377.09,0.3710233869331948
292,2382.57,0.36026608138306504
293,2393.5699999999997,0.36837732060725703
294,2404.62,0.3639999977370135
295,2415.7200000000003,0.3661589127723344
296,2426.8700000000003,0.3747565657132199
297,2432.46,0.36928242355533203
298,2443.69,0.37718027714512076
299,2454.97,0.374886968640474
300,2466.2999999999997,0.3739980980413917
301,2477.69,0.3689020529289868
302,2483.4,0.37266146174445375
303,2494.86,0.36570192969983917
304,2506.38,0.38057282314190205
305,2511.88643,0.3672867087189138
306,2512.15,0.3666582315627718
307,2517.94,0.3687140294682395
308,2523.75,0.36237226968080727
309,2535.4,0.36408756356659294
310,2547.1,0.3639681132201288
311,2552.97,0.3751967803539967
312,2564.7599999999998,0.37265087038948275
313,2576.59,0.38109574503916893
314,2582.54,0.38132488140143717
315,2594.46,0.3797387964330736
316,2606.4300000000003,0.3741024672324602
317,2612.4399999999996,0.37280933051602866
318,2624.5,0.3803846416973655
319,2636.6099999999997,0.38614100864645257
320,2642.6899999999996,0.40306297000487123
321,2654.89,0.4083645773359085
322,2667.14,0.394061240434696
323,2673.29,0.40116769986796474
324,2685.63,0.4047091033487025
325,2698.03,0.39438203375074043
326,2704.2500000000005,0.40041419125885946
327,2716.73,0.3901826908892977
328,2722.9900000000002,0.3887833330116168
329,2735.5600000000004,0.3990719730240052
330,2741.8700000000003,0.3764840709140746
331,2754.5199999999995,0.38184488015486334
332,2767.2400000000002,0.39077338747050216
333,2773.62,0.3992089834354217
334,2786.42,0.38879445997946094
335,2792.8399999999997,0.34973104055858056
336,2805.73,0.36250555748457
337,2812.2000000000003,0.40116189383143974
338,2825.18,0.40922005113937954
339,2838.2200000000003,0.40434943536861934
340,2844.76,0.3979969697903394
341,2857.8900000000003,0.3891419944015295
342,2864.48,0.4095199845909997
343,2877.7000000000003,0.4134657495841402
344,2884.0315,0.413828805763077
345,2884.34,0.4138540069531762
346,2897.65,0.41495788653010535
347,2911.03,0.4342981685540957
348,2931.2,0.4278500879430259
349,2951.5200000000004,0.426233426861373
350,2971.98,0.43151167067384266
351,2992.5800000000004,0.43480021938043467
352,3013.3300000000004,0.4395902876164437
353,3027.24,0.4438251453110406
354,3048.22,0.44733765015882226
355,3069.35,0.44940547453602087
356,3090.62,0.4530342038073419
357,3112.05,0.4567200672433743
358,3126.41,0.454306683526222
359,3148.08,0.4572619982093215
360,3169.9100000000003,0.4634471470571324
361,3191.88,0.4530658007990658
362,3206.6099999999997,0.4656636585878086
363,3228.84,0.45595219284739796
364,3251.2200000000003,0.4778698466364043
365,3273.76,0.492462534590122
366,3288.87,0.49333674852005444
367,3311.31121,0.4933307948897675
368,3311.6600000000003,0.49333665762404866
369,3319.3,0.48905378495039964
370,3326.9500000000003,0.4909394976528322
371,3334.62,0.5045454811074279
372,3342.31,0.47986473531418694
373,3350.0099999999998,0.4948753748970275
374,3357.73,0.48879478523203135
375,3365.47,0.45847356631919844
376,3373.23,0.4577545181585287
377,3381.0099999999998,0.4770021407500222
378,3388.8,0.5000663487175973
379,3396.61,0.4885427274373356
380,3404.44,0.5003434769092372
381,3412.29,0.4879178971333019
382,3420.16,0.5033780881095299
383,3428.04,0.5109588644618395
384,3435.94,0.5167887115663123
385,3443.87,0.48401411479903006
386,3451.7999999999997,0.5228848180317477
387,3459.76,0.5068998773927101
388,3467.7400000000002,0.5079837075058359
389,3475.73,0.5185683229950433
390,3483.7400000000002,0.5139561092364138
391,3491.7799999999997,0.5296287516060292
392,3499.82,0.4965013939756445
393,3507.8900000000003,0.5238207924735048
394,3515.98,0.5037924617235282
395,3524.08,0.5131784163496332
396,3532.21,0.5267067271039831
397,3540.35,0.5356503232344146
398,3548.51,0.5541337901170094
399,3556.69,0.5458186277517674
400,3564.89,0.5499602361386885
401,3573.1099999999997,0.5139768152777728
402,3581.35,0.5110788651690205
403,3589.6,0.48074930043634967
404,3597.88,0.5226359918319238
405,3606.17,0.5265618686035793
406,3607.63,0.4253482335114946
407,3610.33,0.6147146850535297
408,3613.0299999999997,0.5584579365955646
409,3615.7299999999996,0.5461778881375997
410,3618.4300000000003,0.5542809396796347
411,3621.13,0.5691824912216698
412,3623.83,0.5270264427637047
413,3626.53,0.6289306943057398
414,3629.23,0.48076754584777476
415,3631.93,0.44298649738980983
416,3634.6299999999997,0.5433989489318448
417,3637.33,0.7134210004738799
418,3640.03,0.5705959520159148
419,3642.73,0.6328671035579498
420,3645.43,0.6596221550999849
421,3648.13,0.5404913066420199
422,3650.83,0.5478639581840549
423,3653.5299999999997,0.6809725097260899
424,3656.2299999999996,0.5015861612681249
425,3658.9300000000003,0.63446821281016
426,3661.63,0.594263564352195
427,3664.33,0.45304981589423
428,3667.03,0.572120567436265
429,3669.73,0.5966031189783001
430,3672.43,0.547963270520335
431,3675.1299999999997,0.5270465220623701
432,3677.8300000000004,0.525001973604405
433,3680.53,0.4211489251464401
434,3683.23,0.5261252766884751
435,3685.93,0.5736537282305102
436,3688.63,0.5368671797725452
437,3691.33,0.6768436313145801
438,3694.0299999999997,0.5461801828566152
439,3696.7299999999996,0.5504685343986502
440,3699.4300000000003,0.6242280859406852
441,3702.13,0.5750594374827203
442,3704.83,0.6148198890247553
443,3707.53,0.6426450405667903
444,3710.23,0.6116436921088253
445,3712.93,0.5728051436508603
446,3715.6299999999997,0.6290268951928953
447,3718.3300000000004,0.6968378467349303
448,3721.03,0.8908188982769654
449,3723.73,1.2035038498190003
450,3726.43,1.1937609013610355
451,3729.13,0.9156001529030704
452,3731.83,0.7776281044451054
453,3734.5299999999997,0.6146652559871404
454,3737.2300000000005,0.5262725075291754
455,3739.9300000000003,0.5184051590712104
456,3742.63,0.5243364106132455
457,3745.3399999999997,0.5165041475313621
458,3748.0400000000004,0.6344412990733972
459,3750.7400000000002,0.6088789506154322
460,3753.44,0.5699335021574672
461,3756.14,0.6370831536995022
462,3758.84,0.6166133052415372
463,3761.54,0.5952810567835722
464,3764.24,0.5183142083256073
465,3766.9399999999996,0.6087299598676423
466,3769.6400000000003,0.5902681114096773
467,3772.34,0.6370661629517123
468,3775.04,0.6227025144937474
469,3777.74,0.7849751660357823
470,3780.44,0.7784424175778173
471,3783.14,0.6419881691198523
472,3785.8399999999997,0.7536052206618875
473,3788.5400000000004,0.6462399722039225
474,3791.2400000000002,0.6107819237459574
475,3793.94,0.5908031752879925
476,3796.64,0.6011849268300274
477,3799.34,0.5977932783720624
478,3801.8939600000003,0.712209600032929
479,3802.04,0.71875388609311
480,3804.74,0.6806530060228048
481,3807.44,0.6583965259524994
482,3810.1400000000003,0.6849698458821941
483,3812.84,0.6779218658118887
484,3815.54,0.6052678857415834
485,3818.24,0.6767243056712781
486,3820.94,0.6771232256009727
487,3823.64,0.6490627455306675
488,3826.3399999999997,0.5561326654603621
489,3829.0400000000004,0.5868417853900567
490,3831.7400000000002,0.5461788053197515
491,3834.44,0.6269203252494462
492,3837.14,0.5936727451791408
493,3839.84,0.6452747651088354
494,3842.54,0.6679641850385302
495,3845.24,0.7070583049682247
496,3847.94,0.7690850248979194
497,3850.6400000000003,0.7233041448276141
498,3853.34,0.7732065647573088
499,3856.04,0.7634958846870036
500,3858.74,0.7930657046166982
501,3861.44,0.7806481245463929
502,3864.14,0.8017827444760875
503,3866.84,0.7957859644057822
504,3869.5400000000004,0.7835572843354769
505,3872.2400000000002,0.6769294042651716
506,3874.94,0.7041260241948661
507,3877.64,0.678457444124561
508,3880.3399999999997,0.7193456640542556
509,3883.04,0.6095197839839502
510,3885.74,0.622131003913645
511,3888.44,0.6018195238433396
512,3891.1400000000003,0.6791052437730343
513,3893.84,0.6200796637027289
514,3896.54,0.6904282836324236
515,3899.24,0.7397518035621182
516,3901.94,0.762208223491813
517,3904.64,0.7870568434215077
518,3907.34,0.7867254633512023
519,3910.04,0.828696483280897
520,3912.7400000000002,0.7638419032105916
521,3915.44,0.7906419231402864
522,3918.14,0.818638043069981
523,3920.8399999999997,0.7619038629996756
524,3923.54,0.7302236829293705
525,3926.24,0.6046226028590651
526,3928.94,0.6007095227887598
527,3931.6400000000003,0.5637982427184544
528,3934.34,0.6887745626481491
529,3937.04,0.7061133825778437
530,3939.74,0.7400708025075384
531,3942.44,0.791358322437233
532,3945.14,0.8080864423669277
533,3947.84,0.8317389622966224
534,3950.54,0.7826217822263171
535,3953.2400000000002,0.8121286021560117
536,3955.94,0.7967524220857065
537,3958.64,0.6962178420154012
538,3961.3399999999997,0.7011931619450958
539,3964.04,0.5807664818747904
540,3966.7400000000002,0.5892042018044852
541,3969.44,0.6161238217341798
542,3972.1400000000003,0.6314482416638745
543,3974.84,0.6734442615935692
544,3977.54,0.7318450815232638
545,3980.24,0.7651291014529585
546,3982.9399999999996,0.8125767213826532
547,3985.64,0.8690261413123479
548,3988.34,0.8744232612420425
549,3991.04,0.8599283811717372
550,3993.7400000000002,0.8539317011014319
551,3996.44,0.8753810210311266
552,3999.14,0.8839886409608213
553,4001.8399999999997,0.934080060890516
554,4004.54,0.9362668808202106
555,4007.2400000000002,0.9309627007499053
556,4009.94,0.9682753206796
557,4012.64,0.9541581406092946
558,4015.34,0.9479724605389893
559,4018.04,0.931148380468684
560,4020.74,0.8901517003983787
561,4023.4399999999996,0.9242539203280733
562,4026.1400000000003,0.8702894402577679
563,4028.84,0.9174852601874626
564,4031.5499999999997,0.9344606857465266
565,4034.25,0.8937159056762213
566,4036.9500000000003,0.9006867256059159
567,4039.65,0.9352926455356106
568,4042.35,0.8914631654653052
569,4045.05,0.8935239853949999
570,4047.75,0.9218978053246946
571,4050.45,0.8856853252543893
572,4053.1499999999996,0.886298445184084
573,4055.85,0.9306611651137787
574,4058.55,0.8722905850434733
575,4061.25,0.910295604973168
576,4063.9500000000003,0.8692990249028627
577,4066.65,0.8322052448325573
578,4069.35,0.856487164762252
579,4072.0499999999997,0.8409850846919467
580,4074.7499999999995,0.8807527046216415
581,4077.4500000000003,0.861410724551336
582,4080.15,0.8274644444810306
583,4082.85,0.8235450644107254
584,4085.55,0.8536813843404201
585,4088.25,0.8782153042701147
586,4090.95,0.8353931241998094
587,4093.6499999999996,0.8071122441295041
588,4096.35,0.7892179640591988
589,4099.05,0.7679246839888934
590,4101.75,0.7682229039185882
591,4104.45,0.8108231238482828
592,4107.15,0.8196196437779775
