,lambda (Angstroms),Total Flux (erg/s/cm^2/Angstrom)
0,100.03,0.005235838871631463
1,101.89,0.006297559997210277
2,104.02,0.007513401931340851
3,104.712855,0.00790889590470801
4,105.96,0.007314906821391983
5,107.93,0.0063766370178546285
6,109.92999999999999,0.005424078841674587
7,114.05999999999999,0.0034570462078627896
8,118.07,0.0015471670646217905
9,120.22644299999999,0.0005200983590636761
10,121.09,0.0005010671295071751
11,125.06,0.00041357553214960933
12,127.09,0.0003688380151128691
13,127.98,0.000349224029811047
14,130.96,0.0002835502363285416
15,131.85999999999999,0.0002637158691693962
16,134.01,0.00021633376984476975
17,137.13,0.0001475746303597305
18,138.038426,0.0001275545694476037
19,140.0,0.0001260278038377405
20,142.93,0.00012374727644652348
21,146.94,0.00012062614510222987
22,151.05,0.00011742718005857731
23,154.93,0.00011440723252345035
24,158.489319,0.00011163688287376466
25,158.9,0.00011114575133722226
26,161.85000000000002,0.00010761785977954115
27,166.01000000000002,0.00010264293473548926
28,169.86999999999998,9.802677832442216e-05
29,173.03,9.424774872365241e-05
30,177.06,8.942829008722984e-05
31,179.94,8.598411121058345e-05
32,181.970086,8.355634061371948e-05
33,182.01999999999998,8.357554946512421e-05
34,185.82999999999998,8.504178586879493e-05
35,191.04,8.704679680406222e-05
36,194.14000000000001,8.823979755258046e-05
37,198.20999999999998,8.980609208392435e-05
38,201.9,9.12261478144006e-05
39,205.18,9.248841957538721e-05
40,208.929613,9.393141671313663e-05
41,209.95,9.63161113313273e-05
42,215.84,0.00011008133110803538
43,219.85000000000002,0.0001194528984063197
44,222.91,0.00012660426897597585
45,227.04999999999998,0.00013627965272277985
46,230.21,0.0001436653576783306
47,233.95,0.00015240634425818482
48,239.88329199999998,0.00016627322746606016
49,239.95,0.00016614480884822441
50,246.11,0.00015428610409423042
51,251.84,0.00014325543244775874
52,257.11,0.00013310983666824116
53,260.09000000000003,0.00012737342242701675
54,263.71,0.00012040487103324767
55,269.23,0.00010977849640879846
56,274.24,0.00010013408584568973
57,275.42287,9.785707331529987e-05
58,278.69,0.00010457286563254094
59,283.87,0.00011522085096111753
60,289.82,0.0001274515114856717
61,295.89,0.00013992945817523536
62,300.69,0.00014979693364461523
63,307.7,0.00016420871921308665
64,316.227766,0.0001817426291153212
65,317.78000000000003,0.00017940682511317734
66,328.19,0.0001637463935978285
67,338.15999999999997,0.0001487549109507365
68,347.64000000000004,0.00013451157575283942
69,357.38,0.00011993644539006349
70,363.078055,0.00011150507147386566
71,365.7,0.00011465353191012288
72,375.08,0.0001258658451476621
73,384.7,0.00013736654060087395
74,394.57,0.0001499777821829115
75,404.69,0.0001633561332937747
76,414.11999999999995,0.000175883839397079
77,416.86938299999997,0.00017952659624286078
78,421.82,0.00018375900757295003
79,429.65999999999997,0.00019104965736311584
80,440.68,0.00020403512144317036
81,450.95000000000005,0.0002163707186057983
82,460.39,0.0002261165413531408
83,470.03000000000003,0.00024098465034513045
84,478.630092,0.0002594127817327033
85,479.87,0.00026004943224626026
86,489.92,0.00025614961645231183
87,500.18,0.00027423970011938544
88,505.97,0.0003018365052589913
89,511.83,0.0006704198968856045
90,520.15,0.0007117898221984752
91,529.82,0.000760966194046487
92,539.67,0.0007357677854325177
93,549.5408739999999,0.001032798141003177
94,549.6999999999999,0.0010376857091131514
95,559.92,0.001313670618213187
96,570.33,0.0015721167657407188
97,579.6,0.0015758698827032756
98,590.37,0.001985571724093431
99,599.97,0.0020519055604300593
100,609.7099999999999,0.0024469732777132637
101,619.62,0.002996242850431596
102,629.6899999999999,0.003269581287088872
103,630.957344,0.0033038167084643204
104,639.92,0.0035522606176385915
105,650.32,0.004036172112915404
106,657.8499999999999,0.004279788741707172
107,665.4699999999999,0.00478817286805422
108,674.72,0.0051244120056802315
109,685.69,0.004992995652140483
110,695.23,0.006597027393000175
111,704.9,0.006088563852550825
112,716.35,0.007944731152639238
113,724.43596,0.00841520759985841
114,726.32,0.008524499949241251
115,734.73,0.009062599413968135
116,744.95,0.009990539505467392
117,755.3100000000001,0.010768354899589928
118,765.8199999999999,0.010992439903665973
119,774.6899999999999,0.012596926505583627
120,785.46,0.013036101500245761
121,794.56,0.0143437511707588
122,805.6099999999999,0.015358920770667486
123,814.9399999999999,0.01622303350977591
124,824.38,0.017772801629516905
125,831.763771,0.01569806916729688
126,835.85,0.014546899900442146
127,845.52,0.01919958580597102
128,855.31,0.019862991350451657
129,865.22,0.021707096533884043
130,875.24,0.023189176386355537
131,885.37,0.02494441090786614
132,895.62,0.026407385068328498
133,906.0,0.026706153837655254
134,914.3800000000001,0.03435615862445277
135,924.9699999999999,0.18341948176194509
136,935.68,0.3883921945383892
137,944.33,0.7247882435128281
138,954.992586,1.023016287736935
139,955.27,1.0307755580831433
140,964.11,1.1172808552594145
141,975.27,0.18681326798420922
142,984.3000000000001,0.8673423500545406
143,995.69,0.9531689444931977
144,1004.91,1.4525856114575892
145,1014.2099999999999,1.4228138720615848
146,1025.95,0.6444287386735107
147,1035.44,0.9641947841715665
148,1045.02,1.8929334225141772
149,1054.6899999999998,1.8413736537013428
150,1064.45,1.4032828777330628
151,1074.3,1.694887094609338
152,1084.24,1.3006343043301678
153,1094.27,1.7788875068955525
154,1096.4782,1.7580367352616526
155,1104.3999999999999,1.683234360102992
156,1114.6200000000001,1.585428816998153
157,1124.93,1.390426251498066
158,1135.34,1.82869866111437
159,1145.8400000000001,1.6487250483354257
160,1153.79,1.754462070088511
161,1164.46,1.7912204150074313
162,1175.24,1.1752917325543821
163,1186.11,1.7383190277060847
164,1194.33,1.1862069822734254
165,1205.3899999999999,0.833977930146271
166,1213.74,0.6254023523649201
167,1224.97,1.2137693579356303
168,1236.31,1.8161015361343706
169,1244.88,1.95042040360908
170,1256.39,1.832857539505685
171,1258.92541,1.7618788188292045
172,1265.1000000000001,1.5890230178916294
173,1273.87,2.01434817311667
174,1285.66,2.080286381794347
175,1294.57,1.578126539497324
176,1303.54,1.5963646982622743
177,1315.6100000000001,2.005056911895825
178,1324.73,1.8798520733157074
179,1333.91,1.6486682357975626
180,1346.25,1.9684964542099912
181,1355.5800000000002,1.9016666193467788
182,1364.98,1.679315785722535
183,1374.44,1.7423619531602639
184,1383.97,1.7544341218369612
185,1393.5600000000002,1.4425982915756315
186,1406.46,1.4932835198998071
187,1416.2,1.5927116922934097
188,1426.02,1.6223368661029762
189,1435.9099999999999,1.633546041151511
190,1442.53,1.706623158322522
191,1445.43977,1.7135122869052184
192,1445.86,1.7145072160666746
193,1455.8799999999999,1.6562893649142698
194,1465.97,1.521003514801718
195,1476.1299999999999,1.53159966572902
196,1486.37,1.5492728178447257
197,1496.6699999999998,1.5564379708517346
198,1503.58,1.449258073500126
199,1510.52,1.2827671765941688
200,1517.49,1.3713362801338629
201,1524.49,1.346319384119209
202,1535.06,1.1485675411370808
203,1545.7,1.1971406991948066
204,1556.42,1.1511678584409362
205,1563.6,1.2082309651001908
206,1574.44,1.2827851261289263
207,1585.3500000000001,1.337034288197515
208,1596.34,1.3463124514545082
209,1603.71,1.330858560936222
210,1614.83,1.3339677261243714
211,1626.02,1.273935892352374
212,1633.53,1.3556380039137952
213,1644.85,1.3649851720729544
214,1656.25,1.2857033414205175
215,1659.58691,1.3258021442558392
216,1663.9,1.3776318588902026
217,1671.58,1.2622236920445922
218,1675.43,1.3872231097066237
219,1683.1599999999999,1.4228009482851955
220,1694.83,1.340085214289327
221,1706.5800000000002,1.2886964889721495
222,1714.4499999999998,1.2026943427384318
223,1726.3400000000001,1.1916616326089648
224,1734.31,1.2680884972236115
225,1746.3300000000002,1.2363888011970183
226,1754.39,1.297615675575193
227,1766.55,1.21378199473631
228,1774.6999999999998,1.2054388788780126
229,1787.01,1.2363872143116763
230,1795.25,1.2946341082169068
231,1803.54,1.2976220075463198
232,1816.04,1.172625363591876
233,1824.4299999999998,1.2137762737696534
234,1837.0700000000002,1.1672026450029198
235,1845.55,1.0719175649442252
236,1854.07,1.0596424892248764
237,1866.92,1.086804883239708
238,1875.54,1.1834578183687234
239,1884.2,1.0694227578370847
240,1892.89,1.0119497005599554
241,1905.46072,1.0933474344116216
242,1906.01,1.0969039874680138
243,1914.8100000000002,1.030746756905716
244,1923.65,1.0026545207499533
245,1936.98,1.0620766567277453
246,1945.9199999999998,1.0843164065883202
247,1954.91,0.9934932494570637
248,1968.46,1.0943272546707983
249,1977.5400000000002,1.1302049849542457
250,1982.1,1.0596453472992369
251,1995.8400000000001,1.030743425944013
252,2005.05,1.074341138048699
253,2014.31,1.0378948431615538
254,2023.6100000000001,1.0943205426809437
255,2032.95,1.0096152366068685
256,2047.04,1.0402582663088258
257,2056.49,0.968630544852722
258,2065.98,0.9888766178031533
259,2075.52,1.0669722837617532
260,2080.2999999999997,0.9843262153426868
261,2085.09,1.0307279455252543
262,2094.72,0.973109998898558
263,2104.39,0.9934775466783967
264,2114.1,1.0026338888647706
265,2123.86,1.011913524059313
266,2133.66,0.9663849536603905
267,2143.51,0.9552970762696367
268,2153.41,0.9934736918870517
269,2163.35,0.9731041019110017
270,2173.33,0.9641321063414867
271,2183.36,0.9335558037801406
272,2187.7616199999998,0.9488652715047964
273,2193.44,0.9686169213589879
274,2203.57,0.9487453507597263
275,2213.74,0.9165502846200925
276,2223.9500000000003,0.8874683229400864
277,2234.2200000000003,0.9165569679495221
278,2244.53,0.8936393174185856
279,2254.89,0.8633092724621838
280,2265.3,0.8833649330803167
281,2275.76,0.8915161992729844
282,2286.2599999999998,0.8976272699252799
283,2296.81,0.84743414615211
284,2307.42,0.851286529068382
285,2312.7400000000002,0.8167228221988784
286,2323.41,0.6699909118045919
287,2334.13,0.7763101069848403
288,2344.91,0.7726942088545302
289,2355.73,0.7906961151838481
290,2366.61,0.7603042282026076
291,2377.5299999999997,0.7602434456809948
292,2383.01,0.7327775566500024
293,2394.01,0.7602442830476452
294,2405.06,0.7343972150198229
295,2416.16,0.7411291525665352
296,2427.31,0.7548921956877823
297,2432.91,0.7275495200356732
298,2444.14,0.751407672076176
299,2455.42,0.7410722296912132
300,2466.76,0.7358993939956924
301,2472.44,0.7158488272628388
302,2483.85,0.7291169993716667
303,2495.32,0.6543121781699361
304,2506.84,0.7256878625427402
305,2511.88643,0.6861582023535224
306,2512.62,0.6804118935193034
307,2518.41,0.7091203436817631
308,2524.21,0.6866438934127246
309,2535.8599999999997,0.6881986907171558
310,2547.57,0.6693867854325969
311,2553.44,0.6897541321430699
312,2565.23,0.6802214234065244
313,2577.07,0.700900312512487
314,2583.01,0.6928664562024717
315,2594.93,0.6880088418564476
316,2606.91,0.6723760249214336
317,2612.92,0.6646478655909298
318,2624.98,0.6707556452039289
319,2637.1,0.670686922227938
320,2643.18,0.6878808598769459
321,2655.38,0.6847023334489682
322,2667.6299999999997,0.6508856048634989
323,2673.78,0.6644615394920184
324,2686.1200000000003,0.6583594070230638
325,2692.32,0.6404155394940917
326,2704.74,0.6403587035731505
327,2717.23,0.6286452646317209
328,2723.4900000000002,0.6286475945137586
329,2736.06,0.6373664521203423
330,2742.37,0.6002997798448884
331,2755.03,0.5988847335679869
332,2767.7400000000002,0.6043992851335939
333,2774.12,0.6170374098376514
334,2786.9300000000003,0.6099473570882749
335,2793.35,0.5549904800663391
336,2806.25,0.5757835234334775
337,2812.7200000000003,0.6056854442540499
338,2825.7,0.6028707841692017
339,2832.21,0.5770550032637808
340,2845.29,0.574372538863949
341,2851.8500000000004,0.5717190558010364
342,2865.01,0.582316287949218
343,2878.23,0.5729789175084093
344,2884.0315,0.5718135617153087
345,2884.87,0.5716451664341909
346,2898.1800000000003,0.565077054680515
347,2911.5600000000004,0.5715836428650238
348,2931.74,0.5611142250446494
349,2952.0600000000004,0.549564007100645
350,2972.5299999999997,0.54573458902418
351,2993.13,0.5382058708329157
352,3006.95,0.5320140586288734
353,3027.7900000000004,0.528311240225672
354,3048.7799999999997,0.51982702169001
355,3069.9100000000003,0.5126533030307181
356,3091.1899999999996,0.5055781842389655
357,3112.62,0.4986018653147522
358,3126.9900000000002,0.4894704526250207
359,3148.66,0.4860646334888704
360,3170.4900000000002,0.4760531142114287
361,3192.4599999999996,0.464109894810357
362,3207.2000000000003,0.4630199817938893
363,3229.43,0.45557816216321917
364,3251.82,0.45239914239125767
365,3266.83,0.4461723291363607
366,3289.47,0.4410293091436315
367,3311.31121,0.43615314392900983
368,3312.27,0.43593907367103574
369,3319.91,0.4471061447008274
370,3327.56,0.4491550155618098
371,3335.23,0.44502548608517384
372,3342.9199999999996,0.4249891562709196
373,3350.63,0.443972226119047
374,3358.35,0.4124322957983652
375,3366.0899999999997,0.42494666514006507
376,3373.85,0.4181448341441466
377,3381.63,0.41525430281060977
378,3389.43,0.4308177711394546
379,3397.2400000000002,0.4308044392994902
380,3405.07,0.4104647071219075
381,3412.9199999999996,0.4123445746067065
382,3420.7900000000004,0.4180609417538871
383,3428.6699999999996,0.4180498087322585
384,3436.5800000000004,0.41900137520420244
385,3444.5,0.40663334150733715
386,3452.44,0.4189763074728536
387,3460.4,0.39919017310075167
388,3468.3799999999997,0.3982607383910313
389,3476.37,0.3945992035125019
390,3484.38,0.391871868296354
391,3492.42,0.4019038325737787
392,3500.47,0.3963798966823942
393,3508.54,0.38379936045339136
394,3516.62,0.3811464240555793
395,3524.73,0.38911258715133973
396,3532.8599999999997,0.3873105499094819
397,3541.0000000000005,0.3908816124988148
398,3549.1600000000003,0.3944877747505294
399,3557.34,0.38816593666462557
400,3565.54,0.3917470982411035
401,3573.77,0.3845822593111539
402,3582.0,0.36726972038120426
403,3590.26,0.35807028094482707
404,3598.54,0.3672420411708316
405,3606.83,0.3680781012280269
406,3613.6600000000003,0.3978311859313616
407,3616.37,0.41716754018407565
408,3619.0699999999997,0.3773943946055988
409,3621.7700000000004,0.38433274902712206
410,3624.4700000000003,0.4301473034486452
411,3627.17,0.43231485787016843
412,3629.87,0.39254171229169166
413,3632.57,0.3860893667132148
414,3635.27,0.35436932113473807
415,3637.97,0.36213587555626126
416,3640.6699999999996,0.37046312997778447
417,3643.3700000000003,0.3858218843993077
418,3646.07,0.37010193882083087
419,3648.77,0.3245551932423541
420,3651.47,0.36455284766387736
421,3654.17,0.3437943020854005
422,3656.87,0.32028285650692373
423,3659.5699999999997,0.33587211092844693
424,3662.28,0.31191676518116096
425,3664.98,0.31058401960268417
426,3667.68,0.3337715740242074
427,3670.3799999999997,0.34464602844573056
428,3673.0800000000004,0.3067288828672538
429,3675.78,0.345356237288777
430,3678.48,0.35008349171030023
431,3681.18,0.35885904613182346
432,3683.88,0.33068280055334665
433,3686.58,0.3151621549748698
434,3689.2799999999997,0.35311060939639305
435,3691.9800000000005,0.3713281638179163
436,3694.6800000000003,0.32107911823943946
437,3697.38,0.3648260726609627
438,3700.08,0.3273074270824859
439,3702.7799999999997,0.33129358150400906
440,3705.48,0.3339032359255323
441,3708.19,0.36126189017824634
442,3710.89,0.43542094459976954
443,3713.59,0.37804699902129274
444,3716.29,0.492047753442816
445,3718.99,0.9676945078643391
446,3721.69,1.9914843622858625
447,3724.3900000000003,3.4041633167073857
448,3727.09,4.098358271128909
449,3729.79,3.479464225550432
450,3732.49,2.1650041799719553
451,3735.19,1.0774991343934783
452,3737.89,0.5587463888150016
453,3740.5899999999997,0.4810995432365248
454,3743.2900000000004,0.43166019765804803
455,3745.9900000000002,0.41123175207957124
456,3748.69,0.3818658065010944
457,3751.39,0.3824264609226177
458,3754.1000000000004,0.3386715151753317
459,3756.8,0.3482754695968549
460,3759.5,0.3493841240183781
461,3762.2,0.3567894784399013
462,3764.9,0.3488798328614245
463,3767.6,0.37089018728294776
464,3770.2999999999997,0.3507607417044709
465,3773.0000000000005,0.3995150961259942
466,3775.7000000000003,0.3751567505475174
467,3778.4,0.33358360496904055
468,3781.1,0.3767139593905638
469,3783.7999999999997,0.37735551381208693
470,3786.5,0.3532026682336102
471,3789.2,0.33782522265513343
472,3791.9,0.3920667770766566
473,3794.6000000000004,0.3550027314981798
474,3797.3,0.39328138591970296
475,3800.0099999999998,0.41646694017241703
476,3801.8939600000003,0.4047724708864787
477,3802.71,0.3997069974642305
478,3805.4100000000003,0.37092666138257213
479,3808.11,0.3827478253009137
480,3810.81,0.39025288921925533
481,3813.5099999999998,0.36314165313759694
482,3816.21,0.3615971170559385
483,3818.91,0.37834488097428015
484,3821.6099999999997,0.36397644489262176
485,3824.3100000000004,0.3682428088109634
486,3827.01,0.381521472729305
487,3829.71,0.38822933664764653
488,3832.41,0.36912750056598814
489,3835.11,0.44114426448432975
490,3837.81,0.4049398284026714
491,3840.5099999999998,0.373605792321013
492,3843.21,0.3653347562393546
493,3845.92,0.37892912002406043
494,3848.62,0.402440583942402
495,3851.3199999999997,0.40295134786074366
496,3854.0200000000004,0.3879913117790852
497,3856.7200000000003,0.38360057569742684
498,3859.42,0.41518383961576844
499,3862.12,0.53296520353411
500,3864.8199999999997,0.8090611674524517
501,3867.52,0.9475763313707932
502,3870.22,0.9671331952891349
503,3872.92,0.6968919592074765
504,3875.6200000000003,0.4504982231258181
505,3878.32,0.3814026870441597
506,3881.02,0.4015385509625013
507,3883.72,0.4956157148808429
508,3886.42,0.5834770787991845
509,3889.12,0.616984942717526
510,3891.83,0.5081756065022319
511,3894.5299999999997,0.41069237042057355
512,3897.23,0.36332703433891517
513,3899.93,0.3668771982572568
514,3902.63,0.34450566217559836
515,3905.3300000000004,0.3501422260939399
516,3908.03,0.35994549001228154
517,3910.73,0.3594348539306232
518,3913.43,0.3507404178489648
519,3916.13,0.3953218817673064
520,3918.83,0.384285545685648
521,3921.5299999999997,0.3423449096039896
522,3924.23,0.3875368735223312
523,3926.9300000000003,0.34608193744067284
524,3929.63,0.34580800135901446
525,3932.33,0.320178965277356
526,3935.0299999999997,0.3276155291956976
527,3937.7400000000002,0.3498173929804035
528,3940.44,0.37147905689874505
529,3943.14,0.3722265208170866
530,3945.8399999999997,0.36187538473542824
531,3948.54,0.36342004865376987
532,3951.24,0.3762689125721115
533,3953.94,0.3486593764904531
534,3956.6400000000003,0.39494744040879465
535,3959.34,0.3616391043271363
536,3962.04,0.4698353682454779
537,3964.74,0.6257024321638195
538,3967.44,0.7639685960821612
539,3970.14,0.7270355600005027
540,3972.84,0.5814202239188444
541,3975.54,0.4355059878371859
542,3978.2400000000002,0.35454565175552755
543,3980.94,0.3728504156738691
544,3983.65,0.33559787945857494
545,3986.3500000000004,0.38617694337691655
546,3989.05,0.3750099072952582
547,3991.75,0.3863951712135998
548,3994.45,0.3575400351319414
549,3997.15,0.36420429905028295
550,3999.85,0.3520157629686246
551,4002.55,0.3743874268869662
552,4005.25,0.36840849080530785
553,4007.9500000000003,0.3912349547236494
554,4010.65,0.356188918641991
555,4013.35,0.33638948256033263
556,4016.0499999999997,0.36080414647867426
557,4018.75,0.3572541103970158
558,4021.45,0.38174347431535743
559,4024.15,0.350328538233699
560,4026.8500000000004,0.34762550215204063
561,4029.56,0.3685318659367465
562,4032.2599999999998,0.3652746298550881
563,4034.96,0.3572714937734297
564,4037.6600000000003,0.35220795769177127
565,4040.36,0.3589843216101129
566,4043.06,0.3630326855284545
567,4045.7599999999998,0.34053654944679607
568,4048.46,0.3519467133651377
569,4051.16,0.3478361772834793
570,4053.86,0.3547930412018209
571,4056.56,0.34899470512016256
572,4059.26,0.3432834690385041
573,4061.96,0.36132043295684574
574,4064.66,0.36146379687518737
575,4067.3599999999997,0.35272566079352896
576,4070.06,0.3610652247118705
577,4072.76,0.36872608863021217
578,4075.47,0.358198752414918
579,4078.17,0.3795739163332596
580,4080.87,0.36706148025160124
