,lambda (Angstroms),Total Flux (erg/s/cm^2/Angstrom)
0,102.08,2.226316750066159
1,103.97999999999999,2.2199710745420025
2,104.712855,2.21752346452837
3,105.91,2.196521180689285
4,107.88000000000001,2.1619602068176897
5,109.88,2.1268729327233222
6,114.00999999999999,2.054417700437352
7,118.01,1.9842431459325665
8,120.22644299999999,1.94535883405969
9,121.04,1.9333926923227136
10,125.01,1.8750000301667928
11,127.04,1.8451418140217817
12,127.92,1.8321983638982786
13,130.9,1.7883670977221737
14,132.11,1.7705699127200312
15,133.95000000000002,1.7435063271486788
16,137.07,1.6976160105747942
17,138.038426,1.6833719564433365
18,139.94,1.6633800377275374
19,142.87,1.6325773996775987
20,146.87,1.5905272875429182
21,150.98,1.5473180277443386
22,154.85999999999999,1.5065270078066384
23,158.489319,1.4683715369868386
24,158.83,1.4656637891434712
25,162.16000000000003,1.4391967310847205
26,165.93,1.4092329008608888
27,170.19,1.3753743109287395
28,172.95999999999998,1.3533585437916382
29,176.98,1.3214077108086237
30,179.85999999999999,1.2985176948490018
31,181.94,1.2819859883831635
32,181.970086,1.2817468668186434
33,186.17999999999998,1.2562203751554084
34,190.95999999999998,1.2272375397858482
35,194.06,1.2084412673437062
36,198.12,1.1838240210916111
37,201.81,1.161450649473352
38,205.07999999999998,1.1416236118994478
39,208.929613,1.1182814547632762
40,209.86,1.1140402330974735
41,216.24,1.0849593720719453
42,219.75000000000003,1.068960294121396
43,222.80999999999997,1.0550116411547636
44,226.95,1.0361408684687312
45,230.11,1.021757053101228
46,233.85,1.0047512249286772
47,239.85,0.9774290376764563
48,239.88329199999998,0.9772772504430867
49,246.0,0.9557861460849156
50,251.73000000000002,0.9356685191915344
51,257.0,0.9171330084941313
52,259.98,0.906686834298446
53,264.2,0.8918719014092542
54,269.11,0.874625950426095
55,274.12,0.8570279661612012
56,275.42287,0.85245144904739
57,279.21000000000004,0.8422425167415917
58,283.75,0.830005538522653
59,289.69,0.8139857484643939
60,295.76,0.7976260209410551
61,301.25,0.782822596031149
62,308.27,0.7639012654168427
63,316.227766,0.7424530490926441
64,317.64,0.7396104102149954
65,328.05,0.7186506504196074
66,338.01,0.698595400528343
67,348.28,0.6779149992675715
68,357.21999999999997,0.6599142191856534
69,363.078055,0.6481207021831077
70,366.38,0.6431428636373986
71,374.91999999999996,0.6302642217814567
72,385.42,0.6144234073618557
73,395.30999999999995,0.5995189018176794
74,405.45,0.5842330572016078
75,413.94,0.5714318003600447
76,416.86938299999997,0.5670140276043156
77,421.63,0.5615313623713042
78,430.46000000000004,0.551363577353742
79,441.5,0.5386612811278205
80,450.74999999999994,0.5280157163435115
81,460.19,0.5171455515575787
82,469.82000000000005,0.5060660342700222
83,478.630092,0.4959398557007419
84,479.66,0.4950299797902604
85,489.7,0.48613775991679775
86,499.96,0.47709136268096847
87,505.75,0.4719686950759536
88,511.59999999999997,0.46695400309938423
89,519.92,0.4596085785771522
90,529.5799999999999,0.4510786768568685
91,539.43,0.4423395739099953
92,549.46,0.4335421895484583
93,549.5408739999999,0.43347195266506683
94,559.6700000000001,0.4268027472627384
95,570.08,0.4199120099388057
96,579.34,0.4137031564051247
97,590.11,0.40658058561119986
98,599.7,0.40008526661335964
99,609.4399999999999,0.3936029905863562
100,619.35,0.3872703647929676
101,629.41,0.38056630597041574
102,630.957344,0.37955550212766387
103,639.64,0.37509948627137263
104,650.0300000000001,0.36968868361739976
105,657.56,0.3656933611415177
106,665.1700000000001,0.3619157320802343
107,674.4300000000001,0.35720425407005263
108,685.38,0.3512319493182719
109,694.92,0.3467477587591861
110,704.5899999999999,0.34129041537382354
111,716.03,0.33604395466146075
112,724.43596,0.33177581048707644
113,726.0,0.3311975654048832
114,734.4000000000001,0.32810683621180425
115,744.62,0.3243077826602249
116,754.9799999999999,0.32046941838876103
117,765.48,0.31622827739741227
118,774.34,0.313449525838998
119,785.12,0.3092140074078801
120,794.21,0.30619269666679827
121,805.26,0.3022244158473314
122,814.58,0.2988924469235819
123,825.91,0.2949023036643457
124,831.763771,0.2919037432897988
125,835.48,0.2903732559597643
126,845.1500000000001,0.28918566957254205
127,854.94,0.28654014621774326
128,864.84,0.28425442789266575
129,874.8499999999999,0.2817898895973097
130,884.9799999999999,0.2792949653343768
131,895.23,0.2767204281038672
132,905.59,0.2738362889030791
133,913.97,0.2728139151673064
134,924.56,0.3037829200286629
135,935.26,0.34516392291974074
136,943.9200000000001,0.4088655132596224
137,954.85,0.4565697202128449
138,954.992586,0.4568688390977273
139,965.9,0.479820586143885
140,974.84,0.2965572731853748
141,986.1300000000001,0.43628650729034346
142,995.25,0.4396199939366955
143,1004.4599999999999,0.5147420103854786
144,1016.09,0.5068730392996315
145,1025.5,0.368961999753817
146,1034.98,0.43811630560989345
147,1044.56,0.5798396334686711
148,1054.23,0.5648889911298799
149,1063.98,0.4980787863932496
150,1073.8300000000002,0.5406317036593205
151,1083.76,0.4802904585275525
152,1093.79,0.5502269353984857
153,1096.4782,0.5441645680328075
154,1103.91,0.5277962234396727
155,1114.12,0.5144276619587781
156,1124.43,0.47557909282380995
157,1134.84,0.5410975160347685
158,1145.34,0.5127769123570609
159,1155.94,0.5229119010252798
160,1163.95,0.5248232079340001
161,1174.72,0.41525812359029435
162,1185.59,0.5128290315925151
163,1193.81,0.44487764242768124
164,1204.85,0.38068307741797724
165,1216.0,0.3248183239887925
166,1224.43,0.43165443875040443
167,1235.76,0.5092663315438876
168,1244.32,0.5230267963552042
169,1255.84,0.5075852546059478
170,1258.92541,0.4985887431050221
171,1264.5400000000002,0.48260137814406595
172,1276.2399999999998,0.5297769447510087
173,1285.0900000000001,0.5358924156460037
174,1293.9999999999998,0.4683149032928294
175,1305.9699999999998,0.4726856452830092
176,1315.02,0.5265652720174392
177,1324.14,0.5060559182956714
178,1336.39,0.4770021384610601
179,1345.6599999999999,0.5129909266188686
180,1354.98,0.5032428287365357
181,1364.38,0.4722452531899768
182,1373.8300000000002,0.47511749160327665
183,1386.54,0.47371664019936566
184,1396.1599999999999,0.40970872607618525
185,1405.8300000000002,0.4154797259128634
186,1415.58,0.44838444808531575
187,1425.39,0.44531248700959836
188,1435.27,0.4507420454776833
189,1441.9,0.45908879655495083
190,1445.43977,0.45848994021519973
191,1448.5500000000002,0.4581231639448265
192,1455.2399999999998,0.4485676188834844
193,1465.32,0.4278483702708792
194,1475.48,0.4300443442883327
195,1485.71,0.4301949256070876
196,1496.0100000000002,0.4289750142271438
197,1506.3799999999999,0.4110799101485014
198,1513.33,0.38433216363485
199,1516.8200000000002,0.3959507133711603
200,1523.82,0.3945095435012956
201,1534.3799999999999,0.35936863066904257
202,1545.02,0.3565036404668482
203,1555.7299999999998,0.34945305756595524
204,1566.5100000000002,0.36430238196636355
205,1573.7400000000002,0.37894446465791753
206,1584.6499999999999,0.38424818833217134
207,1595.64,0.3853862346364837
208,1606.7,0.3810254882420975
209,1614.11,0.37833844685128354
210,1625.3000000000002,0.3698906997307427
211,1636.57,0.3823781752402605
212,1644.1200000000001,0.3827238484520493
213,1655.52,0.37222852323541245
214,1659.58691,0.37860708360136086
215,1663.1599999999999,0.38433795979786506
216,1670.8400000000001,0.36548063079330184
217,1678.55,0.3887779126129396
218,1686.3,0.39006837553151186
219,1694.08,0.37617714927428514
220,1705.8200000000002,0.36791375181158037
221,1713.7,0.35441342830169004
222,1725.58,0.3511598146852563
223,1733.5400000000002,0.363823553373235
224,1745.56,0.3569472236030723
225,1753.61,0.3651508947636539
226,1765.7700000000002,0.3523806488397621
227,1773.9199999999998,0.3488457227476801
228,1786.21,0.3529937903953257
229,1794.46,0.36116186705058007
230,1806.8999999999999,0.36072808881923024
231,1815.24,0.33980609794708744
232,1823.62,0.3452919881738792
233,1836.2600000000002,0.3375059154372022
234,1844.73,0.3197179381365967
235,1853.25,0.3190108122096594
236,1866.1,0.32262211524238893
237,1874.71,0.3354266217880544
238,1883.3600000000001,0.3149762094326544
239,1896.42,0.3039014882347904
240,1905.1699999999998,0.31781127862672687
241,1905.46072,0.3174334210612916
242,1913.96,0.30657506945278323
243,1922.8,0.2991913650259564
244,1936.13,0.3092389521289426
245,1945.0600000000002,0.3143415753719784
246,1954.04,0.2968102584316045
247,1967.59,0.3129699687275883
248,1976.67,0.3192703714203951
249,1985.79,0.3062201419664742
250,1994.96,0.3011562723291436
251,2004.17,0.3071392705450854
252,2013.4199999999998,0.3025279366142994
253,2022.71,0.30962007053678564
254,2036.73,0.29468490310871864
255,2046.1299999999999,0.29903624862770367
256,2055.58,0.2821696539632791
257,2065.06,0.2872009351888087
258,2074.6,0.30336606819424666
259,2079.38,0.2887131266602837
260,2084.17,0.29622537708963886
261,2093.79,0.2854546458016214
262,2103.46,0.2886880743301943
263,2113.17,0.2900341707120395
264,2122.92,0.29090863494715696
265,2132.72,0.28308645899886475
266,2142.56,0.27966685090384485
267,2157.42,0.28540570839449564
268,2167.3700000000003,0.28098051189597445
269,2177.3799999999997,0.2794227671773618
270,2187.43,0.2741529903120213
271,2187.7616199999998,0.27431692823343645
272,2197.53,0.27933808830840784
273,2202.59,0.2758413369308707
274,2212.76,0.2694564773440026
275,2222.97,0.2645628722916994
276,2233.23,0.26906481040760233
277,2243.54,0.2650458916917114
278,2253.9,0.25892141614402664
279,2264.2999999999997,0.26154489513090684
280,2274.75,0.2619939172859932
281,2285.25,0.2628855826092857
282,2295.8,0.2525243911007843
283,2306.4,0.2542256427604891
284,2317.04,0.24877034895475883
285,2322.38,0.22282557931917615
286,2333.1,0.24004139458257573
287,2343.8700000000003,0.23804155301418145
288,2354.69,0.24199065461399333
289,2365.56,0.23524289938201137
290,2376.48,0.23520108731823552
291,2387.4500000000003,0.2282903184226659
292,2392.9500000000003,0.2326230669253429
293,2404.0,0.2280173070989031
294,2415.09,0.2287109018070282
295,2426.2400000000002,0.2317091283170007
296,2437.44,0.22595349799517936
297,2443.06,0.22989471010155116
298,2454.33,0.22792830021521843
299,2465.66,0.22559802213073307
300,2477.04,0.2218109872144539
301,2482.75,0.22232299702359676
302,2494.21,0.2054222711764474
303,2505.73,0.22141877713114544
304,2511.5,0.2111752187421357
305,2511.88643,0.21148902919328097
306,2517.29,0.21593380135782186
307,2523.1,0.21257802320885916
308,2534.74,0.21224305390525744
309,2546.4399999999996,0.2091265455846269
310,2552.31,0.21314412841863534
311,2564.09,0.2106975680752996
312,2575.9300000000003,0.21352636871493497
313,2587.82,0.21176993684037965
314,2593.78,0.21018966114884474
315,2605.7599999999998,0.20672447074874611
316,2617.78,0.20467385433729487
317,2623.82,0.20620312662305482
318,2635.9300000000003,0.20723525168606027
319,2642.01,0.21126869796046766
320,2654.2,0.21198587100076793
321,2666.4500000000003,0.20360540502403934
322,2672.6,0.2058248057785797
323,2684.94,0.20547318127630781
324,2697.33,0.20002152425984515
325,2703.55,0.2005085794945185
326,2716.0299999999997,0.1968329639525126
327,2722.29,0.19567219317583331
328,2734.85,0.19727272561112222
329,2747.48,0.18888571252654407
330,2753.81,0.1893269962299978
331,2766.52,0.1902186311227145
332,2772.8999999999996,0.19258558231197753
333,2785.7,0.18871465867915088
334,2792.1200000000003,0.1765312838570613
335,2805.01,0.1799321016986914
336,2817.9500000000003,0.18809208702613073
337,2824.45,0.189168760181336
338,2837.49,0.18441158048039388
339,2844.03,0.18299852762424654
340,2857.15,0.18019869590059928
341,2863.7400000000002,0.1845763105302612
342,2876.96,0.1835725137782325
343,2883.5899999999997,0.18276560239654183
344,2884.0315,0.1827222367049529
345,2896.9,0.1815741127817219
346,2910.27,0.18470449956580115
347,2930.45,0.18089987393399254
348,2950.76,0.17777093426193943
349,2971.21,0.17736026408500752
350,2991.81,0.1754585469385627
351,3012.5499999999997,0.1738651992872391
352,3033.43,0.17285732113103675
353,3047.43,0.17141097064316163
354,3068.5499999999997,0.17040919733573856
355,3089.8199999999997,0.16826507705880256
356,3111.2400000000002,0.1675471098123536
357,3132.81,0.1645862955963917
358,3147.27,0.16373858773534353
359,3169.0800000000004,0.1621974783681609
360,3191.05,0.15770830556683113
361,3213.17,0.15806038579598844
362,3227.9999999999995,0.154600368743475
363,3250.38,0.15676802089214315
364,3272.91,0.15711172607129842
365,3288.02,0.15521204800902744
366,3310.81,0.15343752510769357
367,3311.31121,0.15361827847904475
368,3318.4399999999996,0.1562341730588483
369,3326.0899999999997,0.15639767894854378
370,3333.76,0.15655567818697047
371,3341.44,0.15119132409976282
372,3349.14,0.1568815633612864
373,3356.8700000000003,0.15148864264590678
374,3364.6,0.1468283219305272
375,3372.3599999999997,0.14549114123824447
376,3380.13,0.15039140722032732
377,3387.9300000000003,0.15314091322550702
378,3395.73,0.15094671923068675
379,3403.56,0.15057736525896329
380,3411.4100000000003,0.14716930463597108
381,3419.27,0.1485684906873445
382,3427.15,0.14973437008744914
383,3435.06,0.1503960895106506
384,3442.9700000000003,0.1444934089338521
385,3450.91,0.1471143683801504
386,3458.87,0.14476292117517997
387,3466.84,0.14415902064457514
388,3474.83,0.14602731346270154
389,3482.8399999999997,0.14271209962955916
390,3490.87,0.14605157914514802
391,3498.9199999999996,0.14248635200946813
392,3506.98,0.14433297154815383
393,3515.07,0.13986163110993635
394,3523.17,0.14312073734608452
395,3531.2900000000004,0.1417891369309639
396,3539.4300000000003,0.14436982986457453
397,3547.5899999999997,0.1460078161469164
398,3555.77,0.14438949577798948
399,3563.9700000000003,0.14328376875779378
400,3572.18,0.13881708841196372
401,3580.42,0.1361329480892305
402,3588.67,0.13106734444086288
403,3596.95,0.13636140081559212
404,3605.2400000000002,0.13788089386468697
405,3613.5499999999997,0.13543451026251305
406,3614.78,0.1342616912094837
407,3617.52,0.1345848199856622
408,3620.26,0.14732339876184072
409,3622.99,0.13908614086365362
410,3625.7299999999996,0.15267712963983215
411,3628.47,0.13709051841601066
412,3631.2,0.13920386051782357
413,3633.94,0.14188834929400207
414,3636.68,0.14552573807018057
415,3639.4100000000003,0.1417411801719935
416,3642.15,0.136415068948172
417,3644.89,0.1464111577243505
418,3647.62,0.1408740998261634
419,3650.36,0.13940768860234193
420,3653.1000000000004,0.13108501737852044
421,3655.84,0.13459539615469895
422,3658.5699999999997,0.13396623825651185
423,3661.31,0.13364874703269036
424,3664.0499999999997,0.1334636258088689
425,3666.78,0.14087142791068177
426,3669.52,0.1337982266868603
427,3672.2599999999998,0.12851986546303884
428,3674.9900000000002,0.1344451975648517
429,3677.73,0.13516543634103023
430,3680.4700000000003,0.13697102511720874
431,3683.2,0.12960731721902166
432,3685.9399999999996,0.12883981599520017
433,3688.68,0.1405036447713787
434,3691.42,0.14005373354755718
435,3694.15,0.1344425756493701
436,3696.89,0.13548046442554862
437,3699.6299999999997,0.13041915320172712
438,3702.36,0.12498788530354002
439,3705.1,0.12648112407971854
440,3707.84,0.12688369285589704
441,3710.57,0.13915711495770994
442,3713.3100000000004,0.15566000373388844
443,3716.05,0.21304129251006698
444,3718.79,0.28848688128624544
445,3721.52,0.4543792233880584
446,3724.2599999999998,0.6831197121642368
447,3726.9999999999995,0.7393034009404155
448,3729.73,0.5581888430422284
449,3732.47,0.3291773318184068
450,3735.21,0.19269732059458536
451,3737.94,0.15328126269639825
452,3740.6800000000003,0.14116245147257675
453,3743.42,0.14116264024875527
454,3746.1499999999996,0.13110933235056818
455,3748.89,0.1332273011267467
456,3751.63,0.1378283599029252
457,3754.3700000000003,0.14259874867910372
458,3757.1,0.14917539078091663
459,3759.8399999999997,0.14670827955709514
460,3762.58,0.14636436833327365
461,3765.31,0.14486691043508654
462,3768.05,0.14448589921126506
463,3770.79,0.14247418798744357
464,3773.52,0.14262863008925647
465,3776.26,0.153185918865435
466,3779.0,0.15684980764161352
467,3781.73,0.1538593497434264
468,3784.47,0.15010583851960493
469,3787.2099999999996,0.16059422729578346
470,3789.9500000000003,0.14876661607196195
471,3792.68,0.14487615817377486
472,3795.42,0.13511334694995336
473,3798.16,0.14046613572613187
474,3800.8900000000003,0.14347957782794477
475,3801.8939600000003,0.14608111254609543
476,3803.63,0.15058738660064452
477,3806.37,0.15032965988321007
478,3809.1000000000004,0.1506762420224086
479,3811.84,0.1571531153049741
480,3814.5800000000004,0.15575188858753966
481,3817.32,0.14786486187010522
482,3820.0499999999997,0.15132994400930372
483,3822.79,0.15014041729186928
484,3825.5299999999997,0.14456189057443483
485,3828.26,0.14131887271363333
486,3831.0,0.14074884599619888
487,3833.74,0.13825161927876445
488,3836.4700000000003,0.14222490141796296
489,3839.21,0.1391822747005285
490,3841.9500000000003,0.14651154798309404
491,3844.68,0.14903953012229257
492,3847.4199999999996,0.1519108034048581
493,3850.1600000000003,0.15629637668742363
494,3852.9,0.1585694499699892
495,3855.63,0.1635487321091877
496,3858.37,0.16991970539175327
497,3861.1099999999997,0.17451167867431883
498,3863.84,0.18004696081351731
499,3866.58,0.18404593409608286
500,3869.32,0.18298870737864842
501,3872.05,0.17124298951784694
502,3874.79,0.15415946280041248
503,3877.53,0.15349413608297802
504,3880.27,0.15389300936554356
505,3883.0,0.1617735915047421
506,3885.74,0.16909756478730764
507,3888.4800000000005,0.1601569380698732
508,3891.21,0.15452092020907168
509,3893.95,0.14638509349163725
510,3896.69,0.1493146667742028
511,3899.42,0.1506831489134013
512,3902.16,0.15648762219596685
513,3904.9,0.1599253954785324
514,3907.63,0.16395697761773093
515,3910.3700000000003,0.15836775090029648
516,3913.11,0.15994192418286202
517,3915.8500000000004,0.15738119746542756
518,3918.58,0.15937967960462607
519,3921.3199999999997,0.15675545288719162
520,3924.06,0.14995912616975718
521,3926.79,0.14224230830895568
522,3929.5299999999997,0.13819378159152124
523,3932.27,0.13659135487408677
524,3935.0,0.13963803701328528
525,3937.7400000000002,0.14996931029585084
526,3940.48,0.15196708357841637
527,3943.2099999999996,0.1526101657176149
528,3945.95,0.15740873900018046
529,3948.69,0.152147812282746
530,3951.4300000000003,0.15721098556531152
531,3954.16,0.15092896770451006
532,3956.8999999999996,0.1452339409870756
533,3959.64,0.14522511426964113
534,3962.37,0.14935189640883967
535,3965.11,0.1492477696914052
536,3967.85,0.15858364297397076
537,3970.5800000000004,0.14946372511316927
538,3973.32,0.1446951983957348
539,3976.06,0.14960497167830036
540,3978.8,0.1502685449608659
541,3981.5299999999997,0.14878322710006442
542,3984.27,0.15691730038262997
543,3987.01,0.16085277366519551
544,3989.74,0.15915045580439405
545,3992.48,0.16009992908695958
546,3995.22,0.16254770236952512
547,3997.9500000000003,0.16612928450872366
548,4000.69,0.16382255779128918
549,4003.43,0.16174363107385475
550,4006.1600000000003,0.16279441321305324
551,4008.9,0.15948178649561878
552,4011.6400000000003,0.16406855977818433
553,4014.38,0.1704765330607499
554,4017.1099999999997,0.16264861519994842
555,4019.85,0.17018428848251396
556,4022.5899999999997,0.1717796617650795
557,4025.32,0.168176643904278
558,4028.06,0.16749011718684356
559,4030.7999999999997,0.15872959046940913
560,4033.53,0.16622377260860763
561,4036.27,0.16897324589117318
562,4039.01,0.1628123191737387
563,4041.74,0.16076580131293725
564,4044.4799999999996,0.1685609745955028
565,4047.2200000000003,0.16818154787806833
566,4049.96,0.17022692116063387
567,4052.69,0.1624784032998324
568,4055.43,0.16401017658239794
569,4058.1699999999996,0.16894634986496349
570,4060.9,0.16340033200416199
571,4063.64,0.16700220528672757
572,4066.38,0.1705300785692931
573,4069.11,0.16652466070849162
574,4071.8500000000004,0.16235973399105716
575,4074.59,0.1632456072736227
576,4077.33,0.16263848055618824
577,4080.06,0.15828896269538678
578,4082.7999999999997,0.1585395359779523
579,4085.5399999999995,0.15533290926051785
580,4088.27,0.14953799139971638
