,lambda (Angstroms),Total Flux (erg/s/cm^2/Angstrom)
0,102.01,1.8482424399238006e-05
1,103.9,2.1596301865219684e-05
2,104.712855,2.293838060019147e-05
3,106.08,2.1082658918671584e-05
4,108.05,1.841560383798097e-05
5,110.06,1.5765278526717954e-05
6,113.93,1.0538198643838422e-05
7,117.92999999999999,5.123436686598621e-06
8,120.22644299999999,2.538594747791081e-06
9,120.96000000000001,2.6702717425921157e-06
10,124.92,2.6005758314053263e-06
11,126.95,2.555284455216138e-06
12,128.12,2.5371459132745863e-06
13,131.10999999999999,2.4693618616461778e-06
14,132.02,2.589094106802747e-06
15,133.85,2.560453412996731e-06
16,136.97,2.66367196781926e-06
17,138.038426,2.6553900498322275e-06
18,139.84,2.7514691465338153e-06
19,143.1,4.38454294645676e-06
20,147.11,6.8356455531104436e-06
21,150.88,7.340382861610291e-06
22,155.11,7.917929491571656e-06
23,158.489319,8.467268951310747e-06
24,159.09,8.564194550963935e-06
25,162.04,9.042813485610992e-06
26,165.82,9.740893578141799e-06
27,170.07000000000002,1.0379175772124849e-05
28,172.82999999999998,1.0918942538099723e-05
29,176.86,1.1587885642041296e-05
30,180.15,1.2110311352206997e-05
31,181.82,1.2492723308430926e-05
32,181.970086,1.251799189784678e-05
33,186.05,1.3223418737978733e-05
34,190.82,1.4125892877037208e-05
35,193.92,1.4749710514580452e-05
36,197.98,1.550695961407257e-05
37,202.13,1.63036982256224e-05
38,204.93999999999997,1.690879521320192e-05
39,208.929613,1.7236342385078313e-05
40,210.20000000000002,1.7347766664065425e-05
41,216.09,1.9120475829565857e-05
42,220.10999999999999,1.998789863861709e-05
43,223.17,2.0466195403715785e-05
44,226.79000000000002,2.1439252361120126e-05
45,229.95000000000002,3.1975810589130545e-05
46,234.21999999999997,5.258570205546108e-05
47,239.88329199999998,6.811592336248083e-05
48,240.23,6.90624412343651e-05
49,245.83,6.608872626935804e-05
50,252.13,7.011295943372512e-05
51,256.82,5.626105790053171e-05
52,259.8,6.816821479415295e-05
53,264.02,7.216048294552264e-05
54,268.93,7.213041453870396e-05
55,273.92,7.194530363238517e-05
56,275.42287,7.169406816401029e-05
57,279.02,7.113387328719446e-05
58,284.2,7.165739312038028e-05
59,290.16,6.847605914466357e-05
60,296.23,6.883495475999909e-05
61,301.05,6.518176865883222e-05
62,308.06,6.65788253249775e-05
63,316.227766,6.77441244793381e-05
64,318.15000000000003,6.799870436281603e-05
65,327.82,6.71838465491739e-05
66,337.78000000000003,6.547377433367489e-05
67,348.04,6.380601446108251e-05
68,356.96999999999997,6.34741475349373e-05
69,363.078055,6.393418423481389e-05
70,366.13,6.41875500421352e-05
71,374.65999999999997,6.2909176419935e-05
72,385.15000000000003,5.944462955042973e-05
73,395.03000000000003,6.141387338544287e-05
74,405.16,6.201102119401403e-05
75,413.65,6.133323253604456e-05
76,416.86938299999997,6.088049481041584e-05
77,422.31,6.010804078901789e-05
78,430.15999999999997,5.930821094488454e-05
79,441.2,6.0697912437976e-05
80,451.46999999999997,6.113940429794422e-05
81,459.87,6.032141847747032e-05
82,469.5,6.145184401899847e-05
83,478.630092,6.411452190406728e-05
84,480.43,6.463101692758001e-05
85,490.49,6.40161102790951e-05
86,499.60999999999996,7.011094001724794e-05
87,506.56,7.644816269051136e-05
88,512.43,0.0001327323835526777
89,519.5500000000001,0.00013579687475176195
90,530.43,0.00013924078040429514
91,540.3000000000001,0.00013388326834459872
92,549.5408739999999,0.00015700812889034155
93,550.34,0.00015900933632540448
94,560.57,0.00019462049371735278
95,569.68,0.00021981701921497244
96,580.27,0.00022183396543009782
97,589.7,0.0002540456143260971
98,600.66,0.0002522977407205989
99,610.42,0.00027469040437117713
100,620.34,0.0003394022297209452
101,630.42,0.0003570069167699031
102,630.957344,0.0003586221592091843
103,640.67,0.0003878378688348598
104,649.58,0.00041939795016839845
105,658.61,0.00042818587131787704
106,664.71,0.0004738025786281561
107,675.51,0.0005088305620627484
108,684.91,0.0004938675143113751
109,694.4300000000001,0.0005977920063759416
110,705.7199999999999,0.0005579432607256221
111,715.5400000000001,0.0006926259023300385
112,724.43596,0.0007278135753441071
113,725.49,0.0007319822660538303
114,735.5799999999999,0.0007700255549599116
115,745.8199999999999,0.0008174870433046362
116,754.4499999999999,0.0008599672643412547
117,764.9499999999999,0.0008599671250462946
118,775.59,0.0009648519785607351
119,784.5699999999999,0.000991873031620855
120,795.4799999999999,0.0010652124641248536
121,804.7,0.001123147576286803
122,815.89,0.001173336994409603
123,825.3399999999999,0.0012543352590441387
124,831.763771,0.0011472145598541944
125,834.89,0.0010950759994736163
126,844.5600000000001,0.0013347780243333277
127,854.3399999999999,0.0013752978902203986
128,864.23,0.0014668185971348292
129,874.24,0.0015394581306245611
130,884.36,0.001615714505141653
131,894.61,0.001684006691781988
132,904.9599999999999,0.0017113527339017412
133,915.44,0.002029175588144737
134,926.0400000000001,0.008341675268963034
135,934.61,0.016566738883549148
136,945.4300000000001,0.029596273246422167
137,954.1800000000001,0.03937598060087123
138,954.992586,0.039866904177632084
139,965.23,0.046051847088010654
140,974.1600000000001,0.01102176504815337
141,985.44,0.04317328247149153
142,994.5600000000001,0.04268229038823303
143,1006.08,0.055361777756748595
144,1015.39,0.05190804563008887
145,1024.78,0.023781353485154942
146,1034.26,0.039832211319662546
147,1043.83,0.06640888913361168
148,1055.92,0.06474936637192359
149,1065.69,0.05422683414018723
150,1075.55,0.0616909518878924
151,1085.5,0.051667369615039094
152,1095.55,0.06312768731934304
153,1096.4782,0.0628170357765474
154,1105.69,0.059734010521463494
155,1115.92,0.058107463207661865
156,1126.24,0.052267255829515934
157,1134.05,0.062121120245860924
158,1144.54,0.057177552746175773
159,1155.13,0.059186915174996954
160,1165.8200000000002,0.06028948753232448
161,1173.8999999999999,0.04407932175563658
162,1184.76,0.058107703991424876
163,1195.73,0.04541911614857014
164,1204.01,0.03558201022889492
165,1215.15,0.02204137226450096
166,1226.4,0.041611264221463974
167,1234.9,0.05626416814450269
168,1246.33,0.059733529972777116
169,1254.96,0.05757706380287408
170,1258.92541,0.05521171213462736
171,1263.66,0.05238755120862524
172,1275.3600000000001,0.06056664180360504
173,1284.2,0.061549042253145336
174,1296.08,0.05202508285727868
175,1305.0600000000002,0.05214597331393839
176,1314.11,0.059870963774157814
177,1326.27,0.057044354392529986
178,1335.46,0.05250859485986883
179,1344.72,0.05784154533076737
180,1354.04,0.0563924458047171
181,1366.57,0.05214565644190487
182,1376.04,0.05287023692348255
183,1385.58,0.05311578740861992
184,1395.18,0.04500114789680848
185,1404.85,0.04605176838855675
186,1414.59,0.04956998888386472
187,1424.4,0.0491143493827324
188,1434.27,0.04968656988465127
189,1440.8899999999999,0.05095855022129796
190,1445.43977,0.050798761161915416
191,1447.54,0.050725000542305915
192,1454.22,0.049569630827410845
193,1464.31,0.046800001258055876
194,1474.46,0.04669118169126174
195,1484.6799999999998,0.046582362127455215
196,1494.9699999999998,0.046474142566636324
197,1505.33,0.04417947300880506
198,1512.28,0.0405725833054337
199,1515.76,0.042191303453961417
200,1526.2700000000002,0.04180467390253221
201,1533.32,0.03725853420342889
202,1543.94,0.03743121465669452
203,1554.6499999999999,0.036159725113801396
204,1565.4199999999998,0.03777702557346908
205,1576.27,0.0396491460365512
206,1583.55,0.040295086347264364
207,1594.5300000000002,0.040665196815894936
208,1605.5800000000002,0.039649027287513135
209,1616.71,0.039375857762545756
210,1624.17,0.03821481808094139
211,1635.4299999999998,0.039740198561522465
212,1646.76,0.03955763904509117
213,1654.3700000000001,0.03812680936988886
214,1659.58691,0.038902954694956915
215,1665.8300000000002,0.03983177153843744
216,1673.52,0.03743079393530911
217,1677.3799999999999,0.04001543513842025
218,1685.12,0.040295057550876257
219,1696.8,0.03856829119137834
220,1704.64,0.037259003635003035
221,1716.4499999999998,0.03558211731602441
222,1724.3700000000001,0.035174939784584046
223,1736.3300000000002,0.036578713512358446
224,1744.3400000000001,0.035746446008969895
225,1756.4299999999998,0.036748049777263585
226,1764.54,0.034932742305043715
227,1776.77,0.034852306116973555
228,1784.9699999999998,0.0351749086728055
229,1793.21,0.03607718124110492
230,1805.64,0.035993885115372125
231,1813.98,0.03359125771484022
232,1826.5500000000002,0.03421603163274359
233,1834.98,0.033283464260263504
234,1843.45,0.03106233690025089
235,1856.23,0.030848170883608483
236,1864.8000000000002,0.031349503554764555
237,1873.4,0.03282729623527123
238,1886.39,0.030354890284083055
239,1895.1000000000001,0.02892232299887528
240,1903.84,0.030706485723018113
241,1905.46072,0.030536801755447898
242,1917.0400000000002,0.029324481575993534
243,1925.89,0.028459878020348658
244,1934.7800000000002,0.029664344448633074
245,1943.7099999999998,0.03021558086084678
246,1957.18,0.02813423544903475
247,1966.2199999999998,0.029938591817054
248,1975.2900000000002,0.030706588173020216
249,1984.41,0.02912270450889804
250,1993.5700000000002,0.028394130828705157
251,2002.7700000000002,0.02912275713244156
252,2016.65,0.028525551555904742
253,2025.96,0.029392257815446687
254,2035.31,0.027748254058917926
255,2044.71,0.028069220282300772
256,2054.15,0.026135406489612906
257,2063.63,0.02680604268085433
258,2073.15,0.028525578856025045
259,2077.93,0.026929746935575045
260,2082.7200000000003,0.027684235011107367
261,2097.1600000000003,0.02637742920958059
262,2106.84,0.026867705320468463
263,2116.56,0.026929671415285617
264,2126.33,0.027116427490014385
265,2136.15,0.026195783544654763
266,2146.0099999999998,0.02583627958322443
267,2155.91,0.026499085605723387
268,2165.87,0.025895781604116274
269,2175.86,0.02571765759045613
270,2185.91,0.025132313552689918
271,2187.7616199999998,0.025239712274080842
272,2196.0,0.025717565447739656
273,2206.13,0.025190198692646562
274,2216.31,0.024560391953569797
275,2226.5499999999997,0.023945845233712616
276,2236.8199999999997,0.024447168523465228
277,2247.15,0.023945961832437426
278,2257.52,0.023293385154222686
279,2262.72,0.02356316681992021
280,2273.17,0.023617450167331584
281,2283.6600000000003,0.023671943527556014
282,2294.2000000000003,0.022660276903796767
283,2304.79,0.022726430296053843
284,2315.43,0.022120533704327244
285,2326.1200000000003,0.019233407128616962
286,2336.85,0.02129737056571974
287,2347.64,0.021017944022042108
288,2353.0499999999997,0.021366195755008185
289,2363.91,0.020701119233753406
290,2374.83,0.020713922731718206
291,2385.79,0.020023256242496068
292,2396.8,0.020549709769290252
293,2402.32,0.019996011537492243
294,2413.41,0.02005471508991254
295,2424.55,0.020299778658349164
296,2435.7400000000002,0.019713752242802106
297,2446.99,0.020092865846474635
298,2452.63,0.019869087653115798
299,2463.95,0.019654041279211183
300,2475.32,0.019263634921322888
301,2486.75,0.019454508582654177
302,2492.48,0.01791279041812472
303,2503.98,0.019339474101878862
304,2511.88643,0.018665152540235486
305,2515.54,0.018353546181567
306,2527.15,0.018450604742219934
307,2532.98,0.018371584019447034
308,2544.67,0.01804838257018199
309,2556.4199999999996,0.018395681113478456
310,2562.31,0.018191340383267068
311,2574.14,0.018499188916645558
312,2586.02,0.018341827443825308
313,2597.95,0.018186075964806314
314,2603.94,0.01781896522219745
315,2615.96,0.01766763373202073
316,2621.9900000000002,0.017714342984452874
317,2634.1,0.017726301483118427
318,2646.25,0.018109689976824987
319,2652.35,0.0180741392205789
320,2664.6,0.017432497701887983
321,2676.8999999999996,0.01756522617699833
322,2683.07,0.017490485412074007
323,2695.45,0.017065003877266366
324,2707.89,0.01707709233502025
325,2714.14,0.016732381560177943
326,2726.6600000000003,0.016629060008013837
327,2732.9500000000003,0.016750109228212545
328,2745.5600000000004,0.016007527664890712
329,2751.8900000000003,0.015976136880130425
330,2764.6,0.016098385304411114
331,2777.3599999999997,0.016296033722493067
332,2783.76,0.016041212929054548
333,2796.61,0.014912471335978771
334,2803.05,0.015300630537581262
335,2815.99,0.015922958933347754
336,2822.48,0.015855318128751503
337,2835.5099999999998,0.01539882651336027
338,2842.0499999999997,0.01526315570256528
339,2855.17,0.015134334076016316
340,2861.75,0.01538591326026234
341,2874.9599999999996,0.015255871622555645
342,2884.0315,0.015215400806886126
343,2888.23,0.015196670487266216
344,2894.89,0.015097640470368654
345,2908.25,0.015248670436472041
346,2928.4100000000003,0.014918150385322662
347,2948.71,0.014628680333818079
348,2969.1499999999996,0.014544200281958292
349,2989.73,0.014327980229743301
350,3010.4500000000003,0.014179890177173107
351,3031.32,0.014066010124222336
352,3052.33,0.01388923007091636
353,3073.49,0.01374596001722981
354,3087.67,0.013536679981252717
355,3109.0800000000004,0.013428329926931873
356,3130.6299999999997,0.013168299872255826
357,3152.33,0.013062849817199204
358,3166.88,0.012894139780283356
359,3188.8300000000004,0.012528709724592439
360,3210.9300000000003,0.012515029668520947
361,3233.19,0.012273089612043509
362,3248.12,0.012311279574163538
363,3270.63,0.012269809517051805
364,3293.3,0.012116099459534124
365,3308.5,0.011959849420969117
366,3311.31121,0.01199231180147903
367,3323.77,0.012136178809573482
368,3331.44,0.012169158437571218
369,3339.12,0.011679708065083946
370,3346.81,0.012012247692111665
371,3354.53,0.011609267317684354
372,3362.26,0.011480826942772035
373,3370.0099999999998,0.011328296566889695
374,3377.78,0.011255006190037338
375,3385.57,0.011548425812214961
376,3393.37,0.011686935433907574
377,3401.19,0.01190918505463017
378,3409.03,0.011299694674382745
379,3416.8900000000003,0.011409224293165302
380,3424.77,0.01159959391097784
381,3432.67,0.011765813527820359
382,3440.58,0.011476413144177869
383,3448.51,0.011194192759565359
384,3456.46,0.010969202373982832
385,3464.43,0.010724021987430285
386,3472.4100000000003,0.011054541600392728
387,3480.42,0.010782791211900143
388,3488.44,0.010962760822922548
389,3496.48,0.010916890432974934
390,3504.54,0.010697880042057302
391,3512.6200000000003,0.010604109650169651
392,3520.72,0.010781199257311979
393,3528.8399999999997,0.01054043886348429
394,3536.97,0.010790448469171592
395,3545.13,0.010845158073403865
396,3553.2999999999997,0.010874567677151128
397,3561.49,0.010829507279928374
398,3569.7000000000003,0.010514686881735598
399,3577.9300000000003,0.010162076482572805
400,3586.18,0.009981300082439993
401,3594.44,0.010124685681822171
402,3602.73,0.010388715279749322
403,3611.03,0.010180224877191462
404,3619.3599999999997,0.010350054473178572
405,3627.7,0.010571474068680675
406,3634.75,0.012403843726749
407,3637.49,0.009404897593856406
408,3640.23,0.011720343460963812
409,3642.97,0.014030963328071216
410,3645.7099999999996,0.015241433195178622
411,3648.46,0.009629895061801019
412,3651.2,0.011568952928908423
413,3653.94,0.010089212796015826
414,3656.68,0.015075542663123232
415,3659.42,0.009040597530230638
416,3662.16,0.009819529397338043
417,3664.8999999999996,0.009712056264445448
418,3667.64,0.009128372131552855
419,3670.39,0.00923701599817525
420,3673.13,0.009024881865282657
421,3675.87,0.011802041732390061
422,3678.61,0.012675971599497467
423,3681.35,0.014132791466604873
424,3684.0899999999997,0.0032041403337122777
425,3686.83,0.013613131200819684
426,3689.58,0.00889968006744208
427,3692.32,0.010040500934549485
428,3695.06,0.008345388801656889
429,3697.8,0.008859847668764294
430,3700.54,0.009455620535871699
431,3703.2799999999997,0.009228591402979104
432,3706.02,0.01250049027008651
433,3708.77,0.009360187136708907
434,3711.51,0.010937760003816311
435,3714.25,0.014640779870923718
436,3716.9900000000002,0.015518329738031123
437,3719.73,0.02857287960513853
438,3722.47,0.05433980947224593
439,3725.21,0.10271373933935334
440,3727.95,0.12195953920646076
441,3730.7000000000003,0.10116353907308313
442,3733.44,0.052101538940190546
443,3736.18,0.02301853880729795
444,3738.92,0.013647308674405357
445,3741.66,0.00956269654151276
446,3744.4,0.009166599408620166
447,3747.14,0.011402348275727572
448,3749.8900000000003,0.011625298142349968
449,3752.63,0.011715478009457374
450,3755.37,0.007078979876564779
451,3758.11,0.011369707743672184
452,3760.85,0.011007027610779591
453,3763.59,0.009680644477886996
454,3766.33,0.012090287344994401
455,3769.0699999999997,0.013506857212101805
456,3771.82,0.0134673470787242
457,3774.56,0.012769346945831607
458,3777.3,0.012466236812939012
459,3780.04,0.012058466680046417
460,3782.78,0.010534846547153823
461,3785.52,0.009106617414261229
462,3788.2599999999998,0.012149066281368633
463,3791.01,0.01081900614799103
464,3793.75,0.010129056015098436
465,3796.4900000000002,0.01400596588220584
466,3799.23,0.013270925749313246
467,3801.8939600000003,0.0106342469039042
468,3801.9700000000003,0.010558985617189093
469,3804.71,0.010813805511986253
470,3807.45,0.010252665406783412
471,3810.19,0.009683879301580572
472,3812.94,0.00768520419599378
473,3815.6800000000003,0.00780758209079094
474,3818.42,0.011294424985588102
475,3821.1600000000003,0.00916296288038526
476,3823.9,0.00889487277518242
477,3826.64,0.009045027669979581
478,3829.38,0.011195434564776742
479,3832.13,0.011884134459189948
480,3834.8700000000003,0.015017954353987109
481,3837.61,0.012760084248784267
482,3840.3500000000004,0.012385734143581429
483,3843.09,0.011151934038378589
484,3845.83,0.010643933933175748
485,3848.57,0.012331013827972907
486,3851.3199999999997,0.010621353722386116
487,3854.0600000000004,0.012446493617183276
488,3856.8,0.013542633511980436
489,3859.5400000000004,0.012762103406777596
490,3862.28,0.021103653301574758
491,3865.02,0.03378867319637192
492,3867.76,0.041096103091169074
493,3870.5,0.03510021298596624
494,3873.2499999999995,0.023501152880379444
495,3875.9900000000002,0.012779802775176605
496,3878.73,0.010160862669973764
497,3881.4700000000003,0.013664212564770923
498,3884.21,0.017643382459568084
499,3886.9500000000003,0.022244482354365245
500,3889.69,0.023665892249162403
501,3892.4399999999996,0.017362752143575612
502,3895.18,0.013192812038372772
503,3897.92,0.010413651933169931
504,3900.6600000000003,0.00863562082796709
505,3903.4,0.01024862172276425
506,3906.1400000000003,0.008897285617561411
507,3908.88,0.011463921512358572
508,3911.62,0.010399191407155731
509,3914.37,0.01226816130156894
510,3917.1099999999997,0.009418962196366098
511,3919.85,0.010707511091163259
512,3922.59,0.01217963098596042
513,3925.3300000000004,0.008851795880757579
514,3928.07,0.009228583775554739
515,3930.81,0.0087680776703519
516,3933.56,0.009709991564765107
517,3936.2999999999997,0.008826011459562267
518,3939.04,0.009327587354359427
519,3941.7799999999997,0.009673381249156586
520,3944.5200000000004,0.009735379143953747
521,3947.26,0.009236230038750907
522,3950.0,0.009823950933548067
523,3952.75,0.009706767827961276
524,3955.49,0.010448259722758436
525,3958.23,0.010232499617555594
526,3960.97,0.014030919512352755
527,3963.7099999999996,0.021126589407149916
528,3966.4500000000003,0.027093929301947074
529,3969.19,0.025974479196744234
530,3971.9300000000003,0.019757979091541394
531,3974.68,0.012249238985954602
532,3977.4199999999996,0.010485698880751763
533,3980.16,0.010034858775548921
534,3982.8999999999996,0.009560264670346081
535,3985.64,0.010610918565143243
536,3988.38,0.008652135459940404
537,3991.1200000000003,0.009018053354737562
538,3993.87,0.01015600824915077
539,3996.6099999999997,0.008941538143947929
540,3999.35,0.01182979803874509
541,4002.0899999999997,0.01085001793354225
542,4004.83,0.01187248782833941
543,4007.5699999999997,0.00927366172313657
544,4010.3100000000004,0.010171347617933731
545,4013.05,0.010227707512730892
546,4015.7999999999997,0.011972287407144098
547,4018.54,0.009296584301941259
548,4021.2799999999997,0.010492147196738418
549,4024.02,0.011706637091535578
550,4026.7599999999998,0.009629104986332739
551,4029.4999999999995,0.012407076881129898
552,4032.2400000000002,0.010639906775927058
553,4034.99,0.011118486670340266
554,4037.73,0.010315826565137425
555,4040.47,0.010793246459934586
