,lambda (Angstroms),Total Flux (erg/s/cm^2/Angstrom)
0,100.03,0.0010471677743262926
1,101.89,0.0012595119994420556
2,104.02,0.0015026803862681704
3,104.712855,0.0015817791809416022
4,105.96,0.0014629813642783966
5,107.93,0.0012753274035709257
6,109.92999999999999,0.0010848157683349174
7,114.05999999999999,0.000691409241572558
8,118.07,0.00030943341292435813
9,120.22644299999999,0.00010401967181273522
10,121.09,0.00010021342590143502
11,125.06,8.271510642992187e-05
12,127.09,7.376760302257382e-05
13,127.98,6.98448059622094e-05
14,130.96,5.6710047265708326e-05
15,131.85999999999999,5.2743173833879243e-05
16,134.01,4.326675396895395e-05
17,137.13,2.9514926071946103e-05
18,138.038426,2.5510913889520742e-05
19,140.0,2.5205560767548103e-05
20,142.93,2.4749455289304697e-05
21,146.94,2.4125229020445976e-05
22,151.05,2.3485436011715464e-05
23,154.93,2.2881446504690077e-05
24,158.489319,2.232737657475294e-05
25,158.9,2.2229150267444463e-05
26,161.85000000000002,2.1523571955908257e-05
27,166.01000000000002,2.052858694709796e-05
28,169.86999999999998,1.960535566488482e-05
29,173.03,1.8849549744731297e-05
30,177.06,1.7885658017449027e-05
31,179.94,1.7196822242123722e-05
32,181.970086,1.6711268122755806e-05
33,182.01999999999998,1.6715109893036872e-05
34,185.82999999999998,1.7008357173792808e-05
35,191.04,1.740935936092732e-05
36,194.14000000000001,1.7647959510748496e-05
37,198.20999999999998,1.7961218417351405e-05
38,201.9,1.8245229564217285e-05
39,205.18,1.8497683917550244e-05
40,208.929613,1.8786283348176356e-05
41,209.95,1.9263222272651627e-05
42,215.84,2.201626624156937e-05
43,219.85000000000002,2.3890579721646694e-05
44,222.91,2.5320853861449175e-05
45,227.04999999999998,2.7255930673745253e-05
46,230.21,2.8733575263826118e-05
47,233.95,3.0482110651636966e-05
48,239.88329199999998,3.3255877624715074e-05
49,239.95,3.323019828964488e-05
50,246.11,3.0858721182046083e-05
51,251.84,2.865301940795175e-05
52,257.11,2.6623931696048233e-05
53,260.09000000000003,2.547711784220335e-05
54,263.71,2.4083852825049536e-05
55,269.23,2.195901985775969e-05
56,274.24,2.0030682429137945e-05
57,275.42287,1.9575448627009648e-05
58,278.69,2.0919073056908187e-05
59,283.87,2.304954311782351e-05
60,289.82,2.549657124033434e-05
61,295.89,2.7993568571847076e-05
62,300.69,2.9968365800923045e-05
63,307.7,3.285355252261733e-05
64,316.227766,3.636518885264293e-05
65,317.78000000000003,3.589891164663547e-05
66,328.19,3.27763925515657e-05
67,338.15999999999997,2.97928817421473e-05
68,347.64000000000004,2.6967357278567884e-05
69,357.38,2.4123184358012698e-05
70,363.078055,2.2554607229128374e-05
71,365.7,2.323845758202458e-05
72,375.08,2.563363598953242e-05
73,384.7,2.8091598280174794e-05
74,394.57,3.1425108436582296e-05
75,404.69,3.529072985875494e-05
76,414.11999999999995,3.89543014794158e-05
77,416.86938299999997,4.001265740724489e-05
78,421.82,4.145299511459001e-05
79,429.65999999999997,4.432200267262317e-05
80,440.68,5.1092352288634074e-05
81,450.95000000000005,5.763582372115967e-05
82,460.39,6.205762827062817e-05
83,470.03000000000003,7.148892206902609e-05
84,478.630092,8.506673075412113e-05
85,479.87,8.662025444925205e-05
86,489.92,9.015209929046237e-05
87,500.18,0.00011582913202387709
88,505.97,0.00014770746105179826
89,511.83,0.0005206241393771209
90,520.15,0.0005681464444396951
91,529.82,0.0006244734788092974
92,539.67,0.0006065588370865035
93,549.5408739999999,0.0009108883952183977
94,549.6999999999999,0.0009158142618226302
95,559.92,0.0011942589236426373
96,570.33,0.0014552105531481438
97,579.6,0.001461194776540655
98,590.37,0.0018734887448186863
99,599.97,0.0019421331120860119
100,609.7099999999999,0.0023395450555426527
101,619.62,0.002891199770086319
102,629.6899999999999,0.003166961857417774
103,630.957344,0.0032015023035340388
104,639.92,0.0034470385235277185
105,650.32,0.003927576022583081
106,657.8499999999999,0.004168749748341434
107,665.4699999999999,0.004674661773610844
108,674.72,0.005007900001136046
109,685.69,0.004872924730428096
110,695.23,0.0064738614786000355
111,704.9,0.005962260770510165
112,716.35,0.007814713430527847
113,724.43596,0.008282566608661751
114,726.32,0.00839151118984825
115,734.73,0.008928058282793628
116,744.95,0.009854111901093478
117,755.3100000000001,0.010630014979917985
118,765.8199999999999,0.010852159980733194
119,774.6899999999999,0.012455009301116725
120,785.46,0.012892196300049152
121,794.56,0.01419816623415176
122,805.6099999999999,0.015211296154133497
123,814.9399999999999,0.01607368670195518
124,824.38,0.017621712325903382
125,831.763771,0.015545616919837753
126,835.85,0.01439609198008843
127,845.52,0.0190526691611942
128,855.31,0.019720014270090333
129,865.22,0.02156810730677681
130,875.24,0.023054219277271106
131,885.37,0.02481353018157323
132,895.62,0.026280629013665697
133,906.0,0.02658357476753105
134,914.3800000000001,0.03423695172489055
135,924.9699999999999,0.183304536352389
136,935.68,0.38828155890767785
137,944.33,0.7246810887025656
138,954.992586,1.0229134236257924
139,955.27,1.0306727116166288
140,964.11,1.117178571051883
141,975.27,0.18671169359684184
142,984.3000000000001,0.8672413500109082
143,995.69,0.9530686688986395
144,1004.91,1.4524859222915179
145,1014.2099999999999,1.422714774412317
146,1025.95,0.6443303877347022
147,1035.44,0.9640970368343132
148,1045.02,1.8928362845028355
149,1054.6899999999998,1.8412771307402687
150,1064.45,1.4031869755466124
151,1074.3,1.6947918189218676
152,1084.24,1.3005396608660336
153,1094.27,1.7787935013791105
154,1096.4782,1.7579428701954694
155,1104.3999999999999,1.6831420720205985
156,1114.6200000000001,1.5853385633996306
157,1124.93,1.3903380502996132
158,1135.34,1.8286125322228741
159,1145.8400000000001,1.6486410096670852
160,1153.79,1.7543796140177021
161,1164.46,1.7911400830014863
162,1175.24,1.1752135465108764
163,1186.11,1.738243005541217
164,1194.33,1.186132596454685
165,1205.3899999999999,0.8339057460292542
166,1213.74,0.625331830472984
167,1224.97,1.2137010715871261
168,1236.31,1.8160355072268741
169,1244.88,1.9503560807218159
170,1256.39,1.832795507901137
171,1258.92541,1.761817291945865
172,1265.1000000000001,1.588961403578326
173,1273.87,2.014286434623334
174,1285.66,2.0802244763588695
175,1294.57,1.5780645078994648
176,1303.54,1.5963025396524548
177,1315.6100000000001,2.004994582379165
178,1324.73,1.8797896146631414
179,1333.91,1.6486056471595125
180,1346.25,1.9684336908419982
181,1355.5800000000002,1.9016037238693557
182,1364.98,1.679252757144507
183,1374.44,1.7422987906320528
184,1383.97,1.7543708243673923
185,1393.5600000000002,1.4425348583151263
186,1406.46,1.4932199039799614
187,1416.2,1.592647938458682
188,1426.02,1.6222729732205954
189,1435.9099999999999,1.6334820082303023
190,1442.53,1.7065590316645043
191,1445.43977,1.7134481190459085
192,1445.86,1.7144430432133348
193,1455.8799999999999,1.656225072982854
194,1465.97,1.5209391029603436
195,1476.1299999999999,1.531535133145804
196,1486.37,1.549208163568945
197,1496.6699999999998,1.556373194170347
198,1503.58,1.449193214700025
199,1510.52,1.2827022353188338
200,1517.49,1.3712712560267726
201,1524.49,1.346254276823842
202,1535.06,1.1485023082274162
203,1545.7,1.1970753398389613
204,1556.42,1.1511023716881872
205,1563.6,1.208165393020038
206,1574.44,1.2827194252257852
207,1585.3500000000001,1.336968457639503
208,1596.34,1.3462464902909017
209,1603.71,1.3307925121872444
210,1614.83,1.3339015452248744
211,1626.02,1.2738695784704748
212,1633.53,1.3555716007827592
213,1644.85,1.364918634414591
214,1656.25,1.2856366682841034
215,1659.58691,1.325735431463455
216,1663.9,1.3775647717780406
217,1671.58,1.2621559384089183
218,1675.43,1.3871550219413247
219,1683.1599999999999,1.422732189657039
220,1694.83,1.3400154428578654
221,1706.5800000000002,1.28862569779443
222,1714.4499999999998,1.2026228685476863
223,1726.3400000000001,1.1915891265217928
224,1734.31,1.2680152994447222
225,1746.3300000000002,1.2363145602394037
226,1754.39,1.2975407351150388
227,1766.55,1.213705998947262
228,1774.6999999999998,1.2053621757756026
229,1787.01,1.2363094428623351
230,1795.25,1.2945556216433813
231,1803.54,1.297542801509264
232,1816.04,1.1725450727183753
233,1824.4299999999998,1.2136952547539308
234,1837.0700000000002,1.167120529000584
235,1845.55,1.071834712988845
236,1854.07,1.0595588978449753
237,1866.92,1.0867201766479417
238,1875.54,1.1833723636737448
239,1884.2,1.069336551567417
240,1892.89,1.011862740111991
241,1905.46072,1.0932593829896418
242,1906.01,1.0968159974936027
243,1914.8100000000002,1.030659751381143
244,1923.65,1.0025685041499908
245,1936.98,1.0619921313455492
246,1945.9199999999998,1.084232881317664
247,1954.91,0.9934107298914128
248,1968.46,1.0942462509341595
249,1977.5400000000002,1.1301249969908491
250,1982.1,1.0595658694598475
251,1995.8400000000001,1.0306654851888026
252,2005.05,1.0742642276097396
253,2014.31,1.0378189686323107
254,2023.6100000000001,1.0942457085361887
255,2032.95,1.0095414473213737
256,2047.04,1.040186053261765
257,2056.49,0.9685593889705444
258,2065.98,0.9888065235606307
259,2075.52,1.0669032567523506
260,2080.2999999999997,0.9842577230685374
261,2085.09,1.0306599891050507
262,2094.72,0.9730431197797116
263,2104.39,0.9934117493356793
264,2114.1,1.0025691777729542
265,2123.86,1.0118499048118625
266,2133.66,0.9663224307320781
267,2143.51,0.9552356552539274
268,2153.41,0.9934133783774103
269,2163.35,0.9730449003822004
270,2173.33,0.9640740212682973
271,2183.36,0.9334988407560281
272,2187.7616199999998,0.9488088008868313
273,2193.44,0.9685599442717976
274,2203.57,0.9486874701519452
275,2213.74,0.9164914969240184
276,2223.9500000000003,0.8874086245880173
277,2234.2200000000003,0.9164963535899044
278,2244.53,0.8935777834837171
279,2254.89,0.8632468144924368
280,2265.3,0.8833015466160633
281,2275.76,0.8914518798545968
282,2286.2599999999998,0.897562013985056
283,2296.81,0.847367949230422
284,2307.42,0.8512193858136764
285,2312.7400000000002,0.8166552044397757
286,2323.41,0.6699223423609184
287,2334.13,0.776240581396968
288,2344.91,0.772623721770906
289,2355.73,0.7906246630367697
290,2366.61,0.7602318056405215
291,2377.5299999999997,0.7601700491361989
292,2383.01,0.7327036713300005
293,2394.01,0.760169416609529
294,2405.06,0.7343213630039646
295,2416.16,0.741052310513307
296,2427.31,0.7548143591375565
297,2432.91,0.7274711840071346
298,2444.14,0.7513283344152353
299,2455.42,0.7409918859382426
300,2466.76,0.7358180387991384
301,2472.44,0.7157669654525677
302,2483.85,0.7290341198743334
303,2495.32,0.6542282756339872
304,2506.84,0.725602932508548
305,2511.88643,0.6860728222153406
306,2512.62,0.6803265387038607
307,2518.41,0.7090351887363526
308,2524.21,0.6865589386825449
309,2535.8599999999997,0.6881141381434311
310,2547.57,0.6693026370865194
311,2553.44,0.689670186428614
312,2565.23,0.6801378846813049
313,2577.07,0.7008171825024974
314,2583.01,0.6927835312404943
315,2594.93,0.6879263283712895
316,2606.91,0.6722939249842868
317,2612.92,0.664565973118186
318,2624.98,0.6706741690407858
319,2637.1,0.6706058644455876
320,2643.18,0.6878000119753892
321,2655.38,0.6846219066897937
322,2667.6299999999997,0.6508056009726998
323,2673.78,0.6643817478984037
324,2686.1200000000003,0.6582800414046127
325,2692.32,0.6403363878988183
326,2704.74,0.6402799807146301
327,2717.23,0.6285669729263441
328,2723.4900000000002,0.6285695189027518
329,2736.06,0.6372888104240685
330,2742.37,0.6002223559689777
331,2755.03,0.5988077467135974
332,2767.7400000000002,0.6043227370267188
333,2774.12,0.6169610819675303
334,2786.9300000000003,0.609871471417655
335,2793.35,0.5549148160132679
336,2806.25,0.5757083046866954
337,2812.7200000000003,0.60561044885081
338,2825.7,0.6027962368338403
339,2832.21,0.5769806806527562
340,2845.29,0.5742986677727898
341,2851.8500000000004,0.5716454111602073
342,2865.01,0.5822430975898436
343,2878.23,0.5729061835016819
344,2884.0315,0.5717410279755918
345,2884.87,0.5715726332868382
346,2898.1800000000003,0.565004530936103
347,2911.5600000000004,0.5715111285730048
348,2931.74,0.5610417250089298
349,2952.0600000000004,0.549491521420129
350,2972.5299999999997,0.545662117804836
351,2993.13,0.5381334141665831
352,3006.95,0.5319416117257747
353,3027.7900000000004,0.5282388080451343
354,3048.7799999999997,0.519754604338002
355,3069.9100000000003,0.5125809006061436
356,3091.1899999999996,0.5055057968477931
357,3112.62,0.4985294930629504
358,3126.9900000000002,0.4893980905250041
359,3148.66,0.4859922866977741
360,3170.4900000000002,0.47598078284228573
361,3192.4599999999996,0.4640375789620714
362,3207.2000000000003,0.46294767635877787
363,3229.43,0.45550587243264384
364,3251.82,0.45232686847825154
365,3266.83,0.44610006582727213
366,3289.47,0.4409570618287263
367,3311.31121,0.4360809120439774
368,3312.27,0.4358668547342071
369,3319.91,0.4470340289401655
370,3327.56,0.44908300311236193
371,3335.23,0.44495357721703477
372,3342.9199999999996,0.4249173512541839
373,3350.63,0.4439005252238094
374,3358.35,0.41236069915967305
375,3366.0899999999997,0.42487517302801303
376,3373.85,0.41807344682882935
377,3381.63,0.415183020562122
378,3389.43,0.4307465942278909
379,3397.2400000000002,0.430733367859898
380,3405.07,0.4103937414243815
381,3412.9199999999996,0.4122737149213413
382,3420.7900000000004,0.41799018835077745
383,3428.6699999999996,0.41797916174645167
384,3436.5800000000004,0.4189308350408405
385,3444.5,0.4065629083014674
386,3452.44,0.4189059814945707
387,3460.4,0.3991199546201504
388,3468.3799999999997,0.3981906276782063
389,3476.37,0.3945292007025004
390,3484.38,0.3918019736592708
391,3492.42,0.40183404651475574
392,3500.47,0.39631021933647886
393,3508.54,0.38372979209067826
394,3516.62,0.38107696481111586
395,3524.73,0.3890432374302679
396,3532.8599999999997,0.3872413099818964
397,3541.0000000000005,0.39081248249976297
398,3549.1600000000003,0.39441875495010587
399,3557.34,0.3880970273329251
400,3565.54,0.3916782996482207
401,3573.77,0.3845135718622308
402,3582.0,0.3672011440762409
403,3590.26,0.3580018161889654
404,3598.54,0.3671736882341663
405,3606.83,0.3680098602456054
406,3613.6600000000003,0.3977630371862723
407,3616.37,0.41709942803681516
408,3619.0699999999997,0.3773263189211198
409,3621.7700000000004,0.38426470980542443
410,3624.4700000000003,0.43007930068972905
411,3627.17,0.4322468915740337
412,3629.87,0.3924737824583383
413,3632.57,0.3860214733426429
414,3635.27,0.35430146422694764
415,3637.97,0.3620680551112523
416,3640.6699999999996,0.3703953459955569
417,3643.3700000000003,0.38575413687986154
418,3646.07,0.37003422776416617
419,3648.77,0.3244875186484708
420,3651.47,0.36448520953277547
421,3654.17,0.3437267004170801
422,3656.87,0.32021529130138476
423,3659.5699999999997,0.3358045821856894
424,3662.28,0.3118492730362322
425,3664.98,0.31051656392053684
426,3667.68,0.3337041548048415
427,3670.3799999999997,0.3445786456891461
428,3673.0800000000004,0.30666153657345074
429,3675.78,0.3452889274577554
430,3678.48,0.35001621834206004
431,3681.18,0.3587918092263647
432,3683.88,0.33061560011066937
433,3686.58,0.31509499099497396
434,3689.2799999999997,0.35304348187927864
435,3691.9800000000005,0.3712610727635833
436,3694.6800000000003,0.32101206364788787
437,3697.38,0.36475905453219254
438,3700.08,0.32724044541649716
439,3702.7799999999997,0.3312266363008018
440,3705.48,0.3338363271851065
441,3708.19,0.3611950180356493
442,3710.89,0.4353541089199539
443,3713.59,0.37798019980425857
444,3716.29,0.4919809906885632
445,3718.99,0.9676277815728678
446,3721.69,1.9914176724571724
447,3724.3900000000003,3.4040966633414773
448,3727.09,4.098291654225782
449,3729.79,3.4793976451100863
450,3732.49,2.164937635994391
451,3735.19,1.0774326268786956
452,3737.89,0.5586799177630003
453,3740.5899999999997,0.481033108647305
454,3743.2900000000004,0.4315937995316096
455,3745.9900000000002,0.4111653904159142
456,3748.69,0.38179948130021885
457,3751.39,0.38236017218452356
458,3754.1000000000004,0.3386052630350664
459,3756.8,0.348209253919371
460,3759.5,0.3493179448036756
461,3762.2,0.35672333568798026
462,3764.9,0.3488137265722849
463,3767.6,0.37082411745658955
464,3770.2999999999997,0.35069470834089417
465,3773.0000000000005,0.39944909922519883
466,3775.7000000000003,0.3750907901095035
467,3778.4,0.33351768099380813
468,3781.1,0.3766480718781128
469,3783.7999999999997,0.3772896627624174
470,3786.5,0.35313685364672204
471,3789.2,0.3377594445310267
472,3791.9,0.3920010354153313
473,3794.6000000000004,0.3549370262996359
474,3797.3,0.39321571718394055
475,3800.0099999999998,0.4164013080344834
476,3801.8939600000003,0.4047068641909235
477,3802.71,0.3996413994928461
478,3805.4100000000003,0.3708610922765144
479,3808.11,0.38268228506018276
480,3810.81,0.39018737784385105
481,3813.5099999999998,0.3630761706275194
482,3816.21,0.3615316634111877
483,3818.91,0.37827945619485603
484,3821.6099999999997,0.3639110489785244
485,3824.3100000000004,0.3681774417621927
486,3827.01,0.38145613454586097
487,3829.71,0.3881640273295293
488,3832.41,0.3690622201131976
489,3835.11,0.4410790128968659
490,3837.81,0.4048746056805343
491,3840.5099999999998,0.37354059846420257
492,3843.21,0.3652695912478709
493,3845.92,0.3788639840048121
494,3848.62,0.4023754767884804
495,3851.3199999999997,0.40288626957214874
496,3854.0200000000004,0.387926262355817
497,3856.7200000000003,0.3835355551394854
498,3859.42,0.4151188479231537
499,3862.12,0.5329002407068221
500,3864.8199999999997,0.8089962334904903
501,3867.52,0.9475114262741586
502,3870.22,0.967068319057827
503,3872.92,0.6968271118414953
504,3875.6200000000003,0.4504334046251636
505,3878.32,0.38133789740883195
506,3881.02,0.4014737901925003
507,3883.72,0.49555098297616856
508,3886.42,0.583412375759837
509,3889.12,0.6169202685435051
510,3891.83,0.5081109613004463
511,3894.5299999999997,0.4106277540841147
512,3897.23,0.36326244686778303
513,3899.93,0.3668126396514514
514,3902.63,0.34444113243511965
515,3905.3300000000004,0.35007772521878794
516,3908.03,0.3598810180024563
517,3910.73,0.35937041078612464
518,3913.43,0.350676003569793
519,3916.13,0.3952574963534613
520,3918.83,0.3842211891371296
521,3921.5299999999997,0.34228058192079797
522,3924.23,0.3874725747044662
523,3926.9300000000003,0.34601766748813456
524,3929.63,0.3457437602718029
525,3932.33,0.3201147530554712
526,3935.0299999999997,0.3275513458391395
527,3937.7400000000002,0.3497532385960807
528,3940.44,0.371414931379749
529,3943.14,0.3721624241634173
530,3945.8399999999997,0.3618113169470856
531,3948.54,0.363356009730754
532,3951.24,0.3762049025144223
533,3953.94,0.3485953952980906
534,3956.6400000000003,0.39488348808175894
535,3959.34,0.3615751808654273
536,3962.04,0.46977147364909555
537,3964.74,0.6256385664327639
538,3967.44,0.7639047592164323
539,3970.14,0.7269717520001006
540,3972.84,0.5813564447837689
541,3975.54,0.43544223756743716
542,3978.2400000000002,0.35448193035110553
543,3980.94,0.37278672313477385
544,3983.65,0.335534215891715
545,3986.3500000000004,0.3861133086753833
546,3989.05,0.3749463014590516
547,3991.75,0.38633159424271996
548,3994.45,0.3574764870263883
549,3997.15,0.36414077981005655
550,3999.85,0.3519522725937249
551,4002.55,0.3743239653773932
552,4005.25,0.3683450581610616
553,4007.9500000000003,0.3911715509447299
554,4010.65,0.35612554372839816
555,4013.35,0.33632613651206655
556,4016.0499999999997,0.36074082929573487
557,4018.75,0.35719082207940317
558,4021.45,0.3816802148630715
559,4024.15,0.3502653076467398
560,4026.8500000000004,0.3475623004304081
561,4029.56,0.3684686931873493
562,4032.2599999999998,0.3652114859710176
563,4034.96,0.357208378754686
564,4037.6600000000003,0.3521448715383542
565,4040.36,0.3589212643220226
566,4043.06,0.3629696571056909
567,4045.7599999999998,0.3404735498893592
568,4048.46,0.3518837426730276
569,4051.16,0.34777323545669586
570,4053.86,0.35473012824036415
571,4056.56,0.34893182102403253
572,4059.26,0.3432206138077008
573,4061.96,0.36125760659136913
574,4064.66,0.3614009993750375
575,4067.3599999999997,0.3526628921587058
576,4070.06,0.3610024849423741
577,4072.76,0.36866337772604246
578,4075.47,0.3581360704829836
579,4078.17,0.3795112632666519
580,4080.87,0.36699885605032023
