,lambda (Angstroms),Total Flux (erg/s/cm^2/Angstrom)
0,100.03,0.003141503322978878
1,101.89,0.003778535998326167
2,104.02,0.004508041158804511
3,104.712855,0.004745337542824807
4,105.96,0.004388944092835191
5,107.93,0.003825982210712778
6,109.92999999999999,0.003254447305004753
7,114.05999999999999,0.002074227724717674
8,118.07,0.0009283002387730744
9,120.22644299999999,0.00031205901543820573
10,121.09,0.0003006402777043051
11,125.06,0.00024814531928976565
12,127.09,0.0002213028090677215
13,127.98,0.00020953441788662823
14,130.96,0.000170130141797125
15,131.85999999999999,0.00015822952150163774
16,134.01,0.00012980026190686188
17,137.13,8.854477821583833e-05
18,138.038426,7.653274166856224e-05
19,140.0,7.561668230264432e-05
20,142.93,7.42483658679141e-05
21,146.94,7.237568706133793e-05
22,151.05,7.04563080351464e-05
23,154.93,6.864433951407022e-05
24,158.489319,6.69821297242588e-05
25,158.9,6.668745080233338e-05
26,161.85000000000002,6.457071586772472e-05
27,166.01000000000002,6.158576084129361e-05
28,169.86999999999998,5.8816066994653505e-05
29,173.03,5.654864923419186e-05
30,177.06,5.365697405233944e-05
31,179.94,5.159046672635359e-05
32,181.970086,5.0133804368237655e-05
33,182.01999999999998,5.014532967908055e-05
34,185.82999999999998,5.102507152129387e-05
35,191.04,5.222807808249478e-05
36,194.14000000000001,5.294387853166449e-05
37,198.20999999999998,5.388365525063789e-05
38,201.9,5.473568868930895e-05
39,205.18,5.5493051746468735e-05
40,208.929613,5.63588500306565e-05
41,209.95,5.778966680198947e-05
42,215.84,6.604879867480239e-05
43,219.85000000000002,7.16717390639832e-05
44,222.91,7.596256141871253e-05
45,227.04999999999998,8.176779169826256e-05
46,230.21,8.619946647107836e-05
47,233.95,9.14442274549109e-05
48,239.88329199999998,9.976455254538763e-05
49,239.95,9.968750356893466e-05
50,246.11,9.257241263813827e-05
51,251.84,8.595422592785527e-05
52,257.11,7.986688418214471e-05
53,260.09000000000003,7.642527013461006e-05
54,263.71,7.22443619291486e-05
55,269.23,6.586875813327908e-05
56,274.24,6.008238413741384e-05
57,275.42287,5.8716260971154766e-05
58,278.69,6.274596934472457e-05
59,283.87,6.913519703947052e-05
60,289.82,7.647404136300303e-05
61,295.89,8.396151337354123e-05
62,300.69,8.988264972276915e-05
63,307.7,9.853113586785201e-05
64,316.227766,0.00010905390898398209
65,317.78000000000003,0.00010765286837990641
66,328.19,9.826139307469711e-05
67,338.15999999999997,8.92738963464419e-05
68,347.64000000000004,8.073946651570366e-05
69,357.38,7.20298148740381e-05
70,363.078055,6.702983935149702e-05
71,365.7,6.894599474607375e-05
72,375.08,7.574974056859726e-05
73,384.7,8.272906944052439e-05
74,394.57,9.07014453097469e-05
75,404.69,9.932343157626484e-05
76,414.11999999999995,0.00010741907043824742
77,416.86938299999997,0.00010976962682505284
78,421.82,0.00011260600134377002
79,429.65999999999997,0.00011768583001786952
80,440.68,0.00012756373686590222
81,450.95000000000005,0.000137003271163479
82,460.39,0.0001440870848118845
83,470.03000000000003,0.00015623678620707828
84,478.630092,0.00017223975624341224
85,479.87,0.0001733348433477562
86,489.92,0.0001731508578713871
87,500.18,0.0001950344160716313
88,505.97,0.0002247719831553948
89,511.83,0.0005955220181313628
90,520.15,0.0006399681333190851
91,529.82,0.0006927198364278922
92,539.67,0.0006711633112595106
93,549.5408739999999,0.0009718432681107873
94,549.6999999999999,0.0009767499854678907
95,559.92,0.0012539647709279124
96,570.33,0.0015136636594444313
97,579.6,0.0015185323296219653
98,590.37,0.0019295302344560586
99,599.97,0.001997019336258036
100,609.7099999999999,0.002393259166627958
101,619.62,0.0029437213102589577
102,629.6899999999999,0.0032182715722533233
103,630.957344,0.00325265950599918
104,639.92,0.003499649570583155
105,650.32,0.003981874067749242
106,657.8499999999999,0.004224269245024303
107,665.4699999999999,0.004731417320832532
108,674.72,0.005066156003408139
109,685.69,0.00493296019128429
110,695.23,0.006535444435800105
111,704.9,0.006025412311530495
112,716.35,0.007879722291583542
113,724.43596,0.00834888710426008
114,726.32,0.008458005569544751
115,734.73,0.008995328848380882
116,744.95,0.009922325703280435
117,755.3100000000001,0.010699184939753956
118,765.8199999999999,0.010922299942199584
119,774.6899999999999,0.012525967903350177
120,785.46,0.012964148900147457
121,794.56,0.01427095870245528
122,805.6099999999999,0.015285108462400492
123,814.9399999999999,0.016148360105865546
124,824.38,0.017697256977710143
125,831.763771,0.015621843043567316
126,835.85,0.014471495940265288
127,845.52,0.01912612748358261
128,855.31,0.019791502810270995
129,865.22,0.021637601920330426
130,875.24,0.023121697831813323
131,885.37,0.024878970544719683
132,895.62,0.026344007040997097
133,906.0,0.026644864302593153
134,914.3800000000001,0.034296555174671665
135,924.9699999999999,0.18336200905716704
136,935.68,0.3883368767230335
137,944.33,0.7247346661076969
138,954.992586,1.0229648556813637
139,955.27,1.030724134849886
140,964.11,1.1172297131556486
141,975.27,0.18676248079052554
142,984.3000000000001,0.8672918500327244
143,995.69,0.9531188066959186
144,1004.91,1.4525357668745535
145,1014.2099999999999,1.422764323236951
146,1025.95,0.6443795632041065
147,1035.44,0.9641459105029399
148,1045.02,1.8928848535085063
149,1054.6899999999998,1.8413253922208057
150,1064.45,1.4032349266398376
151,1074.3,1.6948394567656029
152,1084.24,1.3005869825981007
153,1094.27,1.7788405041373314
154,1096.4782,1.757989802728561
155,1104.3999999999999,1.6831882160617953
156,1114.6200000000001,1.5853836901988918
157,1124.93,1.3903821508988397
158,1135.34,1.828655596668622
159,1145.8400000000001,1.6486830290012555
160,1153.79,1.7544208420531064
161,1164.46,1.7911802490044588
162,1175.24,1.1752526395326293
163,1186.11,1.7382810166236509
164,1194.33,1.1861697893640553
165,1205.3899999999999,0.8339418380877626
166,1213.74,0.6253670914189521
167,1224.97,1.2137352147613782
168,1236.31,1.8160685216806225
169,1244.88,1.950388242165448
170,1256.39,1.8328265237034111
171,1258.92541,1.7618480553875346
172,1265.1000000000001,1.5889922107349777
173,1273.87,2.0143173038700017
174,1285.66,2.080255429076608
175,1294.57,1.5780955236983945
176,1303.54,1.5963336189573645
177,1315.6100000000001,2.005025747137495
178,1324.73,1.8798208439894244
179,1333.91,1.6486369414785376
180,1346.25,1.9684650725259947
181,1355.5800000000002,1.9016351716080673
182,1364.98,1.679284271433521
183,1374.44,1.7423303718961582
184,1383.97,1.7544024731021768
185,1393.5600000000002,1.4425665749453789
186,1406.46,1.4932517119398843
187,1416.2,1.592679815376046
188,1426.02,1.6223049196617858
189,1435.9099999999999,1.6335140246909066
190,1442.53,1.7065910949935132
191,1445.43977,1.7134802029755636
192,1445.86,1.7144751296400047
193,1455.8799999999999,1.6562572189485618
194,1465.97,1.5209713088810308
195,1476.1299999999999,1.5315673994374122
196,1486.37,1.5492404907068353
197,1496.6699999999998,1.5564055825110408
198,1503.58,1.4492256441000755
199,1510.52,1.2827347059565013
200,1517.49,1.3713037680803177
201,1524.49,1.3462868304715254
202,1535.06,1.1485349246822485
203,1545.7,1.197108019516884
204,1556.42,1.1511351150645617
205,1563.6,1.2081981790601144
206,1574.44,1.2827522756773557
207,1585.3500000000001,1.337001372918509
208,1596.34,1.3462794708727048
209,1603.71,1.3308255365617332
210,1614.83,1.333934635674623
211,1626.02,1.2739027354114243
212,1633.53,1.3556048023482772
213,1644.85,1.3649519032437727
214,1656.25,1.2856700048523104
215,1659.58691,1.3257687878596471
216,1663.9,1.3775983153341216
217,1671.58,1.2621898152267552
218,1675.43,1.387189065823974
219,1683.1599999999999,1.4227665689711173
220,1694.83,1.340050328573596
221,1706.5800000000002,1.2886610933832898
222,1714.4499999999998,1.202658605643059
223,1726.3400000000001,1.1916253795653788
224,1734.31,1.2680518983341669
225,1746.3300000000002,1.236351680718211
226,1754.39,1.297578205345116
227,1766.55,1.213743996841786
228,1774.6999999999998,1.2054005273268076
229,1787.01,1.2363483285870056
230,1795.25,1.2945948649301442
231,1803.54,1.297582404527792
232,1816.04,1.1725852181551257
233,1824.4299999999998,1.213735764261792
234,1837.0700000000002,1.167161587001752
235,1845.55,1.071876138966535
236,1854.07,1.0596006935349258
237,1866.92,1.0867625299438248
238,1875.54,1.1834150910212342
239,1884.2,1.069379654702251
240,1892.89,1.0119062203359732
241,1905.46072,1.0933034087006317
242,1906.01,1.0968599924808082
243,1914.8100000000002,1.0307032541434296
244,1923.65,1.002611512449972
245,1936.98,1.0620343940366472
246,1945.9199999999998,1.084274643952992
247,1954.91,0.9934519896742383
248,1968.46,1.094286752802479
249,1977.5400000000002,1.1301649909725473
250,1982.1,1.0596056083795422
251,1995.8400000000001,1.0307044555664078
252,2005.05,1.0743026828292193
253,2014.31,1.0378569058969322
254,2023.6100000000001,1.0942831256085663
255,2032.95,1.009578341964121
256,2047.04,1.0402221597852954
257,2056.49,0.9685949669116333
258,2065.98,0.9888415706818919
259,2075.52,1.066937770257052
260,2080.2999999999997,0.9842919692056121
261,2085.09,1.0306939673151525
262,2094.72,0.9730765593391347
263,2104.39,0.993444648007038
264,2114.1,1.0026015333188623
265,2123.86,1.0118817144355876
266,2133.66,0.9663536921962342
267,2143.51,0.955266365761782
268,2153.41,0.9934435351322309
269,2163.35,0.973074501146601
270,2173.33,0.964103063804892
271,2183.36,0.9335273222680843
272,2187.7616199999998,0.9488370361958138
273,2193.44,0.9685884328153928
274,2203.57,0.9487164104558358
275,2213.74,0.9165208907720555
276,2223.9500000000003,0.8874384737640518
277,2234.2200000000003,0.9165266607697132
278,2244.53,0.8936085504511513
279,2254.89,0.8632780434773103
280,2265.3,0.88333323984819
281,2275.76,0.8914840395637906
282,2286.2599999999998,0.8975946419551679
283,2296.81,0.847401047691266
284,2307.42,0.8512529574410292
285,2312.7400000000002,0.8166890133193271
286,2323.41,0.6699566270827552
287,2334.13,0.7762753441909042
288,2344.91,0.7726589653127182
289,2355.73,0.7906603891103089
290,2366.61,0.7602680169215645
291,2377.5299999999997,0.7602067474085968
292,2383.01,0.7327406139900015
293,2394.01,0.7602068498285871
294,2405.06,0.7343592890118937
295,2416.16,0.7410907315399211
296,2427.31,0.7548532774126694
297,2432.91,0.7275103520214039
298,2444.14,0.7513680032457056
299,2455.42,0.7410320578147279
300,2466.76,0.7358587163974154
301,2472.44,0.7158078963577033
302,2483.85,0.7290755596230001
303,2495.32,0.6542702269019617
304,2506.84,0.7256453975256442
305,2511.88643,0.6861155122844316
306,2512.62,0.6803692161115821
307,2518.41,0.7090777662090578
308,2524.21,0.6866014160476348
309,2535.8599999999997,0.6881564144302934
310,2547.57,0.6693447112595582
311,2553.44,0.689712159285842
312,2565.23,0.6801796540439146
313,2577.07,0.7008587475074922
314,2583.01,0.692824993721483
315,2594.93,0.6879675851138686
316,2606.91,0.6723349749528601
317,2612.92,0.6646069193545578
318,2624.98,0.6707149071223574
319,2637.1,0.6706463933367628
320,2643.18,0.6878404359261676
321,2655.38,0.684662120069381
322,2667.6299999999997,0.6508456029180993
323,2673.78,0.6644216436952111
324,2686.1200000000003,0.6583197242138383
325,2692.32,0.640375963696455
326,2704.74,0.6403193421438903
327,2717.23,0.6286061187790325
328,2723.4900000000002,0.6286085567082552
329,2736.06,0.6373276312722054
330,2742.37,0.600261067906933
331,2755.03,0.5988462401407921
332,2767.7400000000002,0.6043610110801564
333,2774.12,0.6169992459025908
334,2786.9300000000003,0.609909414252965
335,2793.35,0.5549526480398035
336,2806.25,0.5757459140600865
337,2812.7200000000003,0.6056479465524299
338,2825.7,0.602833510501521
339,2832.21,0.5770178419582686
340,2845.29,0.5743356033183694
341,2851.8500000000004,0.5716822334806219
342,2865.01,0.5822796927695307
343,2878.23,0.5729425505050456
344,2884.0315,0.5717772948454503
345,2884.87,0.5716088998605146
346,2898.1800000000003,0.565040792808309
347,2911.5600000000004,0.5715473857190143
348,2931.74,0.5610779750267896
349,2952.0600000000004,0.549527764260387
350,2972.5299999999997,0.545698353414508
351,2993.13,0.5381696424997494
352,3006.95,0.531977835177324
353,3027.7900000000004,0.5282750241354032
354,3048.7799999999997,0.5197908130140061
355,3069.9100000000003,0.5126171018184308
356,3091.1899999999996,0.5055419905433792
357,3112.62,0.4985656791888513
358,3126.9900000000002,0.4894342715750124
359,3148.66,0.4860284600933223
360,3170.4900000000002,0.4760169485268572
361,3192.4599999999996,0.4640737368862142
362,3207.2000000000003,0.46298382907633356
363,3229.43,0.4555420172979315
364,3251.82,0.4523630054347546
365,3266.83,0.44613619748181643
366,3289.47,0.4409931854861789
367,3311.31121,0.43611702798649365
368,3312.27,0.4359029642026214
369,3319.91,0.4470700868204964
370,3327.56,0.4491190093370859
371,3335.23,0.44498953165110433
372,3342.9199999999996,0.4249532537625517
373,3350.63,0.4439363756714282
374,3358.35,0.41239649747901913
375,3366.0899999999997,0.42491091908403905
376,3373.85,0.41810914048648795
377,3381.63,0.41521866168636584
378,3389.43,0.43078218268367274
379,3397.2400000000002,0.4307689035796941
380,3405.07,0.41042922427314454
381,3412.9199999999996,0.4123091447640239
382,3420.7900000000004,0.4180255650523323
383,3428.6699999999996,0.4180144852393551
384,3436.5800000000004,0.41896610512252147
385,3444.5,0.4065981249044023
386,3452.44,0.4189411444837121
387,3460.4,0.399155063860451
388,3468.3799999999997,0.3982256830346188
389,3476.37,0.39456420210750115
390,3484.38,0.3918369209778124
391,3492.42,0.4018689395442672
392,3500.47,0.39634505800943653
393,3508.54,0.3837645762720348
394,3516.62,0.3811116944333476
395,3524.73,0.38907791229080385
396,3532.8599999999997,0.38727592994568916
397,3541.0000000000005,0.3908470474992889
398,3549.1600000000003,0.3944532648503176
399,3557.34,0.38813148199877534
400,3565.54,0.3917126989446621
401,3573.77,0.3845479155866923
402,3582.0,0.36723543222872257
403,3590.26,0.35803604856689625
404,3598.54,0.36720786470249894
405,3606.83,0.36804398073681616
406,3613.6600000000003,0.3977971115588169
407,3616.37,0.4171334841104454
408,3619.0699999999997,0.37736035676335933
409,3621.7700000000004,0.38429872941627324
410,3624.4700000000003,0.43011330206918713
411,3627.17,0.4322808747221011
412,3629.87,0.392507747375015
413,3632.57,0.38605542002792886
414,3635.27,0.35433539268084285
415,3637.97,0.36210196533375677
416,3640.6699999999996,0.37042923798667066
417,3643.3700000000003,0.3857880106395846
418,3646.07,0.3700680832924985
419,3648.77,0.3245213559454125
420,3651.47,0.3645190285983264
421,3654.17,0.3437605012512403
422,3656.87,0.32024907390415425
423,3659.5699999999997,0.3358383465570682
424,3662.28,0.3118830191086966
425,3664.98,0.3105502917616105
426,3667.68,0.33373786441452447
427,3670.3799999999997,0.3446123370674383
428,3673.0800000000004,0.30669520972035225
429,3675.78,0.34532258237326624
430,3678.48,0.35004985502618013
431,3681.18,0.3588254276790941
432,3683.88,0.330649200332008
433,3686.58,0.31512857298492186
434,3689.2799999999997,0.3530770456378359
435,3691.9800000000005,0.3712946182907498
436,3694.6800000000003,0.32104559094366364
437,3697.38,0.36479256359657763
438,3700.08,0.3272739362494915
439,3702.7799999999997,0.3312601089024054
440,3705.48,0.3338697815553194
441,3708.19,0.3612284541069478
442,3710.89,0.4353875267598617
443,3713.59,0.3780135994127757
444,3716.29,0.4920143720656896
445,3718.99,0.9676611447186034
446,3721.69,1.9914510173715174
447,3724.3900000000003,3.4041299900244315
448,3727.09,4.098324962677346
449,3729.79,3.4794309353302593
450,3732.49,2.1649709079831734
451,3735.19,1.077465880636087
452,3737.89,0.558713153289001
453,3740.5899999999997,0.4810663259419149
454,3743.2900000000004,0.43162699859482884
455,3745.9900000000002,0.41119857124774273
456,3748.69,0.38183264390065663
457,3751.39,0.3823933165535706
458,3754.1000000000004,0.33863838910519906
459,3756.8,0.34824236175811296
460,3759.5,0.34935103441102683
461,3762.2,0.3567564070639408
462,3764.9,0.3488467797168547
463,3767.6,0.37085715236976863
464,3770.2999999999997,0.35072772502268257
465,3773.0000000000005,0.3994820976755965
466,3775.7000000000003,0.37512377032851046
467,3778.4,0.33355064298142434
468,3781.1,0.37668101563433826
469,3783.7999999999997,0.3773225882872522
470,3786.5,0.3531697609401661
471,3789.2,0.33779233359308003
472,3791.9,0.392033906245994
473,3794.6000000000004,0.35496987889890785
474,3797.3,0.39324855155182176
475,3800.0099999999998,0.4164341241034502
476,3801.8939600000003,0.4047396675387011
477,3802.71,0.3996741984785383
478,3805.4100000000003,0.3708938768295433
479,3808.11,0.3827150551805482
480,3810.81,0.39022013353155316
481,3813.5099999999998,0.36310891188255817
482,3816.21,0.3615643902335631
483,3818.91,0.3783121685845681
484,3821.6099999999997,0.3639437469355731
485,3824.3100000000004,0.36821012528657804
486,3827.01,0.381488803637583
487,3829.71,0.3881966819885879
488,3832.41,0.3690948603395929
489,3835.11,0.44111163869059783
490,3837.81,0.4049072170416028
491,3840.5099999999998,0.37357319539260775
492,3843.21,0.36530217374361273
493,3845.92,0.3788965520144363
494,3848.62,0.4024080303654412
495,3851.3199999999997,0.4029188087164462
496,3854.0200000000004,0.3879587870674511
497,3856.7200000000003,0.3835680654184561
498,3859.42,0.41515134376946106
499,3862.12,0.532932722120466
500,3864.8199999999997,0.809028700471471
501,3867.52,0.9475438788224759
502,3870.22,0.9671007571734809
503,3872.92,0.6968595355244859
504,3875.6200000000003,0.45046581387549084
505,3878.32,0.3813702922264958
506,3881.02,0.4015061705775008
507,3883.72,0.49558334892850575
508,3886.42,0.5834447272795107
509,3889.12,0.6169526056305156
510,3891.83,0.5081432839013391
511,3894.5299999999997,0.41066006225234414
512,3897.23,0.3632947406033491
513,3899.93,0.36684491895435406
514,3902.63,0.344473397305359
515,3905.3300000000004,0.3501099756563639
516,3908.03,0.35991325400736895
517,3910.73,0.35940263235837394
518,3913.43,0.3507082107093789
519,3916.13,0.39528968906038386
520,3918.83,0.3842533674113888
521,3921.5299999999997,0.3423127457623938
522,3924.23,0.3875047241133987
523,3926.9300000000003,0.3460498024644037
524,3929.63,0.34577588081540866
525,3932.33,0.3201468591664136
526,3935.0299999999997,0.32758343751741853
527,3937.7400000000002,0.34978531578824207
528,3940.44,0.37144699413924703
529,3943.14,0.372194472490252
530,3945.8399999999997,0.36184335084125696
531,3948.54,0.36338802919226193
532,3951.24,0.3762369075432669
533,3953.94,0.34862738589427184
534,3956.6400000000003,0.3949154642452768
535,3959.34,0.3616071425962818
536,3962.04,0.4698034209472867
537,3964.74,0.6256704992982918
538,3967.44,0.7639366776492967
539,3970.14,0.7270036560003017
540,3972.84,0.5813883343513067
541,3975.54,0.43547411270231157
542,3978.2400000000002,0.35451379105331654
543,3980.94,0.3728185694043215
544,3983.65,0.335566047675145
545,3986.3500000000004,0.3861451260261499
546,3989.05,0.3749781043771549
547,3991.75,0.38636338272815984
548,3994.45,0.35750826107916484
549,3997.15,0.36417253943016975
550,3999.85,0.3519840177811747
551,4002.55,0.37435569613217967
552,4005.25,0.36837677448318473
553,4007.9500000000003,0.39120325283418966
554,4010.65,0.3561572311851946
555,4013.35,0.3363578095361996
556,4016.0499999999997,0.36077248788720456
557,4018.75,0.3572224662382095
558,4021.45,0.3817118445892145
559,4024.15,0.3502969229402194
560,4026.8500000000004,0.34759390129122436
561,4029.56,0.3685002795620479
562,4032.2599999999998,0.36524305791305284
563,4034.96,0.35723993626405787
564,4037.6600000000003,0.35217641461506277
565,4040.36,0.35895279296606775
566,4043.06,0.3630011713170727
567,4045.7599999999998,0.34050504966807765
568,4048.46,0.35191522801908265
569,4051.16,0.3478047063700876
570,4053.86,0.35476158472109254
571,4056.56,0.3489632630720975
572,4059.26,0.34325204142310245
573,4061.96,0.36128901977410743
574,4064.66,0.3614323981251124
575,4067.3599999999997,0.35269427647611734
576,4070.06,0.3610338548271223
577,4072.76,0.36869473317812734
578,4075.47,0.3581674114489508
579,4078.17,0.37954258979995575
580,4080.87,0.36703016815096073
