,lambda (Angstroms),Total Flux (erg/s/cm^2/Angstrom)
0,102.08999999999999,0.010106749544857983
1,103.97999999999999,0.01180738295779316
2,104.712855,0.012466835002319078
3,105.92,0.01156079603278772
4,107.89,0.010082287825798822
5,109.89,0.008581630200591819
6,114.02000000000001,0.005482343366899352
7,118.02,0.0024808572254853565
8,120.22644299999999,0.0008347722286780859
9,121.05,0.0008100041773460129
10,125.02,0.0006774754340279869
11,127.05,0.0006091793001651172
12,127.93,0.0005803706548452522
13,130.91,0.0004803722200120745
14,132.12,0.0004444931551972603
15,133.96,0.00038318957952845217
16,137.07999999999998,0.0002867201833943873
17,138.038426,0.0002552953779385678
18,139.95000000000002,0.00025667403411177826
19,142.88,0.00035772714415070034
20,146.88,0.0005940576769683414
21,151.0,0.0006289430947705116
22,154.87,0.0006726614105215793
23,158.489319,0.0007207049406690496
24,158.83999999999997,0.0007251291487412443
25,162.17,0.0007595030148609994
26,165.94,0.0008199798095371187
27,169.81,0.0008694845107033208
28,172.97,0.0009128812157899353
29,177.0,0.0009674858273402698
30,179.87,0.0010090826636056443
31,181.95,0.0010400905985993654
32,181.970086,0.0010403711615299448
33,186.19,0.0011098292186054058
34,190.97,0.0011993491317885832
35,194.07,0.0012642795043550788
36,198.14,0.001333366251563349
37,201.82,0.0014149144357713185
38,205.1,0.00147687899126103
39,208.929613,0.0015065307819433873
40,209.88,0.00151681376060579
41,215.76000000000002,0.0017192362578117568
42,219.77,0.0018256144455321525
43,222.82,0.0018789843888107577
44,226.96999999999997,0.001993686278845581
45,230.12,0.003007377580920206
46,233.86,0.004930483199891348
47,239.86,0.006575165727652539
48,239.88329199999998,0.00657391459523266
49,246.01999999999998,0.006203054342628318
50,251.75,0.00677586327133894
51,257.02,0.005545943020781346
52,259.99,0.0067060488738826625
53,264.22,0.007126071391936054
54,269.13,0.007175501522820724
55,274.13,0.0071765335583448275
56,275.42287,0.007184940913547534
57,279.23,0.0072335842024097525
58,283.77,0.007296942154861393
59,289.71,0.007027521599258472
60,295.78000000000003,0.007173926196479058
61,301.28,0.007049074200550428
62,308.28999999999996,0.0072629570566486645
63,316.227766,0.007525489898843605
64,317.66,0.007564820925133206
65,328.07000000000005,0.007573315565779696
66,338.04,0.007499415302306642
67,348.31,0.007391779155278732
68,357.24,0.0073709927547958454
69,363.078055,0.00745269311478782
70,366.41,0.007513399087897143
71,374.94,0.0074285775338482005
72,384.55999999999995,0.0070894006452255935
73,395.33,0.007416836541227103
74,404.53999999999996,0.007567126338086333
75,413.96000000000004,0.007451348052137792
76,416.86938299999997,0.00737660460373736
77,421.66,0.007249982383299342
78,430.48999999999995,0.007132716019658102
79,440.52,0.007175498060731529
80,450.78,0.007045715671041935
81,460.22,0.006812601121463983
82,469.84999999999997,0.006734641694299188
83,478.630092,0.006783894904069279
84,479.69,0.006787118682771585
85,489.73999999999995,0.006411673727599997
86,499.99,0.00656742839023594
87,505.78,0.0062499398757639504
88,511.64,0.0068150383775245965
89,519.95,0.006669214447427492
90,529.62,0.0064099451184215965
91,539.46,0.005972704114552101
92,549.49,0.0057895512975997595
93,549.5408739999999,0.00579077855753416
94,559.71,0.00604608706568668
95,570.12,0.006217563732260585
96,579.38,0.006023300719049669
97,590.15,0.005965051676686649
98,599.74,0.0054794021802835515
99,609.49,0.004742911813241819
100,619.39,0.005667472317476369
101,629.45,0.005428881951072285
102,630.957344,0.005444314769736419
103,639.68,0.005543332545048581
104,650.0699999999999,0.005357012644799797
105,657.6,0.005096482684369255
106,665.22,0.005295943250308068
107,674.4699999999999,0.005325323682714108
108,685.4300000000001,0.004873182116137913
109,694.97,0.005131429911289656
110,704.63,0.004596103408267206
111,716.08,0.005033709040813061
112,724.43596,0.004984096997772447
113,726.04,0.00497413136762461
114,734.4499999999999,0.004912666870851592
115,744.6700000000001,0.00474819362507035
116,755.03,0.004659947293730461
117,765.53,0.004106494876831925
118,774.4,0.004518086670366209
119,785.1700000000001,0.0042390664456045685
120,794.26,0.0043438132475466925
121,805.3100000000001,0.0043386228516677575
122,814.64,0.0042772129355093435
123,824.0699999999999,0.0042532013868090395
124,831.763771,0.0038763641828851057
125,835.53,0.003687540445750261
126,845.21,0.004067325875340218
127,854.99,0.003956759022178006
128,864.89,0.003957374029713189
129,874.91,0.003915537897945769
130,885.04,0.003857532555150962
131,895.29,0.0037918280730535507
132,905.66,0.0036790614516535357
133,914.04,0.003648795557021701
134,924.62,0.00655421644184213
135,935.33,0.009905993259084738
136,943.9799999999999,0.013646095301022045
137,954.9100000000001,0.016769549696209876
138,954.992586,0.016771201874148572
139,965.97,0.016998138603230403
140,974.91,0.006455159301878889
141,983.93,0.012621797975459351
142,995.3199999999999,0.013509030656399645
143,1004.53,0.018955806520443555
144,1016.16,0.01930387912617978
145,1025.57,0.011316689927553632
146,1035.05,0.014522281956992966
147,1044.63,0.024137051455097272
148,1054.3,0.023376109675000048
149,1064.05,0.018062587869834806
150,1073.9,0.021139353533334532
151,1083.83,0.01630141917176624
152,1093.86,0.022125232278862917
153,1096.4782,0.021844557572579634
154,1103.98,0.021038351916723222
155,1114.2,0.0198215035499393
156,1124.51,0.017243079884426363
157,1134.9099999999999,0.02246647092018441
158,1145.42,0.020546028813051433
159,1156.01,0.021650995329270444
160,1164.03,0.021696739820306937
161,1174.8,0.014189615739067912
162,1185.67,0.02076759243701887
163,1193.8899999999999,0.014542128486435324
164,1204.93,0.010716148509009251
165,1216.08,0.009014140388692157
166,1224.51,0.015523919074407573
167,1235.84,0.022171125356632442
168,1244.4099999999999,0.02374399413321383
169,1255.92,0.022264419817980666
170,1258.92541,0.021292617860846894
171,1264.6299999999999,0.019450430215667686
172,1276.33,0.024909336616487168
173,1285.1799999999998,0.026077463509414724
174,1294.09,0.019540842076192635
175,1306.06,0.01936326600933872
176,1315.11,0.02496662848176746
177,1324.23,0.023631892907021623
178,1336.4799999999998,0.02027075465146937
179,1345.75,0.02502472326134942
180,1355.07,0.024124223266104767
181,1364.47,0.021075795502660588
182,1373.9299999999998,0.022114619413066767
183,1383.45,0.022115034997323302
184,1396.25,0.018289162085399317
185,1405.93,0.0187133521332568
186,1415.67,0.02013405385496464
187,1425.49,0.020743417808472955
188,1435.37,0.02074357343583163
189,1441.99,0.021864108117320945
190,1445.43977,0.022100472163621328
191,1448.6499999999999,0.022320409521915406
192,1455.34,0.021419106162180134
193,1465.42,0.01954582217621129
194,1475.58,0.019725690063369678
195,1485.81,0.020320959589514395
196,1496.11,0.02060206075464544
197,1506.48,0.019279933558762806
198,1513.43,0.016962996286691033
199,1516.9199999999998,0.018334408001866503
200,1523.92,0.01771698190049925
201,1534.49,0.014995389387434702
202,1545.1200000000001,0.016059698279215575
203,1555.83,0.015412959044123677
204,1566.62,0.016169611682159014
205,1573.85,0.017396610966032552
206,1584.76,0.018504296413758736
207,1595.74,0.018847193500471246
208,1606.8,0.018674702460310985
209,1614.22,0.0188039861928617
210,1625.4099999999999,0.017963528196533192
211,1636.68,0.019416302073331917
212,1644.2300000000002,0.01981944884971438
213,1655.6299999999999,0.018633585770344855
214,1659.58691,0.019509698929861343
215,1663.27,0.020325728184632144
216,1670.95,0.017966231377989507
217,1678.6599999999999,0.02099094970100842
218,1686.41,0.02192428486357607
219,1694.1899999999998,0.020801325155805274
220,1705.94,0.02024042427324655
221,1713.81,0.019160939954460405
222,1725.69,0.019206571300435075
223,1733.6599999999999,0.020903374080520776
224,1745.67,0.020763917655028837
225,1753.73,0.022289445824099193
226,1765.8899999999999,0.021005745046915016
227,1774.04,0.02129628860497003
228,1786.34,0.02224426176620643
229,1794.5800000000002,0.023881060713246097
230,1807.02,0.024267767812903074
231,1815.3600000000001,0.022504993858814583
232,1823.74,0.02350565674427483
233,1836.3799999999999,0.023187908041675486
234,1844.8600000000001,0.021800998026007577
235,1853.3700000000001,0.022256073140001213
236,1866.22,0.023353070345032735
237,1874.8400000000001,0.0255915942677854
238,1883.4899999999998,0.02395104332019962
239,1896.55,0.023518006432862004
240,1905.3,0.02571345258414806
241,1905.46072,0.025700752467639174
242,1914.09,0.025015488117256776
243,1922.9299999999998,0.024785969725030395
244,1936.26,0.02678755170824559
245,1945.19,0.02823412347944677
246,1954.17,0.026539354230329926
247,1967.72,0.030028577724145824
248,1976.8,0.031578856434392934
249,1985.9299999999998,0.03058013412432202
250,1995.09,0.030648715202060296
251,2004.3,0.03267749525948055
252,2013.55,0.03274990650064638
253,2022.85,0.03483892672149419
254,2036.8700000000001,0.03350411662432068
255,2046.27,0.03531684480453245
256,2055.7200000000003,0.03199934196442619
257,2065.2000000000003,0.03411830251212912
258,2074.74,0.03924056983545042
259,2079.52,0.03722243629304747
260,2084.31,0.039509490546580914
261,2093.93,0.03852213023739338
262,2103.6,0.04023767890788782
263,2113.31,0.042027938762127855
264,2123.06,0.04320095980011346
265,2132.86,0.043000809817781045
266,2142.71,0.04379574881513061
267,2152.6,0.046380638996225756
268,2162.53,0.046485310361066484
269,2172.52,0.04789202850152559
270,2182.54,0.04800079002979388
271,2187.7616199999998,0.049529957144748185
272,2192.6200000000003,0.05095467290659793
273,2202.74,0.05166429127742251
274,2212.91,0.05131045843466421
275,2223.12,0.052024192621039606
276,2233.38,0.05434784559383211
277,2243.69,0.05496838735304174
278,2254.0499999999997,0.054526817898668485
279,2264.4500000000003,0.05689103547342893
280,2274.9,0.05868113183460648
281,2285.4,0.06024798698220116
282,2295.95,0.05760536091621295
283,2306.55,0.06093643363664186
284,2317.2000000000003,0.06072195514348789
285,2322.54,0.05485032353283604
286,2333.26,0.06173289734066603
287,2344.03,0.06308889993491314
288,2354.85,0.06521873131557736
289,2365.7200000000003,0.0649876714826587
290,2376.64,0.06610961043615717
291,2387.61,0.06527063817607276
292,2393.11,0.06861124468195567
293,2404.16,0.06931334648013865
294,2415.2599999999998,0.07132211706473873
295,2426.4,0.07440859467847251
296,2437.6,0.07430959283590682
297,2443.2200000000003,0.07757511042919082
298,2454.5,0.07890908264489255
299,2465.83,0.07971384364701137
300,2477.21,0.0801577834355473
301,2482.92,0.08028671684438213
302,2494.38,0.06625993069118546
303,2505.8999999999996,0.08268661508168933
304,2511.6699999999996,0.0800138590342247
305,2511.88643,0.08016678748042616
306,2517.46,0.08410368800028115
307,2523.2700000000004,0.08521011285349467
308,2534.9100000000003,0.0878712511996918
309,2546.61,0.08794755546519925
310,2552.4799999999996,0.09223089623772307
311,2564.27,0.09273376438219595
312,2576.1,0.09606829980620904
313,2582.04,0.09710777581792819
314,2593.96,0.09786161512090671
315,2605.9300000000003,0.09907440102331048
316,2617.9599999999996,0.09938305284502455
317,2624.0,0.1025578920555942
318,2636.1099999999997,0.10648566843638865
319,2642.1800000000003,0.11013915560661346
320,2654.38,0.11514882586637336
321,2666.6299999999997,0.10955369272555848
322,2672.78,0.11253237445486369
323,2685.12,0.11603653519301427
324,2697.51,0.1132229925305901
325,2703.7299999999996,0.11603396949909064
326,2716.21,0.1155867207156319
327,2722.4700000000003,0.11710209496367265
328,2735.0400000000004,0.11936204005917934
329,2747.6600000000003,0.11781068175411132
330,2753.9900000000002,0.1204566512413474
331,2766.71,0.12334518613512985
332,2773.08,0.1275729529019061
333,2785.89,0.126199881674654
334,2792.31,0.12070754504085551
335,2805.2,0.1256036683726838
336,2818.14,0.13282078830393734
337,2824.64,0.13611254622921923
338,2837.6800000000003,0.13371755935932328
339,2844.2200000000003,0.13453131456414538
340,2857.3500000000004,0.13399912157321486
341,2863.9300000000003,0.13986817405757715
342,2877.15,0.14387317494561203
343,2883.79,0.14541562334928465
344,2884.0315,0.14547241113562806
345,2897.1000000000004,0.148546288734848
346,2910.47,0.15671487012553842
347,2930.64,0.15775464205150896
348,2950.96,0.1580620137686989
349,2971.41,0.1616977853049457
350,2992.0099999999998,0.16388725663241185
351,3012.75,0.16419672776501618
352,3026.66,0.1700489084040965
353,3047.64,0.17393687920265188
354,3068.7599999999998,0.17995894980634536
355,3090.03,0.18070312020125825
356,3111.4500000000003,0.18955979038739057
357,3133.0200000000004,0.1885905603647423
358,3147.4800000000005,0.19350294023829379
359,3169.2999999999997,0.1974328098676779
360,3191.27,0.1950612792882814
361,3213.39,0.1990194485001043
362,3228.22,0.1981771278586637
363,3250.6000000000004,0.21072449670860027
364,3273.13,0.21697176534975626
365,3288.2400000000002,0.2200585443185919
366,3311.0299999999997,0.21887991259786152
367,3311.31121,0.2192704992597958
368,3318.66,0.2294774166757016
369,3326.31,0.23135851313059383
370,3333.9800000000005,0.23433290905334195
371,3341.67,0.22511130444394603
372,3349.37,0.23984919956847806
373,3357.0899999999997,0.22829749416086603
374,3364.83,0.21930028822110992
375,3372.5899999999997,0.21706708174920972
376,3380.36,0.23127267501123752
377,3388.1499999999996,0.24078886774112118
378,3395.96,0.23778485993886084
379,3403.79,0.2391739516044564
380,3411.6400000000003,0.23295554273790786
381,3419.4999999999995,0.23647933360528733
382,3427.3900000000003,0.2445200236744507
383,3435.2899999999995,0.24651381347754198
384,3443.21,0.2324771027484892
385,3451.14,0.24429599175336442
386,3459.1,0.2412352799600235
387,3467.0800000000004,0.2415290676345385
388,3475.07,0.24405595504298147
389,3483.08,0.2421052419192804
390,3491.11,0.25090472826343524
391,3499.16,0.246062514075446
392,3507.22,0.25208409962138467
393,3515.31,0.24158518436910734
394,3523.4100000000003,0.2532631688507579
395,3531.5299999999997,0.2512418528002644
396,3539.6699999999996,0.2615723362176268
397,3547.83,0.2673549191028452
398,3556.01,0.26277880145591953
399,3564.21,0.2643083832768497
400,3572.42,0.2532897648317079
401,3580.66,0.24895204558834996
402,3586.66,0.1794599859451282
403,3589.3399999999997,0.28662551463782243
404,3592.0200000000004,0.2723228433305167
405,3594.71,0.33798197175713895
406,3597.39,0.1997271004498332
407,3600.07,0.24061412914252747
408,3602.75,0.22546935783522173
409,3605.43,0.263717686527916
410,3608.11,0.25213791522061024
411,3610.79,0.2538504439133045
412,3613.47,0.2304803726059988
413,3616.15,0.24396920129869304
414,3618.83,0.19040742999138732
415,3621.5199999999995,0.29971905841800955
416,3624.2000000000003,0.3216153871107038
417,3626.88,0.34982791580339806
418,3629.56,0.20538304449609232
419,3632.24,0.22423347318878661
420,3634.9199999999996,0.28022340188148087
421,3637.6,0.2509723305741752
422,3640.28,0.28955755926686944
423,3642.96,0.18549408795956365
424,3645.64,0.15655171665225795
425,3648.3300000000004,0.2541012450788802
426,3651.01,0.3373770737715744
427,3653.69,0.31670210246426866
428,3656.37,0.29664463115696293
429,3659.0499999999997,0.2885179598496572
430,3661.7300000000005,0.2408514885423515
431,3664.4100000000003,0.22073791723504577
432,3667.09,0.31298304592774007
433,3669.77,0.3320441746204343
434,3672.45,0.29861030331312854
435,3675.14,0.23036563173975078
436,3677.82,0.21624536043244505
437,3680.5,0.2383521891251393
438,3683.18,0.21809831781783356
439,3685.86,0.2727968465105278
440,3688.54,0.2574554752032221
441,3691.2200000000003,0.2927282038959164
442,3693.9,0.25543443258861065
443,3696.58,0.3116490612813049
444,3699.2599999999998,0.28360498997399913
445,3701.95,0.3604087184006214
446,3704.6299999999997,0.30426464709331563
447,3707.31,0.2930218757860099
448,3709.9900000000002,0.2836880044787042
449,3712.67,0.2717855331713985
450,3715.35,0.26273226186409276
451,3718.0299999999997,0.30510729055678704
452,3720.71,0.3627816192494812
453,3723.39,0.4616800479421755
454,3726.07,0.4911700766348698
455,3728.7599999999998,0.457930305061492
456,3731.4399999999996,0.34068743375418625
457,3734.1200000000003,0.2926000624468805
458,3736.8,0.2666895911395748
459,3739.48,0.2738200198322691
460,3742.16,0.21368954852496333
461,3744.8399999999997,0.28089427721765764
462,3747.5199999999995,0.3310593059103519
463,3750.2000000000003,0.3155215346030461
464,3752.88,0.2569349632957404
465,3755.5699999999997,0.27446459172236265
466,3758.25,0.2945081204150569
467,3760.9300000000003,0.3857285491077512
468,3763.61,0.35402117780044545
469,3766.29,0.2877290064931397
470,3768.97,0.304530235185834
471,3771.6499999999996,0.2974561638785282
472,3774.3300000000004,0.33750119257122246
473,3777.01,0.40314812126391675
474,3779.69,0.41579474995661103
475,3782.38,0.42160367838323326
476,3785.06,0.3462864070759275
477,3787.74,0.3338646357686218
478,3790.42,0.3594103644613161
479,3793.1,0.34169689315401036
480,3795.78,0.3500906218467046
481,3798.46,0.3406725505393988
482,3801.14,0.3196465792320931
483,3801.8939600000003,0.30856244692057405
484,3803.82,0.2802473186026139
485,3806.5,0.4039756621530345
486,3809.19,0.4181922054928223
487,3811.87,0.3617253490432428
488,3814.5499999999997,0.38238659259366337
489,3817.2299999999996,0.35752893614408393
490,3819.9100000000003,0.37504597969450454
491,3822.59,0.36792982324492507
492,3825.27,0.3737268667953456
493,3827.95,0.3402650103457662
494,3830.6299999999997,0.2619999538961867
495,3833.31,0.26701089744660733
496,3836.0,0.27060274078639507
497,3838.68,0.2868425843368157
498,3841.3599999999997,0.30833182788723623
499,3844.0400000000004,0.38906727143765674
500,3846.7200000000003,0.3807581149880773
501,3849.4,0.3590725585384979
502,3852.08,0.45808300208891845
503,3854.7599999999998,0.450573945639339
504,3857.4399999999996,0.45373228918975955
505,3860.1200000000003,0.43799793274018006
506,3862.81,0.4234124760799679
507,3865.49,0.4328167196303884
508,3868.17,0.43862786318080904
509,3870.85,0.4175037067312296
510,3873.53,0.3984569502816501
511,3876.21,0.37487649383207067
512,3878.89,0.3818666373824912
513,3881.5699999999997,0.3557455809329118
514,3884.25,0.3163885244833324
515,3886.9300000000003,0.29628906803375293
516,3889.62,0.3106604113735407
517,3892.3,0.28665895492396126
518,3894.98,0.3082744984743818
519,3897.66,0.3586640420248024
520,3900.34,0.367184085575223
521,3903.02,0.3717599291256435
522,3905.7,0.415271872676064
523,3908.38,0.3833119162264846
524,3911.06,0.4103314597769052
525,3913.74,0.44279710332732575
526,3916.4300000000003,0.42930644666711354
527,3919.11,0.41560739021753407
528,3921.79,0.40937553376795466
529,3924.47,0.3724749773183752
530,3927.1499999999996,0.3675765208687957
531,3929.8300000000004,0.3405150644192163
532,3932.51,0.27301580796963687
533,3935.19,0.3273073515200574
534,3937.87,0.278672395070478
535,3940.5499999999997,0.34743533862089854
536,3943.2400000000002,0.3704527819606863
537,3945.92,0.3385069255111069
538,3948.6,0.3567818690615275
539,3951.2799999999997,0.435187412611948
540,3953.96,0.41306675616236854
541,3956.6400000000003,0.36055799971278907
542,3959.32,0.3589580432632097
543,3962.0,0.3317561868136302
544,3964.68,0.2833880303640508
545,3967.3599999999997,0.23833227391447134
546,3970.0400000000004,0.27608941746489185
547,3972.73,0.2736598608046797
548,3975.41,0.3613150043551002
549,3978.09,0.3886152479055208
550,3980.77,0.4415874914559414
551,3983.4500000000003,0.4616171350063619
552,3986.13,0.4815203785567825
553,3988.81,0.4582066221072031
554,3991.49,0.4825874656576236
555,3994.17,0.4959079092080442
556,3996.85,0.4791911527584647
557,3999.54,0.4697005960982525
558,4002.2200000000003,0.5564855396486731
559,4004.9,0.5059840831990936
560,4007.58,0.5129181267495141
561,4010.2599999999998,0.48473387029993475
562,4012.94,0.5204700138503553
563,4015.62,0.46213615740077585
564,4018.3,0.5072483009511964
565,4020.98,0.511150544501617
566,4023.66,0.5086803880520375
567,4026.3500000000004,0.5104746313918254
568,4029.03,0.4979125749422459
569,4031.71,0.48344171849266643
