,lambda (Angstroms),Total Flux (erg/s/cm^2/Angstrom)
0,102.08999999999999,19.030858478827597
1,103.97999999999999,18.97689962240755
2,104.712855,18.95597688639835
3,105.92,18.774944275203048
4,107.89,18.479508249643317
5,109.89,18.179573564248834
6,114.02000000000001,17.560208010071577
7,118.02,16.960338468391605
8,120.22644299999999,16.62945354762813
9,121.05,16.525909768342284
10,125.02,16.02675838042952
11,127.05,15.771524269657373
12,127.93,15.660881708853584
13,130.91,15.286203322427575
14,132.12,15.134073534144868
15,133.96,14.902728930601493
16,137.07999999999998,14.510456430825341
17,138.038426,14.389953305990074
18,139.95000000000002,14.21816137443257
19,142.88,13.95494309021846
20,146.88,13.595699096759269
21,151.0,13.225469248465298
22,154.87,12.877715753318778
23,158.489319,12.552495305161315
24,158.83999999999997,12.528673595451197
25,162.17,12.302459538556676
26,165.94,12.046376897042759
27,169.81,11.783489036265344
28,172.97,11.568834222398772
29,177.0,11.295080666059757
30,179.87,11.100127369117331
31,181.95,10.958838035916552
32,181.970086,10.957473623992916
33,186.19,10.738801037881904
34,190.97,10.491116083925844
35,194.07,10.330490455931328
36,198.14,10.11958839024175
37,201.82,9.928914694945032
38,205.1,9.758955681615351
39,208.929613,9.560474800728665
40,209.88,9.523444679364106
41,215.76000000000002,9.294479849428201
42,219.77,9.138300397300142
43,222.82,9.019482998549378
44,226.96999999999997,8.857855506970466
45,230.12,8.73610102732623
46,233.86,8.592261288710537
47,239.86,8.36006183610247
48,239.88329199999998,8.359152802037455
49,246.01999999999998,8.174509774588023
50,251.75,8.003022984455177
51,257.02,7.843546277633172
52,259.99,7.755523659365362
53,264.22,7.628925862680905
54,269.13,7.481538533406516
55,274.13,7.33140029924522
56,275.42287,7.292586595982846
57,279.23,7.204878583857991
58,283.77,7.100292188432367
59,289.71,6.963102165439369
60,295.78000000000003,6.823331388757972
61,301.28,6.696428201171864
62,308.28999999999996,6.535057332666661
63,316.227766,6.352349545184432
64,317.66,6.327737621558704
65,328.07000000000005,6.148571790685855
66,338.04,5.976896735247594
67,348.31,5.800024418694842
68,357.24,5.6463026979201505
69,363.078055,5.545901250639826
70,366.41,5.503001837243646
71,374.94,5.392936263240194
72,384.55999999999995,5.268562521455524
73,395.33,5.130027975653977
74,404.53999999999996,5.011429996979674
75,413.96000000000004,4.889858334980548
76,416.86938299999997,4.852271735552839
77,421.66,4.804977158478617
78,430.48999999999995,4.717920560217037
79,440.52,4.61920892561753
80,450.78,4.518060168678253
81,460.22,4.424881720819893
82,469.84999999999997,4.3299877063330285
83,478.630092,4.243589017019306
84,479.69,4.235568639040856
85,489.73999999999995,4.159113762984703
86,499.99,4.081676068016982
87,505.78,4.0375277430771686
88,511.64,3.993732098668306
89,519.95,3.9306788048427697
90,529.62,3.85721673961859
91,539.46,3.7822897869695784
92,549.49,3.706178604904582
93,549.5408739999999,3.7057947112711997
94,559.71,3.6473184818671767
95,570.12,3.5873672587397127
96,579.38,3.5336920927396824
97,590.15,3.4714319727288485
98,599.74,3.415559513335728
99,609.49,3.3585121369944435
100,619.39,3.302259490201755
101,629.45,3.2439196164609005
102,630.957344,3.2352294209608
103,639.68,3.1953832754827056
104,650.0699999999999,3.1476162363378952
105,657.6,3.1128722784745233
106,665.22,3.078176158612785
107,674.4699999999999,3.0358454184472903
108,685.4300000000001,2.9852022583128215
109,694.97,2.9417723384859213
110,704.63,2.8969993076611984
111,716.08,2.8450019532022868
112,724.43596,2.806686452152626
113,726.04,2.8012240379249262
114,734.4499999999999,2.7725753232938586
115,744.6700000000001,2.7376710526197185
116,755.03,2.7023671212240163
117,765.53,2.6661220961067498
118,774.4,2.6363828069619735
119,785.1700000000001,2.599494430738834
120,794.26,2.568700473174458
121,805.3100000000001,2.5311341515081915
122,814.64,2.499358229849707
123,824.0699999999999,2.467279786818676
124,831.763771,2.440750303235087
125,835.53,2.4309962034390953
126,845.21,2.4067912192623386
127,854.99,2.3818419079102036
128,864.89,2.3566990085476123
129,874.91,2.331208888174565
130,885.04,2.3054232262086005
131,895.29,2.279325095232181
132,905.66,2.2528751322453044
133,914.04,2.2315617703484847
134,924.62,2.2075966475933115
135,935.33,2.1837477134101446
136,943.9799999999999,2.1655189872397997
137,954.9100000000001,2.1408829858707974
138,954.992586,2.1406748903439112
139,965.97,2.1136170401420533
140,974.91,2.080853345181932
141,983.93,2.0646004251036003
142,995.3199999999999,2.0371773723982556
143,1004.53,2.0197323371641707
144,1016.16,1.9911735951041922
145,1025.57,1.9597974870745791
146,1035.05,1.9394401725665311
147,1044.63,1.925243481660719
148,1054.3,1.9004473809969191
149,1064.05,1.8708998572149076
150,1073.9,1.8494940670351319
151,1083.83,1.8199747337371457
152,1093.86,1.8008685940413942
153,1096.4782,1.7940802820042616
154,1103.98,1.7780097969269446
155,1114.2,1.755997814633992
156,1124.51,1.7324411296398299
157,1134.9099999999999,1.716503131944458
158,1145.42,1.6931974787253843
159,1156.01,1.6727544542163466
160,1164.03,1.6564815123974155
161,1174.8,1.6270601424859579
162,1185.67,1.6115203984620443
163,1193.8899999999999,1.5885692984182027
164,1204.93,1.5622796904031147
165,1216.08,1.5378902318643268
166,1224.51,1.5272470771843276
167,1235.84,1.5108405782431193
168,1244.4099999999999,1.494975648805683
169,1255.92,1.470076114462054
170,1258.92541,1.462989057763918
171,1264.6299999999999,1.4528703878060691
172,1276.33,1.4413543945106366
173,1285.1799999999998,1.4296825331717844
174,1294.09,1.4102188727391092
175,1306.06,1.3926746685214746
176,1315.11,1.3851478735365463
177,1324.23,1.3705814212754917
178,1336.4799999999998,1.3494474179533515
179,1345.75,1.3407520429577395
180,1355.07,1.3263296570506091
181,1364.47,1.309643275685048
182,1373.9299999999998,1.2969570952256648
183,1383.45,1.2831454556724584
184,1396.25,1.2607487523236096
185,1405.93,1.2471287518535428
186,1415.67,1.2344182122896528
187,1425.49,1.2207802672673331
188,1435.37,1.2064460631511904
189,1441.99,1.1979619964660826
190,1445.43977,1.19319327506579
191,1448.6499999999999,1.1901621750438354
192,1455.34,1.1824858306204176
193,1465.42,1.1704044130138327
194,1475.58,1.1602951303468785
195,1485.81,1.1505303595021006
196,1496.11,1.1403805304794992
197,1506.48,1.1285565832790743
198,1513.43,1.119201299909455
199,1516.9199999999998,1.1170383479008261
200,1523.92,1.1093319401184754
201,1534.49,1.0959059852671262
202,1545.1200000000001,1.0862051691204997
203,1555.83,1.0747122879135036
204,1566.62,1.0645417816461376
205,1573.85,1.0584468755652243
206,1584.76,1.0485058767073037
207,1595.74,1.0377291996715596
208,1606.8,1.026356117575446
209,1614.22,1.0189710807261545
210,1625.4099999999999,1.0067983791569401
211,1636.68,0.9968378925273558
212,1644.2300000000002,0.9895950662049633
213,1655.6299999999999,0.9768642901022785
214,1659.58691,0.9737331943327522
215,1663.27,0.9719362846605939
216,1670.95,0.9641282728953663
217,1678.6599999999999,0.9616831929982433
218,1686.41,0.9571183522585929
219,1694.1899999999998,0.9504759333870474
220,1705.94,0.9415790883946742
221,1713.81,0.9349162951274422
222,1725.69,0.9265337548968557
223,1733.6599999999999,0.9225763045233056
224,1745.67,0.9139164490545056
225,1753.73,0.9097238742852692
226,1765.8899999999999,0.8998133581569921
227,1774.04,0.8943219489920697
228,1786.34,0.8865437849149471
229,1794.5800000000002,0.8823347813543383
230,1807.02,0.8738960293283707
231,1815.3600000000001,0.8662165086614437
232,1823.74,0.8612720471519896
233,1836.3799999999999,0.8519869509133858
234,1844.8600000000001,0.8445839722976136
235,1853.3700000000001,0.8390016955499459
236,1866.22,0.8309823623880741
237,1874.8400000000001,0.8271054958234566
238,1883.4899999999998,0.819328271126944
239,1896.55,0.8096299210418041
240,1905.3,0.8056177492389732
241,1905.46072,0.805491027595883
242,1914.09,0.800322460498305
243,1922.9299999999998,0.7955001607517586
244,1936.26,0.7905762025253482
245,1945.19,0.7873832338560427
246,1954.17,0.7810229468963155
247,1967.72,0.7774723301920501
248,1976.8,0.7743051366514797
249,1985.9299999999998,0.7685629648204876
250,1995.09,0.7638725100152424
251,2004.3,0.7611162769195757
252,2013.55,0.7563828931915716
253,2022.85,0.7536401411731458
254,2036.8700000000001,0.745021304538917
255,2046.27,0.7419503059396481
256,2055.7200000000003,0.7337230990499571
257,2065.2000000000003,0.7309167691860137
258,2074.74,0.7310825733735643
259,2079.52,0.726581012809255
260,2084.31,0.7263794445868615
261,2093.93,0.7203940575097374
262,2103.6,0.7170856021421915
263,2113.31,0.7138310761423082
264,2123.06,0.7099385295100877
265,2132.86,0.7046468345874455
266,2142.71,0.7003242513743818
267,2152.6,0.6977708375289808
268,2162.53,0.6927164230512421
269,2172.52,0.6889328826249979
270,2182.54,0.6838357992245004
271,2187.7616199999998,0.6826520976770856
272,2192.6200000000003,0.6823675257874758
273,2202.74,0.6795166999294079
274,2212.91,0.6755848317301438
275,2223.12,0.6727064576579229
276,2233.38,0.671420411244506
277,2243.69,0.6684136624898932
278,2254.0499999999997,0.6643272113940843
279,2264.4500000000003,0.6630324744253187
280,2274.9,0.661146025115357
281,2285.4,0.6590187434641994
282,2295.95,0.6526643894718459
283,2306.55,0.6522661431382963
284,2317.2000000000003,0.6483047544635505
285,2322.54,0.6405543904238191
286,2333.26,0.6436654264713991
287,2344.03,0.6412323001777831
288,2354.85,0.6395554115429714
289,2365.7200000000003,0.6355000405669632
290,2376.64,0.6327800772497594
291,2387.61,0.6280816115913596
292,2393.11,0.6294871940598008
293,2404.16,0.6263016566554873
294,2415.2599999999998,0.624405196909978
295,2426.4,0.6235723712915114
296,2437.6,0.6195329568636101
297,2443.2200000000003,0.6208212317131809
298,2454.5,0.618186645539366
299,2465.83,0.6150052570243549
300,2477.21,0.611445456168148
301,2482.92,0.609565482803566
302,2494.38,0.5915068102014454
303,2505.8999999999996,0.6038804987898898
304,2511.6699999999996,0.5991777266158728
305,2511.88643,0.599254510107088
306,2517.46,0.6017314769105329
307,2523.2700000000004,0.6013160378789574
308,2534.9100000000003,0.6009282096814469
309,2546.61,0.5979398310808562
310,2552.4799999999996,0.6006855916462013
311,2564.27,0.5981002024409906
312,2576.1,0.5983360029670601
313,2582.04,0.5978195630621449
314,2593.96,0.5954510929835944
315,2605.9300000000003,0.5935284725691441
316,2617.9599999999996,0.5906860017516138
317,2624.0,0.5922787311748987
318,2636.1099999999997,0.5930344298199285
319,2642.1800000000003,0.5950979490416732
320,2654.38,0.596911967082083
321,2666.6299999999997,0.5881080847865932
322,2672.78,0.5894758434708978
323,2685.12,0.589747680570788
324,2697.51,0.5836887173347778
325,2703.7299999999996,0.584870435548823
326,2716.21,0.5811541917081928
327,2722.4700000000003,0.5810298296535179
328,2735.0400000000004,0.5799972052082679
329,2747.6600000000003,0.5751401804271181
330,2753.9900000000002,0.5761280779021832
331,2766.71,0.5756847524492336
332,2773.08,0.5782439696555787
333,2785.89,0.5735154635980091
334,2792.31,0.5663414804684541
335,2805.2,0.5678612138734446
336,2818.14,0.571688846942535
337,2824.64,0.5732780032755402
338,2837.6800000000003,0.5674673356728306
339,2844.2200000000003,0.5665680117371159
340,2857.3500000000004,0.5625965635297864
341,2863.9300000000003,0.5667420593253518
342,2877.15,0.5672842305134024
343,2883.79,0.5670874059058878
344,2884.0315,0.5670809354946105
345,2897.1000000000004,0.5677366401708717
346,2910.47,0.5734312595934742
347,2930.64,0.570738809163698
348,2950.96,0.5672862027812957
349,2971.41,0.567137941239951
350,2992.0099999999998,0.5655156237459802
351,3012.75,0.5619874006962251
352,3026.66,0.565265698689374
353,3047.64,0.5652715661154174
354,3068.7599999999998,0.5673856279856765
355,3090.03,0.5641940339033095
356,3111.4500000000003,0.5690871838683165
357,3133.0200000000004,0.5641266778806976
358,3147.4800000000005,0.5663634040475511
359,3169.2999999999997,0.5662557381388891
360,3191.27,0.5598189162776007
361,3213.39,0.5596840384636865
362,3228.22,0.5560975999473958
363,3250.6000000000004,0.5645038118155965
364,3273.13,0.5665821677311711
365,3288.2400000000002,0.566873018103312
366,3311.0299999999997,0.5614773637010018
367,3311.31121,0.5618159157447575
368,3318.66,0.5710598463007168
369,3326.31,0.5719384852791276
370,3333.9800000000005,0.5739078029215343
371,3341.67,0.5636784992279371
372,3349.37,0.5774073848663376
373,3357.0899999999997,0.564844049168734
374,3364.83,0.5548325921351261
375,3372.5899999999997,0.5515825137655143
376,3380.36,0.5647699247279001
377,3388.1499999999996,0.5732653143542821
378,3395.96,0.5692378826446596
379,3403.79,0.5696009295990332
380,3411.6400000000003,0.5623538552174024
381,3419.4999999999995,0.5648476701677698
382,3427.3900000000003,0.5718544531141309
383,3435.2899999999995,0.5728130253924899
384,3443.21,0.5577384763348447
385,3451.14,0.5685182166091974
386,3459.1,0.564414424879544
387,3467.0800000000004,0.5636625118138863
388,3475.07,0.5651423880802265
389,3483.08,0.5621420430105628
390,3491.11,0.5698892766048946
391,3499.16,0.5639921888632224
392,3507.22,0.5689575904535482
393,3515.31,0.5573985600398678
394,3523.4100000000003,0.5680151189581851
395,3531.5299999999997,0.5649297565404985
396,3539.6699999999996,0.5741935727868076
397,3547.83,0.5789068676971125
398,3556.01,0.5732588412714134
399,3564.21,0.5737138935097099
400,3572.42,0.5616194350800046
401,3580.66,0.5562019446462929
402,3586.66,0.4859236438450466
403,3589.3399999999997,0.5927379848204899
404,3592.0200000000004,0.5780841257959332
405,3594.71,0.6433907561033745
406,3597.39,0.5047846970788177
407,3600.07,0.545320538054261
408,3602.75,0.5298245790297043
409,3605.43,0.5677217200051476
410,3608.11,0.5557907609805909
411,3610.79,0.5571521019560342
412,3613.47,0.5334308429314776
413,3616.15,0.5465684839069208
414,3618.83,0.4926555248823641
415,3621.5199999999995,0.6016146551898054
416,3624.2000000000003,0.6231597961652485
417,3626.88,0.6510211371406919
418,3629.56,0.5062250781161352
419,3632.24,0.5247243190915785
420,3634.9199999999996,0.5803630600670219
421,3637.6,0.5507608010424652
422,3640.28,0.5889948420179084
423,3642.96,0.4845801829933517
424,3645.64,0.45528662396879505
425,3648.3300000000004,0.5524836542762361
426,3651.01,0.6354082952516795
427,3653.69,0.6143821362271228
428,3656.37,0.5939734772025661
429,3659.0499999999997,0.5854956181780094
430,3661.7300000000005,0.5374779591534526
431,3664.4100000000003,0.517013200128896
432,3667.09,0.6089071411043393
433,3669.77,0.6276170820797826
434,3672.45,0.5938320230552259
435,3675.14,0.5252348533626672
436,3677.82,0.5107633943381105
437,3680.5,0.5325190353135537
438,3683.18,0.511913976288997
439,3685.86,0.5662613172644403
440,3688.54,0.5505687582398836
441,3691.2200000000003,0.5854902992153269
442,3693.9,0.5478453401907701
443,3696.58,0.6037087811662135
444,3699.2599999999998,0.5753135221416568
445,3701.95,0.6517647524490982
446,3704.6299999999997,0.5952694934245414
447,3707.31,0.5836755343999847
448,3709.9900000000002,0.5739904753754279
449,3712.67,0.5617368163508712
450,3715.35,0.5523323573263146
451,3718.0299999999997,0.5943561983017579
452,3720.71,0.6516793392772011
453,3723.39,0.7502265802526444
454,3726.07,0.7793654212280877
455,3728.7599999999998,0.745773151535529
456,3731.4399999999996,0.6281790925109723
457,3734.1200000000003,0.5797405334864154
458,3736.8,0.5534788744618588
459,3739.48,0.5602581154373021
460,3742.16,0.49977645641274543
461,3744.8399999999997,0.5666299973881888
462,3747.5199999999995,0.6164438383636321
463,3750.2000000000003,0.6005548793390753
464,3752.88,0.5416171203145186
465,3755.5699999999997,0.5587942506219599
466,3758.25,0.5784865915974031
467,3760.9300000000003,0.6693558325728464
468,3763.61,0.6372972735482898
469,3766.29,0.570653914523733
470,3768.97,0.5871039554991764
471,3771.6499999999996,0.5796786964746197
472,3774.3300000000004,0.6193725374500629
473,3777.01,0.6846682784255063
474,3779.69,0.6969637194009495
475,3782.38,0.7024201497083907
476,3785.06,0.626751690683834
477,3787.74,0.6139787316592773
478,3790.42,0.6391732726347206
479,3793.1,0.621108613610164
480,3795.78,0.6291511545856072
481,3798.46,0.6193818955610506
482,3801.14,0.5980047365364939
483,3801.8939600000003,0.5868218051610573
484,3803.82,0.558327492602871
485,3806.5,0.6818065091591448
486,3809.19,0.6957727951801809
487,3811.87,0.6390566117364544
488,3814.5499999999997,0.6594685282927284
489,3817.2299999999996,0.6343615448490021
490,3819.9100000000003,0.6516292614052759
491,3822.59,0.6442637779615497
492,3825.27,0.6498114945178235
493,3827.95,0.6161003110740972
494,3830.6299999999997,0.537585927630371
495,3833.31,0.5423475441866449
496,3836.0,0.5456891302076808
497,3838.68,0.5616796467639547
498,3841.3599999999997,0.5829195633202284
499,3844.0400000000004,0.6634056798765021
500,3846.7200000000003,0.654847196432776
501,3849.4,0.6329123129890497
502,3852.08,0.7316734295453236
503,3854.7599999999998,0.7239150461015973
504,3857.4399999999996,0.7268240626578711
505,3860.1200000000003,0.7108403792141449
506,3862.81,0.6960046652351809
507,3865.49,0.7051595817914547
508,3868.17,0.7107213983477285
509,3870.85,0.6893479149040023
510,3873.53,0.6700518314602759
511,3876.21,0.6462220480165497
512,3878.89,0.6529628645728236
513,3881.5699999999997,0.6265924811290974
514,3884.25,0.5869860976853711
515,3886.9300000000003,0.566637314241645
516,3889.62,0.5807584002626809
517,3892.3,0.5565076168189547
518,3894.98,0.5778738333752285
519,3897.66,0.6280140499315023
520,3900.34,0.6362847664877761
521,3903.02,0.6406112830440498
522,3905.7,0.6838738996003236
523,3908.38,0.6516646161565974
524,3911.06,0.6784348327128713
525,3913.74,0.710651149269145
526,3916.4300000000003,0.696910235290181
527,3919.11,0.6829618518464547
528,3921.79,0.6764806684027286
529,3924.47,0.6393307849590024
530,3927.1499999999996,0.6341830015152762
531,3929.8300000000004,0.6068722180715498
532,3932.51,0.5391236346278236
533,3935.19,0.5931658511840975
534,3937.87,0.5442815677403713
535,3940.5499999999997,0.612795184296645
536,3943.2400000000002,0.635562370317681
537,3945.92,0.6033671868739547
538,3948.6,0.6213928034302286
539,3951.2799999999997,0.6995490199865024
540,3953.96,0.6771790365427761
541,3956.6400000000003,0.6244209530990499
542,3959.32,0.6225716696553237
543,3962.0,0.5951204862115975
544,3964.68,0.5465030027678713
545,3967.3599999999997,0.5011979193241451
546,3970.0400000000004,0.5387057358804188
547,3972.73,0.5360259219014549
548,3975.41,0.6234317384577287
549,3978.09,0.6504826550140024
550,3980.77,0.7032055715702763
551,3983.4500000000003,0.7229858881265501
552,3986.13,0.7426398046828238
553,3988.81,0.7190767212390976
554,3991.49,0.7432082377953715
555,3994.17,0.7562793543516452
556,3996.85,0.739313270907919
557,3999.54,0.729572456928955
558,4002.2200000000003,0.8161080734852287
559,4004.9,0.7653572900415024
560,4007.58,0.7720420065977762
561,4010.2599999999998,0.7436084231540501
562,4012.94,0.7790952397103239
563,4015.62,0.7205120562665976
564,4018.3,0.7653748728228714
565,4020.98,0.7690277893791453
566,4023.66,0.766308305935419
567,4026.3500000000004,0.767852291956455
568,4029.03,0.7550409085127288
569,4031.71,0.7403207250690026
570,4034.39,0.7292357416252764
571,4037.0699999999997,0.7846534581815501
572,4039.7499999999995,0.760164074737824
573,4042.4300000000003,0.7556339912940977
574,4045.11,0.8065885078503714
575,4047.79,0.7679226244066453
576,4050.47,0.753272440962919
577,4053.1600000000003,0.788657426983955
578,4055.84,0.7942332435402288
579,4058.52,0.6803622600965027
580,4061.2,0.7681753766527764
581,4063.88,0.7778636932090502
582,4066.5600000000004,0.7337658097653239
583,4069.2400000000002,0.7160559263215978
584,4071.92,0.7057569428778716
585,4074.6,0.7116274594341454
586,4077.2799999999997,0.7482230759904192
587,4079.97,0.7138770620114552
588,4082.65,0.7681438785677289
589,4085.33,0.7492688951240027
590,4088.01,0.7521778116802764
591,4090.69,0.7507637282365502
592,4093.37,0.7407735447928241
593,4096.05,0.6391137613490978
