,lambda (Angstroms),Total Flux (erg/s/cm^2/Angstrom)
0,100.04,1.7368668019473936e-05
1,101.89999999999999,2.088684526241388e-05
2,104.03,2.4915724435563876e-05
3,104.712855,2.6207340523795642e-05
4,105.96,2.423907431373264e-05
5,107.93,2.1129987435650814e-05
6,109.94,1.795778392408675e-05
7,114.07000000000001,1.1439761003552344e-05
8,118.07,5.126913702825348e-06
9,120.22644299999999,1.723689716549271e-06
10,121.1,1.6599457169654852e-06
11,125.07000000000001,1.3701422434638912e-06
12,127.10000000000001,1.2219635978552681e-06
13,127.98,1.157737771224437e-06
14,130.97,9.395040383821794e-07
15,131.87,8.738541054256466e-07
16,134.02,7.169420736628186e-07
17,137.14000000000001,4.89305440653506e-07
18,138.038426,4.2375853721952724e-07
19,140.01,4.188102580632931e-07
20,142.94,4.118151568396887e-07
21,146.95,4.0223258119919257e-07
22,151.06,3.922191390015769e-07
23,154.94,3.829152349853363e-07
24,158.489319,3.744929967293403e-07
25,158.91,3.729126838155069e-07
26,161.87,3.6187197483903093e-07
27,166.01999999999998,3.4647796240579616e-07
28,169.89000000000001,3.3231275172709257e-07
29,173.04,3.208122839886132e-07
30,177.07,3.0629144687874896e-07
31,179.95000000000002,2.960719931178533e-07
32,181.970086,2.8889341417244605e-07
33,182.04000000000002,2.8901117718991024e-07
34,185.85,2.957181599274593e-07
35,191.05,3.0485705012043976e-07
36,194.16,3.105283880243184e-07
37,198.22,3.18150646059607e-07
38,201.91,3.2541615225424115e-07
39,205.19,3.317128877605827e-07
40,208.929613,3.390947408823521e-07
41,209.96999999999997,3.478786255606913e-07
42,215.85,3.987988201281865e-07
43,219.85999999999999,4.334742542975155e-07
44,222.92,4.5995225585815064e-07
45,227.07000000000002,4.961841725171823e-07
46,230.23,5.950095601418903e-07
47,233.97,6.737651209382222e-07
48,239.88329199999998,7.536404538729683e-07
49,239.97,7.535870650891544e-07
50,246.13,7.228585875311308e-07
51,251.86,7.035731222052415e-07
52,257.13,6.556475490346597e-07
53,260.11,6.634058433328884e-07
54,263.73,6.546053659367771e-07
55,269.25,6.296030600730936e-07
56,274.26,6.069873129033372e-07
57,275.42287,6.019259742925234e-07
58,278.71,6.309766451948094e-07
59,283.89,6.755961147308247e-07
60,289.84,7.19496918927599e-07
61,295.90999999999997,7.748385220325436e-07
62,300.72,8.076000866017011e-07
63,307.72,8.714463562449652e-07
64,316.227766,9.484608048927922e-07
65,317.8,9.441413858580957e-07
66,328.21000000000004,9.07017785255629e-07
67,338.19,8.717670435637354e-07
68,347.65999999999997,8.387800601146136e-07
69,357.40000000000003,8.05896216419318e-07
70,363.078055,7.907024651638754e-07
71,365.73,8.071614380050235e-07
72,375.11,8.577156501059874e-07
73,384.73,9.086240043076158e-07
74,394.6,9.79659235697436e-07
75,404.72,1.0480021442754485e-06
76,414.15,1.1153610318140507e-06
77,416.86938299999997,1.13507554052464e-06
78,421.85,1.163426094964293e-06
79,429.69,1.2143584077074912e-06
80,440.71,1.3016924922011195e-06
81,450.98,1.38508723147059e-06
82,460.42,1.4645841406919918e-06
83,470.06,1.5768249619731694e-06
84,478.630092,1.689674884087913e-06
85,479.90999999999997,1.6996183518308169e-06
86,489.95,1.7810809878871282e-06
87,500.21000000000004,1.9116733805104105e-06
88,506.01,4.844024417276009e-06
89,511.87000000000006,1.5203130678559872e-05
90,520.1800000000001,1.5312647774339548e-05
91,529.85,1.5660899292533225e-05
92,539.6999999999999,1.48525094842817e-05
93,549.5408739999999,1.829342227842633e-05
94,549.74,1.836345911707155e-05
95,559.9599999999999,2.1622510670761223e-05
96,570.37,2.364972281106547e-05
97,579.64,2.2854041431682228e-05
98,590.4100000000001,2.6219044683466743e-05
99,600.01,2.6386284322940403e-05
100,609.76,2.987880442553084e-05
101,619.66,3.376641499123806e-05
102,629.73,3.565048608181095e-05
103,630.957344,3.5787662059727396e-05
104,639.9599999999999,3.681493010486294e-05
105,650.36,3.988280540371083e-05
106,657.89,4.1277634057588183e-05
107,665.51,4.3906703651551735e-05
108,674.77,4.585999704264129e-05
109,685.7299999999999,4.5357024857580986e-05
110,695.2700000000001,5.3094944506716453e-05
111,704.95,5.143802228487487e-05
112,716.4,5.994595855139489e-05
113,724.43596,6.175448276297949e-05
114,726.3699999999999,6.218862580912709e-05
115,734.78,6.495234582805587e-05
116,745.0,6.940691971550561e-05
117,755.36,7.265886064250944e-05
118,765.87,7.589071625474983e-05
119,774.74,8.054375797507068e-05
120,785.52,8.587629002073683e-05
121,794.61,8.908500994607127e-05
122,805.67,9.241275607084564e-05
123,815.0,9.564442949255856e-05
124,824.4300000000001,0.00010198255937109584
125,831.763771,9.697054364403757e-05
126,835.9,9.413372229628134e-05
127,845.5799999999999,0.0001082188377267404
128,855.37,0.00011224141980981832
129,865.28,0.00011802300187757136
130,875.3,0.00012382580059794323
131,885.43,0.00013021811597093395
132,895.6899999999999,0.0001356888146606561
133,903.97,0.00013849711360323883
134,914.4399999999999,0.00019452016226614242
135,925.03,0.001076568010913721
136,935.74,0.002207696159545975
137,944.4,0.004334098725106695
138,954.992586,0.005707672238384717
139,955.3399999999999,0.00575272297791721
140,964.1800000000001,0.00709368164900609
141,975.3399999999999,0.0022127097088875274
142,984.36,0.007671371332555141
143,995.76,0.007514041329208221
144,1004.98,0.008666956900185539
145,1014.2800000000001,0.007831925450086737
146,1026.02,0.003310600357166312
147,1035.51,0.006589955857011728
148,1045.1000000000001,0.009746857330511994
149,1054.77,0.009657462782936143
150,1064.53,0.008627092211649659
151,1074.38,0.009437737616652541
152,1084.32,0.008450176997944788
153,1094.3500000000001,0.009591015355526401
154,1096.4782,0.009500311877257646
155,1104.48,0.009159272196921144
156,1114.7,0.009096174769964434
157,1125.01,0.008411372268797733
158,1135.42,0.009286726685175486
159,1145.92,0.008727060027343247
160,1153.8700000000001,0.00897140747212741
161,1164.54,0.009096341674120748
162,1175.32,0.007326057785412984
163,1186.2,0.008787352814249675
164,1194.42,0.007600863036403866
165,1205.47,0.006178302925066131
166,1213.8300000000002,0.003089439031782559
167,1225.06,0.006529279772024842
168,1236.39,0.008257810429811581
169,1244.96,0.008607179363371366
170,1253.59,0.008489090247457821
171,1258.92541,0.008313331463377621
172,1265.1899999999998,0.00810696921553519
173,1273.96,0.008706829729896486
174,1285.75,0.008746964421381054
175,1294.66,0.00792251094395336
176,1303.64,0.007940681470631173
177,1315.6999999999998,0.008567661177951266
178,1324.82,0.008276656712840093
179,1334.0,0.007886158251247923
180,1346.3400000000001,0.00827675897499004
181,1355.6799999999998,0.008200849522781885
182,1365.07,0.007849885073506237
183,1374.54,0.007849788628922594
184,1384.06,0.007886188187271456
185,1393.6599999999999,0.007109836750312326
186,1406.55,0.007258868506311993
187,1416.3,0.007548529078150377
188,1426.12,0.0074620436540942655
189,1436.01,0.007479305234143661
190,1442.63,0.007583399622407261
191,1445.43977,0.007539352212632961
192,1445.96,0.007531196812808546
193,1455.98,0.007427812306037224
194,1466.07,0.007192292802711612
195,1476.24,0.007142705303323954
196,1486.47,0.00707722080688976
197,1493.33,0.007044794144569274
198,1503.68,0.006805642654042012
199,1510.6200000000001,0.006454507995659479
200,1517.6000000000001,0.006604843339245925
201,1524.6000000000001,0.006574547683816857
202,1535.1699999999998,0.006107499204118966
203,1545.81,0.006178347727866785
204,1556.5300000000002,0.005968460255552557
205,1563.71,0.006107536608983885
206,1574.5500000000002,0.006278671142576587
207,1585.46,0.006307707679614999
208,1596.45,0.006336788220591364
209,1603.82,0.006164097583375332
210,1614.94,0.006121646130750872
211,1626.13,0.006023858681572121
212,1633.64,0.006135779051247507
213,1644.96,0.006065494608467931
214,1656.3700000000001,0.005941056170118551
215,1659.58691,0.006011172334623526
216,1664.01,0.006107579918466946
217,1671.69,0.0058595836792481246
218,1675.5400000000002,0.006093461063233481
219,1683.28,0.006079448845583263
220,1694.95,0.005913833040676539
221,1706.6999999999998,0.005765915264527952
222,1714.57,0.005608783093609707
223,1726.46,0.005557385367787861
224,1734.43,0.005673715232817287
225,1746.45,0.005557399553727414
226,1754.51,0.005647660451109745
227,1766.6699999999998,0.0054060378223466125
228,1774.83,0.005430940755676615
229,1783.02,0.005443435699790919
230,1795.38,0.005506507142923129
231,1803.67,0.005493754122985105
232,1816.17,0.005270765616444054
233,1824.55,0.005307309628858935
234,1832.9699999999998,0.005210491655652884
235,1845.68,0.004941727224601945
236,1854.2,0.004896359287343565
237,1867.0500000000002,0.004941726906619366
238,1875.67,0.005080147005308657
239,1884.33,0.004784927118377019
240,1893.02,0.0046013832422296804
241,1905.46072,0.0047962882218639995
242,1906.15,0.004807086394987532
243,1914.94,0.004643937321969745
244,1923.78,0.004548739225783484
245,1937.12,0.004643911044434535
246,1946.06,0.0047301349019113256
247,1955.0400000000002,0.004475883740853337
248,1968.5900000000001,0.004665299462196794
249,1977.68,0.0047520742501681625
250,1982.24,0.004559146137203304
251,1995.98,0.00445534077050656
252,2005.19,0.004517304502873589
253,2014.45,0.004486204212072144
254,2023.75,0.00454862690273592
255,2033.09,0.004384035574864916
256,2047.18,0.004394115045988851
257,2056.63,0.004215795667147204
258,2066.12,0.004264532269770777
259,2075.66,0.004424597849225876
260,2085.24,0.004314029410146195
261,2094.87,0.004167526947898041
262,2104.53,0.004225496471748801
263,2114.25,0.004215760967797392
264,2124.01,0.004244975445311204
265,2133.81,0.004138813904290237
266,2143.66,0.0040914623401007945
267,2153.56,0.004138772752742878
268,2163.5,0.004063211146850183
269,2173.48,0.004035288522422708
270,2183.5099999999998,0.0039890678748267586
271,2187.7616199999998,0.004008560510388718
272,2193.59,0.004035287057998464
273,2203.7200000000003,0.003961620800436049
274,2213.89,0.0038893395576512745
275,2224.11,0.0038183153333385517
276,2234.37,0.0038714641238034703
277,2244.69,0.0038182899364348497
278,2255.05,0.0037401217638438704
279,2265.46,0.0037486556097249425
280,2275.92,0.0037486584740780656
281,2286.42,0.0037486943532088297
282,2296.9700000000003,0.003638629250811645
283,2307.58,0.0036507211705809222
284,2312.9,0.003594146136007176
285,2323.57,0.0032212900779429146
286,2334.3,0.0034951970420451146
287,2345.0699999999997,0.0034269410209249555
288,2355.9,0.003486132021971258
289,2366.77,0.0033947050377952015
290,2377.7000000000003,0.0034138470757856063
291,2383.18,0.0033148641003224242
292,2394.18,0.003364356164173701
293,2405.23,0.0033064542464970293
294,2416.33,0.0033022983472924083
295,2427.48,0.003336299466559839
296,2433.08,0.00326199853542958
297,2444.31,0.0032956216842522923
298,2455.59,0.0032765058515470563
299,2466.93,0.0032349200410082815
300,2472.61,0.0031922541394333046
301,2484.03,0.003210387358449812
302,2495.49,0.0030761655922439605
303,2507.01,0.00320247484820457
304,2511.88643,0.0031001585180779373
305,2512.79,0.0030811995205623547
306,2518.5800000000004,0.0031256496926884486
307,2524.3900000000003,0.003070235861954875
308,2536.04,0.003045418196198225
309,2547.7499999999995,0.0030207275218625705
310,2553.62,0.003071498682549992
311,2565.4100000000003,0.003039627996775666
312,2577.25,0.003064050303852169
313,2583.19,0.0030515784545307525
314,2595.11,0.003026908750168584
315,2607.09,0.0029818160372274104
316,2613.1,0.002956121177897156
317,2625.1600000000003,0.0029662094535173105
318,2637.28,0.0029626727205584614
319,2643.36,0.0030333158512193684
320,2655.56,0.0030227281068218466
321,2667.82,0.00295045435384532
322,2673.97,0.002965813474497389
323,2686.31,0.002962298710082191
324,2692.5,0.0028964298250149234
325,2704.93,0.002906368047731219
326,2717.4199999999996,0.00285661326186851
327,2723.68,0.0028255233667924045
328,2736.25,0.002854980569491023
329,2742.56,0.0027406266672657478
330,2755.22,0.00274378485709586
331,2767.94,0.0027595150383469685
332,2774.32,0.0027931331261128543
333,2787.1200000000003,0.002751583295925291
334,2793.55,0.0025694783765420064
335,2806.44,0.0026262815334859363
336,2812.9100000000003,0.0027391126083833157
337,2825.89,0.0027296747524587395
338,2832.4100000000003,0.002681435820206949
339,2845.48,0.002666078951413866
340,2852.04,0.0026310630134427394
341,2865.21,0.0026768911303513164
342,2871.8100000000004,0.0026601531866608536
343,2884.0315,0.002651669202047409
344,2885.07,0.0026509484361503426
345,2891.72,0.0026403644166911955
346,2911.7599999999998,0.0026634303580503967
347,2931.95,0.0026135432989706693
348,2952.27,0.002570475239510538
349,2972.73,0.0025633151796407403
350,2993.3399999999997,0.002538614119332014
351,3007.16,0.002518470078892102
352,3028.0,0.0024999570179103535
353,3048.99,0.002475901956489676
354,3070.12,0.0024464478946593323
355,3091.41,0.0024230068323607993
356,3112.83,0.0024052617696818613
357,3127.2,0.0023698777276325456
358,3148.88,0.0023472066641927994
359,3170.71,0.0023354766003141243
360,3192.69,0.002276171535996522
361,3207.42,0.002284359492893779
362,3229.65,0.002241803427844629
363,3252.04,0.0022513693623272893
364,3267.05,0.0022542663184052136
365,3289.7,0.0022328522521270653
366,3311.31121,0.0022126731954811556
367,3312.5,0.0022115631223907487
368,3320.14,0.0022079176950287518
369,3327.79,0.0022196232671073796
370,3335.46,0.0022211398380672597
371,3343.1499999999996,0.002093449407908391
372,3350.86,0.0021784479766307732
373,3358.58,0.002086522544793781
374,3366.3300000000004,0.002107282111278666
375,3374.09,0.002065477677204177
376,3381.8599999999997,0.002062083242570313
377,3389.66,0.002145821806258326
378,3397.4700000000003,0.002142301369386965
379,3405.31,0.002080460930837481
380,3413.1600000000003,0.002091536491728623
381,3421.02,0.00215149805206039
382,3428.91,0.0021283196107140336
383,3436.81,0.002144570168808304
384,3444.7400000000002,0.002054142725224451
385,3452.6800000000003,0.0021722612810812234
386,3460.64,0.002061696835819247
387,3468.6099999999997,0.0020630873899978963
388,3476.61,0.0020550199424984226
389,3484.63,0.002032849493880201
390,3492.6600000000003,0.002086375044702604
391,3500.71,0.0020591785944062586
392,3508.78,0.0020137091429911647
393,3516.8700000000003,0.001992052690457322
394,3524.9799999999996,0.0020351152368047304
395,3533.1,0.002069625782592765
396,3541.2500000000005,0.0020757883267026765
397,3549.41,0.0021109288702532134
398,3557.59,0.0020834794126850017
399,3565.79,0.002104136953998041
400,3574.01,0.0020108124941923323
401,3582.25,0.0019528870332678745
402,3590.51,0.001900995571224668
403,3598.79,0.0019828561080627127
404,3607.08,0.0019887786443413837
405,3615.3999999999996,0.002008543178941931
406,3623.73,0.002023910712983104
407,3632.09,0.002135480245346154
408,3640.4599999999996,0.0020361227771498298
409,3648.8500000000004,0.002032851307834757
410,3657.2599999999998,0.0020625648374009353
411,3665.6899999999996,0.0020451893658483653
412,3672.09,0.0020328450078487864
413,3674.83,0.0029019188545802168
414,3677.58,0.0026020627007522727
415,3680.32,0.002270359547483703
416,3683.07,0.001973276393655759
417,3685.81,0.0014292472403871891
418,3688.56,0.002580400086559245
419,3691.3,0.0026073559332906756
420,3694.0499999999997,0.0022616607794627313
421,3696.79,0.0020387646261941614
422,3699.5299999999997,0.0017297274729255918
423,3702.28,0.001653155319097648
424,3705.02,0.002367833165829078
425,3707.7700000000004,0.002193661012001134
426,3710.51,0.002087881858732565
427,3713.2599999999998,0.00202226370490462
428,3716.0,0.0024318055516360506
429,3718.75,0.0036221213978081066
430,3721.4900000000002,0.007029392244539537
431,3724.24,0.013475146090711593
432,3726.9799999999996,0.019386505937443024
433,3729.73,0.01870766578361508
434,3732.47,0.01236872563034651
435,3735.21,0.00604888247707794
436,3737.96,0.0031084423232499957
437,3740.7000000000003,0.0024942701699814263
438,3743.45,0.002693868016153482
439,3746.1899999999996,0.002227540862884912
440,3748.94,0.001987379709056968
441,3751.68,0.0020325945557883984
442,3754.4300000000003,0.0019416644019604546
443,3757.17,0.002061432248691885
444,3759.92,0.0021541130948639405
445,3762.66,0.002229300941595371
446,3765.4100000000003,0.002658978787767427
447,3768.15,0.0018637146344988574
448,3770.8999999999996,0.0024830484806709135
449,3773.64,0.002134848327402344
450,3776.3799999999997,0.002019876174133774
451,3779.13,0.00199254202030583
452,3781.87,0.00222212386703726
453,3784.6200000000003,0.0017707717132093162
454,3787.36,0.0018520035599407464
455,3790.1099999999997,0.0021509644061128027
456,3792.85,0.0025278892528442327
457,3795.6,0.0023030910990162884
458,3798.34,0.002735552945747719
459,3801.0899999999997,0.003043325791919775
460,3801.8939600000003,0.002847635721210982
461,3803.8300000000004,0.002376388661216198
462,3806.58,0.0018309645394401378
463,3809.3199999999997,0.0020463154181068997
464,3812.07,0.0020915202963308396
465,3814.81,0.0020859841749976014
466,3817.55,0.0018742940536643636
467,3820.2999999999997,0.002041905931888303
468,3823.04,0.0027373178105550653
469,3825.79,0.0024991696887790055
470,3828.53,0.001714229567445767
471,3831.28,0.001959795445669707
472,3834.02,0.0026751043243364693
473,3836.77,0.002387338202560409
474,3839.5099999999998,0.002221741081227171
475,3842.26,0.0015556729594511107
476,3845.0,0.0019443078381178728
477,3847.75,0.002500046716341813
478,3850.49,0.002162046595008575
479,3853.24,0.0021536034732325144
480,3855.98,0.0020679733518992765
481,3858.72,0.0018361342305660384
482,3861.4700000000003,0.0029474921087899787
483,3864.21,0.00498926598745674
484,3866.96,0.0072065628656806805
485,3869.7,0.007893422744347442
486,3872.4500000000003,0.006122398622571382
487,3875.19,0.003846789501238144
488,3877.94,0.002636055379462084
489,3880.6800000000003,0.002272742258128846
490,3883.43,0.002624216136352786
491,3886.17,0.003971965015019547
492,3888.92,0.004690025893243487
493,3891.6600000000003,0.0043637427719102504
494,3894.41,0.0030832406501341897
495,3897.1499999999996,0.0022231215288009516
496,3899.89,0.0019056474074677135
497,3902.64,0.0016151132856916535
498,3905.38,0.0016648611643584152
499,3908.13,0.0018700020425823553
500,3910.8700000000003,0.0019579079212491174
501,3913.62,0.0022951517994730572
502,3916.3599999999997,0.0024097576781398193
503,3919.11,0.002098569556363759
504,3921.85,0.0020396374350305207
505,3924.6,0.0019529893132544608
506,3927.34,0.0018343641919212228
507,3930.09,0.0019354840701451628
508,3932.83,0.0018696249488119247
509,3935.5800000000004,0.0015870258270358646
510,3938.32,0.0015784657057026266
511,3941.06,0.0017153595843693885
512,3943.81,0.0020183504625933286
513,3946.5499999999997,0.0016301013412600904
514,3949.3,0.0020930282194840306
515,3952.04,0.0021499550981507924
516,3954.7900000000004,0.0017676149763747322
517,3957.53,0.0017462108550414942
518,3960.2799999999997,0.001960292733265434
519,3963.02,0.0029828786119321963
520,3965.77,0.004648591490156136
521,3968.51,0.005179412368822898
522,3971.2599999999998,0.004686873247046837
523,3973.9999999999995,0.0036643031257136
524,3976.75,0.0027239490039375398
525,3979.49,0.0023097598826043015
526,3982.23,0.0019361197612710634
527,3984.98,0.0017907866394950035
528,3987.7200000000003,0.0020515995181617655
529,3990.47,0.0021561193963857053
530,3993.21,0.002082327275052467
531,3995.96,0.0018891391532764072
532,3998.7,0.0025251090319431692
533,4001.45,0.002097557910167109
534,4004.19,0.001899846788833871
535,4006.94,0.0017089266670578108
536,4009.68,0.0020844645457245726
537,4012.4300000000003,0.002100452423948513
538,4015.17,0.0023539623026152747
539,4017.9199999999996,0.0022719731808392147
540,4020.66,0.0022845720595059764
541,4023.3999999999996,0.0023692039381727386
542,4026.15,0.0020630538163966786
543,4028.89,0.0022826866950634403
544,4031.6400000000003,0.0024218375732873803
545,4034.38,0.002198058451954142
546,4037.13,0.002333304330178082
547,4039.87,0.0021013402088448443
548,4042.62,0.001966208087068784
549,4045.36,0.001688779965735546
550,4048.1099999999997,0.0020884878439594856
551,4050.85,0.002211655722626248
552,4053.6,0.002337457600850188
553,4056.34,0.00217022247951695
554,4059.09,0.0022019523577408895
