,lambda (Angstroms),Total Flux (erg/s/cm^2/Angstrom)
0,102.01,0.0280539010467355
1,103.9,0.02797438287254601
2,104.712855,0.027940186392366485
3,106.08,0.02763800309078676
4,108.05,0.027202576282790714
5,110.06,0.0267583792045049
6,113.93,0.025903009868894912
7,117.92999999999999,0.025018895101018172
8,120.22644299999999,0.024511839139655916
9,120.96000000000001,0.024376073238941143
10,124.92,0.023642380378463473
11,126.95,0.023266260586059517
12,128.12,0.023049490148895662
13,131.10999999999999,0.02249549982392136
14,132.02,0.022327034435016133
15,133.85,0.021987982968272667
16,136.97,0.02141008005716905
17,138.038426,0.02121213691080028
18,139.84,0.02097359166912262
19,143.1,0.020543396405188766
20,147.11,0.02001467215984681
21,150.88,0.01951579259247545
22,155.11,0.01895605300149379
23,158.489319,0.01850896868867066
24,159.09,0.018448911935292443
25,162.04,0.01815397026794418
26,165.82,0.01777612981171489
27,170.07000000000002,0.01735116259672163
28,172.82999999999998,0.017075309146490716
29,176.86,0.016672403935791228
30,180.15,0.016343457635443506
31,181.82,0.016176602122622626
32,181.970086,0.016161597408470667
33,186.05,0.01585058569277801
34,190.82,0.015487046472831995
35,193.92,0.015250821390749682
36,197.98,0.014941382984087039
37,202.13,0.014625107808557483
38,204.93999999999997,0.014411020838379644
39,208.929613,0.01410653049866183
40,210.20000000000002,0.014033662437338624
41,216.09,0.013697074339760272
42,220.10999999999999,0.013467006203467408
43,223.17,0.013291697731363879
44,226.79000000000002,0.013084713891816572
45,229.95000000000002,0.012913719015526655
46,234.21999999999997,0.01268903168376782
47,239.88329199999998,0.0123792247149312
48,240.23,0.01236482656230427
49,245.83,0.012114006951676746
50,252.13,0.011839204552220782
51,256.82,0.01161778171307023
52,259.8,0.011497799446914871
53,264.02,0.011315022129406273
54,268.93,0.01109768432033821
55,273.92,0.010876650813118326
56,275.42287,0.010809885263147396
57,279.02,0.010687107750838558
58,284.2,0.010511633821511475
59,290.16,0.01030595349197684
60,296.23,0.010100075994464216
61,301.05,0.009932656842156006
62,308.06,0.009695879744649666
63,316.227766,0.009419534236595929
64,318.15000000000003,0.009371025084195888
65,327.82,0.009124899150216912
66,337.78000000000003,0.008870521206377137
67,348.04,0.008608575096819298
68,356.96999999999997,0.008381704666278217
69,363.078055,0.008227213974402386
70,366.13,0.00816946587915018
71,374.65999999999997,0.00800607696197698
72,385.15000000000003,0.00780325255557054
73,395.03000000000003,0.0076174548392315905
74,405.16,0.007425533838602686
75,413.65,0.007263505696515876
76,416.86938299999997,0.007201869379888856
77,422.31,0.0071221391039036986
78,430.15999999999997,0.007007414897023743
79,441.2,0.006848584837691929
80,451.46999999999997,0.006699981316538151
81,459.87,0.006577256990959597
82,469.5,0.006438630505564184
83,478.630092,0.006308791267095144
84,480.43,0.006289225551177657
85,490.49,0.006176367662073152
86,499.60999999999996,0.006080707422228908
87,506.56,0.006009501033762078
88,512.43,0.006000291585934699
89,519.5500000000001,0.005923915715793138
90,530.43,0.005805967608610534
91,540.3000000000001,0.005690487011377782
92,549.5408739999999,0.005610508168319123
93,550.34,0.0056057067845462615
94,560.57,0.005554234668390531
95,569.68,0.0055018819639742365
96,580.27,0.005413751122616545
97,589.7,0.005365689529131841
98,600.66,0.0052706442285388
99,610.42,0.0052099545119522975
100,620.34,0.00519022195083159
101,630.42,0.005122020245176676
102,630.957344,0.005119061325881725
103,640.67,0.00508271572591365
104,649.58,0.005054132498508536
105,658.61,0.005001967100027259
106,664.71,0.0050064082536556325
107,675.51,0.00496853525680095
108,684.91,0.004890121355834837
109,694.4300000000001,0.004929784983792561
110,705.7199999999999,0.004813727713376879
111,715.5400000000001,0.004882124463644194
112,724.43596,0.004857263599193987
113,725.49,0.004856151191184167
114,735.5799999999999,0.004843640150007714
115,745.8199999999999,0.0048397957572775974
116,754.4499999999999,0.004839036744556805
117,764.9499999999999,0.004786428035800338
118,775.59,0.004838002872260451
119,784.5699999999999,0.00482003107258111
120,795.4799999999999,0.004838707696244628
121,804.7,0.004850447474079425
122,815.89,0.004844571188176105
123,825.3399999999999,0.004878221740295284
124,831.763771,0.004738915764642642
125,834.89,0.004675075225982867
126,844.5600000000001,0.004878580884562359
127,854.3399999999999,0.00488249263646592
128,864.23,0.004936993481693549
129,874.24,0.0049721639741837995
130,884.36,0.005010539559998118
131,894.61,0.0050404643470136085
132,904.9599999999999,0.005029068673414617
133,915.44,0.005307663201016796
134,926.0400000000001,0.011580485375881595
135,934.61,0.0197734701012204
136,945.4300000000001,0.032762503462733336
137,954.1800000000001,0.042509458158966076
138,954.992586,0.04299734009555214
139,965.23,0.04914477833016592
140,974.1600000000001,0.014081981314184824
141,985.44,0.04619217455715606
142,994.5600000000001,0.04566777143445196
143,1006.08,0.058305055384720465
144,1015.39,0.05481721615529336
145,1024.78,0.02665612382829868
146,1034.26,0.042672251766540464
147,1043.83,0.06921386997001873
148,1055.92,0.06751005560011823
149,1065.69,0.05695173105967754
150,1075.55,0.06437972678447332
151,1085.5,0.05431969277450558
152,1095.55,0.06574319239257836
153,1096.4782,0.06542914039728126
154,1105.69,0.062318489313272926
155,1115.92,0.06066126262845837
156,1126.24,0.054790105972809665
157,1134.05,0.06462054850375769
158,1144.54,0.05964552190320005
159,1155.13,0.06162312533504891
160,1165.8200000000002,0.06269363879930427
161,1173.8999999999999,0.04645924141774987
162,1184.76,0.06045505493709629
163,1195.73,0.047733568492089866
164,1204.01,0.03787163117534847
165,1215.15,0.024297584785433105
166,1226.4,0.04383373843116489
167,1234.9,0.058461151185717805
168,1246.33,0.06189623488978131
169,1254.96,0.05971388768646267
170,1258.92541,0.05733664390828357
171,1263.66,0.05450235820410663
172,1275.3600000000001,0.06265642870132816
173,1284.2,0.06361992507700664
174,1296.08,0.054070560658800816
175,1305.0600000000002,0.05417224765581358
176,1314.11,0.06187788496349348
177,1326.27,0.0590252717879562
178,1335.46,0.054469859716970374
179,1344.72,0.05978300795665169
180,1354.04,0.05831397789119055
181,1366.57,0.05404039350060814
182,1376.04,0.054744722672290864
183,1385.58,0.05496987215464073
184,1395.18,0.04683470333184813
185,1404.85,0.04786464481972268
186,1414.59,0.05136203661826436
187,1424.4,0.05088541872747318
188,1434.27,0.051436532531539556
189,1440.8899999999999,0.05269435619748883
190,1445.43977,0.05252483759193726
191,1447.54,0.05244794199172992
192,1454.22,0.05128260114491428
193,1464.31,0.048497910389769104
194,1474.46,0.04837394007611961
195,1484.6799999999998,0.048249865277548376
196,1494.9699999999998,0.04812628599405543
197,1505.33,0.04581615222564077
198,1512.28,0.04219888836555564
199,1515.76,0.04381241397230438
200,1526.2700000000002,0.04341009630762888
201,1533.32,0.03885343318336987
202,1543.94,0.0390102613281031
203,1554.6499999999999,0.03772278513507983
204,1565.4199999999998,0.039324009383552225
205,1576.27,0.04117993422068551
206,1583.55,0.04181500778882656
207,1594.5300000000002,0.042168728582533795
208,1605.5800000000002,0.04113606489131931
209,1616.71,0.04084628178876572
210,1624.17,0.03967410668139376
211,1635.4299999999998,0.041182679535414116
212,1646.76,0.04098320790451275
213,1654.3700000000001,0.039541018900879965
214,1659.58691,0.0403093770256744
215,1665.8300000000002,0.041231665253389824
216,1673.52,0.038822645950520866
217,1677.3799999999999,0.04140325061774138
218,1685.12,0.04167477904372243
219,1696.8,0.039935798503084007
220,1704.64,0.038618312386765066
221,1716.4499999999998,0.03692907594113666
222,1724.3700000000001,0.03651361619097773
223,1736.3300000000002,0.03790488293189935
224,1744.3400000000001,0.03706423909367043
225,1756.4299999999998,0.038053199929602065
226,1764.54,0.03622941154907316
227,1776.77,0.03613618602578481
228,1784.9699999999998,0.03645021355718592
229,1793.21,0.03734386927166704
230,1805.64,0.03724757466377871
231,1813.98,0.034836225835959835
232,1826.5500000000002,0.03544785486885154
233,1834.98,0.03450647195296268
234,1843.45,0.03227648722015382
235,1856.23,0.032048956714215544
236,1864.8000000000002,0.032541327439106704
237,1873.4,0.03401012680130787
238,1886.39,0.03152413675653962
239,1895.1000000000001,0.0300824611222108
240,1903.84,0.03185748412519198
241,1905.46072,0.031686105314500355
242,1917.0400000000002,0.030464918858876276
243,1925.89,0.02959353884181912
244,1934.7800000000002,0.030791198180617076
245,1943.7099999999998,0.03133559687527014
246,1957.18,0.029243937459478068
247,1966.2199999999998,0.031041371882732684
248,1975.2900000000002,0.03180242332287863
249,1984.41,0.03021155645784346
250,1993.5700000000002,0.029475968948663403
251,2002.7700000000002,0.03019755079533845
252,2016.65,0.029589717277061247
253,2025.96,0.030449294852337844
254,2035.31,0.028798131783469554
255,2044.71,0.02911190040942015
256,2054.15,0.02717085839122585
257,2063.63,0.027834235728886665
258,2073.15,0.029546482422402588
259,2077.93,0.0279469904470881
260,2082.7200000000003,0.02869781081073739
261,2097.1600000000003,0.027379948274431708
262,2106.84,0.027862812391368067
263,2116.56,0.027917335864159534
264,2126.33,0.028096611031769886
265,2136.15,0.027168447894199123
266,2146.0099999999998,0.026801394112483473
267,2155.91,0.027456619686622927
268,2165.87,0.026845689294545047
269,2175.86,0.026659915919358495
270,2185.91,0.02606687657795461
271,2187.7616199999998,0.026172857510477716
272,2196.0,0.026646438040711106
273,2206.13,0.026113817597647863
274,2216.31,0.02547873123926842
275,2226.5499999999997,0.024858873782509526
276,2236.8199999999997,0.02535487077656091
277,2247.15,0.02484830667223285
278,2257.52,0.024190351835651824
279,2262.72,0.024457436642766447
280,2273.17,0.024506300341679492
281,2283.6600000000003,0.02455535330833957
282,2294.2000000000003,0.023538220359683445
283,2304.79,0.023598881495711117
284,2315.43,0.02298746671642258
285,2326.1200000000003,0.020094796021817837
286,2336.85,0.02215319459496013
287,2347.64,0.021868172069722976
288,2353.0499999999997,0.02221361803250954
289,2363.91,0.0215429092258297
290,2374.83,0.02155004932077041
291,2385.79,0.020853698683458162
292,2396.8,0.0213744421308297
293,2402.32,0.02081788107992061
294,2413.41,0.020870833062786226
295,2424.55,0.021110119130335635
296,2435.7400000000002,0.020518289282568835
297,2446.99,0.02089156833642259
298,2452.63,0.02066486508875461
299,2463.95,0.020443947861165677
300,2475.32,0.02004764471826054
301,2486.75,0.020232590476975957
302,2492.48,0.018687900581738803
303,2503.98,0.02010862005901153
304,2511.88643,0.019430198012059384
305,2515.54,0.01911718116269482
306,2527.15,0.019209757587524037
307,2532.98,0.019128486145384017
308,2544.67,0.018800771675638418
309,2556.4199999999996,0.019143534034961697
310,2562.31,0.01893691942189056
311,2574.14,0.019240200886639025
312,2586.02,0.019078253042278226
313,2597.95,0.01891789588880816
314,2603.94,0.0185484726575185
315,2615.96,0.018392500747651766
316,2621.9900000000002,0.018436882069074692
317,2634.1,0.018444165402811286
318,2646.25,0.01882286328926047
319,2652.35,0.018784957577930427
320,2664.6,0.018138586846161084
321,2676.8999999999996,0.018266566805282478
322,2683.07,0.01818944406119947
323,2695.45,0.017759183125746043
324,2707.89,0.017766469019361505
325,2714.14,0.017419345380703676
326,2726.6600000000003,0.017311190379744313
327,2732.9500000000003,0.017429811293799075
328,2745.5600000000004,0.016682361536443042
329,2751.8900000000003,0.016648527003210394
330,2764.6,0.016765868627635832
331,2777.3599999999997,0.01695859094295201
332,2783.76,0.016701299376966395
333,2796.61,0.015567596935885901
334,2803.05,0.015953269922612878
335,2815.99,0.01657060272513571
336,2822.48,0.016500456402753418
337,2835.5099999999998,0.01603893444887958
338,2842.0499999999997,0.015900738817388026
339,2855.17,0.015766852107117514
340,2861.75,0.016015891028338555
341,2874.9599999999996,0.01588074956167137
342,2884.0315,0.015836776618945444
343,2888.23,0.0158169012220273
344,2894.89,0.01571605479098034
345,2908.25,0.01586344101939064
346,2928.4100000000003,0.015527422633518759
347,2948.71,0.015232416064411657
348,2969.1499999999996,0.015142361312069334
349,2989.73,0.01492052837649179
350,3010.4500000000003,0.014766787257679024
351,3031.32,0.01464721522825709
352,3052.33,0.014464705015599938
353,3073.49,0.014315663892333618
354,3087.67,0.01410251647608048
355,3109.0800000000004,0.01398832716846555
356,3130.6299999999997,0.013722419677615401
357,3152.33,0.013611051276156085
358,3166.88,0.013438372947067003
359,3188.8300000000004,0.013066956361259078
360,3210.9300000000003,0.013047248864841985
361,3233.19,0.012799237730441785
362,3248.12,0.012833355761142817
363,3270.63,0.012785746442394006
364,3293.3,0.012625853485662083
365,3308.5,0.01246545787726662
366,3311.31121,0.012497153542818433
367,3323.77,0.012638614308798896
368,3331.44,0.012670112582907988
369,3339.12,0.012179178925171067
370,3346.81,0.012510233335588138
371,3354.53,0.012105761950467172
372,3362.26,0.011975828633500196
373,3370.0099999999998,0.011821801452841193
374,3377.78,0.011747010408490171
375,3385.57,0.012038925500447124
376,3393.37,0.012175928660558064
377,3401.19,0.012396667956976982
378,3409.03,0.011785663389703877
379,3416.8900000000003,0.011893674958738748
380,3424.77,0.012082522664081597
381,3432.67,0.012247216505732423
382,3440.58,0.011956288415537236
383,3448.51,0.011672536461650026
384,3456.46,0.011446010644070794
385,3464.43,0.011199290962799539
386,3472.4100000000003,0.01152826934968227
387,3480.42,0.011254971941026969
388,3488.44,0.011433392600525654
389,3496.48,0.011385969396332317
390,3504.54,0.011165402328446957
391,3512.6200000000003,0.011070071396869573
392,3520.72,0.011245596601600166
393,3528.8399999999997,0.011003267942638735
394,3536.97,0.011251707351831293
395,3545.13,0.011304840965485816
396,3553.2999999999997,0.011332672647294328
397,3561.49,0.011286030465410817
398,3569.7000000000003,0.010969624419835282
399,3577.9300000000003,0.010615424510567724
400,3586.18,0.010433054737608142
401,3594.44,0.01057484503280255
402,3602.73,0.010837273532458922
403,3611.03,0.010627180100269282
404,3619.3599999999997,0.010795400872541609
405,3627.7,0.011015209712967922
406,3634.75,0.012846217761529737
407,3637.49,0.009846742435722554
408,3640.23,0.012161659109915372
409,3642.97,0.014471749784108189
410,3645.7099999999996,0.015681690458301006
411,3648.46,0.010069621200647813
412,3651.2,0.012008149874840631
413,3653.94,0.010527880549033449
414,3656.68,0.015513681223226267
415,3659.42,0.009478206897419085
416,3662.16,0.010256609571611902
417,3664.8999999999996,0.010148607245804719
418,3667.64,0.009564393919997539
419,3670.39,0.009672506662344345
420,3673.13,0.009459843336537163
421,3675.87,0.01223647401072998
422,3678.61,0.013109874684922798
423,3681.35,0.014566165359115616
424,3684.0899999999997,0.0036369850333084343
425,3686.83,0.014045446707501253
426,3689.58,0.00933146444984806
427,3692.32,0.010471756124040877
428,3695.06,0.008776114798233694
429,3697.8,0.009290044472426512
430,3700.54,0.009885288146619329
431,3703.2799999999997,0.009657729820812148
432,3706.02,0.012929099495004965
433,3708.77,0.009788265237351773
434,3711.51,0.011365308911544589
435,3714.25,0.015067799585737408
436,3716.9900000000002,0.015944820259930225
437,3719.73,0.028998840934123044
438,3722.47,0.054765241608315855
439,3725.21,0.10313864228250867
440,3727.95,0.12238391295670151
441,3730.7000000000003,0.1015873816990483
442,3733.44,0.05252485237324112
443,3736.18,0.02344132304743394
444,3738.92,0.014069563721626757
445,3741.66,0.009984422395819575
446,3744.4,0.009587796070012393
447,3747.14,0.01182301574420521
448,3749.8900000000003,0.012045434486552016
449,3752.63,0.012135085160744834
450,3755.37,0.007498057834937653
451,3758.11,0.011788256509130469
452,3760.85,0.01142504718332329
453,3763.59,0.010098134857516107
454,3766.33,0.012507248531708924
455,3769.0699999999997,0.013923289205901742
456,3771.82,0.013883247948248547
457,3774.56,0.013184718622441366
458,3777.3,0.012881079296634183
459,3780.04,0.012472779970827002
460,3782.78,0.01094863064501982
461,3785.52,0.009519872319212638
462,3788.2599999999998,0.012561791993405454
463,3791.01,0.011231200735752261
464,3793.75,0.010540721409945079
465,3796.4900000000002,0.014417102084137896
466,3799.23,0.013681532758330716
467,3801.8939600000003,0.011044339406076142
468,3801.9700000000003,0.01096906769299068
469,3804.71,0.011223511887435748
470,3807.45,0.010661996081880816
471,3810.19,0.010092834276325884
472,3812.94,0.008093782099217833
473,3815.6800000000003,0.008215784293662902
474,3818.42,0.011702251488107971
475,3821.1600000000003,0.009570413682553038
476,3823.9,0.009301947876998107
477,3826.64,0.009451727071443176
478,3829.38,0.011601758265888244
479,3832.13,0.012290081088780191
480,3834.8700000000003,0.015423525283225261
481,3837.61,0.013165279477670329
482,3840.3500000000004,0.012790553672115398
483,3843.09,0.011556377866560467
484,3845.83,0.011048002061005535
485,3848.57,0.012734706255450602
486,3851.3199999999997,0.01102466907834255
487,3854.0600000000004,0.012849433272787621
488,3856.8,0.013945197467232688
489,3859.5400000000004,0.013164291661677756
490,3862.28,0.021505465856122827
491,3865.02,0.0341901100505679
492,3867.76,0.041497164245012964
493,3870.5,0.035500898439458035
494,3873.2499999999995,0.02390146126234998
495,3875.9900000000002,0.013179735456795048
496,3878.73,0.010560419651240115
497,3881.4700000000003,0.014063393845685184
498,3884.21,0.018042188040130254
499,3886.9500000000003,0.022642912234575322
500,3889.69,0.02406394642902039
501,3892.4399999999996,0.017760429251912336
502,3895.18,0.013590113446357407
503,3897.92,0.010810577640802475
504,3900.6600000000003,0.009032170835247544
505,3903.4,0.010644796029692611
506,3906.1400000000003,0.00929308422413768
507,3908.88,0.01185934441858275
508,3911.62,0.010794238613027817
509,3914.37,0.012662831435919765
510,3917.1099999999997,0.009813256630364834
511,3919.85,0.011101429824809902
512,3922.59,0.01257317401925497
513,3925.3300000000004,0.00924496321370004
514,3928.07,0.009621375408145108
515,3930.81,0.009160493602590178
516,3933.56,0.010102030425482125
517,3936.2999999999997,0.009217674619927193
518,3939.04,0.009718874814372261
519,3941.7799999999997,0.01006429300881733
520,3944.5200000000004,0.0101259152032624
521,3947.26,0.009626390397707466
522,3950.0,0.010213735592152537
523,3952.75,0.010096175415044484
524,3955.49,0.010837291609489553
525,3958.23,0.01062115580393462
526,3960.97,0.01441919999837969
527,3963.7099999999996,0.021514494192824758
528,3966.4500000000003,0.027481458387269824
529,3969.19,0.026361632581714894
530,3971.9300000000003,0.020144756776159966
531,3974.68,0.012635639599051911
532,3977.4199999999996,0.01087172379349698
533,3980.16,0.010420507987942048
534,3982.8999999999996,0.009945538182387116
535,3985.64,0.010995816376832186
536,3988.38,0.009036657571277255
537,3991.1200000000003,0.009402199765722322
538,3993.87,0.01053977758861427
539,3996.6099999999997,0.009324931783059338
540,3999.35,0.012212815977504407
541,4002.0899999999997,0.011232660171949476
542,4004.83,0.012254754366394546
543,4007.5699999999997,0.009655552560839614
544,4010.3100000000004,0.010552862755284682
545,4013.05,0.010608846949729751
546,4015.7999999999997,0.012353049772621697
547,4018.54,0.009676970967066767
548,4021.2799999999997,0.010872158161511835
549,4024.02,0.012086272355956905
550,4026.7599999999998,0.010008364550401973
551,4029.4999999999995,0.01278596074484704
552,4032.2400000000002,0.01101841493929211
553,4034.99,0.011496617762184058
554,4037.73,0.010693581956629125
555,4040.47,0.011170626151074194
556,4043.21,0.010177181345519263
557,4045.95,0.009669605539964331
558,4048.6899999999996,0.0113611387344094
559,4051.43,0.011316482928854468
560,4054.17,0.010065810123299537
561,4056.92,0.011073359946191486
