,lambda (Angstroms),Total Flux (erg/s/cm^2/Angstrom)
0,100.09,11.031838087943296
1,101.94999999999999,11.001153542734498
2,104.09,10.965847278848463
3,104.712855,10.955571941746639
4,106.02000000000001,10.842281404745714
5,107.99,10.671542859079574
6,110.0,10.497348417627267
7,114.13,10.139407510158195
8,117.87,9.815269520426737
9,120.22644299999999,9.611206428455224
10,120.89000000000001,9.563038097299502
11,125.14000000000001,9.254267675002135
12,126.88,9.127854402112629
13,128.06,9.042126833291004
14,131.04,8.82561790179403
15,131.95,8.759562251508711
16,134.09,8.604083300613567
17,136.9,8.400010238376485
18,138.038426,8.31730325167893
19,140.09,8.210776015988227
20,143.02,8.059538620308917
21,147.03,7.853063269342353
22,151.15,7.639283158446532
23,155.02,7.438539205117205
24,158.489319,7.258605553410469
25,159.0,7.238591119103825
26,161.95999999999998,7.122569478102468
27,166.11,6.9599510651613725
28,169.98,6.808270432382572
29,173.14,6.684424669408149
30,177.17,6.526467001250894
31,180.05,6.41360026443876
32,181.970086,6.3383535696999855
33,182.14000000000001,6.333276722626682
34,185.95000000000002,6.219438214185256
35,191.16,6.063749702875595
36,193.82,5.9843311833259385
37,197.88,5.862999864908044
38,202.02,5.739319328097675
39,204.83,5.655388634562137
40,208.929613,5.532629873313072
41,210.09,5.506510871801817
42,215.97000000000003,5.374868190048949
43,219.99,5.284698027207704
44,223.04999999999998,5.21592734222407
45,227.19,5.123077301775623
46,229.83,5.068494376417193
47,234.1,4.982044856727611
48,239.88329199999998,4.857720686067408
49,240.1,4.854181713201168
50,246.26,4.745562451449808
51,252.0,4.647499760726951
52,257.27,4.550589333059799
53,260.25,4.503149866238523
54,263.87,4.441763725469056
55,268.78,4.356264164397762
56,273.78,4.269202701677504
57,275.42287,4.240555724321164
58,278.87,4.194360548844672
59,284.05,4.125295791041961
60,290.0,4.044451245052361
61,296.07,3.963662872202466
62,300.88,3.8985795263856633
63,307.89,3.8053296714634617
64,316.227766,3.694373104635896
65,317.98,3.6769621925679545
66,327.64,3.5802973559392224
67,338.37,3.472759611371282
68,347.85,3.3775654557977424
69,356.78000000000003,3.2882632417817397
70,363.078055,3.2254888559353088
71,365.93,3.2041875298923697
72,375.32000000000005,3.1335056821400458
73,384.94,3.060302030417219
74,394.82000000000005,2.9868936359451252
75,404.95000000000005,2.911112034983353
76,414.38000000000005,2.8402024421926813
77,416.86938299999997,2.8214047232420074
78,422.08000000000004,2.791233732010338
79,429.93,2.7459599833562467
80,440.96000000000004,2.6827917327760398
81,451.23,2.6236483010209417
82,459.62,2.575227501096378
83,470.32,2.5137693018481264
84,478.630092,2.4661816048272005
85,480.16999999999996,2.4593864803826277
86,490.22999999999996,2.4145479625336885
87,500.49,2.3694255748666784
88,506.29,2.3435659401426374
89,512.15,2.3185144384731764
90,520.47,2.281624452041448
91,530.15,2.2385852048468426
92,540.0,2.1946003063068775
93,549.5408739999999,2.152328049199906
94,550.04,2.1506345705957326
95,560.27,2.1165800994444446
96,569.37,2.0860756716070328
97,579.96,2.0501667324973414
98,589.38,2.0184512642524606
99,600.3399999999999,1.9811149452966332
100,610.09,1.9470731347565484
101,620.01,1.9151482421249963
102,630.0799999999999,1.881026001177443
103,630.957344,1.878090599812065
104,640.32,1.8532429293713324
105,650.72,1.8253137834940287
106,658.26,1.8049440922329834
107,664.3499999999999,1.7888756446759855
108,675.1500000000001,1.7601038808803233
109,684.54,1.7346126759968732
110,695.6600000000001,1.7052523388665248
111,705.34,1.6789666482422652
112,716.8,1.648829171381313
113,724.43596,1.6284610091000278
114,726.7700000000001,1.623826950219511
115,735.19,1.6071019318499293
116,745.41,1.5867065533728362
117,755.7800000000001,1.5661042263867837
118,764.53,1.5480828226974914
119,775.1700000000001,1.527606159995312
120,784.15,1.5095598363256157
121,795.06,1.4880943999073095
122,804.26,1.4699204866911393
123,815.45,1.4477721141227757
124,824.8900000000001,1.4290819744922707
125,831.763771,1.4151239630917838
126,834.44,1.4110170955819374
127,844.11,1.397089230305341
128,855.8499999999999,1.379654741819588
129,865.76,1.3650151983303358
130,875.7800000000001,1.3501868782019497
131,885.9300000000001,1.335126906500042
132,894.12,1.322976579368158
133,904.48,1.307601715355176
134,914.95,1.29265930770306
135,925.54,1.2807857554446165
136,934.1099999999999,1.2719758805593604
137,944.9200000000001,1.2594521930226485
138,954.992586,1.246535192373274
139,955.87,1.2454378323655921
140,964.71,1.2339155424124415
141,975.88,1.2087191003336297
142,984.91,1.202242420121305
143,994.0200000000001,1.1885575434840647
144,1005.5400000000001,1.174707748296248
145,1014.84,1.161257341399834
146,1024.23,1.14090584227539
147,1036.0900000000001,1.1283572597816827
148,1045.6799999999998,1.1195498745949504
149,1055.3500000000001,1.1049541129833023
150,1065.12,1.0881865433405102
151,1074.97,1.0754252772728023
152,1084.92,1.0578552331739504
153,1094.96,1.0468474668470686
154,1096.4782,1.0445362211307738
155,1105.09,1.0336682917099513
156,1115.31,1.021118274273796
157,1125.6299999999999,1.0071581466083246
158,1136.05,0.9972086287135364
159,1143.9199999999998,0.9869518466663213
160,1154.51,0.9745803843816947
161,1165.19,0.9618073338906835
162,1175.97,0.9447189831703555
163,1184.1200000000001,0.9386797444810537
164,1195.08,0.9233697873479563
165,1206.14,0.9082487199855418
166,1214.5,0.8950209998146754
167,1225.74,0.8867653650394911
168,1234.23,0.8791881975705133
169,1245.6499999999999,0.8661882073825592
170,1254.2900000000002,0.8555162795696059
171,1258.92541,0.8497183540564456
172,1265.89,0.8433591055583537
173,1274.67,0.8375717091464174
174,1286.46,0.8278480226775415
175,1295.3799999999999,0.8180214669606313
176,1304.36,0.8104565215415893
177,1316.43,0.8021190164627654
178,1325.55,0.7937802217387497
179,1334.74,0.7848781223622467
180,1343.99,0.7783940032836122
181,1356.43,0.7675152650416432
182,1365.8300000000002,0.7584984017076792
183,1375.3000000000002,0.7505922637212286
184,1384.83,0.7424988360326463
185,1394.43,0.7318787936915768
186,1404.1000000000001,0.7236863566980204
187,1413.8300000000002,0.7171646400023323
188,1423.6299999999999,0.7086959286541575
189,1433.5,0.7006080926534954
190,1443.43,0.6924723869507018
191,1445.43977,0.6907872047831487
192,1446.76,0.6900145013147934
193,1453.44,0.685695114689574
194,1463.5200000000002,0.6790711579856502
195,1473.66,0.6731071445156316
196,1483.87,0.6671608514851692
197,1494.1599999999999,0.6609923160999137
198,1504.52,0.6543612411542141
199,1511.46,0.6493676518759173
200,1518.44,0.6456462914202241
201,1525.4499999999998,0.6413860225814836
202,1536.02,0.6339458989544523
203,1546.67,0.627416297972628
204,1553.81,0.6229932558073487
205,1564.5800000000002,0.6172073982933347
206,1575.4199999999998,0.6113115892188772
207,1586.34,0.6051154477896264
208,1593.67,0.6008747695317134
209,1604.71,0.5941209645702731
210,1615.8400000000001,0.5874869144596905
211,1623.29,0.5827995286695882
212,1634.55,0.5765841462324669
213,1645.88,0.5699529502349017
214,1653.47,0.5650899813239115
215,1659.58691,0.5617471250641948
216,1664.93,0.5597641150892181
217,1672.62,0.5557632987503103
218,1676.48,0.5555691622720028
219,1684.2099999999998,0.5524767061094856
220,1695.8899999999999,0.5470729036155397
221,1703.72,0.5436502253939989
222,1715.5300000000002,0.5386696232233225
223,1723.44,0.5354271813545629
224,1735.39,0.5311722103012536
225,1743.3999999999999,0.5276217563734706
226,1755.49,0.5233592764375283
227,1763.59,0.5190849796566241
228,1775.81,0.5143841300439513
229,1784.01,0.5112173112040236
230,1796.3799999999999,0.5071744935028155
231,1804.6699999999998,0.5034059218097666
232,1813.0,0.4994572632931082
233,1825.56,0.4944084906797555
234,1833.99,0.49058320010407364
235,1846.7,0.48425184640218555
236,1855.23,0.4814266167674803
237,1863.79,0.478762046515068
238,1876.71,0.47364295248923055
239,1885.3700000000001,0.4696433401777947
240,1894.08,0.46639582183684714
241,1902.8200000000002,0.46293996587819225
242,1905.46072,0.46185240514955
243,1916.01,0.458663161177449
244,1924.85,0.45522213409778783
245,1933.74,0.4512267501817032
246,1947.1399999999999,0.4499667810202259
247,1956.13,0.44699968443129434
248,1965.1599999999999,0.4457128719732243
249,1974.2299999999998,0.4425802636460154
250,1983.3400000000001,0.4401927894496676
251,1997.09,0.4360034244332264
252,2006.31,0.43288625659674723
253,2015.57,0.4301331428911293
254,2024.87,0.4265094433163727
255,2034.22,0.4250268339051926
256,2043.61,0.4232270286248738
257,2053.04,0.41955323747541623
258,2067.27,0.41498056202931005
259,2072.04,0.4152767796345155
260,2076.81,0.41965409723972097
261,2086.4,0.4197343626137084
262,2096.03,0.4151855521185571
263,2105.7000000000003,0.4113063657542671
264,2115.42,0.4103292095535538
265,2125.19,0.4055946035164169
266,2135.0,0.40112418161014135
267,2144.85,0.40250040383472707
268,2154.75,0.39952648622288933
269,2164.7,0.3938703187746282
270,2174.69,0.3910635754572283
271,2184.73,0.39226903230340493
272,2187.7616199999998,0.3914291204717193
273,2194.81,0.39016121028381157
274,2204.94,0.38723271017045335
275,2215.12,0.3803011484079671
276,2225.34,0.38065047732617824
277,2235.62,0.38505915226543574
278,2245.94,0.38147564788539073
279,2256.3,0.3735515141860431
280,2266.7200000000003,0.3702774265077418
281,2277.18,0.37016637951013814
282,2282.43,0.375612276351685
283,2292.96,0.3687774230453018
284,2303.55,0.37131000575996487
285,2314.1800000000003,0.3651892291553254
286,2324.86,0.35775589090155796
287,2335.5899999999997,0.35417587099866243
288,2346.3700000000003,0.34689390944663845
289,2357.2000000000003,0.35465725624548655
290,2362.64,0.3447852888203466
291,2373.54,0.3464075993104153
292,2384.5,0.33759767582153033
293,2395.5099999999998,0.3379643806835172
294,2406.56,0.33571542622620143
295,2417.67,0.335633987789932
296,2423.25,0.3449303877472333
297,2434.43,0.3427760730021845
298,2445.67,0.3454880942781819
299,2456.95,0.345002186234877
300,2462.62,0.3394258952237475
301,2473.9900000000002,0.3336820862120118
302,2485.4100000000003,0.322655785551148
303,2496.88,0.32318454324115614
304,2502.63,0.3327222435914218
305,2511.88643,0.3179243242330318
306,2514.19,0.3143610317509888
307,2519.98,0.31061305628467156
308,2525.79,0.3108936823020631
309,2537.45,0.3163397473042637
310,2543.3,0.3167416062890726
311,2555.04,0.3316951072261082
312,2566.83,0.32017025687241557
313,2572.7499999999995,0.3272839460502053
314,2584.6200000000003,0.3213720216313476
315,2596.55,0.3162472716636162
316,2602.54,0.3114257410343865
317,2614.5499999999997,0.30708436700149017
318,2626.62,0.31381809741972005
319,2632.68,0.33546192698347094
320,2644.8300000000004,0.35266009333653575
321,2657.04,0.37936065414072695
322,2663.16,0.34091787815560404
323,2675.45,0.3481469748946302
324,2687.8,0.3578157260847825
325,2693.9999999999995,0.33362253603449465
326,2706.4300000000003,0.34666121315948195
327,2712.6699999999996,0.3243842460766117
328,2725.19,0.3113294048782883
329,2737.77,0.3214421081310913
330,2744.08,0.29581663124120156
331,2756.75,0.30533599617069385
332,2763.1,0.31783538224822167
333,2775.86,0.3200164088544033
334,2782.2599999999998,0.294745463641203
335,2795.1,0.27278166618221966
336,2808.0,0.2742757031743627
337,2814.4700000000003,0.30712489815414284
338,2827.4700000000003,0.3300945625648295
339,2833.98,0.3245828705120273
340,2847.06,0.302402700857549
341,2853.6299999999997,0.279516843255873
342,2866.7999999999997,0.31989892527808406
343,2873.4100000000003,0.34523911064382545
344,2884.0315,0.3360680250897434
345,2886.67,0.3339071922443233
346,2893.33,0.35375017185264684
347,2906.68,0.3923983827792411
348,2926.8300000000004,0.3703954812939134
349,2947.12,0.3580154077883404
350,2967.54,0.36177753169253934
351,2988.11,0.36188451414647527
352,3008.83,0.36021115515014834
353,3029.6800000000003,0.3668834935635933
354,3050.68,0.37111499052677543
355,3071.83,0.38206494603969454
356,3093.12,0.37611632953236823
357,3107.4,0.3995150834673321
358,3128.94,0.3832313312095674
359,3150.6299999999997,0.3812183375015398
360,3172.47,0.39607670234324915
361,3187.11,0.3693681567975817
362,3209.2,0.3845839858888529
363,3231.4500000000003,0.35428470409984336
364,3246.3599999999997,0.41307718394370274
365,3268.87,0.4463863969742374
366,3291.5299999999997,0.4388550685545092
367,3306.7200000000003,0.4222581043578775
368,3311.31121,0.41783641705284813
369,3321.98,0.4078943502930118
370,3329.64,0.43298120856465067
371,3337.3199999999997,0.41507355184483163
372,3345.0099999999998,0.4190426376292836
373,3352.7200000000003,0.39828690842227776
374,3360.45,0.4256539642238141
375,3368.2000000000003,0.4223837050338925
376,3375.96,0.37308038834824203
377,3383.7400000000002,0.37580755667113364
378,3391.54,0.4242234100025674
379,3399.36,0.43119874834254335
380,3407.2000000000003,0.4213642716910614
381,3415.05,0.40985243754385053
382,3422.92,0.4482245884051818
383,3430.82,0.4292165667793263
384,3438.7200000000003,0.4336111451534707
385,3446.65,0.3497838510404284
386,3454.6,0.42674834193592825
387,3462.56,0.38262687533569917
388,3470.54,0.41154489374401215
389,3478.54,0.3628814971608674
390,3486.5600000000004,0.40110718558626457
391,3494.6,0.37782795902020405
392,3502.65,0.43185647495841456
393,3510.73,0.43062981840943826
394,3518.8199999999997,0.3990187043647331
395,3526.93,0.37839727532857
396,3535.06,0.4263953313009491
397,3543.21,0.4569360722818702
398,3551.38,0.44935789827133354
399,3559.57,0.431869109269339
400,3567.77,0.4100440627716156
401,3575.9999999999995,0.37721894378670534
402,3584.2400000000002,0.3305785673060661
403,3592.5,0.36958737583396906
404,3600.79,0.4560899118746853
405,3609.0899999999997,0.3978437904196725
406,3610.5,0.4059272835218932
407,3613.23,0.391712187187895
408,3615.9599999999996,0.3963062908538969
409,3618.7000000000003,0.4193518370241697
410,3621.43,0.3985085406901716
411,3624.17,0.4288896868604445
412,3626.9,0.42333089052644624
413,3629.6299999999997,0.4261544941924481
414,3632.37,0.434287540362721
415,3635.1,0.4496765440287228
416,3637.8300000000004,0.4447761476947246
417,3640.57,0.4429524938649975
418,3643.2999999999997,0.4215817975309994
419,3646.03,0.45292190119700115
420,3648.77,0.4610261473672741
421,3651.4999999999995,0.47109145103327593
422,3654.23,0.4747820546992777
423,3656.97,0.4953167008695506
424,3659.7000000000003,0.5005284045355524
425,3662.44,0.5015668507058253
426,3665.1699999999996,0.4982653543718272
427,3667.9,0.48442255803782897
428,3670.64,0.48275410420810183
429,3673.3700000000003,0.4782585078741036
430,3676.1,0.4524349115401055
431,3678.8399999999997,0.4479452577103784
432,3681.57,0.4361631613763802
433,3684.2999999999997,0.4452388650423821
434,3687.04,0.4612962112126549
435,3689.77,0.47711061487865675
436,3692.5,0.48526631854465857
437,3695.2400000000002,0.49514106471493147
438,3697.97,0.4760806683809333
439,3700.71,0.4631553145512062
440,3703.44,0.44356331821720807
441,3706.1699999999996,0.4558489218832099
442,3708.9100000000003,0.46762096805348274
443,3711.64,0.4624957717194846
444,3714.3700000000003,0.4705287753854863
445,3717.11,0.44408132155575925
446,3719.8399999999997,0.4411273252217611
447,3722.57,0.43723272888776293
448,3725.31,0.4268141750580358
449,3728.0400000000004,0.4194357787240376
450,3730.77,0.4131041823900395
451,3733.5099999999998,0.39346912856031235
452,3736.2400000000002,0.40248343222631416
453,3738.97,0.42028493589231597
454,3741.7099999999996,0.400600782062589
455,3744.44,0.39744618572859075
456,3747.18,0.41047383189886366
457,3749.9100000000003,0.4342574355648654
458,3752.64,0.4396449392308673
459,3755.3799999999997,0.4673680854011402
460,3758.11,0.46800008906714197
461,3760.8399999999997,0.4515769927331438
462,3763.5800000000004,0.4451777389034167
463,3766.31,0.4691005425694185
464,3769.04,0.46465404623542034
465,3771.78,0.49127719240569323
466,3774.5099999999998,0.4897666960716951
467,3777.2400000000002,0.5038146997376969
468,3779.98,0.5226155459079698
469,3782.71,0.49130464957397163
470,3785.4500000000003,0.47705039574424446
471,3788.18,0.4756869994102463
472,3790.9100000000003,0.44846090307624814
473,3793.65,0.42946364924652103
474,3796.3799999999997,0.4451879529125229
475,3799.11,0.4629526565785247
476,3801.85,0.45309000274879757
477,3801.8939600000003,0.45343400349501234
478,3804.5800000000004,0.4745121177268951
479,3807.31,0.4778169984900442
480,3810.0499999999997,0.4548889414537909
481,3812.78,0.42329032221693985
482,3815.5099999999998,0.41307690298008903
483,3818.2500000000005,0.38969524594383564
484,3820.98,0.37947772670698465
485,3823.72,0.36410646967073135
486,3826.4500000000003,0.3674478504338804
487,3829.18,0.35280603119702947
488,3831.9199999999996,0.33652297416077614
489,3834.65,0.35701355492392517
490,3837.38,0.38192843568707424
491,3840.1200000000003,0.4043431786508209
492,3842.85,0.40541935941397
493,3845.58,0.43221944017711905
494,3848.32,0.4380655831408657
495,3851.0499999999997,0.40819656390401476
496,3853.78,0.4132922446671638
497,3856.52,0.4064053876309105
498,3859.25,0.42559986839405956
499,3861.9900000000002,0.4268215113578062
500,3864.72,0.4318762921209553
501,3867.4500000000003,0.4284138728841043
502,3870.19,0.430686215847851
503,3872.92,0.431553996611
504,3875.65,0.4362121773741491
505,3878.39,0.4144538203378958
506,3881.1200000000003,0.42488560110104484
507,3883.85,0.44161448186419394
508,3886.5899999999997,0.4489121248279406
509,3889.32,0.47247370559108964
510,3892.05,0.4741920863542387
511,3894.7900000000004,0.4935112293179853
512,3897.52,0.4881107100811344
513,3900.2599999999998,0.4882893530448811
514,3902.9900000000002,0.49990303380803014
515,3905.72,0.5115412145711792
516,3908.4600000000005,0.5127338575349258
517,3911.19,0.515887538298075
518,3913.92,0.497320519061224
519,3916.6600000000003,0.4822841620249706
520,3919.39,0.4602537427881197
521,3922.12,0.4176025235512688
522,3924.86,0.3844277665150154
523,3927.59,0.3355163472781645
524,3930.3199999999997,0.3237285280413136
525,3933.06,0.3254574710050602
526,3935.79,0.36072145176820924
527,3938.53,0.4020885947319559
528,3941.2599999999998,0.440717875495105
529,3943.99,0.46133135625825406
530,3946.73,0.49480239922200075
531,3949.46,0.5038767799851498
532,3952.19,0.5041926607482989
533,3954.93,0.47542140371204555
534,3957.66,0.4342178844751946
535,3960.39,0.38328246523834364
536,3963.13,0.3582693082020903
537,3965.86,0.35202618896523935
538,3968.59,0.3750274697283884
539,3971.33,0.4284325126921351
540,3974.06,0.4925279934552842
541,3976.7999999999997,0.5338538364190308
542,3979.53,0.5586708171821798
543,3982.26,0.5885909979453289
544,3985.0,0.5935125409090756
545,3987.73,0.5986822216722246
546,3990.46,0.6204531024353737
547,3993.2000000000003,0.6156019453991204
548,3995.93,0.6249423261622694
549,3998.66,0.6261457069254185
550,4001.4,0.6522071498891651
551,4004.13,0.6337835306523142
552,4006.8599999999997,0.6527738114154633
553,4009.6,0.65728635437921
554,4012.33,0.6647049351423591
555,4015.07,0.6668048781061058
556,4017.8,0.6634695588692547
557,4020.5299999999997,0.6642641396324038
558,4023.27,0.6471459825961504
559,4026.0,0.6426248633592995
560,4028.73,0.6273906441224486
561,4031.47,0.6328026870861952
562,4034.2,0.6538784678493443
563,4036.9300000000003,0.6514018486124934
564,4039.67,0.63640999157624
565,4042.4,0.6168414723393891
566,4045.13,0.6200484531025381
567,4047.87,0.6481950960662848
568,4050.6,0.6381129768294339
569,4053.34,0.6279461197931805
570,4056.07,0.6257966005563296
571,4058.8,0.6164912813194786
572,4061.54,0.6176918242832253
573,4064.27,0.6231069050463744
574,4067.0,0.6254959858095235
575,4069.7400000000002,0.61962262877327
576,4072.4700000000003,0.6390219095364191
577,4075.2,0.6652498902995683
578,4077.94,0.6575772332633149
579,4080.67,0.671824514026464
580,4083.3999999999996,0.685540194789613
581,4086.14,0.6862498377533597
582,4088.87,0.6761677185165087
583,4091.61,0.6543880614802554
584,4094.34,0.6242700422434044
585,4097.07,0.6111620230065535
586,4099.8099999999995,0.6136300659703002
587,4102.54,0.6301262467334492
588,4105.2699999999995,0.6433511274965984
