,lambda (Angstroms),Total Flux (erg/s/cm^2/Angstrom)
0,102.02,62.90971129865597
1,103.92,62.73049948408075
2,104.712855,62.65572174238085
3,106.09,61.973157998685686
4,108.07000000000001,60.99184703251039
5,110.08,59.99583306836579
6,113.94,58.08285482477961
7,117.95,56.09553731534683
8,120.22644299999999,54.97095392909315
9,120.97,54.66319314027595
10,124.94,53.01455303902894
11,126.97,52.17134859004873
12,128.14000000000001,51.68550418977443
13,131.13,50.44346908951787
14,132.04,50.06691315252674
15,133.87,49.306764435687434
16,136.98999999999998,48.012779098289286
17,138.038426,47.57734127906656
18,139.86,47.03670818527527
19,143.12,46.09376492084234
20,147.13,44.95620189603372
21,150.9,43.83941482854533
22,155.13,42.58722067202651
23,158.489319,41.593563994240505
24,159.11,41.45495597175824
25,162.07,40.79345997533515
26,165.84,39.952765744755744
27,170.09,39.002396230972586
28,172.85999999999999,38.38394301540099
29,176.89,37.48294556891955
30,180.17,36.74931468369396
31,181.83999999999997,36.376376004630934
32,181.970086,36.34728539857415
33,186.07999999999998,35.64703844783222
34,190.85000000000002,34.834582538482344
35,193.95,34.30742128251073
36,198.01,33.61520332339951
37,202.16000000000003,32.90870154524396
38,204.97000000000003,32.43010945063743
39,208.929613,31.74983031241603
40,210.23,31.581712707987844
41,216.12,30.835147594970792
42,220.14,30.321979592198545
43,223.2,29.92821105725251
44,226.82999999999998,29.465827072659664
45,229.98000000000002,29.146126071979918
46,234.26,28.762585857088077
47,239.88329199999998,28.129683936417788
48,240.27,28.097586190586036
49,245.86,27.499690240957992
50,252.17,26.893816989410055
51,256.86,26.335687417181873
52,259.83,26.10525262176233
53,264.05,25.70539530773185
54,268.96,25.208990721028147
55,273.96,24.701615146584462
56,275.42287,24.55329602741917
57,279.06,24.26848500560832
58,284.24,23.867523343649694
59,290.2,23.382890652284168
60,296.27,22.915617240104854
61,301.09000000000003,22.533134191718634
62,308.1,21.994453810766903
63,316.227766,21.37086319735887
64,318.19,21.258146787176802
65,327.86,20.69357249833737
66,337.82,20.109628054610305
67,348.09,19.508016900486112
68,357.02,18.98963656549789
69,363.078055,18.64188144228263
70,366.17999999999995,18.50813678718275
71,374.71,18.131859853501727
72,385.2,17.659384030838893
73,395.09000000000003,17.240688449701107
74,405.22,16.8036088719533
75,413.71,16.431261254373947
76,416.86938299999997,16.292009374250807
77,422.36999999999995,16.104959743873067
78,430.21999999999997,15.839785997929203
79,441.26,15.474640595862928
80,450.5,15.163675912611808
81,459.93,14.845330737930203
82,469.56,14.524101772269134
83,478.630092,14.225575358174048
84,480.5,14.1780805717723
85,490.56,13.912597668970779
86,499.68,13.684352506391265
87,505.47,13.530178533108877
88,512.5,13.367347955703838
89,519.63,13.182249356998584
90,530.51,12.899479459535307
91,540.37,12.63738809933421
92,549.5408739999999,12.401292716954552
93,550.42,12.383878062007817
94,559.36,12.218790221518375
95,569.76,12.021459694327081
96,580.35,11.812098734619791
97,589.78,11.629347494483838
98,599.37,11.432960258544938
99,610.51,11.200428025765031
100,620.4300000000001,11.031608185982565
101,630.51,10.831537550397154
102,630.957344,10.823083869327624
103,639.28,10.698737802982722
104,649.67,10.535785889426357
105,658.71,10.391598015552484
106,664.8,10.3035523209848
107,675.5999999999999,10.139138903524863
108,685.0,9.98496244573566
109,694.53,9.84579331597703
110,704.1899999999999,9.686067114248978
111,715.63,9.521985780939561
112,724.43596,9.386908524319177
113,725.59,9.373707401492418
114,735.68,9.258353110259227
115,744.2,9.15790093728531
116,754.56,9.038544225077594
117,765.0500000000001,8.9078898731414
118,775.7,8.796619056924007
119,784.68,8.688308074141641
120,795.59,8.567682278467297
121,804.81,8.46385289926313
122,814.13,8.357460304883215
123,825.4499999999999,8.229106206988295
124,831.763771,8.149298192731736
125,835.0100000000001,8.117474112716915
126,844.6800000000001,8.04509687603881
127,854.4599999999999,7.960308062666334
128,864.35,7.877260592599483
129,874.36,7.792111933411496
130,884.49,7.705328485102377
131,894.73,7.618066530098882
132,905.09,7.528586075974253
133,915.57,7.443700612728491
134,924.04,7.446341357261733
135,934.74,7.432478460627222
136,945.5600000000001,7.410558794871578
137,954.3100000000001,7.3822689214555055
138,954.992586,7.377893018179123
139,965.36,7.313310407095923
140,974.3000000000001,7.0376160600145266
141,985.58,7.077905011348068
142,994.7,6.99596131029859
143,1003.9,6.987217040818854
144,1015.5300000000001,6.894218442770014
145,1024.92,6.693531760768415
146,1034.41,6.68756309322899
147,1043.98,6.722334357259308
148,1056.0700000000002,6.607353565736481
149,1065.84,6.4633833586911535
150,1075.7,6.415570424661784
151,1085.6499999999999,6.273274563648375
152,1095.7,6.256623617097141
153,1096.4782,6.248810521826416
154,1105.84,6.168759206816574
155,1116.07,6.088931916083374
156,1123.81,5.9959753178160256
157,1134.2,5.981445548048875
158,1144.7,5.889732536445885
159,1155.29,5.820967117886296
160,1165.98,5.744143924930489
161,1174.06,5.588347533715996
162,1184.93,5.598441526846995
163,1195.89,5.468998413021396
164,1204.18,5.369462805574844
165,1215.32,5.243940877836052
166,1223.75,5.273976226234793
167,1235.0700000000002,5.255057184582805
168,1243.63,5.208246256266463
169,1255.1399999999999,5.119286633261662
170,1258.92541,5.0849084653392875
171,1263.84,5.049767204149351
172,1275.53,5.03445296757313
173,1284.37,4.997718274815747
174,1296.26,4.887292361480307
175,1305.24,4.842165914991473
176,1314.29,4.842219291636914
177,1326.45,4.768513224676532
178,1335.6499999999999,4.697711993752559
179,1344.9,4.684584693638782
180,1354.2299999999998,4.629336162821319
181,1363.6100000000001,4.558165562814049
182,1376.23,4.4996852193074695
183,1385.77,4.4512159578928285
184,1395.3799999999999,4.3463188196124625
185,1405.05,4.2967148583043295
186,1414.79,4.289305720130471
187,1424.6000000000001,4.2385426050908865
188,1434.4699999999998,4.195558467023539
189,1441.09,4.1688630262934625
190,1445.43977,4.148420086976815
191,1447.7400000000002,4.14094060048463
192,1454.4299999999998,4.109132201620868
193,1464.51,4.059237977772327
194,1474.66,4.025263547508172
195,1484.88,3.992799310828402
196,1495.17,3.9566135677330174
197,1505.54,3.908902745876931
198,1512.49,3.8651316660408837
199,1515.97,3.862203089950316
200,1526.48,3.822365155262999
201,1533.53,3.770066451976074
202,1544.16,3.7279095491477032
203,1554.8600000000001,3.6874122399037166
204,1565.64,3.6643787518990285
205,1576.49,3.638220057478725
206,1583.77,3.6186441902547797
207,1594.75,3.583352355348334
208,1605.8,3.5405888140262745
209,1613.2099999999998,3.512957006316187
210,1624.39,3.469089624507984
211,1635.6499999999999,3.4397287639390797
212,1643.2,3.414456343397762
213,1654.59,3.3675429423427157
214,1659.58691,3.3546462618767947
215,1666.06,3.3444314186570483
216,1673.75,3.3079165605578766
217,1677.61,3.3216429662454185
218,1685.36,3.3049326470947578
219,1693.1299999999999,3.2753775409269337
220,1704.87,3.241516861852255
221,1716.6899999999998,3.2034182347089253
222,1724.6100000000001,3.1819321759123778
223,1736.5700000000002,3.1628002396489068
224,1744.58,3.1397252892751277
225,1756.6799999999998,3.1174083438915146
226,1764.78,3.0877595019405013
227,1777.02,3.0574104474367485
228,1785.2199999999998,3.0410893703999204
229,1793.46,3.0281347193287655
230,1805.89,2.9972792381619633
231,1814.23,2.9641237520049946
232,1826.8000000000002,2.937053661718051
233,1835.23,2.9117523839838486
234,1843.71,2.879500888706738
235,1856.49,2.849173184739584
236,1865.05,2.8320176413938225
237,1873.66,2.8201081805051524
238,1886.65,2.776677762857787
239,1895.3600000000001,2.750673166883302
240,1904.11,2.7375348968744917
241,1905.46072,2.7333409275564087
242,1912.8999999999999,2.7149018018899476
243,1926.16,2.6870338886245775
244,1935.0500000000002,2.67581084745345
245,1943.9799999999998,2.6660540870869545
246,1952.95,2.6396867075250854
247,1966.49,2.628088359892121
248,1975.5700000000002,2.6150061025429836
249,1984.68,2.592623805797319
250,1993.8500000000001,2.5730940302585976
251,2003.0500000000002,2.560366815323348
252,2016.93,2.5331046545297333
253,2026.24,2.5198376618072156
254,2035.6,2.4973649700904836
255,2044.9899999999998,2.485238238977224
256,2054.43,2.4567133088697513
257,2063.91,2.4429254595669074
258,2073.44,2.43874871126985
259,2078.2200000000003,2.4397477674230577
260,2083.0099999999998,2.445222043777423
261,2092.62,2.418701957089625
262,2107.13,2.393773468968921
263,2116.86,2.3835321246950114
264,2126.63,2.3621551612257305
265,2136.44,2.337918978561079
266,2146.31,2.3325521171033716
267,2156.21,2.3174920162491364
268,2166.17,2.2901201366018444
269,2176.16,2.2718573175580254
270,2186.21,2.26674091972115
271,2187.7616199999998,2.264257479322976
272,2196.2999999999997,2.2553360354639143
273,2206.44,2.240409545249214
274,2216.62,2.2101908631598994
275,2226.85,2.205401066227317
276,2237.13,2.2176705544514665
277,2247.46,2.199078427832349
278,2252.64,2.1710985300698096
279,2263.04,2.1543182426701173
280,2273.48,2.1483100633958103
281,2283.98,2.161324246309582
282,2294.52,2.1271057373487396
283,2305.11,2.131456813544629
284,2315.75,2.1017046748972517
285,2326.44,2.0635459214066056
286,2337.1800000000003,2.055222953072692
287,2342.56,2.031640995937082
288,2353.38,2.05130834385394
289,2364.24,2.0091965998961845
290,2375.15,2.0074545410951603
291,2386.12,1.9725790444822153
292,2397.13,1.9699857559946559
293,2402.66,1.9618316543292427
294,2413.75,1.9546633820924546
295,2424.8900000000003,1.9773581950123986
296,2436.08,1.964160193089076
297,2447.32,1.971191576322485
298,2452.97,1.9716852990332292
299,2464.29,1.9360921985174098
300,2475.6600000000003,1.9103044831583222
301,2487.09,1.8612652299873138
302,2492.82,1.8602815689488292
303,2504.3300000000004,1.8895909320285922
304,2511.88643,1.8443919421930135
305,2515.89,1.8216306863694833
306,2527.4999999999995,1.8067821128761141
307,2533.33,1.8307081758850414
308,2545.02,1.8225781216096335
309,2556.77,1.8925506067476958
310,2562.66,1.8411354091700953
311,2574.49,1.8694914135261194
312,2586.37,1.8394028173933687
313,2592.34,1.820391139033729
314,2604.2999999999997,1.7930801621189403
315,2616.3199999999997,1.7720091246176224
316,2622.35,1.8011537856714535
317,2634.46,1.903868407290342
318,2646.62,1.9766175284204561
319,2652.7200000000003,2.136389168790003
320,2664.96,1.918277909138079
321,2677.27,1.9487783288018707
322,2683.44,2.009861648487134
323,2695.8199999999997,1.8731943474666424
324,2702.04,1.9466605666631316
325,2714.5099999999998,1.8272605247628455
326,2727.04,1.7464546222760307
327,2733.33,1.801923620788236
328,2745.94,1.6899989375193822
329,2752.27,1.7362509956405687
330,2764.98,1.7892280113941665
331,2777.7400000000002,1.79221162665899
332,2784.14,1.6775908640958925
333,2796.99,1.582631138480923
334,2803.4399999999996,1.5925296754290514
335,2816.38,1.7223901089342872
336,2822.87,1.8260318054913962
337,2835.9,1.784081798116839
338,2842.44,1.6692198941851735
339,2855.56,1.5683236459308232
340,2862.1400000000003,1.747747201608138
341,2875.35,1.8925469124739942
342,2881.98,1.8432626676625354
343,2884.0315,1.8616401942279648
344,2895.29,1.9653590268287617
345,2908.6499999999996,2.1795925046568607
346,2928.81,2.0527848280860863
347,2949.1099999999997,1.9728022259835711
348,2969.56,1.981991082239904
349,2990.14,1.978259329073906
350,3010.87,1.9492701342667558
351,3031.74,1.9990663139278646
352,3052.75,2.0122092680572314
353,3066.84,2.099631469898392
354,3088.1,2.0532901212925068
355,3109.5099999999998,2.2094951310454696
356,3131.06,2.1042526152666907
357,3152.76,2.1007249578467606
358,3167.32,2.1919592025456462
359,3189.27,2.0279925423904634
360,3211.3799999999997,2.099582424484719
361,3233.64,1.9281263649378229
362,3248.56,2.2779197296979445
363,3271.08,2.4692262513063854
364,3293.76,2.427893915164265
365,3308.96,2.306185428860904
366,3311.31121,2.295117296549538
367,3324.23,2.236607794919976
368,3331.8999999999996,2.250271039093539
369,3339.58,2.093940951121305
370,3347.27,2.3962555310032743
371,3354.99,2.365545114447852
372,3362.73,1.9404667336008345
373,3370.48,2.0880859206080205
374,3378.25,2.282084543323612
375,3386.04,2.234988801747609
376,3393.84,2.281210728025809
377,3401.6600000000003,2.4772999900124146
378,3409.51,2.2399752555616286
379,3417.3700000000003,2.042237688965045
380,3425.24,2.2989247902226655
381,3433.14,2.4871723950428937
382,3441.0499999999997,2.1578036677173245
383,3448.9900000000002,2.0835539439543638
384,3456.94,2.220715888045606
385,3464.91,2.027061367845254
386,3472.8900000000003,2.336966115499105
387,3480.9,2.049616866715564
388,3488.9199999999996,2.2076006857862263
389,3496.97,2.099321308419497
390,3505.03,2.4056015989069697
391,3513.1099999999997,2.2176912251028487
392,3521.21,2.449931187007133
393,3529.32,1.9676646167656207
394,3537.46,2.3584044500867165
395,3545.61,2.365804751262015
396,3553.79,2.4172680559999224
397,3561.98,2.2585130285920325
398,3570.1899999999996,1.9711714368925481
399,3574.56,2.174170189179181
400,3576.5099999999998,2.1376044207487306
401,3578.4700000000003,2.1222433201724833
402,3580.43,2.0389202195962364
403,3582.39,2.018233119019989
404,3584.35,1.9666866184437417
405,3586.3,2.0203992500132917
406,3588.2599999999998,2.0750201494370444
407,3590.2200000000003,2.1373550488607975
408,3592.18,2.15055594828455
409,3594.1299999999997,2.1130721798541003
410,3596.09,2.2164600792778533
411,3598.0499999999997,2.2547329787016057
412,3600.01,2.3551808781253585
413,3601.96,2.3060341096949086
414,3603.92,2.2768050091186613
415,3605.88,2.2686989085424143
416,3607.84,2.2084278079661672
417,3609.79,2.2394570395357167
418,3611.7500000000005,2.298393938959469
419,3613.71,2.3169208383832225
420,3615.67,2.3131317378069753
421,3617.62,2.4132239693765256
422,3619.58,2.4963148688002783
423,3621.54,2.515301768224031
424,3623.5,2.440151667647784
425,3625.4500000000003,2.4088228992173337
426,3627.41,2.398328798641087
427,3629.37,2.3409956980648396
428,3631.33,2.325725597488592
429,3633.2799999999997,2.3784298290581423
430,3635.2400000000002,2.257910728481895
431,3637.2,2.266152627905648
432,3639.1600000000003,2.294322527329401
433,3641.12,2.433435426753154
434,3643.0699999999997,2.4644656583227036
435,3645.03,2.5051265577464563
436,3646.99,2.4337424571702093
437,3648.9500000000003,2.355286356593962
438,3650.9,2.389622588163512
439,3652.86,2.560604487587265
440,3654.8199999999997,2.7416873870110177
441,3656.78,2.7220092864347705
442,3658.73,2.8210935180043206
443,3660.6899999999996,2.8853574174280734
444,3662.65,3.008122316851826
445,3664.6099999999997,2.825794216275579
446,3666.56,2.771322447845129
447,3668.52,2.5615353472688813
448,3670.48,2.6320432466926347
449,3672.44,2.6461621461163873
450,3674.3900000000003,2.652212377685937
451,3676.35,2.67009627710969
452,3678.3100000000004,2.6726431765334424
453,3680.27,2.7374570759571957
454,3682.22,2.5917873075267455
455,3684.1800000000003,2.444176206950498
456,3686.14,2.3955681063742515
457,3688.1000000000004,2.531834005798004
458,3690.05,2.7268912373675542
459,3692.01,2.7661741367913066
460,3693.97,2.7121470362150597
461,3695.93,2.6504979356388123
462,3697.89,2.6231048350625654
463,3699.8399999999997,2.7245770666321154
464,3701.8,2.581372966055868
465,3703.7599999999998,2.629196865479621
466,3705.7200000000003,2.5680987649033735
467,3707.67,2.679672996472924
468,3709.6299999999997,2.707383895896677
469,3711.59,2.6886237953204293
470,3713.5499999999997,2.685384694744182
471,3715.5,2.569195926313732
472,3717.46,2.562007825737485
473,3719.42,2.5307577251612376
474,3721.38,2.5343146245849906
475,3723.3300000000004,2.5315478561545404
476,3725.29,2.4833987555782935
477,3727.2499999999995,2.4458116550020463
478,3729.21,2.332548554425799
479,3731.16,2.316280785995349
480,3733.12,2.340960685419102
481,3735.08,2.291434584842855
482,3737.04,2.2074694842666074
483,3738.99,2.1371977158361575
484,3740.9500000000003,2.2396676152599104
485,3742.91,2.3444335146836632
486,3744.8700000000003,2.346521414107416
487,3746.83,2.3007603135311685
488,3748.7799999999997,2.2280105451007186
489,3750.7400000000002,2.3009984445244713
490,3752.7,2.3459763439482244
491,3754.6600000000003,2.320604243371977
492,3756.61,2.259425474941527
493,3758.57,2.3333323743652796
494,3760.53,2.4251482737890324
495,3762.49,2.415664173212786
496,3764.44,2.4050904047823356
497,3766.3999999999996,2.4617313042060887
498,3768.36,2.637029203629841
499,3770.3199999999997,2.677139103053594
500,3772.27,2.704312334623144
501,3774.23,2.707410234046897
502,3776.1899999999996,2.73732513347065
503,3778.15,2.8784580328944025
504,3780.1,2.8911212644639526
505,3782.06,2.972834163887705
506,3784.02,2.857550063311458
507,3785.98,2.746122962735211
508,3787.93,2.546452194304761
509,3789.8900000000003,2.4466890937285135
510,3791.85,2.4477659931522666
511,3793.8100000000004,2.4473748925760193
512,3795.76,2.451862124145569
513,3797.72,2.417674023569322
514,3799.68,2.408648922993075
515,3801.64,2.423318822416828
516,3801.8939600000003,2.434822808670755
517,3803.6,2.512318077463649
518,3805.5499999999997,2.565359317042966
519,3807.51,2.5686114809278178
520,3809.47,2.5153826448126697
521,3811.4300000000003,2.4167838086975215
522,3813.38,2.318748048276839
523,3815.3399999999997,2.2775502121616906
524,3817.3,2.2784153760465427
525,3819.2599999999998,2.231063539931395
526,3821.21,2.128618779510712
527,3823.17,2.045449943395564
528,3825.13,2.0588971072804156
529,3827.09,2.0138422711652675
530,3829.0400000000004,2.0436465107445847
531,3831.0,2.0131016746294366
532,3832.96,2.0655818385142886
533,3834.92,2.088213002399141
534,3836.87,2.0716372419784577
535,3838.83,2.11300340586331
536,3840.79,2.134165569748162
537,3842.75,2.1239177336330135
538,3844.7,2.163364973212331
539,3846.66,2.2288861370971826
540,3848.62,2.281824300982035
541,3850.58,2.234932464866887
542,3852.53,2.190346704446204
543,3854.49,2.156495868331056
544,3856.4500000000003,2.261048032215908
545,3858.41,2.33244619610076
546,3860.3700000000003,2.4099973599856117
547,3862.32,2.301766599564929
548,3864.2799999999997,2.224842763449781
549,3866.2400000000002,2.235809927334633
550,3868.2,2.268084091219485
551,3870.15,2.241958330798802
552,3872.11,2.182392494683654
553,3874.07,2.220452658568506
554,3876.0299999999997,2.335198822453358
555,3877.9799999999996,2.3977910620326752
556,3879.94,2.358613225917527
557,3881.8999999999996,2.332385389802379
558,3883.86,2.335178553687231
559,3885.81,2.3495547932665484
560,3887.77,2.3842169571514003
561,3889.73,2.572711121036252
562,3891.69,2.6890182849211044
563,3893.64,2.810021524500421
564,3895.6000000000004,2.8411926883852727
565,3897.56,2.922233852270125
566,3899.52,2.931731016154977
567,3901.4700000000003,2.870800255734294
568,3903.43,2.8876444196191464
569,3905.3900000000003,2.931856583503998
570,3907.35,2.9635787473888504
571,3909.3,2.981814986968167
572,3911.2599999999998,2.974413150853019
573,3913.2200000000003,3.0110033147378714
574,3915.18,2.9838554786227234
575,3917.14,2.930717642507575
576,3919.09,2.877500882086892
577,3921.0499999999997,2.765402045971744
578,3923.01,2.6455892098565963
579,3924.97,2.478937373741448
580,3926.92,2.4175456133207653
581,3928.88,2.2677927772056172
582,3930.8399999999997,2.1208869410904696
583,3932.8,1.9871151049753213
584,3934.75,2.0126023445546384
585,3936.71,2.1495745084394904
586,3938.67,2.2381466723243424
587,3940.63,2.3389338362091943
588,3942.58,2.4155770757885113
589,3944.5400000000004,2.6124282396733634
590,3946.5,2.7252454035582154
591,3948.4599999999996,2.8342055674430675
592,3950.41,2.8311338070223844
593,3952.37,2.917959970907236
594,3954.33,2.9269061347920884
595,3956.29,2.8935142986769407
596,3958.2400000000002,2.7805095382562572
597,3960.2,2.63791970214111
598,3962.1600000000003,2.5727508660259613
599,3964.12,2.4104160299108135
600,3966.0699999999997,2.3828212694901305
601,3968.03,2.3039684333749824
602,3969.99,2.293721597259834
603,3971.9500000000003,2.2482987611446865
604,3973.91,2.3378809250295385
