,lambda (Angstroms),Total Flux (erg/s/cm^2/Angstrom)
0,100.1,0.019893977692472184
1,101.96000000000001,0.02389751747794649
2,104.09,0.028482215857071707
3,104.712855,0.029822874456685692
4,106.03,0.027457344911244477
5,108.0,0.023919319526455013
6,110.01,0.02030945999184706
7,113.86999999999999,0.01337708929769711
8,117.88,0.006175327560825336
9,120.22644299999999,0.00196128922410218
10,120.9,0.001905333841918281
11,124.86,0.0015762958205787188
12,126.89,0.0014076235793394982
13,128.06,0.0013104100969346273
14,131.05,0.001061978731622179
15,131.96,0.0009863967304183908
16,134.1,0.0008085958823864059
17,136.91,0.0005751774776439381
18,138.038426,0.0004814307101776209
19,140.1,0.0004754298407535015
20,143.03,0.0004673607306876774
21,147.04,0.00045664804995902393
22,151.16,0.00044498913436748965
23,155.03,0.0004341684391006844
24,158.489319,0.0004245818742199673
25,159.01,0.00042231912038171593
26,161.97,0.0004095102803270939
27,166.11999999999998,0.0003916316707538909
28,169.99,0.0003750686643615302
29,173.15,0.0003615933987491635
30,177.18,0.0003445274991106072
31,180.06,0.00033243764267908306
32,181.970086,0.00032443485937763987
33,182.14999999999998,0.0003247534660816997
34,185.96,0.0003316788536205404
35,191.17,0.00034118857927601515
36,193.83,0.00034637801039762053
37,197.89000000000001,0.00035413425263586
38,202.03,0.0003621731869379072
39,204.85,0.0003679085721871278
40,208.929613,0.00037549512285212625
41,210.10000000000002,0.00038628728464861595
42,215.99,0.00044289921821000905
43,220.0,0.0004811991960506179
44,223.06,0.0005101976955748731
45,227.21,0.0005502059297989447
46,229.84,0.0005940589447168503
47,234.11,0.0006685724044124615
48,239.88329199999998,0.0007518239561596421
49,240.11999999999998,0.0007514329497368437
50,246.28,0.0007102539997345787
51,252.01000000000002,0.0006858419019240307
52,257.28999999999996,0.0006288445447792327
53,260.27000000000004,0.0006352869621482665
54,263.89,0.0006244887483482348
55,268.8,0.000597764077973053
56,273.8,0.0005699848594647213
57,275.42287,0.0005607557136261239
58,278.89,0.0005930795624760944
59,284.07,0.0006430070729265876
60,290.02,0.0006905584268224242
61,296.09,0.0007509641342422106
62,300.9,0.0007882542796605257
63,307.90999999999997,0.0008600947063512509
64,316.227766,0.0009446047755794584
65,318.0,0.0009388144502665746
66,327.66,0.0009008605383871601
67,337.62,0.0008582241298655281
68,347.88,0.0008124231247016781
69,356.8,0.0007770138845397344
70,363.078055,0.000754468224275325
71,365.95000000000005,0.0007731831412222097
72,375.34,0.0008251410151335881
73,384.97,0.0008677979468446188
74,394.84,0.000936683936355301
75,404.96999999999997,0.0009984177968156063
76,414.40999999999997,0.0010484715036019124
77,416.86938299999997,0.0010608581901501996
78,422.11,0.0010779645466565133
79,429.96,0.0011025746419120702
80,440.99,0.0011482824690036363
81,451.26,0.001182519755153263
82,459.65,0.0012078082558149347
83,470.36,0.0012443981130362105
84,478.630092,0.0012777554102032167
85,480.2,0.0012744423647002177
86,490.26,0.0012393611754850742
87,500.53000000000003,0.0012229558342087795
88,506.32000000000005,0.0012824470702370418
89,512.18,0.0018268484222449207
90,520.51,0.00183452232381926
91,530.1800000000001,0.0018471226741462543
92,540.0400000000001,0.0017718277821322068
93,549.5408739999999,0.0020825969424557987
94,550.08,0.002101499009063412
95,560.31,0.002373682619505169
96,569.41,0.0025843641546977394
97,580.0,0.002507846364333928
98,589.42,0.0029006438765882153
99,600.38,0.0029434863409520135
100,610.14,0.0033502641413343747
101,620.05,0.003798054774714415
102,630.12,0.004047524896625314
103,630.957344,0.004054738833187083
104,640.36,0.004160790201498998
105,649.27,0.004659603075421531
106,658.3,0.004919359449329553
107,664.39,0.005243107073593102
108,675.1899999999999,0.0054026210722870815
109,684.58,0.00538363594615157
110,695.7099999999999,0.006704368569805642
111,705.38,0.006443710610302937
112,715.2,0.007739272025782092
113,724.43596,0.008020321744329293
114,726.8199999999999,0.00809129657638321
115,735.23,0.008414709681182938
116,745.46,0.009393116273584986
117,755.8299999999999,0.010006194672725672
118,764.59,0.010590869294372
119,775.2199999999999,0.011533217906027304
120,784.2,0.012452960938262923
121,795.11,0.013017203163395507
122,804.3100000000001,0.013606527606220416
123,815.5,0.014131823444830282
124,824.95,0.015469145399688477
125,831.763771,0.013928262073361765
126,834.5,0.013301913778534388
127,844.1600000000001,0.01643413121753543
128,855.91,0.01704020445855637
129,865.82,0.018273037711196153
130,875.8399999999999,0.019514252321836987
131,885.98,0.02112659932302442
132,894.18,0.022277016010375197
133,904.5400000000001,0.022558755727564724
134,915.01,0.034522146802755296
135,925.61,0.231204981301038
136,934.17,0.5110001451600287
137,944.99,0.9958584223743133
138,954.992586,1.3653759380845687
139,955.93,1.4000075689807217
140,964.77,1.6524039187728574
141,975.95,0.30665806703938225
142,984.98,1.574379859870037
143,994.0899999999999,1.60364612871691
144,1005.6,2.183039678050336
145,1014.91,2.0327288869377544
146,1024.3,0.8360364718413923
147,1036.16,1.493182516245774
148,1045.75,2.7419816411899576
149,1055.42,2.7230787421503595
150,1065.19,2.2442248131310345
151,1075.04,2.624700860127928
152,1084.99,2.1581458771450945
153,1095.03,2.7419938671805064
154,1096.4782,2.7286837173181477
155,1105.16,2.648885286784097
156,1115.39,2.594444687860724
157,1125.71,2.3661790044893447
158,1136.1200000000001,2.8843842366699595
159,1144.0,2.64267084277786
160,1154.5900000000001,2.7863079060624623
161,1165.27,2.884281884899058
162,1176.05,2.1089237699045364
163,1184.2,2.7863261226684184
164,1195.16,1.995547838777884
165,1206.22,1.4896234610562318
166,1214.58,0.8632776167747657
167,1225.82,1.8537870701571009
168,1234.31,2.7671461038951817
169,1245.74,3.069139378998392
170,1254.37,2.978617281372908
171,1258.92541,2.830158041386453
172,1265.9799999999998,2.6002584778144198
173,1274.75,3.2735840631370348
174,1283.59,3.4121566531315524
175,1295.47,2.831516446020112
176,1304.45,2.792602045358434
177,1313.49,3.373054648701244
178,1325.6399999999999,3.251079459609998
179,1334.83,2.9513930729640268
180,1344.08,3.4043446903225436
181,1356.52,3.3114405205863213
182,1365.9199999999998,3.020057147956057
183,1375.3899999999999,3.148003779997695
184,1384.92,3.1917754160438205
185,1394.52,2.8381330567618486
186,1404.1899999999998,2.944587702151779
187,1413.9199999999998,3.0062283515461967
188,1423.72,3.0551500056125174
189,1433.59,3.0411086643507397
190,1443.5300000000002,3.1917753277608645
191,1445.43977,3.217237334708188
192,1446.8600000000001,3.2361725347764896
193,1453.5400000000002,3.1624549089595178
194,1463.61,2.9582074730348316
195,1473.76,2.944597041591379
196,1483.97,2.978625613508852
197,1494.26,3.0270591899075585
198,1504.6200000000001,2.8908267702273447
199,1511.5600000000002,2.6245161589743833
200,1518.54,2.7798755499620382
201,1525.55,2.710366942630156
202,1536.12,2.4100665347131818
203,1546.77,2.6245251312774402
204,1553.91,2.4834095312275632
205,1564.68,2.5178351345136734
206,1575.53,2.673187742281017
207,1586.45,2.773517353969441
208,1593.77,2.84470976400234
209,1604.8200000000002,2.767131382972768
210,1615.9399999999998,2.7735310058642764
211,1623.4,2.6425854237393347
212,1634.65,2.7862710539128477
213,1645.99,2.818544689127749
214,1653.5800000000002,2.6183631142848127
215,1659.58691,2.7404740767967017
216,1665.0400000000002,2.8513286814607604
217,1672.73,2.57650482721021
218,1676.59,2.857899406220987
219,1684.33,2.9514005724239434
220,1696.0,2.7926703462725877
221,1703.8300000000002,2.697854549291858
222,1715.6399999999999,2.588417380410323
223,1723.5600000000002,2.570563620245906
224,1735.5100000000002,2.7165835086341925
225,1743.52,2.6547257852860895
226,1755.6,2.812240726853495
227,1763.7,2.5884490403217053
228,1775.93,2.6670690432496333
229,1784.1299999999999,2.6978893976248584
230,1796.49,2.8447814537319056
231,1804.79,2.8252198490141462
232,1813.1200000000001,2.648804256568491
233,1825.69,2.6855813985802697
234,1834.11,2.5944138429509276
235,1846.8300000000002,2.4046130463232287
236,1855.3500000000001,2.4214305316009024
237,1863.91,2.483491033241382
238,1876.83,2.6426873184277127
239,1885.5,2.4662698650659083
240,1894.2,2.3717034239762085
241,1902.9399999999998,2.4892479992493146
242,1905.46072,2.4751956819608942
243,1916.13,2.4157074045322324
244,1924.98,2.3772307379628628
245,1933.8600000000001,2.426955055574614
246,1942.79,2.5353363468215666
247,1956.26,2.3880462441447974
248,1965.2900000000002,2.5705944826621527
249,1974.36,2.6305307000876685
250,1983.47,2.500691896421346
251,1997.22,2.432443646101704
252,2006.4399999999998,2.483441784432824
253,2015.7,2.421389901672105
254,2025.0000000000002,2.5064119978195474
255,2034.3500000000001,2.404584067602191
256,2043.74,2.471958116292995
257,2053.17,2.371637143891961
258,2062.65,2.387995145126127
259,2072.17,2.5295351252684553
260,2076.95,2.4268726047936995
261,2086.54,2.4891305480253094
262,2096.17,2.37712847016508
263,2105.84,2.393495371213012
264,2115.56,2.410071245896145
265,2125.33,2.4436460942144795
266,2135.14,2.2963489214409747
267,2144.99,2.339058727575631
268,2154.8900000000003,2.404527507345489
269,2164.84,2.339047260750548
270,2174.83,2.3175809930637685
271,2184.87,2.2910106990121895
272,2187.7616199999998,2.3171945271982732
273,2194.96,2.3823832005373173
274,2205.09,2.317580459281859
275,2215.27,2.228525739046857
276,2225.49,2.167966035628221
277,2235.7599999999998,2.2914633532300415
278,2246.08,2.198997691852319
279,2256.4500000000003,2.134818051495053
280,2266.87,2.1650014321582436
281,2277.33,2.2162228296378
282,2282.58,2.257677036785761
283,2293.12,2.1467274678980477
284,2303.7,2.1522659158267
285,2314.33,2.0798203847758097
286,2325.02,1.7264868789494667
287,2335.75,1.9736873899394898
288,2346.53,1.9116269219499693
289,2357.36,2.0348114749809056
290,2362.79,1.9036697578025108
291,2373.7,1.953058344466178
292,2384.6600000000003,1.8316639521503018
293,2395.66,1.9273965766507912
294,2406.72,1.8625112263758286
295,2412.27,1.8930615596465301
296,2423.4,1.9737572388002071
297,2434.59,1.9029349431784321
298,2445.83,1.988581668577114
299,2457.1200000000003,1.9573884149962526
300,2462.7799999999997,1.948698794511959
301,2474.15,1.8874485745638283
302,2485.57,1.9364393756361544
303,2497.04,1.8329251977289376
304,2502.8,1.9961956192855574
305,2511.88643,1.8717358026050404
306,2514.3500000000004,1.837990038457731
307,2520.15,1.8767510947431878
308,2525.96,1.8049901494015508
309,2537.62,1.8138722522099002
310,2543.47,1.7892653003598868
311,2555.21,1.882797390151484
312,2567.0,1.853261471807611
313,2572.92,1.9319875085679394
314,2584.79,1.9192795772073141
315,2596.7200000000003,1.8979196360841246
316,2602.7099999999996,1.8422196614547945
317,2614.72,1.8217197073148526
318,2626.79,1.8819887434123463
319,2632.85,1.9084667573933582
320,2645.0,2.0315097804741
321,2657.21,2.0462257937922774
322,2663.34,1.9187797963836306
323,2675.63,1.9777287966850556
324,2687.98,1.9738127872239162
325,2694.18,1.8983517784256116
326,2706.6099999999997,1.93425475594772
327,2712.85,1.860334740641039
328,2725.37,1.8566597035193013
329,2737.9500000000003,1.926965656634999
330,2744.26,1.7376136299386598
331,2756.9300000000003,1.7623485684105114
332,2763.29,1.807849533578702
333,2776.04,1.8719974590338009
334,2782.44,1.8045974176936155
335,2795.28,1.5189463285048683
336,2808.19,1.6094532279264628
337,2814.66,1.8566811751966188
338,2827.65,1.9005780616014611
339,2834.1699999999996,1.840611000736147
340,2847.25,1.803483872497143
341,2853.82,1.7667888034963588
342,2866.99,1.867786660613508
343,2873.6,1.859539585104348
344,2884.0315,1.8600476624618336
345,2886.86,1.8601858783826215
346,2893.52,1.8476748562055898
347,2906.87,1.94885081175163
348,2927.02,1.8923797446544552
349,2947.3100000000004,1.8630986770910962
350,2967.74,1.8770096090615533
351,2988.31,1.8737025405658267
352,3009.0299999999997,1.8833424715706173
353,3029.8799999999997,1.880036402142523
354,3050.89,1.8724193321816471
355,3072.03,1.8691352617878865
356,3093.3300000000004,1.870169190861344
357,3107.61,1.8622581433105918
358,3129.15,1.837727071584877
359,3150.8399999999997,1.8387489993596795
360,3172.68,1.8355679266349993
361,3187.32,1.7698568778854888
362,3209.42,1.8037648042950385
363,3231.6600000000003,1.7515917302384045
364,3246.58,1.809684680556526
365,3269.08,1.8401366056341222
366,3291.7400000000002,1.8285325301789368
367,3306.94,1.8208354795646904
368,3311.31121,1.8174522172167984
369,3322.2000000000003,1.809023771887857
370,3329.86,1.8387752842938767
371,3337.54,1.8222777954268052
372,3345.23,1.797650305923188
373,3352.9399999999996,1.7733298151464794
374,3360.67,1.7859813230966795
375,3368.4199999999996,1.7863138297737882
376,3376.18,1.6751383358143512
377,3383.9700000000003,1.7184458399452773
378,3391.77,1.8080753434396577
379,3399.59,1.8505628456609466
380,3407.42,1.7353893472456903
381,3415.28,1.7802558469207965
382,3423.1499999999996,1.8474183459593574
383,3431.0400000000004,1.8477988437248267
384,3438.9500000000003,1.8228243402172049
385,3446.88,1.7015268354364916
386,3454.82,1.7902903300192328
387,3462.79,1.6866098226923367
388,3470.7700000000004,1.742206314728895
389,3478.77,1.664167805492362
390,3486.79,1.7309212949827377
391,3494.83,1.7154097832000224
392,3502.8900000000003,1.7679002701442152
393,3510.96,1.724035756451863
394,3519.05,1.740361241486419
395,3527.17,1.6932757246113381
396,3535.3,1.7531492070997114
397,3543.4500000000003,1.8151266883149937
398,3551.61,1.8029911688937301
399,3559.8,1.7827356475628293
400,3568.0099999999998,1.7667721249588375
401,3575.97,1.3268586182684872
402,3578.6299999999997,1.59929444894734
403,3581.3,1.978393278989647
404,3583.96,1.8149571096685
405,3586.63,1.6164209397108071
406,3589.29,1.6434177703896597
407,3591.96,1.716611600431967
408,3594.62,1.70941143111082
409,3597.2900000000004,1.6907242611531268
410,3599.96,1.608999091195434
411,3602.6200000000003,1.570321921874287
412,3605.29,1.628914751916594
413,3607.95,1.7475365825954468
414,3610.62,1.944958412637754
415,3613.2799999999997,1.7634562433166066
416,3615.95,1.6777140733589138
417,3618.6099999999997,1.7736589040377668
418,3621.28,1.7617307340800739
419,3623.94,1.9293225647589267
420,3626.61,1.771188394801234
421,3629.27,1.5454782254800865
422,3631.94,1.5209040555223936
423,3634.6,1.6835008862012466
424,3637.2700000000004,1.8232407162435538
425,3639.94,1.8822365462858608
426,3642.6,1.6784173769647137
427,3645.27,1.8807482070070207
428,3647.93,1.8717640376858735
429,3650.6,1.7203468677281806
430,3653.2599999999998,1.8060686984070335
431,3655.93,1.7397305284493405
432,3658.5899999999997,1.9276413591281933
433,3661.26,1.8265531891705007
434,3663.92,1.9444540198493534
435,3666.59,1.7774778498916606
436,3669.25,1.8197996805705134
437,3671.92,1.6884465106128204
438,3674.5899999999997,1.6580063406551275
439,3677.2500000000005,1.6971391713339805
440,3679.92,1.6723960013762875
441,3682.58,1.6703388320551402
442,3685.25,1.6082736620974476
443,3687.91,1.6214974927763002
444,3690.58,1.7193033228186074
445,3693.24,1.7626241534974603
446,3695.91,1.6666579835397672
447,3698.5699999999997,1.72942581421862
448,3701.2400000000002,1.7718016442609272
449,3703.9,1.80840547493978
450,3706.57,1.7872743049820872
451,3709.24,1.8601491350243944
452,3711.9,1.856880965703247
453,3714.5699999999997,1.9201697957455544
454,3717.2300000000005,2.066805626424407
455,3719.9,2.4789334564667143
456,3722.56,3.9089002871455674
457,3725.23,5.728854117187874
458,3727.89,6.401768947866727
459,3730.56,5.548197777909034
460,3733.22,3.870220608587887
461,3735.89,2.3263324386301942
462,3738.5499999999997,1.9976262693090467
463,3741.2200000000003,1.951500099351354
464,3743.8900000000003,1.9756189293936612
465,3746.55,1.984104760072514
466,3749.22,1.8660135901148212
467,3751.88,1.8642544207936738
468,3754.5499999999997,2.160336250835981
469,3757.2100000000005,2.1728820815148335
470,3759.88,2.236637911557141
471,3762.54,2.246845742235994
472,3765.21,2.141633572278301
473,3767.87,2.169695402957154
474,3770.54,1.9276932329994607
475,3773.2,1.9336290636783138
476,3775.87,2.138871893720621
477,3778.5400000000004,2.325686723762928
478,3781.2000000000003,2.5573605544417806
479,3783.87,2.708893384484088
480,3786.53,2.4402522151629404
481,3789.2,2.607939045205248
482,3791.86,2.3403598758841007
483,3794.5299999999997,2.2015667059264077
484,3797.1899999999996,1.8927325366052605
485,3799.86,1.9890293666475678
486,3801.8939600000003,1.987749218740635
487,3802.52,1.9873552056297061
488,3805.19,2.459377071084722
489,3807.85,2.6283519370436523
490,3810.52,2.5569328024986686
491,3813.19,2.5698916679536854
492,3815.85,2.8128295339126153
493,3818.5200000000004,2.623238399367632
494,3821.1800000000003,2.8124052653265617
495,3823.85,2.349916130781578
496,3826.51,2.3958299967405083
497,3829.18,2.0950618621955246
498,3831.84,1.9688407281544549
499,3834.5099999999998,1.856254593609471
500,3837.1699999999996,1.983506459568401
501,3839.84,1.9683053250234175
502,3842.5,2.0453981909823478
503,3845.17,2.176275056437364
504,3847.84,2.5858289218923804
505,3850.5,2.7199487878513104
506,3853.17,2.804956653306327
507,3855.83,2.8187795192652567
508,3858.5000000000005,2.975838384720273
509,3861.1600000000003,3.0230302506792035
510,3863.83,2.96074911613422
511,3866.4900000000002,2.94545398209315
512,3869.16,3.0028328475481665
513,3871.82,2.9590577135070966
514,3874.49,2.7756295789621124
515,3877.1499999999996,2.606882444921043
516,3879.8199999999997,2.587322310376059
517,3882.48,2.2753221763349893
518,3885.15,2.240035041790006
519,3887.82,2.025174907245022
520,3890.48,2.1075177732039516
521,3893.15,2.134186638658968
522,3895.81,2.2134685046178983
523,3898.4799999999996,2.6034703700729147
524,3901.1400000000003,2.729513236031845
525,3903.81,2.7433211014868615
526,3906.4700000000003,2.739502967445792
527,3909.14,2.7947568329008075
528,3911.8,2.770322698859738
529,3914.47,2.9673385643147543
530,3917.1299999999997,3.023882430273684
531,3919.7999999999997,2.8353532957287007
532,3922.4700000000003,3.0512841611837174
533,3925.13,2.776268027142647
534,3927.8,2.6106938925976633
535,3930.46,2.6583097585565936
536,3933.13,2.2665966240116098
537,3935.79,2.40135148997054
538,3938.4599999999996,2.8323733554255566
539,3941.1200000000003,2.687641221384487
540,3943.79,2.8787070868395026
541,3946.4500000000003,2.9524659527984327
542,3949.12,2.7792398182534495
543,3951.7799999999997,2.8572496842123796
544,3954.45,2.761812549667396
545,3957.12,2.7900734151224125
546,3959.7799999999997,2.6914632810813424
547,3962.4500000000003,2.1813661465363583
548,3965.11,1.9627330124952886
549,3967.78,1.877946877950305
550,3970.44,1.9441577439092352
551,3973.11,2.166489609364252
552,3975.77,2.222392475323182
553,3978.4399999999996,2.327594340778198
554,3981.1000000000004,2.517609206737128
555,3983.77,2.7569220721921446
556,3986.4300000000003,2.7431139381510747
557,3989.1,3.030033803606091
558,3991.77,2.9890076690611074
559,3994.43,3.213668535020038
560,3997.1,2.9877324004750534
561,3999.7599999999998,2.912290266433984
562,4002.4300000000003,3.073174131889
563,4005.09,2.9511849978479305
564,4007.76,2.883378863302947
565,4010.42,3.041089729261877
566,4013.09,2.891030594716893
567,4015.75,2.960113460675823
568,4018.4199999999996,3.0446963261308397
569,4021.0800000000004,2.9790301920897697
570,4023.75,3.0436350575447864
571,4026.42,3.1101519229998025
572,4029.08,3.013029788958733
573,4031.75,3.0438416544137485
574,4034.41,3.016431520372679
575,4037.08,3.2916613858276955
576,4039.74,3.1509692517866257
577,4042.4100000000003,3.060633117241642
578,4045.07,3.093159983200572
579,4047.7400000000002,3.082525848655588
580,4050.4,2.9760517146145182
581,4053.0699999999997,3.153939580069535
582,4055.73,3.084022446028465
583,4058.3999999999996,3.0969803114834815
584,4061.07,2.949047176938498
585,4063.73,2.990712042897428
586,4066.4,2.898250908352444
587,4069.06,2.974134774311374
588,4071.73,2.9358706397663905
589,4074.39,2.7686105057253205
590,4077.06,2.811112371180337
