,lambda (Angstroms),Total Flux (erg/s/cm^2/Angstrom)
0,101.98,0.041904675300015105
1,104.11,0.049929560238994176
2,104.712855,0.052200847576522574
3,106.05,0.04799743803168578
4,108.02000000000001,0.041804604227191004
5,110.03,0.03548602772817002
6,113.9,0.023320410307674753
7,117.9,0.010746128953217414
8,120.22644299999999,0.003432795508786888
9,120.92,0.0033319133584330278
10,124.89,0.0027544490143186643
11,126.91,0.0024606261417961777
12,128.09,0.0022889871805350202
13,131.07,0.0018555266192124417
14,131.98,0.0017231641114384998
15,134.13,0.0014104333901140199
16,136.93,0.0010031626869295802
17,138.038426,0.0008419366152507428
18,140.12,0.0008312493316595751
19,143.06,0.0008162339519249626
20,147.07,0.0007958651732466642
21,150.84,0.0007765941768785383
22,155.06,0.0007550379345163392
23,158.489319,0.0007375532013803521
24,159.04000000000002,0.0007332278220789473
25,162.0,0.0007099954272924554
26,166.15,0.0006774569731353803
27,170.02,0.0006471490007243249
28,173.19,0.0006223420261783184
29,176.80999999999997,0.000594080919933352
30,180.10000000000002,0.0005683823164676223
31,181.970086,0.0005538012343999801
32,182.18,0.0005543546227199797
33,185.99999999999997,0.0005644896770895227
34,191.20999999999998,0.0005783505833579309
35,193.87,0.000585555661243529
36,197.93,0.0005964976844373365
37,202.07,0.0006077461679058989
38,204.89000000000001,0.0006155025613410067
39,208.929613,0.0006263888173915012
40,210.14000000000001,0.0006452466352803139
41,216.03,0.000737887228541981
42,220.05,0.0008010723582197236
43,223.11,0.0008491005327206921
44,227.25,0.0009143918260455311
45,229.89,0.0009622887062816603
46,234.16,0.0010436499498075213
47,239.88329199999998,0.0011442206880781433
48,240.17,0.0011411931663622725
49,245.76000000000002,0.0010727414558203625
50,252.06,0.0010010292193956705
51,256.75,0.0009364244040572884
52,259.71999999999997,0.0009096151188856481
53,263.94,0.000863173338709108
54,268.84999999999997,0.0008060613752098639
55,273.85,0.0007478231551902661
56,275.42287,0.0007295257339708577
57,278.94,0.0007810150423735313
58,284.13,0.000857242827584509
59,290.08,0.0009405765953119304
60,296.15,0.0010316917344893168
61,300.96000000000004,0.0011011246534420734
62,307.97,0.0012064490823108505
63,316.227766,0.0013308730760688307
64,318.06,0.0013154174952371318
65,327.72999999999996,0.001232269614472992
66,337.69,0.0011452753639651495
67,347.95,0.0010551022757914086
68,356.87000000000006,0.000978269389192015
69,363.078055,0.0009251265293933396
70,366.03,0.0009520829368948967
71,375.42,0.0010355287262127104
72,385.04999999999995,0.0011154952778773045
73,394.92,0.0012103073918886807
74,405.05,0.0013024613734424026
75,413.53000000000003,0.001377352576362004
76,416.86938299999997,0.0014059749639294523
77,422.19,0.0014350732428332273
78,430.04,0.001479476213508397
79,441.07,0.0015440475351067562
80,451.35,0.0016003792569590806
81,459.74,0.0016468367834513956
82,470.45,0.0017063812238247802
83,478.630092,0.0017539760745721956
84,480.3,0.0017457341488758965
85,490.36,0.001689519232975514
86,499.46999999999997,0.001647596040147236
87,506.42,0.0016427780187250039
88,512.29,0.0018979637330057955
89,519.41,0.001892312664296976
90,530.29,0.00187444793795541
91,540.15,0.0018108345953333654
92,549.5408739999999,0.002001984433919503
93,550.1899999999999,0.00201786856234321
94,560.42,0.002194137915693365
95,569.52,0.0023553501029354384
96,580.11,0.002312054606550115
97,589.54,0.002639372514868
98,600.5,0.0027317473118101017
99,610.26,0.0030716899412037975
100,620.1700000000001,0.003422782716541044
101,630.25,0.003688415923947649
102,630.957344,0.003693449912730344
103,640.4899999999999,0.0038057354322279724
104,649.4,0.00432713090996515
105,658.43,0.004665442579321683
106,664.53,0.004958923819972276
107,675.3199999999999,0.00511967429974603
108,684.72,0.00520273430992891
109,694.24,0.006569472511731148
110,705.52,0.006473267523950604
111,715.34,0.0077189877048012305
112,724.43596,0.008118409261210168
113,725.29,0.008154926540190897
114,735.3800000000001,0.008571522603439892
115,745.61,0.00975171287272009
116,754.24,0.01053183050164366
117,764.74,0.011312531953984042
118,775.38,0.012437765612355628
119,784.35,0.013567456027354981
120,795.26,0.014317290868786747
121,804.47,0.015140476779839597
122,815.66,0.015847498033333775
123,825.11,0.017568749440440116
124,831.763771,0.015731670228788512
125,834.66,0.014918007008609924
126,844.3299999999999,0.018907352672417607
127,854.11,0.01966572313695113
128,865.99,0.021316911615341546
129,874.0,0.023083618468195687
130,884.12,0.02533711013497271
131,894.36,0.02697775340254155
132,904.7099999999999,0.02730384147083623
133,915.19,0.04274072793998872
134,925.79,0.31123131600993303
135,934.35,0.7019893968664164
136,945.1700000000001,1.3521902745378125
137,953.9200000000001,1.8576642245955493
138,954.992586,1.8805780893727606
139,964.97,2.09375542792816
140,973.89,0.3356194471215488
141,985.17,1.705943827895252
142,994.2900000000001,1.8237210421378203
143,1005.8000000000001,2.653975002218079
144,1015.11,2.6295951167573675
145,1024.5,1.2389701893163279
146,1033.98,1.9496052146474185
147,1045.95,3.5145099333407894
148,1055.63,3.3795548537210593
149,1065.3999999999999,2.69702472687346
150,1075.26,3.212635552797991
151,1085.2,2.599586336742194
152,1095.25,3.434440062963445
153,1096.4782,3.4048671995660804
154,1105.3799999999999,3.190517798274569
155,1115.61,3.0751519966724654
156,1125.93,2.6722930472556805
157,1133.74,3.4741562202261176
158,1144.23,3.1831219916038234
159,1154.81,3.3639146151668484
160,1165.5,3.426453058067485
161,1176.28,2.2125193531534406
162,1184.4399999999998,3.410625951289006
163,1195.3999999999999,2.7093039507455985
164,1203.68,1.9049853517949222
165,1214.8200000000002,1.3961990556221524
166,1226.0600000000002,2.690586595210848
167,1234.56,3.6043736349353956
168,1245.98,3.782939878894729
169,1254.62,3.621008688685327
170,1258.92541,3.5313630555102975
171,1266.2300000000002,3.379282470878357
172,1275.0,3.9338344954055153
173,1283.84,4.016253528110198
174,1295.72,3.168365915953145
175,1304.7,3.30999296501288
176,1313.75,3.997804022250141
177,1325.9,3.765459441634972
178,1335.09,3.4421115152272845
179,1344.35,3.915808596997123
180,1353.6699999999998,3.835477685776269
181,1366.1899999999998,3.4740061483851647
182,1375.6599999999999,3.538564254687581
183,1385.2,3.563109369167522
184,1394.8,2.8565524906567714
185,1404.4699999999998,3.039703620323546
186,1414.1999999999998,3.3099727569996293
187,1424.01,3.3482669030214556
188,1433.8799999999999,3.4263180560525903
189,1440.49,3.554931828244667
190,1445.43977,3.5488028792751662
191,1447.14,3.5466975731887125
192,1453.8200000000002,3.45800422814491
193,1463.8999999999999,3.2050962164620467
194,1474.0500000000002,3.2646252116424965
195,1484.27,3.2796302136862607
196,1494.55,3.287224221612864
197,1504.91,3.0538462373832544
198,1511.86,2.709243918812233
199,1515.3500000000001,2.8631352609974314
200,1525.85,2.909710290494449
201,1536.43,2.5110733278352533
202,1543.52,2.5814380229908584
203,1554.22,2.505313072097343
204,1564.99,2.6659141280671403
205,1575.84,2.850033191880725
206,1586.7600000000002,2.9366122625576225
207,1594.09,2.963694981244588
208,1605.1399999999999,2.98425406466764
209,1616.26,2.984284154954005
210,1623.7199999999998,2.889596886387124
211,1634.98,3.089160990400116
212,1646.31,3.1105091012764214
213,1653.91,2.991175846436167
214,1659.58691,3.086189845069987
215,1665.37,3.182984543857859
216,1673.0600000000002,2.9911930500618893
217,1676.92,3.2347688139042248
218,1684.66,3.279671355909322
219,1696.3400000000001,3.1034157190384604
220,1704.17,3.0119593254854773
221,1715.98,2.850063781697389
222,1723.8999999999999,2.843533452586325
223,1735.85,3.012002009041223
224,1743.8600000000001,2.9366787443720797
225,1755.95,3.0679084010699635
226,1764.05,2.9164562008427395
227,1776.28,2.87646295778361
228,1784.48,2.950254829158519
229,1796.8500000000001,3.0963866863423752
230,1805.14,3.125087622159204
231,1813.48,2.811008593777099
232,1826.05,2.943486594165222
233,1834.47,2.837077623064824
234,1842.94,2.605364687765492
235,1855.7199999999998,2.593476838518094
236,1864.2800000000002,2.672272967660682
237,1872.89,2.8964191326043367
238,1885.8700000000001,2.6053974265612045
239,1894.58,2.448485663106992
240,1903.32,2.684624921133419
241,1905.46072,2.6583699307443047
242,1916.51,2.522837255897085
243,1925.3600000000001,2.4540260877058526
244,1934.2500000000002,2.5994878825962413
245,1943.1699999999998,2.6846076497978464
246,1956.64,2.4596772175339026
247,1965.6699999999998,2.709366883209967
248,1974.7500000000002,2.8174795027380584
249,1983.8600000000001,2.635577094577366
250,1993.02,2.5815516402687004
251,2006.84,2.690643884968945
252,2016.1000000000001,2.629414338364333
253,2025.4,2.766097754841343
254,2034.75,2.55195312517038
255,2044.15,2.6354864493514434
256,2053.58,2.5401547458437235
257,2063.06,2.56959099618803
258,2072.58,2.7469322096139583
259,2077.36,2.5111257978677335
260,2086.95,2.6475699466864993
261,2096.58,2.505331058586887
262,2106.26,2.581427124339301
263,2115.98,2.605204153173337
264,2125.75,2.6414251358594005
265,2135.56,2.551850081627085
266,2145.42,2.4994979812467966
267,2155.32,2.6111888439481294
268,2165.27,2.5813906605014894
269,2175.2599999999998,2.563614440136471
270,2185.3,2.4936941736234792
271,2187.7616199999998,2.515078963657917
272,2195.3900000000003,2.581361515133885
273,2205.52,2.5459469694835524
274,2215.7,2.476592460626653
275,2225.9300000000003,2.4090359885631876
276,2236.21,2.4766045532931553
277,2246.5299999999997,2.4480481474578704
278,2256.9,2.3691707784160188
279,2267.31,2.417528438808915
280,2272.54,2.4336302874020794
281,2283.03,2.460427006664469
282,2293.57,2.3269557627202926
283,2304.1600000000003,2.36352755556955
284,2314.79,2.2820803778535534
285,2325.48,1.8798112442896777
286,2336.21,2.166981140160549
287,2346.99,2.1558700728248543
288,2352.4,2.2207860538743804
289,2363.26,2.139217045408179
290,2374.17,2.147881073735412
291,2385.13,2.083440138856078
292,2396.14,2.1454582407701785
293,2407.2,2.0762343794777123
294,2412.75,2.0996764635488523
295,2423.88,2.1424816537671934
296,2435.07,2.0686018881376547
297,2446.31,2.1301661593015497
298,2457.6,2.1191794672588786
299,2463.27,2.09427663963426
300,2474.64,2.0501720064610827
301,2486.06,2.072740410081339
302,2497.54,1.9067258578537158
303,2503.2900000000004,2.080418089098591
304,2511.88643,1.9829925070675725
305,2514.8500000000004,1.9494025709157672
306,2520.6499999999996,2.017295919072572
307,2526.46,1.9617282643813716
308,2532.28,1.9611826068421654
309,2543.97,1.9197212775237258
310,2555.71,1.9859529339652586
311,2567.51,1.9620605733187584
312,2573.43,2.0117248872994975
313,2585.31,1.996718503868953
314,2597.2400000000002,1.981711106198381
315,2603.2300000000005,1.9404874002430812
316,2615.24,1.9214899797884653
317,2627.31,1.9424965422458162
318,2633.37,1.959818816354478
319,2645.52,2.0227173560277847
320,2657.7400000000002,2.0401478757650535
321,2663.86,1.929924132785682
322,2676.1600000000003,1.9735786297389062
323,2682.33,1.9683518725195073
324,2694.71,1.9003503466886877
325,2707.1499999999996,1.9078978037698349
326,2713.39,1.8681100266143975
327,2725.9100000000003,1.8583324609115004
328,2732.2000000000003,1.8966636695160357
329,2744.81,1.7729800781810892
330,2757.48,1.7840884697581096
331,2763.83,1.8083186612746114
332,2776.5899999999997,1.8492070272195824
333,2782.9900000000002,1.8023152044960566
334,2795.84,1.6427285448089781
335,2802.2799999999997,1.6998487106934306
336,2815.22,1.8117410253743023
337,2828.21,1.8271873258151463
338,2834.7299999999996,1.7565104689155546
339,2847.81,1.7472947437243493
340,2854.38,1.7187218725847302
341,2867.5499999999997,1.7901811217614751
342,2874.1699999999996,1.7813862363818285
343,2884.0315,1.7743636164712715
344,2887.4300000000003,1.7719444080130136
345,2894.09,1.763162369195154
346,2907.45,1.8070612913262942
347,2927.6000000000004,1.768164173881869
348,2947.8900000000003,1.730052055621453
349,2968.33,1.7321639364867603
350,2988.9,1.7183808165943621
351,3009.62,1.7007156958276877
352,3030.48,1.702827574245022
353,3051.4900000000002,1.6891544517880805
354,3072.64,1.679490328515148
355,3086.82,1.6590462458669124
356,3108.22,1.6571541211368528
357,3129.77,1.6288089955325171
358,3151.46,1.6194748691121905
359,3173.31,1.6064687417593024
360,3187.95,1.5542516564299536
361,3210.0499999999997,1.5703645276199387
362,3232.3,1.525799397935648
363,3247.2200000000003,1.5600303109743165
364,3269.73,1.5762551797746138
365,3292.39,1.556248047700635
366,3307.59,1.5407999591073216
367,3311.31121,1.5545562297096414
368,3322.86,1.5972476506680917
369,3330.52,1.6039167972015387
370,3338.1899999999996,1.5382429426207993
371,3345.8900000000003,1.5698040846975019
372,3353.6,1.5546912256600183
373,3361.33,1.5327993643941624
374,3369.08,1.5076845008999344
375,3376.85,1.4625576351773342
376,3384.63,1.5097937683405478
377,3392.44,1.555011898161203
378,3400.2599999999998,1.5979040268676725
379,3408.1,1.5044451533457694
380,3415.95,1.5142302787096806
381,3423.83,1.5740134007310334
382,3431.72,1.5661195216381998
383,3439.63,1.561790640316994
384,3447.56,1.4737747567674162
385,3455.5099999999998,1.4799938709894662
386,3463.4700000000003,1.43243498409733
387,3471.46,1.4855480938626355
388,3479.4599999999996,1.4345442025137551
389,3487.48,1.4571053089365023
390,3495.5199999999995,1.4767684131308776
391,3503.58,1.4727695150968803
392,3511.65,1.455212615948697
393,3519.75,1.4613257134579556
394,3527.8599999999997,1.4274328098530278
395,3536.0000000000005,1.476874902905542
396,3544.1499999999996,1.4967669948438698
397,3552.3199999999997,1.5099900845538254
398,3560.51,1.4954311720354092
399,3568.71,1.4275402584028067
400,3576.94,1.3816353414276459
401,3585.1899999999996,1.3402944222241127
402,3593.4500000000003,1.3804165019063936
403,3601.73,1.4514305793603022
404,3610.04,1.4079696534716526
405,3618.36,1.4335327264688167
406,3626.7,1.4866467972376087
407,3635.06,1.4321978657780285
408,3643.44,1.4989799320900763
409,3651.84,1.4177499961737516
410,3659.1800000000003,1.3155061783611537
411,3661.86,1.0802558797592787
412,3664.54,1.2693945811574037
413,3667.23,1.5224242814413427
414,3669.9100000000003,1.0758669828394678
415,3672.6,1.2838356831234068
416,3675.28,1.2983963845215318
417,3677.97,1.4016270848054708
418,3680.6499999999996,1.5058667862035957
419,3683.3300000000004,1.4296374876017208
420,3686.02,1.3288411878856596
421,3688.7,1.3322888892837845
422,3691.39,1.1905995895677235
423,3694.0699999999997,1.2677232909658485
424,3696.76,1.4934159912497875
425,3699.44,1.5416476926479126
426,3702.13,1.2564943929318513
427,3704.81,1.3796240943299765
428,3707.49,1.0989777957281013
429,3710.1800000000003,1.2958334960120403
430,3712.86,1.3139501974101653
431,3715.55,1.5786478976941043
432,3718.23,1.3593995990922294
433,3720.9199999999996,1.8427912993761684
434,3723.6000000000004,2.443765000774293
435,3726.28,4.044653702172418
436,3728.97,5.740199402456358
437,3731.65,5.786997103854482
438,3734.3399999999997,4.586264804138421
439,3737.02,2.543334505536546
440,3739.71,2.0589292058204847
441,3742.39,1.7016639072186102
442,3745.08,1.395840607502549
443,3747.7599999999998,1.864906308900674
444,3750.44,1.539200010298799
445,3753.13,1.3608377105827378
446,3755.81,1.2680504119808629
447,3758.5,1.7904491122648019
448,3761.1800000000003,1.8466818136629268
449,3763.8700000000003,1.6236465139468657
450,3766.55,1.648987215344991
451,3769.23,1.340392916743116
452,3771.92,1.577087617027055
453,3774.6000000000004,1.6069833184251798
454,3777.29,1.3886160187091188
455,3779.9700000000003,1.4966337201072437
456,3782.66,1.6289794203911827
457,3785.3399999999997,1.7318861217893078
458,3788.03,1.5600798220732466
459,3790.71,1.5378585234713715
460,3793.39,1.6333192248694965
461,3796.08,1.4355099251534356
462,3798.7599999999998,1.5850886265515605
463,3801.4500000000003,1.5918623268354994
464,3801.8939600000003,1.6098482896984552
465,3804.13,1.7004360801441745
466,3806.82,1.682760842877524
467,3809.5,1.6366476064929054
468,3812.1899999999996,1.8781183692262546
469,3814.8700000000003,1.8433401328416361
470,3817.55,1.9021298964570175
471,3820.24,2.097372659190367
472,3822.92,1.6233134228057484
473,3825.6099999999997,1.7339891855390976
474,3828.29,1.5820839491544794
475,3830.98,1.7383217118878287
476,3833.66,1.50162747550321
477,3836.3399999999997,1.4318432391185916
478,3839.0299999999997,1.351050001851941
479,3841.71,1.3430517654673224
480,3844.4,1.1167955282006716
481,3847.08,1.747104291816053
482,3849.77,1.8166640545494026
483,3852.45,1.811333818164784
484,3855.1400000000003,2.0010195808981335
485,3857.82,1.9421273445135148
486,3860.5,1.7531061081288963
487,3863.19,1.8457798708622457
488,3865.8700000000003,2.014472634477627
489,3868.56,2.243163397210976
490,3871.2400000000002,2.112262160826358
491,3873.93,2.198266923559707
492,3876.6099999999997,1.9742416871750887
493,3879.2900000000004,1.74510445079047
494,3881.98,1.6536422135238196
495,3884.66,1.959241977139201
496,3887.35,1.8366647398725502
497,3890.0299999999997,1.4455055034879316
498,3892.7200000000003,1.598743266221281
499,3895.4,1.7533230298366627
500,3898.09,1.7029767925700119
501,3900.77,1.7020915561853933
502,3903.45,1.5520753198007748
503,3906.1400000000003,1.7888800825341242
504,3908.82,2.1181498461495054
505,3911.51,1.874778608882855
506,3914.19,1.9886863724982364
507,3916.8799999999997,2.057134135231586
508,3919.5600000000004,1.8807808988469672
509,3922.2400000000002,1.9389046624623487
510,3924.93,1.9790154251956982
511,3927.61,1.7515441888110796
512,3930.2999999999997,1.7484269515444288
513,3932.98,1.9215657151598102
514,3935.67,1.7804304778931597
515,3938.35,1.6193012415085413
516,3941.04,1.8058760042418904
517,3943.72,1.9891267678572722
518,3946.4,2.0971455314726537
519,3949.09,1.8255472942060027
520,3951.77,1.8581110578213842
521,3954.46,2.1192508205547336
522,3957.1400000000003,1.893336584170115
523,3959.83,1.7582023469034644
524,3962.51,1.8781111105188457
525,3965.19,1.6097448741342273
526,3967.8799999999997,1.7988766368675766
527,3970.5600000000004,1.7259814004829581
528,3973.25,1.6605231632163073
529,3975.93,1.635856926831689
530,3978.62,1.3999316895650382
531,3981.2999999999997,1.6468564531804197
532,3983.9900000000002,1.736530215913769
533,3986.67,1.7987639795291506
534,3989.35,1.9721247431445321
535,3992.04,2.1532535058778812
536,3994.72,2.134145269493263
537,3997.4100000000003,2.0572400322266122
538,4000.09,1.9654537958419938
539,4002.78,2.201256558575343
540,4005.46,2.080578322190725
541,4008.1499999999996,1.9647800849240737
542,4010.8300000000004,2.0704638485394553
543,4013.51,2.3388386121548366
544,4016.2,2.198590374888186
545,4018.88,2.283718138503567
546,4021.5699999999997,2.1343579012369167
547,4024.2499999999995,2.0245696648522986
548,4026.94,2.010784427585648
549,4029.62,2.103023191201029
550,4032.2999999999997,2.116139954816411
551,4034.99,2.04479171754976
552,4037.67,1.8617714811651414
553,4040.36,2.003562243898491
554,4043.04,2.043016007513872
555,4045.73,1.9775567702472214
556,4048.41,1.908885533862603
557,4051.1000000000004,1.9563302965959524
558,4053.78,2.118245060211334
559,4056.46,2.2567118238267154
560,4059.15,2.0333425865600647
561,4061.8300000000004,2.077019350175446
562,4064.52,2.1336881129087955
563,4067.2000000000003,2.113022876524177
564,4069.89,2.073233639257526
565,4072.5699999999997,2.057902402872908
566,4075.2500000000005,2.0980231664882893
567,4077.94,2.0882379292216386
568,4080.62,2.18425469283702
569,4083.31,2.146688455570369
570,4085.99,2.089241219185751
571,4088.6800000000003,2.1984719819191003
572,4091.36,2.0974617455344817
573,4094.05,1.989108508267831
574,4096.7300000000005,1.9865572718832125
575,4099.41,2.153028035498594
576,4102.1,2.127462798231943
577,4104.78,1.9569995618473248
578,4107.469999999999,1.974996324580674
579,4110.150000000001,2.0018930881960557
580,4112.84,2.153462850929405
581,4115.5199999999995,1.9974466145447864
582,4118.2,2.078572378160168
583,4120.889999999999,2.036450140893517
584,4123.57,2.0582349045088986
585,4126.26,2.2730346672422477
