,lambda (Angstroms),Total Flux (erg/s/cm^2/Angstrom)
0,100.00999999999999,0.008111434607817266
1,102.10000000000001,0.009963747788116803
2,104.0,0.011647671360334538
3,104.712855,0.012279472259848927
4,105.93,0.011379564552427232
5,107.89999999999999,0.009923083367795396
6,109.91000000000001,0.00843723550426289
7,114.03,0.0053914190151962945
8,118.04,0.0024270925501314665
9,120.22644299999999,0.000816145107764998
10,121.07,0.000789519397209874
11,125.03,0.0006572702122852415
12,127.07,0.0005889433197483102
13,127.95,0.0005599510053206138
14,130.93,0.00046033909328137024
15,132.14,0.0004226413009432889
16,133.98,0.0003615448453217426
17,137.1,0.0002621900314417293
18,138.038426,0.00023136048684061167
19,139.97,0.00023165850926004614
20,142.9,0.00029755979757359113
21,146.9,0.0004697065116535159
22,151.02,0.0004926998181558385
23,154.89,0.0005219066237781659
24,158.489319,0.0005524453187058592
25,158.86,0.0005553500866480445
26,161.82,0.0005790768400320387
27,165.97,0.0006195213547427063
28,169.84,0.0006532480373765097
29,172.98999999999998,0.0006832478232412333
30,177.01999999999998,0.0007208226384903877
31,179.89999999999998,0.0007499286255667065
32,181.970086,0.0007720604563993799
33,181.98,0.0007721907799857443
34,185.79,0.0008236265653093651
35,191.0,0.0008934332176810357
36,194.1,0.0009421003947160028
37,198.17000000000002,0.0009961045239199758
38,201.85000000000002,0.0010595909373034207
39,205.13,0.0011070535601017085
40,208.929613,0.0011325923150819117
41,209.91,0.001142153330375471
42,215.79000000000002,0.0013026788509668203
43,219.79999999999998,0.0013870875498735056
44,222.86,0.0014318873126302283
45,227.00000000000003,0.0015261536975363825
46,230.16,0.0022543952956773114
47,233.9,0.003742634339046639
48,239.88329199999998,0.00462954880428504
49,239.9,0.004631914901134942
50,246.04999999999998,0.004445444207765072
51,251.78,0.004739704849552171
52,257.06,0.004068868493293161
53,260.03,0.004653147480397468
54,264.26,0.004893182462030876
55,269.17,0.0049003889962672895
56,274.17,0.004907430530112925
57,275.42287,0.004909057454160566
58,279.27,0.004937828257624496
59,283.81,0.00497446466945325
60,289.75,0.00479866856510585
61,295.82,0.004924891298542091
62,301.32,0.004910281127850053
63,308.34,0.0050085023681667624
64,316.227766,0.005126902391899285
65,317.71,0.00514095718180485
66,328.12,0.005116528225723752
67,338.09,0.005059572709669138
68,348.36,0.004980498984505557
69,357.29999999999995,0.00491600495305839
70,363.078055,0.0048949137564439195
71,365.61999999999995,0.004896213595674106
72,375.0,0.00484849874865189
73,384.62,0.0046668487136461625
74,395.39,0.004748570527886111
75,404.6,0.00473438456401888
76,414.03000000000003,0.004669395927833431
77,416.86938299999997,0.004641335965961643
78,421.72,0.004589860621683252
79,429.56,0.004519629572083301
80,440.58,0.004463939061038472
81,450.85,0.004371013668258945
82,460.29,0.004288653833026351
83,469.92,0.004218095954499882
84,478.630092,0.0041725573702899345
85,479.76,0.004163791736881249
86,489.80999999999995,0.004019252332726324
87,500.07000000000005,0.0039623165649024916
88,505.86,0.0038705835380311478
89,511.71000000000004,0.003937091407254401
90,520.03,0.0038585636657052507
91,529.7,0.0037391315862845428
92,539.54,0.003584079545798528
93,549.5408739999999,0.003486639702109187
94,549.58,0.0034862963656339375
95,559.79,0.00346660146703884
96,570.2,0.003439544152212692
97,579.47,0.0033259883099035293
98,590.24,0.0032783768458614915
99,599.83,0.0031361855375826486
100,609.5799999999999,0.0027837994963189664
101,619.48,0.003067029392881996
102,629.55,0.0029715358856486334
103,630.957344,0.0029665161880981297
104,639.78,0.00294472326458438
105,650.1700000000001,0.00287651578335853
106,657.6999999999999,0.0027966286530764655
107,665.3100000000001,0.0028074768906001693
108,674.57,0.002772008964117843
109,685.53,0.0026474433535080923
110,695.07,0.002670354714345955
111,704.7399999999999,0.002540327922868191
112,716.19,0.0025848068150687705
113,724.43596,0.0025460762958499712
114,726.15,0.0025375604572856537
115,734.56,0.0025041290993223038
116,744.78,0.0024466411221064376
117,755.14,0.0024006862958876143
118,765.64,0.002199028620665834
119,774.5100000000001,0.002321087044549911
120,785.29,0.002246380671322216
121,794.38,0.002236103903915932
122,805.4300000000001,0.0022132852504682487
123,814.7600000000001,0.0021770534561997524
124,824.19,0.002154575484072001
125,831.763771,0.0020568941754596174
126,835.66,0.002002204852439629
127,845.3299999999999,0.0020629181689326213
128,855.12,0.002014811772703707
129,865.02,0.0019832244731463776
130,875.04,0.0019557834608671413
131,885.17,0.0019170005452594902
132,895.42,0.0018823979169299322
133,905.7900000000001,0.001833359575878467
134,914.17,0.0020758693041319602
135,924.76,0.0036973811564236657
136,935.46,0.005708355105386956
137,944.12,0.008484671170622666
138,954.992586,0.010824832997133063
139,955.0500000000001,0.010837228253529368
140,963.89,0.01164946709413834
141,975.05,0.004015361567124327
142,984.0699999999999,0.009655201189555655
143,995.4699999999999,0.010076552038304782
144,1004.6800000000001,0.013897372208215259
145,1013.98,0.013646064269036915
146,1025.72,0.006933884150117155
147,1035.21,0.010186018758417964
148,1044.79,0.01740089125762995
149,1054.45,0.017008308882096312
150,1064.21,0.013516644163130654
151,1074.06,0.015775038335076173
152,1084.0,0.012369141397932867
153,1094.03,0.016432103351700738
154,1096.4782,0.016272198840825564
155,1104.15,0.01576909733573342
156,1114.37,0.015029169073012943
157,1124.68,0.013440406040855595
158,1135.08,0.01691074823926137
159,1145.59,0.015433067941688748
160,1156.18,0.016297066737950016
161,1164.2,0.016556048394797546
162,1174.97,0.011471887652185068
163,1185.84,0.01591806827686495
164,1194.06,0.01123241266829721
165,1205.11,0.008435725754103349
166,1216.26,0.006104163207201851
167,1224.69,0.011323049469948072
168,1236.03,0.016377938520902066
169,1244.59,0.01773831156112836
170,1256.11,0.0168255810732086
171,1258.92541,0.016095244031109433
172,1264.8200000000002,0.014568585382668177
173,1273.58,0.01864861610039497
174,1285.3700000000001,0.01947733008007521
175,1294.28,0.015181034919680885
176,1306.25,0.014974883845615782
177,1315.3100000000002,0.018778062807100343
178,1324.42,0.017856813142544527
179,1333.6100000000001,0.015675535676324123
180,1345.9499999999998,0.018778664769560263
181,1355.27,0.01810425087563489
182,1364.67,0.016075439180044917
183,1374.13,0.0168275391332065
184,1383.6499999999999,0.016904960735119635
185,1396.46,0.014472972743576281
186,1406.1399999999999,0.014841268742160225
187,1415.8799999999999,0.015464456389495724
188,1425.7,0.015858026235166627
189,1435.58,0.015750077729589078
190,1442.2099999999998,0.01656228991663573
191,1445.43977,0.016822238957986988
192,1445.53,0.016829500749082345
193,1455.55,0.016262441840385077
194,1465.64,0.014910854546098102
195,1475.8,0.014876958866221427
196,1486.0300000000002,0.015186124800755053
197,1496.33,0.015395912349698976
198,1506.7,0.014475781513053199
199,1513.66,0.012827262031562878
200,1517.1499999999999,0.01373577252144776
201,1524.1499999999999,0.013304323962477611
202,1534.71,0.011524897507802643
203,1545.3500000000001,0.012624932898168016
204,1556.06,0.011926129902943687
205,1563.25,0.012145615725944348
206,1574.08,0.013094605498280532
207,1584.99,0.013800367115657056
208,1595.9799999999998,0.01415122057807392
209,1603.3500000000001,0.01380059055241535
210,1614.46,0.013800936782392727
211,1625.6499999999999,0.012917904857410446
212,1633.1499999999999,0.013832947829942427
213,1644.48,0.014249389133780743
214,1655.8700000000001,0.012830721821399315
215,1659.58691,0.013551883225804601
216,1663.52,0.014315559974415564
217,1671.1999999999998,0.012344883476896037
218,1678.91,0.016570572032120576
219,1686.66,0.017306877324337198
220,1694.44,0.015617967669297886
221,1706.1899999999998,0.01530244666072309
222,1714.07,0.015800593848163992
223,1725.95,0.016020394734813474
224,1733.9099999999999,0.01791836539623855
225,1745.93,0.017198829862360328
226,1753.99,0.019547117366265618
227,1766.1499999999999,0.016547465411859703
228,1774.3,0.018297518073997182
229,1786.6000000000001,0.018425429699063568
230,1794.8500000000001,0.021971559203681264
231,1803.13,0.020423273761043026
232,1815.63,0.019872959071069837
233,1824.01,0.01969358047091181
234,1836.6499999999999,0.018433809360410922
235,1845.13,0.016298527602733114
236,1853.65,0.018144202582047388
237,1866.5,0.02038721684075495
238,1875.1100000000001,0.02052897697830142
239,1883.77,0.019975385537087994
240,1896.83,0.021103015165004006
241,1905.46072,0.02096231343615238
242,1905.5800000000002,0.020960322896452156
243,1914.3799999999999,0.021199272403746156
244,1923.2099999999998,0.019703595397996845
245,1936.54,0.015934661435750154
246,1945.48,0.022904950548842014
247,1954.46,0.022590910977876123
248,1968.01,0.025850809253311777
249,1977.09,0.0250343179722015
250,1986.22,0.02561336583601903
251,1995.3899999999999,0.025318335015778803
252,2004.6,0.024184715511480825
253,2013.8500000000001,0.023689537323125093
254,2023.1499999999999,0.022575908279697163
255,2037.17,0.025137894517454205
256,2046.5700000000002,0.02742049376388189
257,2056.02,0.025891322155237383
258,2065.51,0.02490056186253512
259,2075.04,0.028898682885775108
260,2079.83,0.036344532969859004
261,2084.62,0.0392026430539429
262,2094.24,0.036425054538052934
263,2103.91,0.03392142516709078
264,2113.62,0.03583943711207087
265,2123.38,0.034705638201978764
266,2133.1800000000003,0.030310420607828906
267,2143.0299999999997,0.03633076215860685
268,2152.92,0.037086125025327044
269,2162.85,0.03329152920798949
270,2172.84,0.033751470364565286
271,2182.87,0.03768006283708334
272,2187.7616199999998,0.03849614913776932
273,2192.94,0.03936209720249694
274,2203.07,0.03742452063820415
275,2213.23,0.031077529266712072
276,2223.45,0.03224180828082142
277,2233.71,0.040560274218665045
278,2244.02,0.037862758811176525
279,2254.38,0.03129900205835586
280,2264.79,0.031014563960203054
281,2275.2400000000002,0.03438994278578452
282,2285.74,0.04047649026603385
283,2296.29,0.03527513640095103
284,2306.89,0.03958447119053606
285,2317.54,0.035233614634788954
286,2322.88,0.024876048953315754
287,2333.6,0.02599773451410364
288,2344.38,0.01994721046049295
289,2355.2000000000003,0.032283523330616536
290,2366.07,0.021195524855407984
291,2376.99,0.026300485034867285
292,2382.47,0.017549383586464077
293,2393.4700000000003,0.021423467613391943
294,2404.5099999999998,0.02104851856405409
295,2415.61,0.023939669900317664
296,2426.76,0.0356025798912491
297,2432.36,0.03528900921404873
298,2443.58,0.04051796132151516
299,2454.86,0.041961393814583005
300,2466.19,0.038482564962318715
301,2477.58,0.034810796495655834
302,2483.29,0.028989534858724755
303,2494.75,0.030023178508596877
304,2506.27,0.04285396254407043
305,2511.88643,0.024514575017344872
306,2512.04,0.02401308442288064
307,2517.84,0.020656225871099426
308,2523.64,0.021430927319318213
309,2535.29,0.02751333686617146
310,2546.9900000000002,0.029015893063440393
311,2552.86,0.04384580982224113
312,2564.65,0.03520165999025828
313,2576.48,0.04289834747860798
314,2582.42,0.039600669547990665
315,2594.34,0.03639809100708859
316,2606.3199999999997,0.03247576844668532
317,2612.33,0.029571215826649958
318,2624.38,0.03940506857682864
319,2636.5,0.057443116637589275
320,2642.58,0.07657269932813586
321,2654.77,0.09820368269947846
322,2667.03,0.065271911381403
323,2673.17,0.0747702500524484
324,2685.5099999999998,0.08220490337503802
325,2697.91,0.06506737267812646
326,2704.13,0.07785992598983695
327,2716.6099999999997,0.06023224993359047
328,2722.87,0.05334472056563351
329,2735.44,0.06340894848013526
330,2748.07,0.03725007237513582
331,2754.4,0.04708653831776081
332,2767.1200000000003,0.05819421618350959
333,2773.5,0.06396123877655026
334,2786.2999999999997,0.04252898128296413
335,2792.7200000000003,0.019749261196337336
336,2805.61,0.02400040767349943
337,2812.08,0.05885584423728832
338,2825.06,0.08236629468519864
339,2838.1,0.07980683111360777
340,2844.64,0.0665775329879786
341,2857.77,0.04774897338713596
342,2864.36,0.08443641191192248
343,2877.58,0.10225069628182806
344,2884.0315,0.09501083450804006
345,2884.21,0.09481053384023964
346,2897.5299999999997,0.10716464557852019
347,2910.9,0.14164272724825072
348,2931.08,0.12550419958147155
349,2951.4,0.11860687172275239
350,2971.85,0.12691044368580323
351,2992.45,0.12909691544320406
352,3013.2,0.13222908699495492
353,3027.11,0.1382276679243455
354,3048.09,0.14289253916076633
355,3069.22,0.1546711101915372
356,3090.4900000000002,0.15554088103036806
357,3111.91,0.17228415166354896
358,3133.48,0.16281922209107985
359,3147.95,0.16481530225271043
360,3169.77,0.1767737723374913
361,3191.7400000000002,0.1541401422166222
362,3206.4700000000003,0.1710712220217928
363,3228.7,0.14577779154446371
364,3251.08,0.19455386086148463
365,3273.61,0.22359452997285556
366,3288.72,0.21967160925704615
367,3311.31121,0.21202435461524385
368,3311.52,0.21195367281248018
369,3319.15,0.20249487284362516
370,3326.81,0.20070817208852296
371,3334.47,0.22787067133342076
372,3342.1600000000003,0.20838556979207146
373,3349.87,0.22438906772655737
374,3357.5899999999997,0.2302235653989609
375,3365.3300000000004,0.1751403625471997
376,3373.09,0.1642722591712737
377,3380.86,0.22626795553326534
378,3388.65,0.22427645137109226
379,3396.47,0.193633746422672
380,3404.3,0.24437524121216936
381,3412.1400000000003,0.21002673573958436
382,3420.01,0.2235704294807522
383,3427.8900000000003,0.2180625229598377
384,3435.8,0.22789091565267605
385,3443.7200000000003,0.173368708083432
386,3451.66,0.22389699999002322
387,3459.61,0.22449629163453202
388,3467.5899999999997,0.21896568249279375
389,3475.58,0.22414487308897305
390,3483.5899999999997,0.2231991631609876
391,3491.62,0.22379715270883738
392,3499.6699999999996,0.1918928417325224
393,3507.74,0.2472549302320427
394,3515.83,0.2076628182073982
395,3523.9300000000003,0.23307290592067134
396,3532.0499999999997,0.22733149310977976
397,3540.2,0.253971779512641
398,3548.3599999999997,0.2660502656534199
399,3556.5400000000004,0.23775765127003398
400,3564.7400000000002,0.25077953636248335
401,3572.95,0.1899012211928503
402,3581.19,0.20401890523697017
403,3589.4500000000003,0.15521088875692524
404,3597.72,0.23494407201479794
405,3606.01,0.24105955474850588
406,3614.33,0.2184306366959667
407,3622.66,0.19165311838134513
408,3630.4599999999996,0.2711234139570896
409,3633.2,0.24470374214651786
410,3635.95,0.23744617007386368
411,3638.69,0.22988499826329184
412,3641.44,0.25556582619063767
413,3644.1800000000003,0.2734576543800659
414,3646.92,0.21470228256949409
415,3649.67,0.2669296104968399
416,3652.41,0.2573054386862681
417,3655.16,0.2645228666136139
418,3657.9,0.2869173948030421
419,3660.64,0.3307531229924703
420,3663.3900000000003,0.28415335091981614
421,3666.13,0.3014020791092443
422,3668.8700000000003,0.25561390729867256
423,3671.62,0.24346303522601834
424,3674.3599999999997,0.27131306341544653
425,3677.11,0.2817228913427924
426,3679.85,0.2729088195322205
427,3682.59,0.2476087477216488
428,3685.3399999999997,0.2729320756489946
429,3688.0800000000004,0.27431430383842276
430,3690.83,0.29299093176576857
431,3693.5699999999997,0.2723603599551968
432,3696.31,0.313885188144625
433,3699.06,0.32498571607197085
434,3701.8,0.303640544261399
435,3704.54,0.26428477245082727
436,3707.29,0.27969750037817304
437,3710.03,0.26433182856760123
438,3712.7799999999997,0.27476565649494705
439,3715.52,0.29399158468437525
440,3718.2599999999998,0.32246121287380347
441,3721.01,0.2897028408011493
442,3723.75,0.2863680689905775
443,3726.5,0.28243629691792327
444,3729.24,0.28134092510735154
445,3731.9799999999996,0.27833965329677973
446,3734.73,0.23117068122412554
447,3737.47,0.22962500941355374
448,3740.21,0.2610199376029819
449,3742.96,0.26113816553032776
450,3745.7000000000003,0.25356279371975593
451,3748.45,0.24143572164710175
452,3751.1899999999996,0.24265114983652997
453,3753.93,0.2676423780259582
454,3756.68,0.26957120595330397
455,3759.42,0.29756423414273214
456,3762.17,0.289177362070078
457,3764.9100000000003,0.2927989902595062
458,3767.65,0.2974213184489344
459,3770.3999999999996,0.2698565463762802
460,3773.14,0.3084748745657084
461,3775.8799999999997,0.32617630275513665
462,3778.63,0.33463243068248244
463,3781.37,0.32667605887191065
464,3784.1200000000003,0.30247028679925647
465,3786.86,0.34030241498868463
466,3789.6000000000004,0.30804614317811285
467,3792.35,0.3142152711054587
468,3795.0899999999997,0.2655445992948869
469,3797.84,0.2726906272222327
470,3800.58,0.30921245541166087
471,3801.8939600000003,0.29910202627727217
472,3803.32,0.2881291913884061
473,3806.0699999999997,0.3102125343329477
474,3808.8100000000004,0.30575807748496364
475,3811.55,0.2947045206369796
476,3814.2999999999997,0.2735959635815212
477,3817.04,0.29003470673353715
478,3819.79,0.2866269496780787
479,3822.53,0.2628278928300947
480,3825.27,0.24684283598211068
481,3828.02,0.20366677892665225
482,3830.76,0.21574802207866822
483,3833.5099999999998,0.22894066502320978
484,3836.25,0.19691280817522577
485,3838.99,0.21464735132724175
486,3841.7400000000002,0.2477468942717833
487,3844.48,0.2493672374237993
488,3847.2200000000003,0.28403088057581527
489,3849.97,0.3075198235203568
490,3852.7099999999996,0.27750276667237284
491,3855.46,0.2971085096169143
492,3858.2,0.30051585276893034
493,3860.94,0.2806713959209463
494,3863.69,0.2650423388654879
495,3866.4300000000003,0.30304118201750385
496,3869.18,0.3008245249620454
497,3871.9199999999996,0.3066856681140614
498,3874.66,0.27361931126607736
499,3877.41,0.2750238542106189
500,3880.15,0.26940209736263493
501,3882.89,0.2784554405146509
502,3885.6400000000003,0.25541728345919246
503,3888.38,0.2916056266112084
504,3891.1299999999997,0.28481496955575
505,3893.87,0.29565501270776595
506,3896.6099999999997,0.3357981558597819
507,3899.36,0.3244570988043235
508,3902.1,0.32309974195633945
509,3904.8500000000004,0.34215738490088105
510,3907.59,0.334415328052897
511,3910.3300000000004,0.3556903712049129
512,3913.08,0.3337240141494545
513,3915.8199999999997,0.3518542573014705
514,3918.56,0.3457798004534865
515,3921.31,0.32803024339802805
516,3924.05,0.293034186550044
517,3926.7999999999997,0.2578222294945856
518,3929.5400000000004,0.23840667264660156
519,3932.28,0.20903981579861752
520,3935.0299999999997,0.18919895874315912
521,3937.77,0.19382820189517508
522,3940.52,0.21496844483971667
523,3943.26,0.26670848799173263
524,3946.0,0.2926527311437486
525,3948.7499999999995,0.3161653740882902
526,3951.49,0.34034681724030613
527,3954.23,0.3422532603923221
528,3956.98,0.33315160333686367
529,3959.72,0.32378964648887965
530,3962.4700000000003,0.28860138943342123
531,3965.21,0.23714803258543718
532,3967.9500000000003,0.21265547573745314
533,3970.7,0.20063821868199475
534,3973.4399999999996,0.2199451618340107
535,3976.19,0.2593459047785523
536,3978.93,0.30573054793056825
537,3981.67,0.36212119108258417
538,3984.42,0.39997543402712576
539,3987.1600000000003,0.40545547717914177
540,3989.9,0.4146044203311577
541,3992.6499999999996,0.43370956327569926
542,3995.39,0.43978520642771524
543,3998.14,0.4533870493722568
544,4000.88,0.4585574925242728
545,4003.62,0.44740893567628875
546,4006.3700000000003,0.45431627862083035
547,4009.11,0.4569853217728463
548,4011.8599999999997,0.46860966471738785
549,4014.6,0.47266050786940383
550,4017.3399999999997,0.48519245102141983
551,4020.09,0.4755424939659614
552,4022.83,0.4763056371179774
553,4025.57,0.48700328026999334
554,4028.32,0.4750900232145349
555,4031.0600000000004,0.4617497663665509
556,4033.81,0.4543392093110924
557,4036.5499999999997,0.46251145246310843
558,4039.29,0.4792362956151244
559,4042.04,0.474351038559666
560,4044.78,0.44714548171168195
561,4047.5299999999997,0.4527425246562235
562,4050.2700000000004,0.46117686780823947
563,4053.01,0.4554124109602554
564,4055.7599999999998,0.463034453904797
565,4058.5,0.466775597056813
566,4061.24,0.45503144020882896
567,4063.9900000000002,0.45310028315337053
568,4066.73,0.4507902263053865
