,lambda (Angstroms),Total Flux (erg/s/cm^2/Angstrom)
0,100.09,0.6162801810748638
1,101.94999999999999,0.6145661114476197
2,104.08000000000001,0.6126029390597757
3,104.712855,0.6120197020339815
4,106.02000000000001,0.6056908715756733
5,107.99,0.596152773610186
6,110.0,0.5864220922790697
7,114.12,0.5664744256072638
8,118.13000000000001,0.5470591766976881
9,120.22644299999999,0.5369174109727461
10,120.89000000000001,0.5342265989481545
11,125.13,0.5170169501891538
12,126.87,0.5099545727650826
13,128.05,0.5051651356042759
14,131.03,0.49306938541511985
15,131.94,0.4893779603935654
16,134.07999999999998,0.48069169690430563
17,136.89,0.4692887761506047
18,138.038426,0.4646274606888157
19,140.07999999999998,0.4587047279588985
20,143.01,0.45022813785159826
21,147.02,0.4386313493660441
22,151.14000000000001,0.4266817992875195
23,155.02,0.4154301344063848
24,158.489319,0.40536965521058443
25,158.99,0.404272210110274
26,161.95000000000002,0.3977841369482592
27,166.1,0.3886881935329345
28,169.97000000000003,0.3802050973478002
29,173.13,0.3732788298356494
30,177.16,0.3644453440904063
31,180.04,0.35813277780844605
32,181.970086,0.3539024360653742
33,182.13,0.3536351108264948
34,185.94,0.34726588651727974
35,191.15,0.33855517882436353
36,193.81,0.3341099857053315
37,197.87,0.32732205260259833
38,202.01,0.3204009457579394
39,204.82,0.31570413112279655
40,208.929613,0.30882788529597366
41,210.07999999999998,0.30738086266440734
42,215.96,0.3000004843566494
43,219.98,0.2949501754217537
44,223.04000000000002,0.2911037594922062
45,227.17999999999998,0.28590343648164196
46,229.81,0.28271031975657335
47,234.09,0.27755099959106255
48,239.88329199999998,0.2703877793378543
49,240.09,0.2701918517500942
50,246.25,0.26418097018157605
51,251.98999999999998,0.258637632613184
52,257.26,0.2534070901996952
53,260.24,0.25060733897498993
54,263.86,0.24712072316913994
55,268.77000000000004,0.242352155870045
56,273.76,0.23750316072330704
57,275.42287,0.23588736426776225
58,278.85,0.23332997107347064
59,284.03999999999996,0.22946054603047528
60,289.99,0.22499527493397758
61,296.06,0.22047852232376902
62,300.87,0.21687314365752472
63,307.88,0.21165558307324767
64,316.227766,0.2054406073929488
65,317.96,0.20447718313737157
66,327.62,0.1990912407880546
67,338.35999999999996,0.19310178649844134
68,347.84000000000003,0.18781215988917374
69,356.76,0.18283923197117088
70,363.078055,0.17932061800817795
71,365.90999999999997,0.17813869223568307
72,375.3,0.174213528716941
73,384.91999999999996,0.17017855837654716
74,394.8,0.16606423973776424
75,404.93,0.16183576249283801
76,414.36,0.15789606820511307
77,416.86938299999997,0.15684667521750212
78,422.06,0.15518661557396482
79,429.91,0.15267775550937943
80,440.94,0.14916032798296203
81,451.21000000000004,0.14588061854050438
82,459.6,0.14320069148994752
83,470.3,0.13978701146051267
84,478.630092,0.13713149368283697
85,480.15000000000003,0.13675852079240214
86,490.2,0.1342862261077676
87,500.47,0.13176993598744957
88,506.26,0.13035524140286908
89,512.13,0.12898602489622185
90,520.45,0.1269436306012806
91,530.12,0.12456897249646313
92,539.98,0.12213801775173713
93,549.5408739999999,0.11982043121232482
94,550.02,0.11973206594612715
95,560.24,0.11784635761156922
96,569.35,0.11615797579299558
97,579.9300000000001,0.11416680502082116
98,589.35,0.11243188903652221
99,600.3100000000001,0.11037568955797476
100,610.06,0.108564483539194
101,619.98,0.10675839113598318
102,630.0500000000001,0.10488645531709882
103,630.957344,0.10471742739038983
104,640.2900000000001,0.10333956936961648
105,650.69,0.1018226250723826
106,658.23,0.10071216455688804
107,664.32,0.09983241354437317
108,675.11,0.098242887535993
109,684.5,0.0968360783753174
110,695.63,0.09526741551106613
111,705.3,0.09380273498084961
112,716.76,0.09218934949178223
113,724.43596,0.0910651832368277
114,726.73,0.09081661217053394
115,735.15,0.08990810723017795
116,745.3799999999999,0.088825233100268
117,755.75,0.08771200201315496
118,764.5,0.08675975688796315
119,775.13,0.08565129379461586
120,784.1099999999999,0.0846975696254476
121,795.02,0.08353152481769414
122,804.2199999999999,0.08255052705863536
123,815.41,0.08134415773647578
124,824.85,0.08036781237935456
125,831.763771,0.07951765350447924
126,834.4,0.07926653942166668
127,844.0699999999999,0.07863870931655197
128,855.8100000000001,0.07770043574839826
129,865.7199999999999,0.07694596068090222
130,875.74,0.0761783319264814
131,885.88,0.07541170024086992
132,894.08,0.0747855289428409
133,904.43,0.07394776312764575
134,914.9,0.07351891638125992
135,925.4999999999999,0.07988545445941757
136,934.0600000000001,0.08894971536781654
137,944.88,0.1042226810721246
138,954.992586,0.11492367609056034
139,955.82,0.11580069985288649
140,964.66,0.12323562658596934
141,975.83,0.07825094468648237
142,984.86,0.11815279341948441
143,993.98,0.11730118941560606
144,1005.49,0.13287867162123768
145,1014.79,0.12684262214359857
146,1024.18,0.08986497992907909
147,1036.04,0.10871438371350925
148,1045.6200000000001,0.14291983349890897
149,1055.3,0.14065257802110828
150,1065.06,0.12593205233274724
151,1074.92,0.13494319138118577
152,1084.87,0.12092715769274397
153,1094.9,0.13493474379374176
154,1096.4782,0.13429023072505591
155,1105.03,0.1309221962811966
156,1115.26,0.12822484404667683
157,1125.5800000000002,0.12059036818546037
158,1135.99,0.1325701186975473
159,1143.8700000000001,0.1251893178267735
160,1154.45,0.1275029281551001
161,1165.13,0.12853029778709704
162,1175.92,0.1074365696531314
163,1184.07,0.12337424790226766
164,1195.02,0.10356514665417464
165,1206.0800000000002,0.09017927764011904
166,1214.44,0.0731741674269631
167,1225.68,0.09657002115951421
168,1234.17,0.11668825904112975
169,1245.59,0.12202995552028756
170,1254.23,0.11909362735740867
171,1258.92541,0.11530821178861955
172,1265.83,0.10987202556033765
173,1274.61,0.12339835806514007
174,1286.4,0.12520049795484628
175,1295.3200000000002,0.1117946626635977
176,1304.3,0.11015134688832728
177,1316.3600000000001,0.12144391959993514
178,1325.49,0.11786330761461009
179,1334.68,0.1107296251452632
180,1343.93,0.11890989219189443
181,1356.3600000000001,0.11590704358536756
182,1365.76,0.10911674442194419
183,1375.23,0.1107260063604953
184,1384.76,0.1106001678150246
185,1394.3600000000001,0.10140720037152837
186,1404.03,0.10252484403000665
187,1413.76,0.1042747172044631
188,1423.5600000000002,0.10411703148089403
189,1433.43,0.10335349685929948
190,1443.36,0.10532887175368309
191,1445.43977,0.10552045300666989
192,1446.6899999999998,0.10565330508126351
193,1453.37,0.10373983679985124
194,1463.44,0.09913274958520728
195,1473.59,0.09823705670252246
196,1483.8000000000002,0.09818538206880698
197,1494.09,0.09827352176705066
198,1504.44,0.09500849971426367
199,1511.3899999999999,0.08957586355321348
200,1518.36,0.09202264347515307
201,1525.3700000000001,0.09038005556307221
202,1535.95,0.08391646346466773
203,1546.59,0.08623869961523262
204,1553.73,0.08345064124258536
205,1564.5,0.08401016693258384
206,1575.3500000000001,0.08638151695454144
207,1586.27,0.0875049782669633
208,1593.59,0.0881489646412241
209,1604.6299999999999,0.08603588245158464
210,1615.76,0.0854280676353992
211,1623.21,0.0827880835490936
212,1634.47,0.08469238827234177
213,1645.8,0.08456505428605418
214,1653.39,0.08098936278067706
215,1659.58691,0.08265365789771423
216,1664.85,0.08411871654567968
217,1672.5400000000002,0.07923865813038666
218,1676.39,0.08385403442442071
219,1684.13,0.08492297102593334
220,1695.8100000000002,0.08171374295173017
221,1703.6299999999999,0.07966344758013183
222,1715.44,0.07736862254962332
223,1723.36,0.07664043721163624
224,1735.31,0.0785938762281835
225,1743.32,0.07717366992044657
226,1755.4,0.07905544198068849
227,1763.5,0.0752878047032017
228,1775.73,0.07587828181386055
229,1783.9199999999998,0.0760201635666239
230,1796.2900000000002,0.07777057472433853
231,1804.5800000000002,0.07712224651071316
232,1817.0900000000001,0.07373793171548357
233,1825.4799999999998,0.07397592353546947
234,1833.8999999999999,0.07229373836553876
235,1846.61,0.06867559363753173
236,1855.14,0.0685766395045734
237,1863.7,0.06926575838169849
238,1876.62,0.07121081472427512
239,1885.28,0.06788674363501146
240,1893.98,0.06606628655919233
241,1905.46072,0.06739167352568265
242,1907.11,0.06759216493307053
243,1915.91,0.0660987698426947
244,1924.76,0.06492209568930536
245,1933.64,0.06551784809810793
246,1947.04,0.06692219921049017
247,1956.03,0.06421330568066305
248,1965.06,0.06671786090042511
249,1974.13,0.06735625486977637
250,1983.24,0.06515856758871684
251,1996.9899999999998,0.0638024552600046
252,2006.21,0.06429985204031537
253,2015.47,0.06312433757021535
254,2024.77,0.06398853184970452
255,2034.1200000000001,0.06217460706618019
256,2043.51,0.06283713103224506
257,2052.94,0.06044266374789913
258,2067.17,0.060641226414257295
259,2071.93,0.06291644761537218
260,2076.71,0.06146022319128167
261,2086.3,0.06230379090529255
262,2095.93,0.06015855736889264
263,2105.6,0.06026102258208191
264,2115.32,0.06027491873225768
265,2125.08,0.060289923632022666
266,2134.8900000000003,0.05803947946877415
267,2144.75,0.058384316242512134
268,2154.65,0.05908515176583932
269,2164.59,0.05762549603875569
270,2174.58,0.05720449124865859
271,2184.62,0.05661757739554797
272,2187.7616199999998,0.056933841568333185
273,2194.7,0.057669983279728894
274,2204.83,0.05653856396634769
275,2215.01,0.054869546986069245
276,2225.24,0.053884222338893555
277,2235.51,0.055527503558200075
278,2245.83,0.05412144711060936
279,2256.19,0.052685936529500835
280,2266.61,0.05287278474811563
281,2277.0699999999997,0.05337395883321264
282,2287.58,0.05380627525141239
283,2292.85,0.051967383160443095
284,2303.43,0.052087104844986715
285,2314.07,0.05086764532925364
286,2324.75,0.04571093168000278
287,2335.48,0.04874304036385467
288,2346.26,0.04755475138080932
289,2357.09,0.04930605473086673
290,2362.52,0.04713299610582627
291,2373.43,0.047628301188848095
292,2384.38,0.04556691213835212
293,2395.39,0.04675009188757946
294,2406.44,0.04573396750328901
295,2417.55,0.04594766191872186
296,2423.13,0.04728652029298967
297,2434.31,0.04611110997476639
298,2445.5499999999997,0.047139348456266425
299,2456.83,0.04662485280424865
300,2462.5,0.04623558937810142
301,2473.86,0.04514407545904807
302,2485.28,0.045162530339718024
303,2496.76,0.04335653402011129
304,2502.51,0.04598386232692847
305,2511.88643,0.0436640758630285
306,2514.0600000000004,0.043132611885076125
307,2519.8599999999997,0.04345963852507019
308,2525.67,0.04263031057306423
309,2537.32,0.04279014089305229
310,2543.17,0.04244942457304629
311,2554.9100000000003,0.043906803565034264
312,2566.71,0.04307579500502216
313,2572.62,0.044168461133016104
314,2584.5,0.04370397583700393
315,2596.4300000000003,0.0431819675809917
316,2602.41,0.04221941156498557
317,2614.42,0.04171677657297326
318,2626.4900000000002,0.042541064028960886
319,2632.55,0.043439341276954674
320,2644.7,0.04533873199694222
321,2656.8999999999996,0.04608933975692972
322,2663.03,0.043423724860923434
323,2675.3199999999997,0.04418932129291084
324,2687.6699999999996,0.04430550017289818
325,2693.87,0.04263894313289182
326,2706.2999999999997,0.04325771527687908
327,2712.54,0.04170180986887268
328,2725.0600000000004,0.04118960068485984
329,2737.64,0.04214974394884695
330,2743.95,0.03902565639684049
331,2756.6099999999997,0.039558132924827516
332,2762.9700000000003,0.040387512412820986
333,2775.72,0.04114299761280793
334,2782.1200000000003,0.039436758732801364
335,2794.96,0.0352408526047882
336,2807.8599999999997,0.03623283892477498
337,2814.34,0.04020930330876833
338,2827.33,0.04128265830075502
339,2833.84,0.04037547890874835
340,2846.92,0.03927310257273494
341,2853.4900000000002,0.0379190656287282
342,2866.66,0.04033072796471471
343,2873.27,0.040716972652707926
344,2884.0315,0.04039150707974003
345,2886.5299999999997,0.04032215236490112
346,2893.1800000000003,0.04047820375312529
347,2913.2400000000002,0.04244979075279098
348,2926.68,0.04108553713741247
349,2946.97,0.04036508006479117
350,2967.4,0.04046316660034302
351,2987.97,0.04024717674406801
352,3008.6800000000003,0.040218470495966135
353,3029.54,0.04012660811376406
354,3050.53,0.04003433908200847
355,3071.68,0.04000443417387933
356,3092.97,0.03978459287392333
357,3107.2499999999995,0.03997526090758365
358,3128.79,0.03918714605079397
359,3150.4700000000003,0.03896705480217742
360,3172.31,0.039119527677187335
361,3186.9500000000003,0.03759019498900716
362,3209.05,0.03827447456491004
363,3231.29,0.03680189774898607
364,3253.69,0.03863388505668853
365,3268.71,0.03965523216212116
366,3291.3599999999997,0.03916718591298996
367,3306.56,0.03865215765750235
368,3311.31121,0.03849388049629825
369,3321.8199999999997,0.03816211334576386
370,3329.48,0.039355708919971755
371,3337.1499999999996,0.03856228217769689
372,3344.85,0.03785068848597375
373,3352.56,0.03746040247776786
374,3360.2799999999997,0.038247264153079205
375,3368.03,0.03803760887894228
376,3375.79,0.0350559212883226
377,3383.58,0.03582879674825465
378,3391.38,0.03816316989170393
379,3399.19,0.03891143071867047
380,3407.0299999999997,0.03718887459618873
381,3414.88,0.03772337615722423
382,3422.76,0.03904464076881146
383,3430.65,0.038312193063915936
384,3438.55,0.03848374304253765
385,3446.48,0.03496590607171109
386,3454.43,0.03780419446791902
387,3462.3900000000003,0.035548410547644196
388,3470.37,0.03683201199440385
389,3478.37,0.03464942880819799
390,3486.39,0.036364990989026624
391,3494.43,0.03569063853688974
392,3502.48,0.03736085376827009
393,3510.56,0.03678263205020218
394,3518.6499999999996,0.035740058015651506
395,3526.7599999999998,0.035366699348135314
396,3534.89,0.037023546047653615
397,3543.04,0.038465418114206396
398,3551.21,0.038054085547793666
399,3559.39,0.03739457066489818
400,3567.6000000000004,0.036810678832554414
401,3575.82,0.0344261446837279
402,3584.0699999999997,0.03346201358545311
403,3592.3300000000004,0.03360132017069556
404,3600.61,0.037346202122972495
405,3606.07,0.03580804732338699
406,3608.8199999999997,0.034340010290628734
407,3611.57,0.03692156325787047
408,3614.31,0.034382228541594964
409,3617.0600000000004,0.0358660315088367
410,3619.8,0.03486420679256119
411,3622.5499999999997,0.039531919759802935
412,3625.3,0.03968304272704467
413,3628.04,0.038284918010769164
414,3630.79,0.035061620978010896
415,3633.5299999999997,0.03556102626173539
416,3636.28,0.03229618922897713
417,3639.0299999999997,0.03896792219621887
418,3641.7699999999995,0.034474217479943364
419,3644.52,0.034604820447185096
420,3647.2700000000004,0.03532129341442683
421,3650.01,0.037619888698151326
422,3652.7599999999998,0.037746181665393064
423,3655.5,0.03604102694911756
424,3658.25,0.0349143899163593
425,3661.0,0.03572827288360103
426,3663.74,0.03653231816732552
427,3666.4900000000002,0.033629901134567264
428,3669.23,0.03721962641829176
429,3671.98,0.03782197938553349
430,3674.73,0.035061862352775225
431,3677.47,0.034420057636499725
432,3680.2200000000003,0.03427181060374146
433,3682.96,0.03568321588746595
434,3685.71,0.03718516885470769
435,3688.46,0.03310240182194943
436,3691.2,0.03666633710567392
437,3693.95,0.03628745007291566
438,3696.69,0.03783494535664015
439,3699.44,0.036411788323881894
440,3702.19,0.03514812129112362
441,3704.9300000000003,0.03384785657484812
442,3707.68,0.035556569542089855
443,3710.4199999999996,0.03858285482581435
444,3713.17,0.040374637793056084
445,3715.9199999999996,0.03936355076029782
446,3718.66,0.04592137604402231
447,3721.41,0.06957356901126405
448,3724.15,0.10755139429498854
449,3726.9,0.14040045726223027
450,3729.65,0.12280262022947203
451,3732.39,0.08293996551319652
452,3735.1400000000003,0.05204269848043825
453,3737.88,0.03809183376416274
454,3740.6299999999997,0.03860346673140448
455,3743.38,0.037134469698646214
456,3746.12,0.03496852498237071
457,3748.8700000000003,0.03488377794961245
458,3751.62,0.035715330916854186
459,3754.36,0.03859884620057868
460,3757.11,0.03925467916782041
461,3759.8500000000004,0.03932864445154491
462,3762.6,0.03920855741878665
463,3765.35,0.039168210386028385
464,3768.09,0.03743583566975287
465,3770.8399999999997,0.03961103863699462
466,3773.5800000000004,0.0413786739207191
467,3776.33,0.042685316887960845
468,3779.0800000000004,0.04412326985520258
469,3781.82,0.04425360513892707
470,3784.5699999999997,0.04374959810616881
471,3787.31,0.043043363389893306
472,3790.06,0.04003970635713504
473,3792.81,0.03837111932437678
474,3795.5499999999997,0.03802871460810127
475,3798.3,0.03802131757534301
476,3801.04,0.037534232859067505
477,3801.8939600000003,0.038239210366233414
478,3803.7900000000004,0.039806792843893817
479,3806.54,0.04349662089729281
480,3809.2799999999997,0.04636250899413399
481,3812.03,0.04432770704753297
482,3814.77,0.04391562514437415
483,3817.52,0.04266200319777314
484,3820.27,0.042888121251172126
485,3823.01,0.041872489348013305
486,3825.76,0.0406761574014123
487,3828.5000000000005,0.038654925498253466
488,3831.25,0.036177023551652455
489,3834.0,0.036643811605051445
490,3836.7400000000002,0.036714449701892624
491,3839.49,0.03709098775529161
492,3842.23,0.038257955852132784
493,3844.98,0.04088489390553178
494,3847.7299999999996,0.04460862195893077
495,3850.47,0.04441620005577194
496,3853.22,0.04490730810917093
497,3855.9700000000003,0.046417396162569916
498,3858.71,0.045082814259411096
499,3861.46,0.047260902312810084
500,3864.2,0.04998021040965126
501,3866.9500000000003,0.048955298463050245
502,3869.7,0.04720936651644924
503,3872.4399999999996,0.04728195461329041
504,3875.19,0.0447090126666894
505,3877.93,0.04251447076353058
506,3880.6800000000003,0.04214562881692957
507,3883.43,0.040488526870328556
508,3886.17,0.04209669496716973
509,3888.92,0.04108517302056872
510,3891.6600000000003,0.03957819111740989
511,3894.41,0.04209482917080888
512,3897.16,0.042562557224207875
513,3899.9,0.04319618532104905
514,3902.6499999999996,0.04422782337444804
515,3905.3900000000003,0.045627821471289215
516,3908.14,0.0462473895246882
517,3910.8900000000003,0.04658522757808719
518,3913.63,0.04613972567492837
519,3916.3799999999997,0.046146673728327356
520,3919.12,0.044549941825168526
521,3921.87,0.04406984987856752
522,3924.62,0.04219452793196651
523,3927.3599999999997,0.03872315602880769
524,3930.11,0.03752971408220668
525,3932.85,0.03704598217904785
526,3935.6000000000004,0.03919019023244684
527,3938.35,0.040838278285845825
528,3941.0899999999997,0.043295426382687005
529,3943.84,0.043223114436085994
530,3946.58,0.044541462532927165
531,3949.33,0.04428770058632616
532,3952.08,0.04534606863972515
533,3954.82,0.043734066736566324
534,3957.57,0.041145374789965314
535,3960.32,0.0377253928433643
536,3963.06,0.035081980940205475
537,3965.81,0.034567998993604465
538,3968.55,0.03562560709044564
539,3971.2999999999997,0.03581640514384463
540,3974.05,0.037557613197243614
541,3976.79,0.03983044129408479
542,3979.54,0.042731459347483784
543,3982.28,0.04568616744432496
544,3985.0299999999997,0.04563342549772395
545,3987.78,0.04672569355112294
546,3990.52,0.04779193164796411
547,3993.27,0.0469136097013631
548,3996.0099999999998,0.04777643779820428
549,3998.76,0.04852587585160327
550,4001.5099999999998,0.048475993905002256
551,4004.2499999999995,0.047628932001843434
552,4007.0,0.04874556005524242
553,4009.74,0.05054044815208359
554,4012.4900000000002,0.05060611620548258
555,4015.24,0.04991544425888158
556,4017.98,0.050472212355722745
557,4020.73,0.04941339040912174
558,4023.4700000000003,0.048359568505962916
559,4026.22,0.04955736655936191
560,4028.9700000000003,0.04785203461276089
561,4031.71,0.04806022270960207
562,4034.4600000000005,0.049628070763001055
563,4037.2000000000003,0.049747458859842233
564,4039.95,0.04774654691324122
565,4042.7000000000003,0.04875144496664022
566,4045.44,0.04850076306348138
567,4048.19,0.04859318111688037
568,4050.93,0.04809324921372155
569,4053.68,0.04671689726712054
570,4056.43,0.048211695320519526
571,4059.1699999999996,0.046198603417360706
572,4061.92,0.0480185714707597
573,4064.67,0.048142979524158684
574,4067.4100000000003,0.04963513762099986
575,4070.16,0.04771683567439885
