,lambda (Angstroms),Total Flux (erg/s/cm^2/Angstrom)
0,100.00999999999999,29.41347405969588
1,102.10000000000001,29.321538474511193
2,104.0,29.23796066979788
3,104.712855,29.206603377177423
4,105.93,28.925364737334576
5,107.89999999999999,28.470168256643877
6,109.91000000000001,28.00572920781777
7,114.03,27.05374468982598
8,118.04,26.12717723420878
9,120.22644299999999,25.62196852415367
10,121.07,25.458552066688675
11,125.03999999999999,24.68947145193342
12,127.07,24.296213606103738
13,127.95,24.125737298553975
14,130.93,23.548442529805538
15,132.14,23.314037606932256
16,133.98,22.957587145700018
17,137.1,22.353171146237553
18,138.038426,22.171376374217065
19,139.97,21.903911152321424
20,142.9,21.498193794511394
21,146.9,20.944313442859606
22,151.02,20.373816680424202
23,154.89,19.837937440213924
24,158.489319,19.339539422079618
25,158.86999999999998,19.29968747929509
26,161.82,18.990863999428367
27,165.97,18.556417409394466
28,169.84,18.15128287892088
29,173.0,17.820475355585142
30,177.03,17.398591078005204
31,179.89999999999998,17.098142473957164
32,181.970086,16.881433606835635
33,181.98,16.88064182159834
34,185.79999999999998,16.575556124994694
35,191.0,16.160256224787144
36,194.1,15.912673593144245
37,198.17000000000002,15.587621558576217
38,201.85000000000002,15.293717018797741
39,205.13,15.031758624595797
40,208.929613,14.72830115018757
41,209.91,14.66943486753491
42,215.79000000000002,14.316376604629351
43,219.79999999999998,14.07560047825322
44,222.86,13.891866077887736
45,227.00000000000003,13.643284247681267
46,230.16,13.453545556452426
47,233.9,13.22898149397549
48,239.88329199999998,12.869721400009682
49,239.9,12.868948315196734
50,246.06,12.583922871304159
51,251.79,12.318793801183093
52,257.06,12.074948837906302
53,260.04,11.937063375745499
54,264.26,11.741802574089512
55,269.18,11.51415249411332
56,274.18,11.282800795264023
57,275.42287,11.225292778356973
58,279.28000000000003,11.088324502069021
59,283.81,10.92746239845727
60,289.76,10.716175400601454
61,295.83000000000004,10.500627317890604
62,301.32,10.30567511234959
63,308.34,10.056392227783645
64,316.227766,9.776294749184846
65,317.71,9.736981838003157
66,328.12,9.46087997437893
67,338.09,9.196448179410792
68,348.37,8.923794349819048
69,357.29999999999995,8.686946405695762
70,363.078055,8.533696775992041
71,365.61999999999995,8.483206985400985
72,375.0,8.296894986205203
73,384.62,8.105815723901657
74,395.4,7.891696462074252
75,404.60999999999996,7.708761577667303
76,414.03000000000003,7.52165525643456
77,416.86938299999997,7.4652575316888115
78,421.73,7.391530029401062
79,429.57,7.27261026464175
80,440.59000000000003,7.105455540935393
81,450.85,6.949828480753617
82,460.29,6.806639325267302
83,469.93,6.660416843151362
84,478.630092,6.528451383300967
85,479.77,6.51515348816516
86,489.82,6.397911923284636
87,500.08,6.278221541684938
88,505.87,6.210679580757682
89,511.72,6.142457922500661
90,520.04,6.04540071779001
91,529.7099999999999,5.932595403654661
92,539.5500000000001,5.817803140333313
93,549.5408739999999,5.701269468527695
94,549.59,5.700832373683872
95,559.8000000000001,5.609987369896941
96,570.21,5.517359895106619
97,579.48,5.434863706141609
98,590.25,5.339043259251191
99,599.84,5.2537061376527605
100,609.59,5.166964658087618
101,619.49,5.0788956483599375
102,629.56,4.9893015541613766
103,630.957344,4.976867896283337
104,639.79,4.91456590510627
105,650.1800000000001,4.841303325538321
106,657.7099999999999,4.788202555681476
107,665.3299999999999,4.73447168616379
108,674.58,4.669233764833134
109,685.5400000000001,4.591917801246542
110,695.08,4.5247175473976275
111,704.75,4.456486208216392
112,716.2,4.37581910755412
113,724.43596,4.317747367486519
114,726.16,4.308725634235835
115,734.5699999999999,4.264722896275448
116,744.7900000000001,4.211295775276501
117,755.15,4.157107514039211
118,765.66,4.1021334414037
119,774.52,4.055834055348643
120,785.3000000000001,3.9994808641963275
121,794.39,3.951949028563996
122,805.44,3.8941570703948796
123,814.77,3.8453690131253895
124,824.1999999999999,3.796135002257086
125,831.763771,3.7564032561950214
126,835.6700000000001,3.7410499008501255
127,845.35,3.7034867082493896
128,855.1400000000001,3.6652536895736456
129,865.04,3.626656546822894
130,875.05,3.5876386569971332
131,885.19,3.5481467438099985
132,895.4399999999999,3.5081791175478565
133,905.81,3.4676568055675228
134,914.19,3.4362065725805215
135,924.77,3.416691932093354
136,935.48,3.406511140244813
137,944.14,3.4284118152487
138,954.992586,3.433298654299632
139,955.0699999999999,3.4333400588720995
140,963.9100000000001,3.4315538309313367
141,975.0699999999999,3.232250611811552
142,984.0899999999999,3.3501415479172447
143,995.49,3.3120572041927323
144,1004.7,3.3494341462363497
145,1013.99,3.2988582034117253
146,1025.74,3.1067666258886537
147,1035.23,3.1551012208934237
148,1044.8,3.2801970310299517
149,1054.47,3.2446500600811765
150,1064.23,3.1484577061556296
151,1074.08,3.1644038692533094
152,1084.01,3.0677367474827473
153,1094.04,3.109906444626882
154,1096.4782,3.0984966111870644
155,1104.17,3.0678412040436456
156,1114.3799999999999,3.031489380701418
157,1124.7,2.971303434384885
158,1135.1,3.0132504349961327
159,1145.61,2.9496574126330755
160,1156.21,2.940973680563769
161,1164.22,2.933638516707623
162,1174.99,2.7908163218598476
163,1185.86,2.8575744606717954
164,1194.08,2.7196423075010694
165,1205.1299999999999,2.612088626900519
166,1216.28,2.4842753799596915
167,1224.72,2.6084702808403573
168,1236.05,2.7132800144870335
169,1244.6200000000001,2.735411679125339
170,1256.13,2.689235993359517
171,1258.92541,2.662620375387989
172,1264.8400000000001,2.611631377357807
173,1273.6100000000001,2.699862950486456
174,1285.3899999999999,2.698256083263593
175,1294.3,2.5911361056782183
176,1306.28,2.5607293660067496
177,1315.3300000000002,2.6352981377073506
178,1324.45,2.5999967340509405
179,1333.63,2.533094208659948
180,1345.97,2.58076073858099
181,1355.3000000000002,2.5495548088535434
182,1364.69,2.483946657391516
183,1374.15,2.486048830572476
184,1383.6799999999998,2.475397628396425
185,1396.48,2.3892239916856735
186,1406.1599999999999,2.388547785173168
187,1415.9099999999999,2.3791759033036506
188,1425.72,2.368757099699551
189,1435.61,2.347501767116009
190,1442.2299999999998,2.359954069067168
191,1445.43977,2.360820556340005
192,1445.56,2.360934174420613
193,1455.58,2.334747275850194
194,1465.67,2.285707855633075
195,1475.83,2.2694616137692574
196,1486.06,2.2626055502587397
197,1496.36,2.2557902651015223
198,1506.73,2.2188047582976056
199,1513.68,2.16211750908958
200,1517.1699999999998,2.1859033298469894
201,1524.18,2.16382066208465
202,1534.74,2.0964974965254064
203,1545.38,2.1188705062270765
204,1556.09,2.0784848942820484
205,1563.27,2.075630173949153
206,1574.11,2.088503221803111
207,1585.02,2.0914495480103694
208,1596.01,2.0878646494785427
209,1603.38,2.0645699703903198
210,1614.49,2.0501530347498655
211,1625.6799999999998,2.009191474370326
212,1633.1799999999998,2.02624995508109
213,1644.5000000000002,2.0162999545005365
214,1655.8999999999999,1.9630231291808982
215,1659.58691,1.9786962724261419
216,1663.55,1.9973961802481695
217,1671.23,1.938864251359492
218,1675.08,1.9877598087525383
219,1686.69,1.994363611955984
220,1694.4699999999998,1.9572272014411525
221,1706.22,1.927003910367981
222,1714.1000000000001,1.8999268182269948
223,1725.98,1.8850915610398227
224,1733.9399999999998,1.9051385435979136
225,1745.96,1.8806337921341245
226,1754.02,1.9028051930660599
227,1766.18,1.8483805473256547
228,1774.3300000000002,1.8555017947940509
229,1786.6299999999999,1.8494865547770298
230,1794.88,1.869688820619271
231,1803.16,1.8579156019736662
232,1815.66,1.8117099987043355
233,1824.0400000000002,1.8106423984325761
234,1836.69,1.7793949727240133
235,1845.16,1.7342259189887148
236,1853.68,1.728990124440339
237,1866.5300000000002,1.7271993354794666
238,1875.1499999999999,1.7496508593049365
239,1883.8,1.7066749986425591
240,1896.86,1.6751171182667626
241,1905.46072,1.6890964590938637
242,1905.6200000000001,1.6894018547176626
243,1914.41,1.6687675220601808
244,1923.25,1.653794547692474
245,1936.58,1.6518531277465998
246,1945.52,1.667876169958444
247,1954.5000000000002,1.633558978802108
248,1968.0500000000002,1.6587414753312457
249,1977.13,1.6628743007544609
250,1986.26,1.6306954844674515
251,1995.42,1.6117315431543076
252,2004.63,1.614035760130939
253,2013.89,1.5950028353973456
254,2023.18,1.6040042856376178
255,2037.21,1.5724991817485994
256,2046.6100000000001,1.5801117402263771
257,2056.06,1.5532246569939305
258,2065.5499999999997,1.5495260403933044
259,2075.08,1.5695928904244982
260,2079.86,1.5467359029270278
261,2084.6600000000003,1.5567831987454674
262,2094.28,1.5250451736982573
263,2103.95,1.5211721069408228
264,2113.66,1.5161825068152082
265,2123.42,1.515633164979369
266,2133.2200000000003,1.4767551897753501
267,2143.06,1.4789819812031522
268,2152.96,1.4846820225786839
269,2162.89,1.4630453389280815
270,2172.88,1.4501700052252091
271,2182.9100000000003,1.4373138381541573
272,2187.7616199999998,1.4424626256899082
273,2192.98,1.4493523596647362
274,2203.11,1.4313224927374026
275,2213.27,1.4063836717125544
276,2223.49,1.388132442492678
277,2233.75,1.409628541142782
278,2244.06,1.3847754496303624
279,2254.42,1.3645912679554186
280,2264.83,1.3653914961179514
281,2275.28,1.3699181521504649
282,2285.78,1.3765039180204546
283,2296.33,1.3502661937279203
284,2306.9300000000003,1.3484343792728621
285,2317.58,1.3296818746552805
286,2322.93,1.2533255272652277
287,2333.65,1.3003558964201123
288,2344.42,1.2816452754124732
289,2355.2400000000002,1.3065678642423102
290,2366.1099999999997,1.2724670629096235
291,2377.03,1.2803159714144123
292,2382.5099999999998,1.2514515896017977
293,2393.51,1.2689510538465487
294,2404.56,1.250970327928776
295,2415.66,1.2531299118484795
296,2426.81,1.2698144056056588
297,2432.4,1.2528568254354915
298,2443.63,1.2690056749326328
299,2454.91,1.2579109342672505
300,2466.2400000000002,1.2507453034393436
301,2477.62,1.2329388824489136
302,2483.33,1.241925185888689
303,2494.8,1.2164831026057157
304,2506.31,1.2495078471927237
305,2511.88643,1.2099347572471641
306,2512.09,1.2085182402437655
307,2517.88,1.2142428786820012
308,2523.69,1.1963584433324588
309,2535.33,1.196285498845596
310,2547.04,1.1896747961015097
311,2552.91,1.212704839388633
312,2564.69,1.2010777783873232
313,2576.53,1.218243596022679
314,2582.4700000000003,1.2143089810525791
315,2594.39,1.2064448035368227
316,2606.3599999999997,1.1896374415516209
317,2612.37,1.1827984683242974
318,2624.43,1.1968757742940939
319,2636.54,1.2033389957944454
320,2642.62,1.2361460643098985
321,2654.82,1.240324553765248
322,2667.07,1.2010980587511528
323,2673.2200000000003,1.2165811690093824
324,2685.56,1.2149752419502855
325,2697.9599999999996,1.1903044935278544
326,2704.18,1.2003046455288606
327,2716.6600000000003,1.1758990019553166
328,2722.9199999999996,1.1728707063807668
329,2735.49,1.1894246307622216
330,2748.12,1.1331959337803421
331,2754.45,1.1401419799485688
332,2767.17,1.1515000509216875
333,2773.54,1.1687377495143578
334,2786.3500000000004,1.143320888442475
335,2792.77,1.0621979025657002
336,2805.66,1.0829829463427052
337,2812.13,1.156648075996485
338,2825.11,1.1694180877284883
339,2838.1499999999996,1.1507249780971578
340,2844.69,1.1376864494937138
341,2857.8199999999997,1.1196131078173814
342,2864.41,1.1526778947444927
343,2877.63,1.1497236210231585
344,2884.0315,1.1488543874573935
345,2884.26,1.1488504576648426
346,2897.5800000000004,1.14400220320822
347,2910.95,1.1771593936673006
348,2931.13,1.15760274164518
349,2951.45,1.146626175387029
350,2971.91,1.151195294892847
351,2992.5099999999998,1.148574700162635
352,3013.25,1.1508860911963916
353,3027.16,1.1495639267450688
354,3048.14,1.1469581933742021
355,3069.27,1.1456012947504455
356,3090.54,1.1455282818906585
357,3111.97,1.142913452761122
358,3133.5400000000004,1.1325918093955547
359,3148.0000000000005,1.1325202390169686
360,3169.8199999999997,1.1324377202299187
361,3191.8,1.1054659851731192
362,3206.53,1.1193075373393317
363,3228.7599999999998,1.097393726861049
364,3251.1400000000003,1.1204179511298764
365,3273.67,1.1339374101458142
366,3288.78,1.1285415236713723
367,3311.31121,1.1232136648532611
368,3311.58,1.1231724576052553
369,3319.21,1.1170030367719646
370,3326.8599999999997,1.127277477089832
371,3334.53,1.1420504785588568
372,3342.2200000000003,1.1107600411790395
373,3349.93,1.1364109649503802
374,3357.6499999999996,1.1244600692972997
375,3365.39,1.080660634795377
376,3373.1499999999996,1.0734264614446123
377,3380.92,1.1043967686694263
378,3388.7200000000003,1.1258495176209768
379,3396.5299999999997,1.102921647148107
380,3404.36,1.1216142378263942
381,3412.2000000000003,1.1000838090802607
382,3420.07,1.118778922060864
383,3427.96,1.119474196192625
384,3435.86,1.1259014508999647
385,3443.78,1.0848937667584624
386,3451.72,1.128822843768118
387,3459.67,1.1011547013533525
388,3467.65,1.0990236006653236
389,3475.64,1.105273980552874
390,3483.6499999999996,1.1031399215915818
391,3491.69,1.1080481043570263
392,3499.7400000000002,1.07254276769805
393,3507.7999999999997,1.1043105116146525
394,3515.89,1.0779420972579916
395,3523.9900000000002,1.1016228634769099
396,3532.1200000000003,1.1117399714225646
397,3540.26,1.1206124599437985
398,3548.42,1.13718260961619
399,3556.6,1.1149851204397394
400,3564.8,1.1195330924144467
401,3568.81,1.0631911032215902
402,3571.5099999999998,1.1613417586278962
403,3574.21,1.0378646140342023
404,3576.91,0.9281105694405084
405,3579.6099999999997,1.2650945248468144
406,3582.3100000000004,1.0129911802531204
407,3585.01,0.9113229356594263
408,3587.71,0.9717875910657325
409,3590.41,1.0692704464720386
410,3593.11,1.0789652018783447
411,3595.81,0.9177806572846506
412,3598.5099999999998,0.8847629126909567
413,3601.21,1.0761374680972626
414,3603.9100000000003,1.1020112235035688
415,3606.61,0.9697660789098747
416,3609.31,1.044664634316181
417,3612.0099999999998,1.090752889722487
418,3614.71,1.014512645128793
419,3617.41,1.1782691005350991
420,3620.11,1.204638155941405
421,3622.8100000000004,1.213859211347711
422,3625.51,1.185092566754017
423,3628.21,1.1749823221603233
424,3630.91,1.2316123775666292
425,3633.6099999999997,1.1504313329729352
426,3636.31,1.0814581883792413
427,3639.0099999999998,1.1042010437855474
428,3641.71,1.0144244991918534
429,3644.4100000000003,1.1472954545981593
430,3647.11,1.1326322100044655
431,3649.81,0.9866928654107715
432,3652.5099999999998,0.9796130208170777
433,3655.21,1.0087325762233834
434,3657.91,1.1999492316296898
435,3660.61,1.1542425870359958
436,3663.3100000000004,1.0833376424423016
437,3666.01,1.1065975978486078
438,3668.71,1.1649869532549137
439,3671.41,1.11635760866122
440,3674.1099999999997,1.089745264067526
441,3676.81,1.048462119473832
442,3679.5099999999998,1.0759946748801381
443,3682.21,1.070343730286444
444,3684.9100000000003,1.05560878569275
445,3687.61,1.0173057410990562
446,3690.31,1.0676667965053621
447,3693.0099999999998,1.0743240519116684
448,3695.71,1.0586125073179744
449,3698.41,1.2176941627242803
450,3701.11,1.1575034181305863
451,3703.81,1.2489901735368925
452,3706.51,1.0706715289431983
453,3709.21,0.9803707843495044
454,3711.91,1.1113244397558106
455,3714.6099999999997,1.1220747951621166
456,3717.31,1.1451767505684227
457,3720.01,1.2796850059747287
458,3722.71,1.4071054613810348
459,3725.4100000000003,1.4017490167873405
460,3728.11,1.6281960721936468
461,3730.81,1.520868827599953
462,3733.5099999999998,1.330385583006259
463,3736.21,1.209127438412565
464,3738.91,1.1321258938188712
465,3741.61,1.144614149225177
466,3744.31,1.170006804631483
467,3747.01,1.1062613600377889
468,3749.71,1.080489215444095
469,3752.41,1.0061087708504013
470,3755.1099999999997,1.1020045262567073
471,3757.81,1.2839721816630134
472,3760.51,1.3712509370693193
473,3763.21,1.2767060924756253
474,3765.9100000000003,1.1596847478819314
475,3768.61,1.1137410032882373
476,3771.31,1.1186174586945437
477,3774.0099999999998,1.3357793141008496
478,3776.7099999999996,1.2434606695071557
479,3779.4100000000003,1.4019032249134615
480,3782.11,1.4000653803197676
481,3784.81,1.4571119357260738
482,3787.51,1.3828893911323799
483,3790.21,1.336601146538686
484,3792.91,1.2205132019449918
485,3795.6099999999997,1.303195957351298
486,3798.31,1.0934819127576039
487,3801.01,1.12066986816391
488,3801.8939600000003,1.1576984796146426
489,3803.71,1.2338777878052023
490,3806.41,1.3417805803860545
491,3809.11,1.4051608729669067
492,3811.81,1.3401446655477591
493,3814.5099999999998,1.3730774581286114
494,3817.2099999999996,1.3944489507094637
495,3819.9100000000003,1.4976839432903157
496,3822.61,1.427712835871168
497,3825.31,1.4526747284520203
498,3828.01,1.2530860210328725
499,3830.71,1.1256378136137248
500,3833.41,1.128805406194577
501,3836.1099999999997,1.1142643987754295
502,3838.81,1.1167496913562815
503,3841.51,1.2412405839371337
504,3844.21,1.3553191765179862
505,3846.91,1.4075689690988384
506,3849.61,1.5075727616796906
507,3852.31,1.5267176542605427
508,3855.0099999999998,1.5791835468413953
509,3857.7099999999996,1.4672744394222472
510,3860.4100000000003,1.4706223320030996
511,3863.11,1.508725224583952
512,3865.81,1.6120321171648042
513,3868.51,1.5589360097456564
514,3871.21,1.5031829023265084
515,3873.91,1.526565794907361
516,3876.6099999999997,1.414585087488213
517,3879.3100000000004,1.4094585800690653
518,3882.01,1.3019304726499175
519,3884.71,1.16259056523077
520,3887.41,1.162562557811622
521,3890.11,1.1080089503924744
522,3892.81,1.1439075429733265
523,3895.5099999999998,1.2693320355541788
524,3898.2099999999996,1.3577025281350312
525,3900.9100000000003,1.4180667207158835
526,3903.61,1.4762056132967358
527,3906.31,1.4791935058775878
528,3909.0099999999998,1.51629139845844
529,3911.71,1.5821132910392923
530,3914.41,1.5596801836201446
531,3917.1099999999997,1.495310076200997
532,3919.8100000000004,1.601129968781849
533,3922.51,1.5722348613627013
534,3925.21,1.5394607539435536
535,3927.91,1.3718279465244059
536,3930.61,1.2786618391052582
537,3933.31,1.2328907316861104
538,3936.0099999999998,1.2256816242669628
539,3938.7100000000005,1.3429197168478149
540,3941.4100000000003,1.443857109428667
541,3944.11,1.4838990020095193
542,3946.81,1.5328458945903716
543,3949.5099999999998,1.5181677871712238
544,3952.21,1.5488746797520763
545,3954.91,1.5410915723329286
546,3957.6099999999997,1.4509414649137808
547,3960.3100000000004,1.342695357494633
548,3963.01,1.2429228500754852
549,3965.71,1.0851779426563375
550,3968.41,0.9992647352371897
551,3971.11,1.038215327818042
552,3973.81,1.0759953203988943
553,3976.5099999999998,1.1863398129797464
554,3979.21,1.4003783055605987
555,3981.9100000000003,1.4222524981414508
556,3984.61,1.461863390722303
557,3987.31,1.5121022833031554
558,3990.0099999999998,1.5309611758840078
559,3992.71,1.5839290684648601
560,3995.41,1.6251919610457124
561,3998.11,1.5435148536265646
562,4000.8100000000004,1.5951907462074166
563,4003.51,1.632144638788269
564,4006.21,1.6968895313691212
565,4008.91,1.7519404239499736
566,4011.6099999999997,1.6398163165308257
567,4014.31,1.625641209111678
568,4017.0099999999998,1.7136531016925303
569,4019.71,1.6714009942733825
570,4022.4100000000003,1.6469568868542348
571,4025.11,1.6644507794350871
572,4027.81,1.6578156720159394
573,4030.5099999999998,1.5781505645967917
574,4033.21,1.6380124571776438
575,4035.91,1.651484349758496
576,4038.61,1.6809702423393482
577,4041.3100000000004,1.6583941349202005
578,4044.01,1.6640390275010528
579,4046.71,1.598016920081905
580,4049.41,1.6080428126627573
581,4052.1099999999997,1.6388927052436095
582,4054.81,1.6909995978244616
583,4057.5099999999998,1.651547490405314
584,4060.21,1.5491893829861663
585,4062.9100000000003,1.6221202755670183
586,4065.61,1.616922168147871
587,4068.31,1.6004500607287229
588,4071.0099999999998,1.5391679533095752
589,4073.71,1.5264288458904276
590,4076.41,1.5993607384712798
591,4079.11,1.5876986310521322
592,4081.81,1.5990165236329843
593,4084.51,1.5161914162138366
594,4087.21,1.4813353087946888
595,4089.91,1.501845201375541
