,lambda (Angstroms),Total Flux (erg/s/cm^2/Angstrom)
0,102.00000000000001,0.0015087759315429911
1,103.9,0.0017660493179603124
2,104.712855,0.001876115615999058
3,106.08,0.0017216543124539746
4,108.05,0.001499081913167611
5,110.06,0.0012719903903151857
6,113.93,0.0008347543659757151
7,117.92999999999999,0.0003828308717949975
8,120.22644299999999,0.00012337798345261696
9,120.95,0.00011959581237091627
10,124.92,9.884256982347131e-05
11,126.95,8.823081215550576e-05
12,128.12,8.211468438118571e-05
13,131.1,6.653708454508853e-05
14,132.01,6.178072352717296e-05
15,133.85,5.216266143823372e-05
16,136.97,3.585445396638023e-05
17,138.038426,3.0269754308485656e-05
18,140.16,2.987967821283055e-05
19,143.09,2.934807828537256e-05
20,147.10000000000002,2.8622218362605827e-05
21,150.88,2.7934401559025222e-05
22,155.1,2.7167947424392895e-05
23,158.489319,2.655541831172256e-05
24,159.07999999999998,2.639016063057297e-05
25,162.04,2.556430059745611e-05
26,165.80999999999997,2.4516188854364717e-05
27,170.07000000000002,2.333228298190598e-05
28,172.82999999999998,2.257119932791865e-05
29,176.86,2.1460654184958863e-05
30,180.14,2.0557834051234788e-05
31,181.81,2.0105094424003313e-05
32,181.970086,2.006140406000884e-05
33,186.05,2.04777884972385e-05
34,190.82,2.09779507020115e-05
35,193.92,2.1306239380165855e-05
36,197.98,2.1743772058651882e-05
37,202.12,2.2197457628832213e-05
38,204.93999999999997,2.25161942360565e-05
39,208.929613,2.2953898747645278e-05
40,210.19,2.3675856259143694e-05
41,216.07999999999998,2.7119085867720444e-05
42,220.1,2.94701618489562e-05
43,223.16,3.1260159639150574e-05
44,226.79000000000002,3.341949153340078e-05
45,229.94,3.589792658213026e-05
46,234.21999999999997,3.962150078802304e-05
47,239.88329199999998,4.3950987090424824e-05
48,240.23,4.386549473405799e-05
49,245.82,4.167433364730315e-05
50,252.13,3.9538159717531586e-05
51,256.81,3.6853092737922885e-05
52,259.78999999999996,3.663238033210368e-05
53,264.01,3.539040530775565e-05
54,268.92,3.366369585051659e-05
55,273.92,3.1915077162900454e-05
56,275.42287,3.1380663110819036e-05
57,279.01,3.3492243511471875e-05
58,284.2,3.6611800165204914e-05
59,290.15,3.9833284924301556e-05
60,296.21999999999997,4.365620606845561e-05
61,301.03999999999996,4.6125572868261634e-05
62,308.05,5.0601767695365434e-05
63,316.227766,5.5821540942059687e-05
64,318.14000000000004,5.5426830972788925e-05
65,327.81,5.322717898287098e-05
66,337.77000000000004,5.0831848846409444e-05
67,348.03000000000003,4.8308469248006316e-05
68,356.96,4.6302984597544356e-05
69,363.078055,4.499457915551728e-05
70,366.12,4.6278275046067044e-05
71,374.64,4.973645529729195e-05
72,385.14,5.3275144128026876e-05
73,395.02000000000004,5.782184249447081e-05
74,405.15000000000003,6.209167249974175e-05
75,413.64,6.55302309543074e-05
76,416.86938299999997,6.673654421499931e-05
77,422.29999999999995,6.815963257939544e-05
78,430.15,7.032024939314628e-05
79,441.17999999999995,7.388020624100255e-05
80,451.46,7.69393385525132e-05
81,459.84999999999997,7.938952103243289e-05
82,469.47999999999996,8.252708207911067e-05
83,478.630092,8.559537883592243e-05
84,480.42,8.550378883633055e-05
85,490.48,8.48262316126066e-05
86,499.59999999999997,8.529399548135785e-05
87,506.55,0.00010639044899975929
88,512.41,0.0002098734336785841
89,519.54,0.00021295245911544773
90,530.42,0.00021694743285360715
91,540.28,0.00020997495905381407
92,549.5408739999999,0.00025357549059835054
93,550.33,0.00025740743674392404
94,560.5600000000001,0.0003014402576855368
95,569.6600000000001,0.0003339589227460134
96,580.26,0.000327730038091184
97,589.68,0.000380040765879062
98,600.65,0.00038651047562779036
99,610.41,0.0004448597388135323
100,620.3199999999999,0.0005141737970277436
101,630.4,0.000549212122940887
102,630.957344,0.0005506365361699729
103,640.65,0.0005770323590525051
104,649.56,0.0006388699810882702
105,658.6,0.0006712948088327502
106,664.69,0.0007254455531871621
107,675.49,0.0007674760889880895
108,684.89,0.0007683769479259337
109,694.4200000000001,0.0009318277125724927
110,705.6999999999999,0.0009065023232979058
111,715.5200000000001,0.001095292985294675
112,724.43596,0.0011499878457705932
113,725.47,0.0011562882773270436
114,735.56,0.0012176315386310487
115,745.7900000000001,0.001340737462629064
116,754.43,0.0014277673603165372
117,764.9300000000001,0.001513896062367286
118,775.57,0.001649123427112045
119,784.55,0.0017885179341992565
120,795.46,0.0018882940769967488
121,804.67,0.0019891891727955484
122,815.8700000000001,0.002090801188316347
123,825.31,0.002278506872826735
124,831.763771,0.002146175709339545
125,834.87,0.0020819434701444873
126,844.54,0.0024871786298743745
127,854.3199999999999,0.0026129676642237328
128,864.2099999999999,0.002808353573192563
129,874.22,0.002998229163564452
130,884.34,0.003223209628555813
131,894.5799999999999,0.0034107347749502337
132,904.94,0.0035279526027477133
133,915.42,0.0050472251119482526
134,926.02,0.028875048302551852
135,934.59,0.06155349571608703
136,945.41,0.12081544465592957
137,954.16,0.16637600059156935
138,954.992586,0.1693362648422914
139,965.1999999999999,0.20562980873591852
140,974.14,0.05299790012901197
141,985.4200000000001,0.2265003273900963
142,994.53,0.22598215557701815
143,1006.05,0.27609763831174255
144,1015.36,0.24607426272669786
145,1024.75,0.09957499563286645
146,1034.23,0.1981914068416501
147,1043.8,0.3334702263530488
148,1055.89,0.33810899833766844
149,1065.6599999999999,0.2978918140771005
150,1075.52,0.3373275281191477
151,1085.47,0.2965223404638098
152,1095.52,0.3499845509224887
153,1096.4782,0.3490826330128921
154,1105.6499999999999,0.3404491914592445
155,1115.88,0.3396696876042078
156,1126.21,0.31772377784638484
157,1134.02,0.36227841683877615
158,1144.51,0.33888229763649513
159,1155.1,0.35240757253142785
160,1165.79,0.3639540415235742
161,1173.8700000000001,0.2897671645784426
162,1184.73,0.3499792235358523
163,1195.69,0.27482077659047577
164,1203.98,0.21630378724949295
165,1215.12,0.10916872967910109
166,1226.36,0.23662296620592294
167,1234.86,0.3349978644690889
168,1246.29,0.3698579897806168
169,1254.9299999999998,0.369858879779882
170,1258.92541,0.35491346840247173
171,1263.63,0.3373155636921229
172,1275.3200000000002,0.39722181277391255
173,1284.16,0.41118394988965434
174,1296.04,0.36816159976918056
175,1305.03,0.3647826375147143
176,1314.07,0.41403877547017875
177,1326.23,0.4046086265253167
178,1335.4199999999998,0.3828605651105731
179,1344.68,0.4178638039897325
180,1354.0,0.41213054312080855
181,1366.53,0.3899719957294335
182,1376.0,0.3999807354903016
183,1385.5400000000002,0.4064780755450727
184,1395.14,0.37242581585176054
185,1404.82,0.3828544564943375
186,1414.55,0.3944905973468451
187,1424.3600000000001,0.3954016385352418
188,1434.23,0.3954048799755553
189,1440.85,0.40929160777037543
190,1445.43977,0.41125370195172156
191,1447.5,0.4121344343009927
192,1454.1799999999998,0.4074182578403312
193,1464.26,0.39177499336077004
194,1474.4099999999999,0.38997622912787866
195,1484.63,0.391773965141657
196,1494.92,0.39540300140210505
197,1505.29,0.3855069379444613
198,1512.23,0.36227796240000154
199,1515.72,0.37673697469824874
200,1526.23,0.3698590117339445
201,1533.27,0.3420132365418701
202,1543.9,0.35895317400042814
203,1554.6,0.34517511170565596
204,1565.38,0.349975249692792
205,1576.23,0.36731018792659775
206,1583.5,0.3758732135450095
207,1594.48,0.38462935223691613
208,1605.53,0.37242809117549247
209,1616.66,0.37242763039597715
210,1624.1200000000001,0.361443856683921
211,1635.3799999999999,0.3750085963625065
212,1646.72,0.3767375363230002
213,1654.32,0.35812866310428354
214,1659.58691,0.3694820181660186
215,1665.79,0.38285354129466154
216,1673.48,0.35729983918942276
217,1677.33,0.38197923826547364
218,1685.08,0.3899734377042772
219,1696.76,0.3758687382778548
220,1704.59,0.36647153977538155
221,1716.3999999999999,0.35813374369438417
222,1724.33,0.3556628477653148
223,1736.28,0.37071165528708294
224,1744.29,0.3631149614167367
225,1756.3799999999999,0.37761067254127034
226,1764.49,0.354850881244328
227,1776.72,0.3656326959716271
228,1784.92,0.36816230699074837
229,1793.16,0.3793506190392312
230,1805.59,0.3776116389133381
231,1813.92,0.36395665327788446
232,1826.5,0.3656325770120972
233,1834.9299999999998,0.3589578939500475
234,1843.4,0.3396627119173593
235,1856.18,0.34123044079837994
236,1864.74,0.3467716610817553
237,1873.35,0.3606173826518326
238,1886.34,0.34280551693700145
239,1895.04,0.33269574082314224
240,1903.79,0.345978065995985
241,1905.46072,0.3449814485685407
242,1916.99,0.33810332654727615
243,1925.8400000000001,0.33346323297983027
244,1934.73,0.3396626380855258
245,1943.65,0.35159814219607755
246,1957.1299999999999,0.3350020950447588
247,1966.16,0.35159599550644965
248,1975.24,0.3581349943095673
249,1984.35,0.345177992117541
250,1993.51,0.33810058826694167
251,2002.71,0.3428028830894838
252,2016.6000000000001,0.3380975223378654
253,2025.9099999999999,0.34597021351154655
254,2035.2600000000002,0.3365469033583693
255,2044.65,0.34122849187833343
256,2054.09,0.32662207873972454
257,2063.57,0.331927564274257
258,2073.1,0.3467652481502164
259,2077.87,0.3373234899223388
260,2082.66,0.3428003310310319
261,2097.1,0.3311622520351089
262,2106.78,0.33499623093534886
263,2116.5,0.3357691085087303
264,2126.27,0.33965868442353864
265,2136.09,0.3258633586797738
266,2145.9500000000003,0.3296361316091505
267,2155.85,0.33499460321166863
268,2165.7999999999997,0.32737107315561365
269,2175.8,0.32586254144098553
270,2185.84,0.3236213083994989
271,2187.7616199999998,0.32534805542979295
272,2195.9300000000003,0.332688560688632
273,2206.07,0.32586372886485376
274,2216.25,0.3169871980989699
275,2226.48,0.311202268655454
276,2236.76,0.32361964053430603
277,2247.08,0.3148066134710525
278,2257.46,0.3083441879946404
279,2262.66,0.310488325520908
280,2273.1,0.3155320016313375
281,2283.6,0.31918267932860855
282,2294.14,0.307677758083774
283,2304.73,0.30915213816130743
284,2315.36,0.3028699192967351
285,2326.05,0.2668919020190044
286,2336.79,0.2940462860636417
287,2347.5699999999997,0.28477567116617336
288,2352.9900000000002,0.29753221451085987
289,2363.85,0.28419550172918023
290,2374.7599999999998,0.28953779026986853
291,2385.7200000000003,0.2759217801329248
292,2396.73,0.285674771318349
293,2402.2599999999998,0.27919421757224516
294,2413.34,0.2811852106089845
295,2424.48,0.28978420523256543
296,2435.67,0.28194620117851427
297,2446.92,0.28990069871130475
298,2452.56,0.28726764787441034
299,2463.88,0.2846902472585159
300,2475.25,0.2789089479649894
301,2486.68,0.28349475025830445
302,2492.41,0.2713901018016724
303,2503.91,0.2895182059463026
304,2511.88643,0.27794879838753833
305,2515.4700000000003,0.2727508802210187
306,2527.08,0.26906176138309856
307,2532.91,0.26908670170824284
308,2544.6000000000004,0.2679056820514568
309,2556.3399999999997,0.27801746188287946
310,2562.2400000000002,0.27422510149151613
311,2574.0600000000004,0.2826169805040729
312,2585.94,0.2813800589024802
313,2597.88,0.2788523366867381
314,2603.87,0.2725355753741505
315,2615.8900000000003,0.2700911523395424
316,2627.9599999999996,0.27580402879314314
317,2634.0200000000004,0.27902976676404784
318,2646.1800000000003,0.29358294229642434
319,2652.28,0.2956541798578961
320,2664.5200000000004,0.2824086545714067
321,2676.8199999999997,0.2877155286707678
322,2682.9900000000002,0.28907426551573184
323,2695.38,0.2799611386938688
324,2707.82,0.2832639113602145
325,2714.06,0.27431094748867085
326,2726.5899999999997,0.2724776192337923
327,2732.87,0.28014415495281575
328,2745.49,0.2597046257767131
329,2758.16,0.26276879608881915
330,2764.52,0.26891633098897666
331,2777.2799999999997,0.27523720037985855
332,2783.68,0.2671516348705831
333,2796.5299999999997,0.2338109033402408
334,2802.98,0.24485403731917407
335,2815.91,0.27289960496996585
336,2822.4,0.27736473853946614
337,2835.43,0.2717332051666755
338,2841.97,0.2661921382243846
339,2855.09,0.2601901039303698
340,2868.26,0.2731430691245637
341,2874.88,0.27380130136340686
342,2884.0315,0.27384279287865565
343,2888.15,0.27386150682752375
344,2894.8,0.27326540543449207
345,2908.17,0.28489040263376514
346,2928.33,0.2778638984106796
347,2948.6200000000003,0.27414699416036187
348,2969.06,0.2755111898786223
349,2989.64,0.2749747855675558
350,3010.37,0.2763367812250675
351,3031.2299999999996,0.27580007685534697
352,3052.24,0.27590237245420474
353,3073.4,0.2741020680216407
354,3087.59,0.2741665650491415
355,3108.99,0.27363426056630263
356,3130.54,0.269981956052042
357,3152.2400000000002,0.26945945150635964
358,3166.79,0.2701494484584482
359,3188.74,0.2622809438603962
360,3210.8399999999997,0.26725733923092243
361,3233.1,0.2600684345679321
362,3248.02,0.2692773314425136
363,3270.54,0.27439042672505887
364,3293.2099999999996,0.27260402197618244
365,3308.41,0.27079901879211
366,3311.31121,0.27057625009497804
367,3323.68,0.2696264686545261
368,3331.3399999999997,0.270282037980661
369,3339.02,0.25578780722670746
370,3346.7200000000003,0.2691093763926655
371,3354.43,0.25881564551857933
372,3362.17,0.25471111452436057
373,3369.92,0.25009418349009754
374,3377.6800000000003,0.24669625241579032
375,3385.47,0.26134692122135045
376,3393.28,0.26746958994682213
377,3401.1000000000004,0.27310535863224966
378,3408.9399999999996,0.2560861272375888
379,3416.7999999999997,0.2632944957628394
380,3424.67,0.27510576424804595
381,3432.5699999999997,0.27769243261311977
382,3440.48,0.2714063009381494
383,3448.4100000000003,0.25508196918309056
384,3456.36,0.2533616373479433
385,3464.33,0.2510731054327077
386,3472.3199999999997,0.2641508734373836
387,3480.32,0.25463454140201536
388,3488.3399999999997,0.2599977092865587
389,3496.38,0.2600325770910136
390,3504.4399999999996,0.26067264481538
391,3512.52,0.2583180124596581
392,3520.62,0.2662008800238477
393,3528.7400000000002,0.2525028475079489
394,3536.87,0.2638318149520059
395,3545.02,0.27188858231597446
396,3553.2000000000003,0.2738105495598104
397,3561.39,0.2688483167636021
398,3569.6,0.2544311838873054
399,3577.8300000000004,0.25097565093092034
400,3586.07,0.239162417934491
401,3594.3399999999997,0.25278298481792905
402,3602.63,0.26903635162127865
403,3607.45,0.2999066323199693
404,3610.18,0.2503532213878999
405,3612.92,0.21888911041578624
406,3615.65,0.2755209994837168
407,3618.3900000000003,0.2796293885116032
408,3621.12,0.27656087757953374
409,3623.8599999999997,0.2681184666074201
410,3626.59,0.2818572556753507
411,3629.33,0.26313664470323705
412,3632.06,0.2747599337711676
413,3634.8,0.259326722799054
414,3637.5299999999997,0.23647811186698459
415,3640.27,0.2647600008948709
416,3643.0,0.2840689899628015
417,3645.7400000000002,0.27310527899068787
418,3648.47,0.26956496805861846
419,3651.2099999999996,0.2707512570865048
420,3653.94,0.2771999461544354
421,3656.68,0.2728008351823218
422,3659.4100000000003,0.30024712425025235
423,3662.15,0.2644403132781387
424,3664.8799999999997,0.2621226023460693
425,3667.62,0.27727009137395564
426,3670.35,0.28613868044188623
427,3673.09,0.28173946946977263
428,3675.82,0.2960565585377032
429,3678.56,0.25656674756558956
430,3681.29,0.24381353663352012
431,3684.0299999999997,0.2527669256614065
432,3686.76,0.27070111472933706
433,3689.5,0.2852094037572234
434,3692.23,0.268154292825154
435,3694.9700000000003,0.25519688185304035
436,3697.7,0.25812987092097095
437,3700.44,0.2809682599488573
438,3703.17,0.2858797490167879
439,3705.91,0.27422093804467423
440,3708.6400000000003,0.28664572711260483
441,3711.38,0.2575507161404912
442,3714.11,0.26395870520842174
443,3716.85,0.27412959423630817
444,3719.58,0.28949168330423874
445,3722.32,0.3318360723321251
446,3725.0499999999997,0.46533096140005564
447,3727.7900000000004,0.757738050427942
448,3730.52,1.2106677394958725
449,3733.2599999999998,1.350580728523759
450,3735.9900000000002,1.0557347175916896
451,3738.73,0.629997306619576
452,3741.4599999999996,0.3787631956875065
453,3744.2,0.32549968471539287
454,3746.93,0.32501857378332344
455,3749.67,0.2968873628112098
456,3752.4,0.2698027518791404
457,3755.1400000000003,0.2729676409070268
458,3757.87,0.2890602299749573
459,3760.6099999999997,0.3209438190028437
460,3763.34,0.31566360807077426
461,3766.08,0.3297253970986606
462,3768.8100000000004,0.3319634861665912
463,3771.55,0.30744937519447757
464,3774.2799999999997,0.31096076426240815
465,3777.02,0.31810285329029453
466,3779.75,0.3311009423582251
467,3782.4900000000002,0.3510780313861115
468,3785.2200000000003,0.389309920454042
469,3787.96,0.4091142094819284
470,3790.69,0.384338198549859
471,3793.43,0.3686866875777453
472,3796.1600000000003,0.33440357664567594
473,3798.9,0.3096255656735623
474,3801.6299999999997,0.2855189547414929
475,3801.8939600000003,0.2883461290552954
476,3804.3700000000003,0.31486604583530975
477,3807.1,0.3234911371810672
478,3809.8399999999997,0.3556841284951241
479,3812.57,0.38460181984088154
480,3815.31,0.41926021115493844
481,3818.04,0.3992428025006959
482,3820.7799999999997,0.40609039381475276
483,3823.5099999999998,0.3879956851605102
484,3826.25,0.3602041764745671
485,3828.98,0.3618742678203245
486,3831.7200000000003,0.3409416591343814
487,3834.45,0.3093877504801388
488,3837.1899999999996,0.30312674179419574
489,3839.92,0.28673123313995313
490,3842.66,0.29394952445401
491,3845.3900000000003,0.33511351579976745
492,3848.13,0.38190680711382435
493,3850.8599999999997,0.38997399845958175
494,3853.6,0.3982218897736387
495,3856.33,0.42144758111939606
496,3859.07,0.411553972433453
497,3861.8,0.4269772637792104
498,3864.5400000000004,0.42918795509326735
499,3867.27,0.45446334643902475
500,3870.0099999999998,0.45180883775308167
501,3872.7400000000002,0.46429492909883907
502,3875.48,0.462482620412896
503,3878.2100000000005,0.42864611175865336
504,3880.9500000000003,0.4103058030727103
505,3883.68,0.3738210944184677
506,3886.42,0.3518129857325246
507,3889.15,0.332388977078282
508,3891.89,0.35930596839233897
509,3894.62,0.3620107597380964
510,3897.36,0.34937275105215326
511,3900.09,0.35289944239791066
512,3902.83,0.3743882337119676
513,3905.56,0.395787525057725
514,3908.3,0.4048926163717819
515,3911.0299999999997,0.4089826077175393
516,3913.7699999999995,0.42780779903159627
517,3916.5,0.43191309037735365
518,3919.24,0.4315973816914106
519,3921.9700000000003,0.428742273037168
520,3924.71,0.4329721643512249
521,3927.4399999999996,0.4268347556969823
522,3930.18,0.4090981470110392
523,3932.91,0.3795026383567966
524,3935.65,0.35513052967085357
525,3938.38,0.36206642101661096
526,3941.1200000000003,0.38693881233066785
527,3943.85,0.3986891036764253
528,3946.5899999999997,0.40505979499048217
529,3949.32,0.40295558633623957
530,3952.06,0.41610907765029653
531,3954.7900000000004,0.4202294689960539
532,3957.53,0.41604306031011085
533,3960.2599999999998,0.3961372516558682
534,3963.0,0.37624464296992516
535,3965.73,0.33803493431568254
536,3968.4700000000003,0.3092848256297394
537,3971.2,0.3045219169754969
538,3973.94,0.30268470828955374
539,3976.67,0.32648849963531124
540,3979.41,0.3296633909493681
541,3982.1400000000003,0.3687423822951255
542,3984.88,0.3942539736091824
543,3987.6099999999997,0.40949956495493983
544,3990.35,0.4181329562689967
545,3993.08,0.42653004761475416
546,3995.8199999999997,0.44159603892881105
547,3998.55,0.4370364302745685
548,4001.2799999999997,0.4494767216203259
549,4004.02,0.4594290129343828
550,4006.75,0.4544636042801402
551,4009.49,0.45136269559419717
552,4012.2200000000003,0.44612338693995457
553,4014.96,0.4533412782540115
554,4017.69,0.4688711695997689
555,4020.43,0.4659479609138258
556,4023.16,0.4562745522595832
557,4025.9,0.46747994357364014
558,4028.63,0.4716816349193975
559,4031.3700000000003,0.47279642623345447
560,4034.1,0.48021451757921185
561,4036.8399999999997,0.47303990889326875
562,4039.57,0.46415300023902617
563,4042.31,0.4675811915530831
564,4045.04,0.4712452828988405
565,4047.78,0.4719492742128974
566,4050.5099999999998,0.4643609655586548
567,4053.25,0.48504785687271174
568,4055.98,0.48469904821846915
569,4058.7200000000003,0.46534903953252604
570,4061.45,0.4601400308782835
571,4064.1899999999996,0.45989032219234033
572,4066.92,0.4595921135380978
