,lambda (Angstroms),Total Flux (erg/s/cm^2/Angstrom)
0,100.00999999999999,0.0016225498910034533
1,102.10000000000001,0.001993110919143361
2,104.0,0.0023299870803069078
3,104.712855,0.0024563935155017995
4,105.93,0.0022764909513654464
5,107.89999999999999,0.0019853681523590793
6,109.91000000000001,0.001688540773652578
7,114.03,0.001079920502239259
8,118.04,0.0004877194820262933
9,120.22644299999999,0.00017016781871673163
10,121.07,0.0001666320074419748
11,125.03,0.0001427762104570483
12,127.07,0.00013028833594966202
13,127.95,0.00012538344106412277
14,130.93,0.00010734029065627405
15,132.14,0.00010276270018865779
16,133.98,9.203084906434853e-05
17,137.1,7.807688628834586e-05
18,138.038426,7.293400165457808e-05
19,139.97,7.509930985200922e-05
20,142.9,0.00014383307951471822
21,146.9,0.0003198466623307032
22,151.02,0.00034682284363116774
23,154.89,0.0003797708447556332
24,158.489319,0.00041378906321137826
25,158.86,0.00041724441732960885
26,161.82,0.00044536776800640777
27,165.97,0.0004919764309485413
28,169.84,0.000531451367475302
29,172.98999999999998,0.0005661299646482467
30,177.01999999999998,0.0006096906876980776
31,179.89999999999998,0.0006430744451133414
32,181.970086,0.000668281051116107
33,181.98,0.0006684066359971488
34,185.79,0.000718021313061873
35,191.0,0.0007853376835362071
36,194.1,0.0008325231189432005
37,198.17000000000002,0.0008845818647839952
38,201.85000000000002,0.0009463093074606841
39,205.13,0.0009922041520203416
40,208.929613,0.0010159267635320643
41,209.91,0.0010226420260750942
42,215.79000000000002,0.001166099770193364
43,219.79999999999998,0.0012388687099747012
44,222.86,0.0012747862625260456
45,227.00000000000003,0.0013570355395072765
46,230.16,0.0020761046591354624
47,233.9,0.003553487667809328
48,239.88329199999998,0.004423034532634606
49,239.9,0.004425440580226989
50,246.04999999999998,0.004253675241553014
51,251.78,0.004561636969910434
52,257.06,0.003903425698658632
53,260.03,0.004494806296079493
54,264.26,0.004744955692406175
55,269.17,0.004763902599253458
56,274.17,0.004782899706022584
57,275.42287,0.004787522385799956
58,279.27,0.0048064720515249
59,283.81,0.00483151853389065
60,289.75,0.00464055851302117
61,295.82,0.004751285459708418
62,301.32,0.004722634625570011
63,308.34,0.004802934873633353
64,316.227766,0.00490119863050229
65,317.71,0.00491802503636097
66,328.12,0.00491306164514475
67,338.09,0.004874748941933828
68,348.36,0.004814878996901111
69,357.29999999999995,0.004767101790611678
70,363.078055,0.004756814926792149
71,365.61999999999995,0.004754405119134821
72,375.0,0.004693001349730378
73,384.62,0.004497312142729233
74,395.39,0.004563316505577223
75,404.6,0.004535689712803776
76,414.03000000000003,0.004456939185566686
77,416.86938299999997,0.004424735503705515
78,421.72,0.00436901292433665
79,429.56,0.00429191711441666
80,440.58,0.004226577412207695
81,450.85,0.004124659533651789
82,460.29,0.00403403396660527
83,469.92,0.003955043990899977
84,478.630092,0.0039018787875643285
85,479.76,0.00389441034737625
86,489.80999999999995,0.0037614088665452647
87,500.07000000000005,0.0037162521129804984
88,505.86,0.0036311663076062295
89,511.71000000000004,0.00370439028145088
90,520.03,0.0036354143331410503
91,529.7,0.0035270839172569083
92,539.54,0.0033833287091597055
93,549.5408739999999,0.003297370389588213
94,549.58,0.0032970416731267875
95,559.79,0.0032811618934077682
96,570.2,0.0032579944304425386
97,579.47,0.003147902461980706
98,590.24,0.003104315369172298
99,599.83,0.00296570750751653
100,609.5799999999999,0.0026169646992637934
101,619.48,0.002903893878576399
102,629.55,0.0028121631771297266
103,630.957344,0.002807669354668306
104,639.78,0.002781432652916876
105,650.1700000000001,0.0027079919566717057
106,657.6999999999999,0.002624312130615293
107,665.3100000000001,0.0026313273781200337
108,674.57,0.0025911953928235685
109,685.53,0.0024611094707016187
110,695.07,0.002479215742869191
111,704.7399999999999,0.0023443183845736383
112,716.19,0.0023830301630137544
113,724.43596,0.002340146334678428
114,726.15,0.002331139291457131
115,734.56,0.002295297819864461
116,744.78,0.0022348810244212877
117,755.14,0.002185957259177523
118,765.64,0.0019812905241331667
119,774.5100000000001,0.0021008070089099822
120,785.29,0.0020230113342644433
121,794.38,0.002010129580783186
122,805.4300000000001,0.0019841442500936495
123,814.7600000000001,0.0019452386912399507
124,824.19,0.0019200582968144002
125,831.763771,0.0018202065186761604
126,835.66,0.001767951370487926
127,845.3299999999999,0.0018347060337865243
128,855.12,0.0017927159545407414
129,865.02,0.0017673136946292755
130,875.04,0.0017461326921734282
131,885.17,0.001713678509051898
132,895.42,0.0016854795833859864
133,905.7900000000001,0.0016429199151756933
134,914.17,0.001890665060826392
135,924.76,0.003518793031284733
136,935.46,0.005536451821077391
137,944.12,0.008318178234124533
138,954.992586,0.010665132724823117
139,955.0500000000001,0.010677533650705874
140,963.89,0.011490645418827668
141,975.05,0.0038576419134248655
142,984.0699999999999,0.009498372237911131
143,995.4699999999999,0.009920848807660957
144,1004.6800000000001,0.013742578441643052
145,1013.98,0.013492188853807383
146,1025.72,0.0067811680300234305
147,1035.21,0.010034239751683592
148,1044.79,0.01725005825152599
149,1054.45,0.016858429776419263
150,1064.21,0.013367728832626132
151,1074.06,0.015627095667015235
152,1084.0,0.012222180279586574
153,1094.03,0.016286132670340146
154,1096.4782,0.016126469912987246
155,1104.15,0.015625739467146686
156,1114.37,0.014888969814602589
157,1124.68,0.01330339320817112
158,1135.08,0.016776949647852275
159,1145.59,0.01530251758833775
160,1156.18,0.016169789347590006
161,1164.2,0.01643124967895951
162,1174.97,0.011350417530437014
163,1185.84,0.01579995765537299
164,1194.06,0.011116842533659441
165,1205.11,0.00832357075082067
166,1216.26,0.00599545424144037
167,1224.69,0.011216945893989614
168,1236.03,0.016275339704180415
169,1244.59,0.017638358312225672
170,1256.11,0.01672918821464172
171,1258.92541,0.015999721307833812
172,1264.8200000000002,0.014472933076533636
173,1273.58,0.018552771220078992
174,1285.3700000000001,0.019381226016015045
175,1294.28,0.015084734983936176
176,1306.25,0.014878320769123156
177,1315.3100000000002,0.018681300561420068
178,1324.42,0.017759850628508905
179,1333.6100000000001,0.015578371135264824
180,1345.9499999999998,0.01868122895391205
181,1355.27,0.018006610175126978
182,1364.67,0.015977591836008984
183,1374.13,0.0167294838266413
184,1383.6499999999999,0.016806696147023927
185,1396.46,0.014374426548715256
186,1406.1399999999999,0.014742509748432045
187,1415.8799999999999,0.015365483277899146
188,1425.7,0.015758837247033326
189,1435.58,0.015650671545917816
190,1442.2099999999998,0.016462737983327147
191,1445.43977,0.016722616023501013
192,1445.53,0.01672987614981647
193,1455.55,0.016162632368077016
194,1465.64,0.01481085890921962
195,1475.8,0.014776775773244285
196,1486.0300000000002,0.01508575296015101
197,1496.33,0.015295350469939795
198,1506.7,0.014375028302610641
199,1513.66,0.012726380406312575
200,1517.1499999999999,0.013634826504289552
201,1524.1499999999999,0.013203248792495523
202,1534.71,0.011423627501560528
203,1545.3500000000001,0.012523466579633604
204,1556.06,0.011824465980588738
205,1563.25,0.01204381914518887
206,1574.08,0.012992609099656107
207,1584.99,0.013698169423131411
208,1595.9799999999998,0.014048820115614783
209,1603.3500000000001,0.01369805411048307
210,1614.46,0.013698195356478546
211,1625.6499999999999,0.01281495697148209
212,1633.1499999999999,0.013729861565988486
213,1644.48,0.01414609382675615
214,1655.8700000000001,0.012727216364279863
215,1659.58691,0.013448309190196205
216,1663.52,0.014211455994883113
217,1671.1999999999998,0.012239744695379208
218,1678.91,0.016464394406424117
219,1686.66,0.01719965546486744
220,1694.44,0.015509697533859577
221,1706.1899999999998,0.015192593332144618
222,1714.07,0.0156896787696328
223,1725.95,0.015907878946962696
224,1733.9099999999999,0.01780477707924771
225,1745.93,0.017083621972472065
226,1753.99,0.019430823473253124
227,1766.1499999999999,0.01642953308237194
228,1774.3,0.018178487614799434
229,1786.6000000000001,0.018304741939812713
230,1794.8500000000001,0.021849759840736255
231,1803.13,0.020300358752208605
232,1815.63,0.019748359814213967
233,1824.01,0.01956785209418236
234,1836.6499999999999,0.018306377872082183
235,1845.13,0.01616995352054662
236,1853.65,0.018014480516409477
237,1866.5,0.02025576336815099
238,1875.1100000000001,0.020396363395660283
239,1883.77,0.019841605107417597
240,1896.83,0.0209674750330008
241,1905.46072,0.020825610402302477
242,1905.5800000000002,0.020823640579290432
243,1914.3799999999999,0.021064118480749232
244,1923.2099999999998,0.01956997507959937
245,1936.54,0.01580335628715003
246,1945.48,0.022775198109768403
247,1954.46,0.022462718195575226
248,1968.01,0.025724969850662353
249,1977.09,0.0249100555944403
250,1986.22,0.025490689167203807
251,1995.3899999999999,0.02519725100315576
252,2004.6,0.024065231102296164
253,2013.8500000000001,0.02357165946462502
254,2023.1499999999999,0.02245964565593943
255,2037.17,0.025024066903490842
256,2046.5700000000002,0.027308298752776378
257,2056.02,0.025780768431047475
258,2065.51,0.024791656372507024
259,2075.04,0.028791432577155024
260,2079.83,0.036238114593971804
261,2084.62,0.03909705661078858
262,2094.24,0.03632113890761059
263,2103.91,0.03381918903341816
264,2113.62,0.03573888742241418
265,2123.38,0.03460678364039575
266,2133.1800000000003,0.030213268121565783
267,2143.0299999999997,0.03623532043172137
268,2152.92,0.03699240100506541
269,2162.85,0.0331995298415979
270,2172.84,0.03366120607291306
271,2182.87,0.03759154056741667
272,2187.7616199999998,0.038408476450314505
273,2192.94,0.039273707440499385
274,2203.07,0.03733472812764083
275,2213.23,0.030986329853342414
276,2223.45,0.03214919365616428
277,2233.71,0.04046623884373301
278,2244.02,0.03776729576223531
279,2254.38,0.031202104411671174
280,2264.79,0.030916224792040613
281,2275.2400000000002,0.0342901565571569
282,2285.74,0.040375250053206774
283,2296.29,0.035172435280190206
284,2306.89,0.03948030223810721
285,2317.54,0.03512797092695779
286,2322.88,0.02476966579066315
287,2333.6,0.02588986690282073
288,2344.38,0.01983785009209859
289,2355.2000000000003,0.032172664666123306
290,2366.07,0.021083160971081597
291,2376.99,0.026186609006973456
292,2382.47,0.017434748717292815
293,2393.4700000000003,0.021307309522678387
294,2404.5099999999998,0.020930831712810818
295,2415.61,0.023820445980063533
296,2426.76,0.03548181197824982
297,2432.36,0.03516746584280975
298,2443.58,0.04039486426430303
299,2454.86,0.0418367347629166
300,2466.19,0.03835633699246375
301,2477.58,0.03468299129913117
302,2483.29,0.02886093897174495
303,2494.75,0.029892995701719376
304,2506.27,0.04272218450881409
305,2511.88643,0.024382019248709735
306,2512.04,0.02388053688457613
307,2517.84,0.020523989174219884
308,2523.64,0.021299001463863643
309,2535.29,0.02738203537323429
310,2546.9900000000002,0.028885218612688078
311,2552.86,0.043715449964448226
312,2564.65,0.035071931998051656
313,2576.48,0.042769253495721596
314,2582.42,0.039471893909598134
315,2594.34,0.036269954201417716
316,2606.3199999999997,0.03234827368933706
317,2612.33,0.029444043165329992
318,2624.38,0.03927854171536573
319,2636.5,0.05731723932751785
320,2642.58,0.07644714786562717
321,2654.77,0.0980787845398957
322,2667.03,0.0651476702762806
323,2673.17,0.07464633801048969
324,2685.5099999999998,0.08208165267500761
325,2697.91,0.06494478653562528
326,2704.13,0.07773767319796739
327,2716.6099999999997,0.06011066598671809
328,2722.87,0.0532234721131267
329,2735.44,0.06328837369602705
330,2748.07,0.037130174475027165
331,2754.4,0.046966979663552164
332,2767.1200000000003,0.05807533923670192
333,2773.5,0.06384270375531005
334,2786.2999999999997,0.04241113225659283
335,2792.7200000000003,0.019631756239267467
336,2805.61,0.023883593534699887
337,2812.08,0.05873937684745766
338,2825.06,0.08225052293703973
339,2838.1,0.07969175822272155
340,2844.64,0.06646281059759572
341,2857.77,0.04763495467742719
342,2864.36,0.0843227463823845
343,2877.58,0.10213773925636561
344,2884.0315,0.09489822324006954
345,2884.21,0.09469792276804793
346,2897.5299999999997,0.10705204911570404
347,2910.9,0.14153014544965015
348,2931.08,0.1253916399162943
349,2951.4,0.11849433434455048
350,2971.85,0.12679792873716064
351,2992.45,0.1289844230886408
352,3013.2,0.13211661739899097
353,3027.11,0.13811521358486908
354,3048.09,0.14278010783215325
355,3069.22,0.15455870203830743
356,3090.4900000000002,0.1554284962060736
357,3111.91,0.1721717903327098
358,3133.48,0.16270688441821599
359,3147.95,0.1647029804505421
360,3169.77,0.17666147446749825
361,3191.7400000000002,0.15402786844332444
362,3206.4700000000003,0.17095896440435857
363,3228.7,0.14566555830889275
364,3251.08,0.19444165217229692
365,3273.61,0.22348234599457112
366,3288.72,0.21955944185140921
367,3311.31121,0.2119122119876453
368,3311.52,0.21184153456249602
369,3319.15,0.20238289456872505
370,3326.81,0.2005963544177046
371,3334.47,0.22775901426668416
372,3342.1600000000003,0.2082740739584143
373,3349.87,0.22427773354531147
374,3357.5899999999997,0.23011239307979217
375,3365.3300000000004,0.17502935250943993
376,3373.09,0.16416141183425473
377,3380.86,0.22615727110665307
378,3388.65,0.22416593027421847
379,3396.47,0.1935233892845344
380,3404.3,0.24426504824243386
381,3412.1400000000003,0.20991670714791688
382,3420.01,0.22346056589615043
383,3427.8900000000003,0.21795282459196752
384,3435.8,0.22778138313053523
385,3443.7200000000003,0.1732593416166864
386,3451.66,0.22378779999800463
387,3459.61,0.2243872583269064
388,3467.5899999999997,0.21885681649855876
389,3475.58,0.22403617461779463
390,3483.5899999999997,0.22309063263219753
391,3491.62,0.22368879054176746
392,3499.6699999999996,0.1917846483465045
393,3507.74,0.24714690604640854
394,3515.83,0.20755496364147963
395,3523.9300000000003,0.23296522118413426
396,3532.0499999999997,0.22722397862195595
397,3540.2,0.2538644359025282
398,3548.3599999999997,0.265943093130684
399,3556.5400000000004,0.2376506502540068
400,3564.7400000000002,0.25067270727249663
401,3572.95,0.18979456423857005
402,3581.19,0.20391242104739404
403,3589.4500000000003,0.15510457775138503
404,3597.72,0.23483793440295958
405,3606.01,0.24095359094970117
406,3614.33,0.21832484733919336
407,3622.66,0.19154750367626902
408,3630.4599999999996,0.27101796279141793
409,3633.2,0.24459834842930359
410,3635.95,0.23734083401477274
411,3638.69,0.22977971965265837
412,3641.44,0.2554606052381275
413,3644.1800000000003,0.2733524908760132
414,3646.92,0.2145971765138988
415,3649.67,0.26682456209936795
416,3652.41,0.25720044773725365
417,3655.16,0.2644179333227228
418,3657.9,0.28681251896060844
419,3660.64,0.33064830459849404
420,3663.3900000000003,0.2840485901839632
421,3666.13,0.3012973758218489
422,3668.8700000000003,0.2555092614597345
423,3671.62,0.24335844704520368
424,3674.3599999999997,0.2712085326830893
425,3677.11,0.2816184182685585
426,3679.85,0.27280440390644406
427,3682.59,0.24750438954432977
428,3685.3399999999997,0.2728277751297989
429,3688.0800000000004,0.27421006076768456
430,3690.83,0.2928867463531537
431,3693.5699999999997,0.2722562319910393
432,3696.31,0.313781117628925
433,3699.06,0.3248817032143942
434,3701.8,0.3035365888522798
435,3704.54,0.2641808744901655
436,3707.29,0.2795936600756346
437,3710.03,0.26422804571352027
438,3712.7799999999997,0.2746619312989894
439,3715.52,0.29388791693687505
440,3718.2599999999998,0.3223576025747607
441,3721.01,0.28959928816022984
442,3723.75,0.2862645737981155
443,3726.5,0.28233285938358466
444,3729.24,0.2812375450214703
445,3731.9799999999996,0.278236330659356
446,3734.73,0.23106741624482513
447,3737.47,0.22952180188271076
448,3740.21,0.2609167875205964
449,3742.96,0.26103507310606555
450,3745.7000000000003,0.25345975874395116
451,3748.45,0.24133274432942034
452,3751.1899999999996,0.242548229967306
453,3753.93,0.2675395156051917
454,3756.68,0.2694684011906608
455,3759.42,0.2974614868285464
456,3762.17,0.2890746724140156
457,3764.9100000000003,0.29269635805190125
458,3767.65,0.29731874368978684
459,3770.3999999999996,0.26975402927525605
460,3773.14,0.30837241491314166
461,3775.8799999999997,0.32607390055102736
462,3778.63,0.3345300861364965
463,3781.37,0.3265737717743821
464,3784.1200000000003,0.3023680573598513
465,3786.86,0.34020024299773693
466,3789.6000000000004,0.30794402863562254
467,3792.35,0.3141132142210918
468,3795.0899999999997,0.2654425998589774
469,3797.84,0.27258868544444653
470,3800.58,0.3091105710823322
471,3801.8939600000003,0.2990001694972044
472,3803.32,0.2880273582776812
473,3806.0699999999997,0.31011074686658957
474,3808.8100000000004,0.3056563354969927
475,3811.55,0.2946028241273959
476,3814.2999999999997,0.27349431271630426
477,3817.04,0.2899331013467074
478,3819.79,0.2865253899356157
479,3822.53,0.26272637856601894
480,3825.27,0.24674136719642212
481,3828.02,0.20356535578533044
482,3830.76,0.21564664441573364
483,3833.5099999999998,0.22883933300464196
484,3836.25,0.19681152163504514
485,3838.99,0.21454611026544837
486,3841.7400000000002,0.24764569885435667
487,3844.48,0.24926608748475987
488,3847.2200000000003,0.28392977611516307
489,3849.97,0.30741876470407137
490,3852.7099999999996,0.2774017533344746
491,3855.46,0.29700754192338286
492,3858.2,0.30041493055378604
493,3860.94,0.28057051918418924
494,3863.69,0.26494150777309755
495,3866.4300000000003,0.3029403964035008
496,3869.18,0.3007237849924091
497,3871.9199999999996,0.3065849736228123
498,3874.66,0.27351866225321547
499,3877.41,0.27492325084212377
500,3880.15,0.269301539472527
501,3882.89,0.27835492810293017
502,3885.6400000000003,0.2553168166918385
503,3888.38,0.2915052053222417
504,3891.1299999999997,0.28471459391115
505,3893.87,0.2955546825415532
506,3896.6099999999997,0.3356978711719564
507,3899.36,0.3243568597608647
508,3902.1,0.3229995483912679
509,3904.8500000000004,0.3420572369801762
510,3907.59,0.33431522561057936
511,3910.3300000000004,0.3555903142409826
512,3913.08,0.3336240028298909
513,3915.8199999999997,0.35175429146029413
514,3918.56,0.3456798800906973
515,3921.31,0.3279303686796056
516,3924.05,0.2929343573100088
517,3926.7999999999997,0.25772244589891713
518,3929.5400000000004,0.2383069345293203
519,3932.28,0.2089401231597235
520,3935.0299999999997,0.18909931174863182
521,3937.77,0.19372860037903503
522,3940.52,0.21486888896794334
523,3943.26,0.2666089775983465
524,3946.0,0.2925532662287497
525,3948.7499999999995,0.31606595481765803
526,3951.49,0.34024744344806124
527,3954.23,0.34215393207846445
528,3956.98,0.3330523206673727
529,3959.72,0.3236904092977759
530,3962.4700000000003,0.28850219788668424
531,3965.21,0.23704888651708741
532,3967.9500000000003,0.21255637514749062
533,3970.7,0.20053916373639896
534,3973.4399999999996,0.21984615236680213
535,3976.19,0.2592469409557105
536,3978.93,0.3056316295861137
537,3981.67,0.3620223182165168
538,3984.42,0.39987660680542514
539,3987.1600000000003,0.40535669543582836
540,3989.9,0.4145056840662315
541,3992.6499999999996,0.4336108726551398
542,3995.39,0.43968656128554306
543,3998.14,0.4532884498744514
544,4000.88,0.4584589385048546
545,4003.62,0.44731042713525776
546,4006.3700000000003,0.4542178157241661
547,4009.11,0.45688690435456925
548,4011.8599999999997,0.46851129294347754
549,4014.6,0.47256218157388075
550,4017.3399999999997,0.48509417020428397
551,4020.09,0.4754442587931923
552,4022.83,0.4762074474235955
553,4025.57,0.48690513605399866
554,4028.32,0.47499192464290696
555,4031.0600000000004,0.46165171327331017
556,4033.81,0.45424120186221845
557,4036.5499999999997,0.4624134904926217
558,4039.29,0.47913837912302487
559,4042.04,0.4742531677119332
560,4044.78,0.4470476563423364
561,4047.5299999999997,0.4526447449312447
562,4050.2700000000004,0.46107913356164787
563,4053.01,0.45531472219205105
564,4055.7599999999998,0.4629368107809594
565,4058.5,0.4666779994113626
566,4061.24,0.4549338880417658
567,4063.9900000000002,0.4530027766306741
568,4066.73,0.4506927652610773
