,lambda (Angstroms),Total Flux (erg/s/cm^2/Angstrom)
0,102.01,12.899789653490735
1,103.91,12.863025193032893
2,104.712855,12.847490176810311
3,106.08,12.708531878128332
4,108.06,12.507282244044092
5,110.06,12.303999786101413
6,113.93,11.910648230281076
7,117.94000000000001,11.503066903976814
8,120.22644299999999,11.270670055972987
9,120.96000000000001,11.208159638736507
10,124.92,10.870706283992382
11,126.95,10.69771883306213
12,128.13,10.597164552970908
13,131.10999999999999,10.343222390078761
14,132.02,10.265676316478855
15,133.86,10.108879822189364
16,136.98,9.843007545482171
17,138.038426,9.752813267931732
18,139.85,9.642469165006418
19,143.1,9.444510317372638
20,147.11,9.200260845049906
21,150.89,8.970019382712408
22,155.11,8.712977456686202
23,158.489319,8.507141985046012
24,159.09,8.479481069596414
25,162.05,8.343175391517578
26,165.82,8.169570244270457
27,170.07999999999998,7.973400902023271
28,172.84,7.846305713688951
29,176.87,7.660728283126957
30,180.16,7.509227172219675
31,181.82,7.432786303000191
32,181.970086,7.425875016892208
33,186.06,7.282193491798625
34,190.82999999999998,7.11462102752741
35,193.93,7.005716817574253
36,197.99,6.8630874441692775
37,202.14,6.717296941900696
38,204.95,6.618581694283609
39,208.929613,6.478775945416667
40,210.21,6.444959166848539
41,216.1,6.2894026975666595
42,220.10999999999999,6.183497003076161
43,223.18,6.10241614525635
44,226.79999999999998,6.006812705447521
45,229.95999999999998,5.923399349577328
46,234.23,5.81072066469238
47,239.88329199999998,5.66148034325459
48,240.24,5.6542248721874255
49,245.84,5.540255951541512
50,252.14000000000001,5.412080001514859
51,256.83,5.3165871987139095
52,259.81,5.255999701835905
53,264.03,5.170150035112021
54,268.94,5.070241790177122
55,273.94,4.968502283914699
56,275.42287,4.938328973954648
57,279.03000000000003,4.882004348363723
58,284.21999999999997,4.8009645727185255
59,290.17,4.708032081819309
60,296.24,4.613262690258932
61,301.06,4.537995365168977
62,308.07,4.4285468750628425
63,316.227766,4.301181641901498
64,318.15999999999997,4.27865323405924
65,327.83,4.1658967518361045
66,337.79,4.049751660205553
67,348.05999999999995,3.9299871829119044
68,356.98,3.8259695944769123
69,363.078055,3.7548633284666315
70,366.14,3.728129965764804
71,374.67,3.653648117559045
72,385.17,3.561921784608229
73,395.05,3.4756829017802224
74,405.18,3.3872338550962446
75,413.67,3.313092589027442
76,416.86938299999997,3.2851475709540527
77,422.33,3.248727726844341
78,430.18,3.1963776454093984
79,441.21,3.1228358254568622
80,451.49,3.0542703389471546
81,459.88,2.998312665273376
82,469.51,2.9340919883474537
83,478.630092,2.873271470666706
84,480.45,2.863938710835338
85,490.51,2.812321475974547
86,499.63,2.7655675378860374
87,506.58000000000004,2.7299025774633243
88,512.45,2.6998893696300397
89,519.5799999999999,2.6633242654424225
90,530.46,2.607507945652621
91,540.3199999999999,2.5568899275306136
92,549.5408739999999,2.509627185338225
93,550.36,2.506425508644414
94,560.59,2.4664621274649248
95,569.7,2.430873696635488
96,580.3,2.3893647272510714
97,589.7199999999999,2.3525838196283164
98,600.6899999999999,2.309635091038972
99,610.45,2.271337322417094
100,620.37,2.2327884400309226
101,630.45,2.1933746338804583
102,630.957344,2.191390366414448
103,640.69,2.161221679393388
104,649.6,2.1336678763302914
105,658.6400000000001,2.105669374275253
106,664.74,2.086819104884132
107,675.5400000000001,2.0533264883228024
108,684.93,2.024151503212536
109,694.4599999999999,1.9949090768801776
110,705.75,1.9597950570415288
111,715.5699999999999,1.9296151640348385
112,724.43596,1.9021775885189314
113,725.5200000000001,1.8996897595386468
114,735.61,1.8765273482798344
115,745.85,1.853185232001317
116,754.48,1.8334608660009646
117,764.98,1.8093067966216254
118,775.62,1.7851591899572286
119,784.6,1.7646725642442314
120,795.52,1.7396858410097191
121,804.73,1.7186452813998414
122,815.92,1.6930179643298597
123,825.37,1.671621540088454
124,831.763771,1.6563930554086905
125,834.93,1.6506936596736101
126,844.5999999999999,1.6350427426316851
127,854.38,1.6183524877071733
128,864.27,1.6017023949000753
129,874.2800000000001,1.5848719635847006
130,884.4000000000001,1.56795753938674
131,894.64,1.5506947646805032
132,905.0,1.5328398494659896
133,915.48,1.5188657147432003
134,923.95,1.5709757587840374
135,934.6500000000001,1.6486463092960744
136,945.47,1.7984338562998359
137,954.22,1.9474279588213617
138,954.992586,1.948893901855286
139,965.27,1.968777031843335
140,974.2,1.486434348283863
141,985.48,1.8105048727350561
142,994.6,1.8576822920785738
143,1006.1199999999999,2.130722505986176
144,1015.43,2.111479538232684
145,1024.82,1.658162196964661
146,1034.31,1.8159790888034752
147,1043.8799999999999,2.367717907127759
148,1055.96,2.3350481064336464
149,1065.73,2.0539324909716035
150,1075.6000000000001,2.2331008086163977
151,1085.55,1.9688010527466613
152,1095.5900000000001,2.278138676673078
153,1096.4782,2.2734441329784962
154,1105.73,2.2273691126158575
155,1115.96,2.159668715569094
156,1126.29,2.0362526859998793
157,1134.09,2.3394284492486817
158,1144.5900000000001,2.2053285343913
159,1155.18,2.291283480263712
160,1165.87,2.320490493613673
161,1173.95,1.8934154457996115
162,1184.81,2.269462073861405
163,1195.77,1.8186376694007476
164,1204.06,1.5593524632895388
165,1215.2,1.4190633802884687
166,1223.63,1.8397518686458278
167,1234.95,2.327173707104346
168,1246.3799999999999,2.461910019788168
169,1255.02,2.3647306498483793
170,1258.92541,2.2585366581669923
171,1263.72,2.13006330860354
172,1275.4099999999999,2.5478755550762986
173,1284.25,2.6410012008264427
174,1296.13,2.1982586206807087
175,1305.12,2.172163771732043
176,1314.16,2.577039757883774
177,1326.32,2.486862854300262
178,1335.52,2.252554512773263
179,1344.7700000000002,2.59717600634666
180,1354.1000000000001,2.533957836080692
181,1363.48,2.3150195009151213
182,1376.1000000000001,2.409140280255259
183,1385.6399999999999,2.4213786174109577
184,1395.24,2.203220956687132
185,1404.91,2.257810465103862
186,1414.65,2.2713621426611477
187,1424.4599999999998,2.329930989358989
188,1434.3300000000002,2.3063428381773057
189,1440.95,2.4035244054698346
190,1445.43977,2.426950248564301
191,1447.6,2.438862941988818
192,1454.28,2.378292099885607
193,1464.3600000000001,2.2281126555142947
194,1474.51,2.227821166390404
195,1484.74,2.2684357689778523
196,1495.03,2.2999211903488046
197,1505.39,2.1999435669671783
198,1512.3400000000001,2.0084214093897357
199,1515.83,2.121281035296891
200,1526.33,2.0612663224101073
201,1533.38,1.8594775294718382
202,1544.0100000000002,2.0130815906159802
203,1554.71,1.9281606070075439
204,1565.49,1.9375907151104463
205,1576.34,2.02389477846077
206,1583.6100000000001,2.1068189877286825
207,1594.59,2.1353978251099326
208,1605.64,2.104730617738603
209,1616.77,2.1135395020786123
210,1624.2400000000002,2.018650440624872
211,1635.5,2.1173000989958073
212,1646.83,2.139996712614164
213,1654.43,2.007287425191349
214,1659.58691,2.070353028373965
215,1665.8999999999999,2.1488561872925027
216,1673.5900000000001,1.9509485168937275
217,1677.45,2.1537379710238613
218,1685.19,2.239810265056824
219,1696.8700000000001,2.1270535563107
220,1704.7,2.0558675863207894
221,1716.52,1.9639455779835306
222,1724.4399999999998,1.9570353439707482
223,1736.3999999999999,2.0605260360423543
224,1744.41,2.020379538006699
225,1756.5,2.133251737600822
226,1764.6100000000001,1.981676168428642
227,1776.8400000000001,2.0211870684316304
228,1785.04,2.0505772352365774
229,1793.28,2.173109173586915
230,1805.72,2.1561401242032003
231,1814.0500000000002,2.0098987985306653
232,1826.62,2.0475422566694688
233,1835.06,1.9767960527467558
234,1843.53,1.8453314274830852
235,1856.3,1.8421617433488384
236,1864.8700000000001,1.889527046948643
237,1873.4799999999998,2.025013122093838
238,1886.47,1.8884376814592359
239,1895.1699999999998,1.829425492581558
240,1903.92,1.9146952681356175
241,1905.46072,1.9070325917573128
242,1917.12,1.850543372273787
243,1925.9699999999998,1.8292467526534173
244,1934.86,1.8658400420969103
245,1943.79,1.9327282406042663
246,1952.76,1.8349473481754845
247,1966.3,1.9813935662930209
248,1975.37,2.022996446523896
249,1984.4899999999998,1.9315167130846
250,1993.6499999999999,1.8860858887091663
251,2002.85,1.9316539733975957
252,2016.74,1.868386895823931
253,2026.0500000000002,1.9434642304379826
254,2035.4,1.855485474115897
255,2044.79,1.9235146268576742
256,2054.23,1.85202616592928
257,2063.71,1.8518476140647482
258,2073.2400000000002,1.9607734485300452
259,2078.02,1.895255581661642
260,2082.81,1.9608471920592048
261,2097.25,1.8688903641136523
262,2106.93,1.8719793575684345
263,2116.65,1.8882442600870792
264,2126.42,1.9047505489355525
265,2136.2400000000002,1.785633224113854
266,2146.1,1.8355798083560186
267,2156.0,1.8943383016620456
268,2165.9500000000003,1.8382441812979011
269,2175.9500000000003,1.8218674472635852
270,2186.0,1.8024280995590976
271,2187.7616199999998,1.8142621287089375
272,2196.09,1.8711586242663405
273,2206.2200000000003,1.8229363406190269
274,2216.41,1.7392567571672872
275,2226.64,1.6950366405125965
276,2236.91,1.8027989906549549
277,2247.2400000000002,1.7349800409928868
278,2252.42,1.6627754912107462
279,2262.82,1.6953118584435143
280,2273.26,1.7349256924733312
281,2283.75,1.7853796099994599
282,2294.29,1.6967886110218997
283,2304.88,1.7002546955406508
284,2315.52,1.6250728635557135
285,2326.21,1.3264669150670874
286,2336.9500000000003,1.5120954500747728
287,2342.34,1.46788585097714
288,2353.15,1.5800025028796612
289,2364.01,1.457801238278494
290,2374.92,1.497967057173638
291,2385.88,1.3997459595650934
292,2396.9,1.4800185621521227
293,2402.42,1.4291699801448994
294,2413.51,1.4634908996267644
295,2424.65,1.5521949026049409
296,2435.84,1.5042679890794286
297,2447.09,1.5799227757494902
298,2452.73,1.5646975941334145
299,2464.05,1.545583697698312
300,2475.42,1.4922928847595207
301,2486.85,1.5079817720163033
302,2492.58,1.447293140693588
303,2504.09,1.5918389615444686
304,2511.88643,1.4738282061346797
305,2515.64,1.4172402933911514
306,2527.26,1.3933198588163593
307,2533.08,1.4240313657677113
308,2544.77,1.4047775008641556
309,2556.52,1.518284981393088
310,2562.41,1.4644040580156763
311,2574.24,1.548083332454593
312,2586.12,1.5212277280872497
313,2592.09,1.4959235986198223
314,2604.05,1.4442407881624633
315,2616.0699999999997,1.4244103231375926
316,2622.1,1.493322539102653
317,2634.2,1.5742328679877664
318,2646.3599999999997,1.7174765423053682
319,2652.46,1.7953623279416648
320,2664.71,1.5861690204079988
321,2677.01,1.6649308340680726
322,2683.18,1.6793901893756056
323,2695.5600000000004,1.5836667969456637
324,2708.0,1.6471837499482103
325,2714.2500000000005,1.5402718991657272
326,2726.77,1.5185016460782579
327,2733.06,1.6005936922507673
328,2745.68,1.376765681550778
329,2752.0,1.4207854004395317
330,2764.71,1.4871234078882747
331,2777.4700000000003,1.5462015365307578
332,2783.87,1.4358530493294954
333,2796.72,1.182266396120711
334,2803.1699999999996,1.2550595301131888
335,2816.11,1.5195689950531366
336,2822.6,1.6332045260006063
337,2835.63,1.5855457090892864
338,2842.1600000000003,1.5234561369917483
339,2855.28,1.4259113382291606
340,2861.8700000000003,1.6386761115641106
341,2875.07,1.680563106711507
342,2881.7,1.6445667770014496
343,2884.0315,1.6480272554835977
344,2895.0,1.6648791832907621
345,2908.3700000000003,1.842445432831452
346,2928.5299999999997,1.7560661389451624
347,2948.83,1.71996028746244
348,2969.27,1.7681328783832855
349,2989.85,1.769042911707698
350,3010.57,1.801325387435678
351,3031.44,1.8058580514531948
352,3052.45,1.8138801578742791
353,3066.54,1.8373771112047443
354,3087.8,1.849306864775056
355,3109.2,1.872505060748935
356,3130.76,1.8404201908983198
357,3152.46,1.837702763451272
358,3167.01,1.865400027536316
359,3188.96,1.7514492472384955
360,3211.0699999999997,1.837807401116181
361,3233.32,1.7117619973974336
362,3248.2499999999995,1.8930996051493036
363,3270.7599999999998,1.9963545944657533
364,3293.44,1.9694512638436774
365,3308.64,1.9555250105167128
366,3311.31121,1.9559086305374656
367,3323.91,1.9581788464505219
368,3331.5699999999997,1.9896174005298723
369,3339.2500000000005,1.8601921779880202
370,3346.9500000000003,2.071183178824965
371,3354.67,1.9279054030407075
372,3362.3999999999996,1.8211497389458482
373,3370.15,1.8575982982297865
374,3377.9199999999996,1.9614490808925218
375,3385.71,1.9096210869340544
376,3393.51,2.021086204664986
377,3401.3300000000004,2.148833545774714
378,3409.17,1.9388981102632399
379,3417.0299999999997,1.910801898130563
380,3424.91,2.081606909376683
381,3432.81,2.155006144001601
382,3440.72,2.042000490315917
383,3448.6499999999996,1.8658380600090307
384,3456.6000000000004,1.9348288530809412
385,3464.57,1.8269898695316493
386,3472.56,2.0225861093611543
387,3480.56,1.8555464608800585
388,3488.58,1.9599960357777595
389,3496.63,1.9155949457436565
390,3504.6899999999996,2.0407359673989522
391,3512.77,1.978079212433045
392,3520.86,2.073237569156537
393,3528.98,1.821422260948224
394,3537.1200000000003,2.0548921761187087
395,3545.27,2.0970872029785923
396,3553.44,2.144758453217273
397,3561.63,2.0784369268347502
398,3569.84,1.8667946238310256
399,3575.27,1.5616732711744816
400,3577.95,1.7811562039333144
401,3580.62,1.2277160250027488
402,3583.29,1.7032138460721826
403,3585.97,1.8349217788310157
404,3588.6400000000003,1.6098465999004496
405,3591.31,1.883605420969884
406,3593.98,1.455131242039318
407,3596.66,1.4125831747981508
408,3599.33,2.112067995867585
409,3602.0,1.9703108169370194
410,3604.6800000000003,2.026522749695852
411,3607.35,1.8493075707652862
412,3610.02,1.6764603918347203
413,3612.69,1.4943442129041546
414,3615.37,1.8543771456629874
415,3618.04,1.7841409667324215
416,3620.7099999999996,1.9106697878018557
417,3623.3900000000003,1.8784677205606883
418,3626.06,1.7752105416301227
419,3628.73,2.233482362699557
420,3631.4,2.127334183768991
421,3634.08,1.7889531165278236
422,3636.7500000000005,2.176615937597258
423,3639.42,1.9841827586666922
424,3642.1,1.7812396914255249
425,3644.77,2.519210512494959
426,3647.44,1.8276413335643933
427,3650.12,2.127182266323226
428,3652.7900000000004,2.29875508739266
429,3655.46,2.2384109084620945
430,3658.13,1.8359757295315284
431,3660.81,1.6802836622903612
432,3663.48,1.9835634833597955
433,3666.15,2.2735293044292297
434,3668.83,2.3761532371880625
435,3671.4999999999995,1.9840670582574966
436,3674.17,2.0707258793269308
437,3676.84,2.4398227003963653
438,3679.52,1.9997886331551977
439,3682.19,1.829269454224632
440,3684.8599999999997,1.6821082752940661
441,3687.5400000000004,1.4456882080528988
442,3690.21,1.6282310291223332
443,3692.88,1.8018428501917672
444,3695.55,1.9735666712612014
445,3698.23,2.1506066040200342
446,3700.8999999999996,2.187656425089468
447,3703.5699999999997,2.4270992461589027
448,3706.25,2.2194371789177354
449,3708.92,1.9302209999871693
450,3711.59,2.0944888210566037
451,3714.2599999999998,2.2656056421260375
452,3716.94,1.8945075748848708
453,3719.6099999999997,2.336191395954305
454,3722.28,2.305979217023739
455,3724.96,3.2151351497825718
456,3727.63,3.945955970852006
457,3730.2999999999997,4.20898879192144
458,3732.97,4.267497612990874
459,3735.6499999999996,3.663411545749707
460,3738.32,3.319870366819141
461,3740.9900000000002,2.5342561878885754
462,3743.67,2.352159120647408
463,3746.34,2.1110309417168422
464,3749.0099999999998,2.0312077627862766
465,3751.6899999999996,2.1064426955451094
466,3754.36,2.0654245166145433
467,3757.03,2.314455337683978
468,3759.7000000000003,2.7276841587534117
469,3762.38,2.2348440915122447
470,3765.0499999999997,2.2712839125816786
471,3767.72,2.4414877336511127
472,3770.3999999999996,2.1616946664099457
473,3773.07,2.1161114874793796
474,3775.7400000000002,2.2004873085488144
475,3778.41,2.1328391296182483
476,3781.0899999999997,2.027897062377081
477,3783.7599999999998,2.668931883446515
478,3786.4300000000003,2.841113704515949
479,3789.11,2.686103637274782
480,3791.78,2.4431494583442164
481,3794.45,2.2079562794136507
482,3797.12,1.9913271004830848
483,3799.7999999999997,2.5415020332419176
484,3801.8939600000003,2.3945247230271045
485,3802.47,2.3541066952063954
486,3805.1400000000003,2.1343513052310534
487,3807.82,2.4080912845816465
488,3810.4900000000002,2.416448894606304
489,3813.16,2.284955504630962
490,3815.83,2.4923591146556197
491,3818.5099999999998,2.4186800940062128
492,3821.1800000000003,2.4614287040308707
493,3823.85,2.4647643140555284
494,3826.53,2.245605293406121
495,3829.2,2.086264903430779
496,3831.87,2.062968513455437
497,3834.54,1.840321123480095
498,3837.2200000000003,1.7502101028306878
499,3839.8900000000003,1.9786127128553457
500,3842.56,2.1154053228800036
501,3845.24,1.9832923022305966
502,3847.91,1.9091689122552544
503,3850.58,2.0613315222799122
504,3853.26,2.4406815016305052
505,3855.9300000000003,2.550083111655163
506,3858.6,2.632093721679821
507,3861.27,2.453578331704479
508,3863.95,2.5241623110550715
509,3866.62,2.688347921079729
510,3869.2900000000004,2.626703531104387
511,3871.9700000000003,2.3258265104549802
512,3874.64,2.4557721204796383
513,3877.31,2.5543697305042956
514,3879.98,2.2538083405289537
515,3882.66,2.634223319879547
516,3885.3300000000004,2.3885989299042047
517,3888.0,2.1143645399288626
518,3890.6800000000003,2.373495519279455
519,3893.35,2.534789129304113
520,3896.02,2.593059739328771
521,3898.69,2.7265063493534285
522,3901.37,2.786589328704022
523,3904.0399999999995,2.7419889387286798
524,3906.71,2.8681305487533377
525,3909.39,2.8113425281039306
526,3912.06,3.1226821381285883
527,3914.73,2.9485807481532462
528,3917.3999999999996,2.994222358177904
529,3920.0800000000004,2.9178023375284967
530,3922.75,2.7706359475531546
531,3925.42,2.5936425575778124
532,3928.1,2.6802055369284057
533,3930.77,2.2487741469530635
534,3933.44,2.296848756977721
535,3936.1099999999997,2.191681367002379
536,3938.79,2.071286346352972
537,3941.46,2.30668895637763
538,3944.13,2.6297465664022877
539,3946.81,2.75389554575288
540,3949.48,2.7765581557775385
541,3952.1499999999996,2.8713507658021964
542,3954.83,2.734822745152789
543,3957.5,2.902508355177447
544,3960.17,2.958040965202105
545,3962.84,2.4966295752267627
546,3965.52,2.1059695545773556
547,3968.1899999999996,2.1271091646020133
548,3970.86,1.9808537746266714
549,3973.54,2.0552447539772642
550,3976.21,2.1398403640019223
551,3978.88,2.21591597402658
552,3981.5499999999997,2.575342584051238
553,3984.2300000000005,2.6402965634018307
554,3986.9,2.5199131734264886
555,3989.57,2.6294667834511465
556,3992.25,2.7572687628017394
557,3994.92,2.981411372826397
558,3997.5899999999997,3.2085979828510554
559,4000.2599999999998,3.150911592875713
560,4002.94,3.012708572226306
561,4005.61,3.172938182250964
562,4008.28,3.3671027922756216
563,4010.96,3.3060517716262146
564,4013.63,3.381824381650872
565,4016.2999999999997,3.24150599167553
566,4018.9700000000003,3.131014601700188
567,4021.65,3.292445581050781
568,4024.32,3.289694191075439
569,4026.99,3.2965308011000967
570,4029.67,3.2640897804506896
571,4032.3399999999997,3.4237103904753474
572,4035.0099999999998,3.3894590005000054
573,4037.69,3.091622979850598
574,4040.36,3.216851589875256
575,4043.03,3.346341199899914
576,4045.7,3.058869809924572
577,4048.3799999999997,3.083342789275165
578,4051.0499999999997,3.3196593992998227
579,4053.7200000000003,3.2473640093244804
580,4056.4,3.113269988675073
581,4059.07,3.143236598699731
582,4061.74,3.1690942087243887
583,4064.41,3.231322818749047
584,4067.0899999999997,3.35638379809964
585,4069.76,3.287131408124298
586,4072.4300000000003,3.3580340181489556
587,4075.11,3.2563529974995484
588,4077.7799999999997,3.4569086075242064
589,4080.45,3.370157217548864
590,4083.12,3.392819827573522
591,4085.8,3.5247278069241146
592,4088.4700000000003,3.3442354169487727
593,4091.14,3.229179026973431
594,4093.82,3.2399550063240237
595,4096.49,3.2612486163486816
596,4099.16,3.141778226373339
597,4101.83,3.023829836397997
598,4104.51,2.98469381574859
599,4107.18,3.1605964257732477
600,4109.849999999999,3.1263450357979057
601,4112.53,3.2227980151484985
602,4115.2,3.3002426251731567
