,lambda (Angstroms),Total Flux (erg/s/cm^2/Angstrom)
0,101.98,0.005345662541529145
1,104.11,0.006369374725840513
2,104.712855,0.00665911651404718
3,106.05,0.006122899274692097
4,108.02000000000001,0.005332896723353087
5,110.03,0.004526853511120258
6,113.9,0.002974919565227625
7,117.9,0.0013708534714415366
8,120.22644299999999,0.00043791138952267294
9,120.92,0.0004250419767453251
10,124.88000000000001,0.00035156153424187455
11,126.91,0.0003138935300181916
12,128.09,0.0002919978429963084
13,131.07,0.0002367019562471928
14,131.98,0.00021981630182942133
15,134.12,0.00018010717631083284
16,136.93,0.00012796576079428433
17,138.038426,0.0001073981799858518
18,140.12,0.00010603404336204184
19,143.06,0.00010410742403786152
20,147.06,0.00010148631425073592
21,150.84,9.900927465507122e-05
22,155.06,9.62439459980847e-05
23,158.489319,9.399681998484792e-05
24,159.04000000000002,9.34423701710923e-05
25,162.0,9.046216795991478e-05
26,166.15,8.628394579160165e-05
27,170.02,8.238776436296752e-05
28,173.18,7.920646619530499e-05
29,176.80999999999997,7.555224675425285e-05
30,180.10000000000002,7.224030063152506e-05
31,181.970086,7.035784598607598e-05
32,182.18,7.042592732457888e-05
33,185.99999999999997,7.166514228490617e-05
34,191.20999999999998,7.335558716311434e-05
35,193.87,7.421921904231084e-05
36,197.93,7.553732949076866e-05
37,202.07,7.688193583426994e-05
38,204.88,7.779514614017303e-05
39,208.929613,7.911067666119665e-05
40,210.14000000000001,8.14934100234373e-05
41,216.03,9.309228250118577e-05
42,220.04,0.0001009895712175137
43,223.1,0.00010701582774259188
44,227.25,0.00011519060934647242
45,229.88000000000002,0.00012040127637835338
46,234.16,0.00012890027524924697
47,239.88329199999998,0.00014023561135276445
48,240.16,0.00013979062866859062
49,245.76000000000002,0.00013074407762687318
50,252.06,0.00012059881631744117
51,256.75,0.00011298353905375289
52,259.71999999999997,0.00010824822713644927
53,263.94,0.00010147001934822649
54,268.84999999999997,9.357064788325648e-05
55,273.85,8.552745839958017e-05
56,275.42287,8.29987087317676e-05
57,278.94,8.913190973409823e-05
58,284.12,9.816968923425452e-05
59,290.07,0.00010852604223173135
60,296.15,0.00011916277599369082
61,300.96000000000004,0.00012756052737955033
62,307.97,0.00013983923197203986
63,316.227766,0.0001543238303273129
64,318.06,0.0001520442745543716
65,327.72,0.00014003357186458405
66,337.68,0.00012765306251362308
67,347.94,0.00011491038050148855
68,356.87000000000006,0.00010385255428722324
69,363.078055,9.618732957866605e-05
70,366.02000000000004,9.919459549323076e-05
71,375.40999999999997,0.00010876176881933401
72,385.03999999999996,0.0001185213081921109
73,394.92,0.00012874942478017278
74,405.05,0.0001391675225835196
75,413.53000000000003,0.00014789484356598562
76,416.86938299999997,0.00015130239124619763
77,422.19,0.00015462604336624673
78,430.04,0.00015958264811772175
79,441.07,0.00016660569811756499
80,451.34000000000003,0.00017307508030962214
81,459.73,0.0001783977255561031
82,470.44,0.00018517765837372058
83,478.630092,0.0001904283530790543
84,480.29,0.00018921538204354153
85,490.35,0.0001817162807050889
86,499.46999999999997,0.00017514333164677005
87,506.42,0.000170086401596845
88,512.28,0.00016739524740367083
89,519.41,0.0001623704086618053
90,530.28,0.00015453961820962038
91,540.14,0.00014712779097332383
92,549.5408739999999,0.00014146490117474526
93,550.18,0.00014141542133447424
94,560.41,0.00014058094608441823
95,569.52,0.00013987582737200278
96,580.11,0.000137502240734848
97,589.53,0.00013767041610576419
98,600.49,0.0001359070649874246
99,610.25,0.00013515573515941417
100,620.16,0.00013677449892011262
101,630.24,0.00013649892008134773
102,630.957344,0.00013641659796803326
103,640.4799999999999,0.0001409874328264623
104,649.39,0.00014785223661998052
105,658.43,0.00015344544839252872
106,664.52,0.00015812615448708827
107,675.3199999999999,0.00016365085120650426
108,684.71,0.00016771253907644097
109,694.24,0.000181515639385333
110,705.52,0.00018500822018116745
111,715.33,0.00019884925536797033
112,724.43596,0.00020575913019468887
113,725.28,0.00020627539237033052
114,735.37,0.00021233916820433715
115,745.6,0.0002242268621371307
116,754.24,0.00023306457337655758
117,764.73,0.00024159492806424132
118,775.37,0.000254903763572054
119,784.34,0.00026708548461576453
120,795.26,0.00027720243632115124
121,804.46,0.00028755003995572614
122,815.66,0.0002975676878586869
123,825.1,0.000316152316805468
124,831.763771,0.0003024372984191386
125,834.65,0.0002947139194777681
126,844.3199999999999,0.0003284678588460282
127,854.1,0.0003337530107613935
128,865.9799999999999,0.00034635266584876997
129,876.01,0.00036143753718937473
130,884.11,0.0003819999065671313
131,894.35,0.0003963012382249372
132,904.7099999999999,0.0003986364472068581
133,915.1800000000001,0.0005525714687358842
134,925.78,0.0031676978323660347
135,934.34,0.007081776481486232
136,945.1600000000001,0.014008565970210593
137,953.9100000000001,0.020333520150093973
138,954.992586,0.02066388385048883
139,964.9499999999999,0.023706055087373588
140,973.88,0.003996454300514453
141,985.1600000000001,0.021578872201323967
142,994.28,0.023113441695595486
143,1005.79,0.03390230119987895
144,1015.1,0.03290499797528113
145,1024.49,0.013935959395369903
146,1033.97,0.02381010479073109
147,1045.94,0.04664854350196246
148,1055.6200000000001,0.04675520550904013
149,1065.3899999999999,0.037760991491390214
150,1075.24,0.04569192211842689
151,1085.19,0.036818486051321805
152,1095.23,0.04940324395948914
153,1096.4782,0.04926493640932609
154,1105.37,0.04827840744201797
155,1115.6000000000001,0.047179924108495884
156,1125.92,0.043232981918667146
157,1133.72,0.0554114477054245
158,1144.21,0.05100882989812765
159,1154.8,0.055026361139378976
160,1165.49,0.05774530142917846
161,1176.27,0.04099693286267131
162,1184.42,0.057344935319347264
163,1195.38,0.03978676904022682
164,1203.67,0.028975572164870206
165,1214.81,0.018561388173136472
166,1226.05,0.04005554322995091
167,1234.55,0.06228251235654546
168,1245.97,0.0697146897007466
169,1254.6,0.06750165159045377
170,1258.92541,0.06415804168201308
171,1266.21,0.0585285739138166
172,1274.99,0.07678144475891513
173,1283.83,0.0813297264981715
174,1295.7099999999998,0.06536116354142552
175,1304.69,0.0652111273670502
176,1313.7299999999998,0.08245608208683274
177,1325.89,0.07966357330282339
178,1335.08,0.07149845025800056
179,1344.33,0.08574717810733555
180,1353.65,0.0839900369998547
181,1366.1799999999998,0.07590037372981877
182,1375.6499999999999,0.08058131485773255
183,1385.18,0.08245693687980418
184,1394.78,0.07299188994505997
185,1404.4499999999998,0.07678388405349991
186,1414.1899999999998,0.078748499205124
187,1423.99,0.08151271525090595
188,1433.8600000000001,0.08170766233987205
189,1440.48,0.08674117099528802
190,1445.43977,0.08809310666999191
191,1447.13,0.08855382604967238
192,1453.8100000000002,0.08674172960060789
193,1463.8799999999999,0.08095779555239244
194,1474.03,0.08133306250478697
195,1484.25,0.08341539033271528
196,1494.54,0.08555430903617733
197,1504.9,0.08189506861517314
198,1511.8400000000001,0.07333431541809118
199,1515.33,0.07893016906970271
200,1525.83,0.07695918039976601
201,1536.41,0.06781452273043935
202,1543.4999999999998,0.07555655140950115
203,1554.2,0.0718276252410895
204,1564.97,0.07333439994821157
205,1575.82,0.07875056565594368
206,1586.74,0.08322332223920953
207,1594.07,0.08575078392010135
208,1605.12,0.08457699212935847
209,1616.24,0.08535549121414934
210,1623.6999999999998,0.08133473452103243
211,1634.96,0.0871394953568908
212,1646.29,0.08896639706828294
213,1653.89,0.08265407212623353
214,1659.58691,0.08681663264193717
215,1665.36,0.0910353106999621
216,1673.0400000000002,0.0817109921976455
217,1676.9,0.09209224477330408
218,1684.64,0.0966487417514381
219,1696.3200000000002,0.09124666861249826
220,1704.15,0.08815786381130827
221,1715.96,0.08438860254667817
222,1723.88,0.08458320596616417
223,1735.83,0.09062560748925225
224,1743.8400000000001,0.08897408912941422
225,1755.93,0.09555112344022049
226,1764.03,0.08775416330105842
227,1776.26,0.09083836039958289
228,1784.46,0.09295626939450526
229,1796.8300000000002,0.0995956392807479
230,1805.1200000000001,0.09936858649634624
231,1813.46,0.0925287082789868
232,1826.03,0.09490443643339828
233,1834.45,0.09168438552330636
234,1842.92,0.08478895918025665
235,1855.7,0.08576889651624542
236,1864.26,0.0887833983938717
237,1872.8700000000001,0.09622809483854018
238,1885.8500000000001,0.08939697044269779
239,1894.5500000000002,0.08637018510804224
240,1903.3,0.09169001434042892
241,1905.46072,0.09124777848155348
242,1916.4900000000002,0.08898810312200053
243,1925.3400000000001,0.0877639411286254
244,1934.22,0.09022184560306933
245,1943.1499999999999,0.09512308419054503
246,1956.6200000000001,0.08980959824130626
247,1965.6499999999999,0.09846050505484552
248,1974.73,0.10145201598141657
249,1983.8400000000001,0.09643722337580668
250,1993.0,0.09424855488322856
251,2006.81,0.09710882890260589
252,2016.0800000000002,0.09446084745869769
253,2025.3799999999999,0.09890446248260856
254,2034.7299999999998,0.0946750716195512
255,2044.1200000000001,0.09868023604691928
256,2053.56,0.09489427458731912
257,2063.04,0.0957676784181444
258,2072.56,0.1026136975393951
259,2077.34,0.09867620474523316
260,2086.93,0.10237570562472836
261,2096.56,0.09731980179464897
262,2106.2400000000002,0.09844308207760136
263,2115.96,0.09981024765097916
264,2125.7200000000003,0.10143433851478241
265,2135.54,0.09488448231422378
266,2145.39,0.09798754258148422
267,2155.3,0.10165905578438278
268,2165.24,0.09866621545510042
269,2175.24,0.0982060580614562
270,2185.28,0.0975315259582374
271,2187.7616199999998,0.09871992729439105
272,2195.37,0.1023650479931591
273,2205.5,0.09980385892375655
274,2215.68,0.09531916454798973
275,2225.9100000000003,0.09293761486585864
276,2236.1800000000003,0.09980617893863612
277,2246.5,0.09575972770504933
278,2256.87,0.09229488116509826
279,2267.29,0.09444846931878291
280,2272.52,0.09731680027307953
281,2283.01,0.1002688749978542
282,2293.54,0.09508355347753744
283,2304.13,0.09593080758958356
284,2314.77,0.09200841639526539
285,2325.45,0.07392113895585581
286,2336.18,0.08621276621008195
287,2346.97,0.08325552909667094
288,2352.38,0.09063733694805616
289,2363.23,0.08341026546700803
290,2374.14,0.08650809961832277
291,2385.1,0.08015520846327323
292,2396.11,0.08565628200185942
293,2407.17,0.08253231023408132
294,2412.72,0.08462976122764657
295,2423.86,0.09043560696968563
296,2435.04,0.08713871646663328
297,2446.28,0.09226479159594378
298,2457.58,0.09117453235761716
299,2463.24,0.090745083677181
300,2474.6099999999997,0.08763560100994439
301,2486.0299999999997,0.0896437730363435
302,2497.51,0.08518640069510547
303,2503.2700000000004,0.09467906140194075
304,2511.88643,0.08712726722005523
305,2514.8199999999997,0.08455578366946023
306,2520.62,0.0863051929484307
307,2526.4300000000003,0.08317307186408904
308,2532.25,0.08450652041643526
309,2543.94,0.0837007857045671
310,2555.6800000000003,0.09006116917613834
311,2567.4799999999996,0.08777563046783686
312,2573.4,0.09316361538706189
313,2585.2799999999997,0.09227446377226345
314,2597.2099999999996,0.09118393034090441
315,2603.2,0.08807254271694459
316,2615.21,0.0870312563790886
317,2627.28,0.09130135786135989
318,2633.34,0.09492553769421523
319,2645.49,0.10332030626998956
320,2657.7099999999996,0.10616686230257905
321,2663.83,0.09636906995556166
322,2676.13,0.1008682930816542
323,2682.3,0.10154806891807622
324,2694.68,0.09649240913767179
325,2707.12,0.09960963717739464
326,2713.36,0.09445733047063182
327,2725.88,0.0939845656038577
328,2732.1600000000003,0.0990744874438464
329,2744.78,0.0862623189439511
330,2757.4500000000003,0.0886364986274952
331,2763.8,0.09258061792429907
332,2776.56,0.09689904433803408
333,2782.96,0.09104530181827734
334,2795.7999999999997,0.0739839553255154
335,2802.25,0.07925377098919807
336,2815.18,0.09632876122662704
337,2828.1800000000003,0.10175806892087118
338,2834.7,0.098508292041369
339,2847.7799999999997,0.09556388682911618
340,2854.35,0.09145928813305342
341,2867.52,0.10162493965099151
342,2874.1299999999997,0.10254149950168025
343,2884.0315,0.10215739135446958
344,2887.4,0.10202683726361592
345,2894.06,0.10223523231172982
346,2907.4100000000003,0.11127642238565184
347,2927.5699999999997,0.1071791073961588
348,2947.86,0.10563779231000732
349,2968.29,0.10777657711976214
350,2988.8700000000003,0.10845026181798799
351,3009.5899999999997,0.11013694641212014
352,3030.4500000000003,0.11056743090215859
353,3051.45,0.11099861528810334
354,3072.61,0.11194979955508386
355,3086.79,0.11292878901187892
356,3108.18,0.11363057310784835
357,3129.73,0.11225535708485357
358,3151.4199999999996,0.11295014095776507
359,3173.2700000000004,0.11390792471171234
360,3187.92,0.10848441381904998
361,3210.0099999999998,0.1127273973945509
362,3232.27,0.10758138084365233
363,3247.1800000000003,0.11547756975767311
364,3269.69,0.12026885302089294
365,3292.3599999999997,0.11962233616514852
366,3307.55,0.11928992487098189
367,3311.31121,0.1193428056230148
368,3322.82,0.11950445849583184
369,3330.48,0.12225454962148391
370,3338.16,0.11672674046286874
371,3345.8500000000004,0.12079623116211997
372,3353.57,0.11559412143497036
373,3361.2999999999997,0.11771221156568713
374,3369.05,0.11687160141213666
375,3376.81,0.11005989111645259
376,3384.6,0.1131077803943677
377,3392.3999999999996,0.12200316953014917
378,3400.22,0.12741895838166342
379,3408.06,0.11834354694891044
380,3415.91,0.12023253537402386
381,3423.79,0.12732172337273642
382,3431.68,0.12641231122931537
383,3439.59,0.12550909880162708
384,3447.52,0.1131282860896716
385,3455.47,0.11924537309344888
386,3463.4300000000003,0.11255155995509254
387,3471.42,0.12084214639033536
388,3479.4199999999996,0.11171793268344457
389,3487.44,0.11803011869228655
390,3495.4800000000005,0.11718240441686131
391,3503.54,0.12295298985716882
392,3511.62,0.12067477501320914
393,3519.7099999999996,0.12120266002711581
394,3527.8199999999997,0.11465464475675527
395,3535.96,0.1222507290599939
396,3544.1099999999997,0.1270976132210989
397,3552.2799999999997,0.12852819709793667
398,3560.47,0.12644438069050723
399,3568.6800000000003,0.11770206399881056
400,3576.9,0.11420244716498026
401,3585.1499999999996,0.10878622990474912
402,3593.4100000000003,0.11440391250238438
403,3601.7,0.12684679467361878
404,3609.33,0.049753506225671706
405,3612.07,0.08502347728106162
406,3614.8,0.08940525847858513
407,3617.5299999999997,0.12190306967610866
408,3620.27,0.10553583073149854
409,3623.0,0.12724279192902208
410,3625.7400000000002,0.12828395298441198
411,3628.47,0.1283536141819355
412,3631.2100000000005,0.1080700752373254
413,3633.94,0.1167640364348489
414,3636.67,0.14385949763237244
415,3639.4100000000003,0.13856085868776233
416,3642.14,0.13995681988528583
417,3644.8799999999997,0.13706078094067572
418,3647.61,0.12517304213819927
419,3650.35,0.11422900319358917
420,3653.0800000000004,0.1443033643911127
421,3655.81,0.1552681255886362
422,3658.5499999999997,0.1380674866440261
423,3661.28,0.13848444784154962
424,3664.02,0.12871390889693954
425,3666.7499999999995,0.09399451009446304
426,3669.48,0.13372093129198656
427,3672.22,0.14487939234737646
428,3674.9500000000003,0.12192305354489998
429,3677.69,0.1369145146002899
430,3680.4199999999996,0.1262072757978134
431,3683.16,0.1322133368532033
432,3685.89,0.14610139805072683
433,3688.6200000000003,0.12881825924825033
434,3691.36,0.13457432030364025
435,3694.0899999999997,0.12386008150116376
436,3696.83,0.13083834255655366
437,3699.56,0.10722230375407718
438,3702.3,0.13237966480946706
439,3705.03,0.12747062600699058
440,3707.7599999999998,0.13671318720451411
441,3710.5,0.13275474825990402
442,3713.23,0.12790120945742753
443,3715.9700000000003,0.12455377051281744
444,3718.7,0.13005363171034096
445,3721.4399999999996,0.18053539276573086
446,3724.17,0.26820975396325436
447,3726.9,0.34273271516077786
448,3729.6400000000003,0.3177126762161678
449,3732.37,0.2816743374136913
450,3735.1099999999997,0.1591896984690812
451,3737.84,0.13452525966660472
452,3740.58,0.14317692072199464
453,3743.3100000000004,0.14883648191951815
454,3746.04,0.12990064311704166
455,3748.7799999999997,0.12929610417243156
456,3751.51,0.1429411653699551
457,3754.25,0.138378526425345
458,3756.9799999999996,0.13438608762286852
459,3759.72,0.15857124867825842
460,3762.45,0.15266230987578194
461,3765.1800000000003,0.13721237107330547
462,3767.92,0.14757913212869533
463,3770.6499999999996,0.15862729332621886
464,3773.39,0.15662685438160878
465,3776.12,0.1698415155791323
466,3778.86,0.1819093766345222
467,3781.59,0.1850623378320457
468,3784.3199999999997,0.18768749902956924
469,3787.06,0.18765216008495914
470,3789.79,0.17704922128248266
471,3792.53,0.16207058233787255
472,3795.2599999999998,0.1433709435353961
473,3798.0000000000005,0.13975270459078595
474,3800.73,0.16028616578830948
475,3801.8939600000003,0.15794147333683248
476,3803.46,0.1547868316236966
477,3806.2000000000003,0.17170180079365982
478,3808.93,0.21160887007614138
479,3811.6699999999996,0.20294223924610455
480,3814.4,0.1988943085285861
481,3817.13,0.17582697781106765
482,3819.8700000000003,0.17388204698103085
483,3822.6,0.17816691626351241
484,3825.3399999999997,0.17441658543347557
485,3828.07,0.16118875471595714
486,3830.81,0.1408495238859203
487,3833.5399999999995,0.13814169316840189
488,3836.27,0.12687886245088345
489,3839.0099999999998,0.1448285316208466
490,3841.7400000000002,0.17223650090332818
491,3844.48,0.18758897007329134
492,3847.2099999999996,0.18006213935577292
493,3849.95,0.19187310852573608
494,3852.68,0.18925567780821764
495,3855.4100000000003,0.18293014709069919
496,3858.15,0.19099841626066236
497,3860.8799999999997,0.18610328554314395
498,3863.62,0.19983085471310713
499,3866.35,0.20682382399558868
500,3869.09,0.22203719316555184
501,3871.82,0.1946577624480334
502,3874.5499999999997,0.17299313173051498
503,3877.29,0.17184680090047816
504,3880.02,0.1612715701829597
505,3882.76,0.18376243935292289
506,3885.49,0.17206920863540445
507,3888.2299999999996,0.16537477780536763
508,3890.96,0.18738034708784918
509,3893.69,0.18647111637033073
510,3896.4300000000003,0.18512338554029392
511,3899.16,0.1881304548227755
512,3901.8999999999996,0.20226072399273867
513,3904.63,0.1937131932752202
514,3907.37,0.20607276244518338
515,3910.1000000000004,0.21095473172766493
516,3912.83,0.19889350101014652
517,3915.5699999999997,0.1916295701801097
518,3918.3,0.20524003946259126
519,3921.04,0.19937880863255442
520,3923.77,0.20235117791503598
521,3926.5099999999998,0.1818452470849992
522,3929.24,0.14903551636748072
523,3931.9700000000003,0.14541108564996227
524,3934.71,0.13304355481992547
525,3937.44,0.15534772410240702
526,3940.18,0.1815604932723702
527,3942.91,0.18401896255485176
528,3945.65,0.17738003172481492
529,3948.38,0.19929540100729648
530,3951.1099999999997,0.19954577028977805
531,3953.85,0.18505323945974125
532,3956.58,0.1870812087422228
533,3959.32,0.18654597791218597
534,3962.0499999999997,0.1682768471946675
535,3964.7799999999997,0.1430776164771491
536,3967.52,0.14199398564711227
537,3970.25,0.15113245492959385
538,3972.9900000000002,0.149694624099557
539,3975.72,0.18067179338203856
540,3978.4599999999996,0.20806496255200174
541,3981.19,0.1925804318344833
542,3983.92,0.20824630111696488
543,3986.6600000000003,0.20897477028692804
544,3989.39,0.2227936395694096
545,3992.1299999999997,0.23102840873937275
546,3994.86,0.21273167802185433
547,3997.6,0.22240384719181752
548,4000.3300000000004,0.23061201647429908
549,4003.06,0.22337688575678064
550,4005.7999999999997,0.23184785492674378
551,4008.53,0.23988932420922537
552,4011.27,0.23764569337918856
553,4014.0,0.2468816626616701
554,4016.74,0.25083203183163333
555,4019.47,0.24870070111411482
556,4022.2000000000003,0.2556382703965964
557,4024.94,0.23518763956655958
558,4027.67,0.23063980884904114
559,4030.41,0.2363122780190043
560,4033.14,0.21768914730148586
561,4035.88,0.23334701647144906
562,4038.61,0.2454020857539306
563,4041.34,0.25058275503641214
