,lambda (Angstroms),Total Flux (erg/s/cm^2/Angstrom)
0,102.07000000000001,0.0020443024860493774
1,103.97,0.0023907196796433814
2,104.712855,0.002526162404955171
3,105.9,0.002345582497246319
4,108.12,0.002007896103797743
5,109.87,0.0017417350592400817
6,114.0,0.001113545491828002
7,118.0,0.0005051446674819195
8,120.22644299999999,0.00016708819570391883
9,121.02999999999999,0.0001616612502277265
10,125.0,0.0001340444677289361
11,127.03,0.00011990658770562515
12,127.91,0.00011382015701571699
13,130.89,9.308046154307345e-05
14,132.1,8.492817084444964e-05
15,133.94,7.215911431100523e-05
16,137.06,5.0907868319512544e-05
17,138.038426,4.414852339029444e-05
18,139.93,4.392523091572134e-05
19,142.86,4.917794137598219e-05
20,146.85999999999999,6.20393460998878e-05
21,150.97,6.34059949537008e-05
22,154.84,6.533602752407948e-05
23,158.489319,6.719364956137918e-05
24,159.18,6.745311453656516e-05
25,162.14,6.877216545501114e-05
26,165.92,7.126869433059417e-05
27,170.17999999999998,7.31571395713306e-05
28,172.94,7.510778367096263e-05
29,176.97,7.734324107006306e-05
30,179.84,7.925730892004276e-05
31,181.93,8.06432101766482e-05
32,181.970086,8.066703001908775e-05
33,186.16,8.527216852297088e-05
34,190.94,9.146425969808352e-05
35,194.04000000000002,9.576985104595993e-05
36,198.10999999999999,0.00010076921146075248
37,201.79,0.00010620081441565092
38,205.07000000000002,0.00011041767074501693
39,208.929613,0.0001131973219598373
40,209.84,0.00011442062717416729
41,216.22,0.00013070651195288752
42,220.23999999999998,0.00013958516073195575
43,222.79,0.00014456070174852887
44,226.93,0.00015408209422249468
45,230.09,0.00021598906818813042
46,233.83,0.00033626768167910434
47,239.83,0.00041109176642398226
48,239.88329199999998,0.00041101934867788636
49,245.98,0.00039443491904086575
50,252.29000000000002,0.0004160870400825427
51,256.97999999999996,0.00035950658884410607
52,259.95,0.000406326154690981
53,264.18,0.0004244656545334998
54,269.09,0.00042414062669112796
55,274.09,0.00042284775841987363
56,275.42287,0.00042249651904434403
57,279.19,0.00042629324805937817
58,283.72,0.0004311006234335595
59,290.33,0.00042029328683827
60,295.72999999999996,0.0004326847038406054
61,301.23,0.00043183666930594704
62,308.25,0.00044266429140898305
63,316.227766,0.00045583134506851035
64,318.34000000000003,0.000456915189755874
65,328.02,0.00045224319440923097
66,337.98,0.00044381855911454455
67,348.25,0.0004343403581630957
68,357.19,0.0004282120969648531
69,363.078055,0.00042481383447913327
70,366.35,0.00042572671031450006
71,374.88,0.00042447202703370206
72,385.39,0.0004119527163325078
73,395.27,0.0004216457734468942
74,405.41,0.0004228801057485013
75,413.90000000000003,0.0004192810109004386
76,416.86938299999997,0.0004175056386696011
77,421.6,0.0004139670773484831
78,430.41999999999996,0.00040944736948118036
79,441.46999999999997,0.00040711928887645303
80,450.71,0.00040133455206308827
81,460.15,0.0003957573490849321
82,469.78,0.000391153128250224
83,478.630092,0.000389159307475596
84,479.62,0.0003884211451484823
85,489.66,0.00037533573101478893
86,499.92,0.0003701662661729867
87,505.7,0.0003670669339326732
88,511.56,0.00041300368325304735
89,519.87,0.0004089427178694825
90,529.54,0.00040205823901760845
91,539.38,0.0003850476709821958
92,549.41,0.00040840730915341647
93,549.5408739999999,0.00040864186838989635
94,559.62,0.00042871335955130567
95,570.03,0.0004447507539864612
96,580.63,0.00042933339116346886
97,590.0600000000001,0.00046255055461433503
98,599.65,0.00046065654353202396
99,609.39,0.00047041811882485925
100,619.29,0.0005271839195845173
101,629.36,0.0005444115849026745
102,630.957344,0.0005449890594084268
103,639.58,0.0005500517418719548
104,649.98,0.0005914918989355255
105,657.5,0.0006117365248122612
106,665.12,0.0006407949031607621
107,674.37,0.0006489236067990341
108,685.3299999999999,0.0006393211977044894
109,694.86,0.0007651477682637037
110,704.53,0.0007326065722833892
111,715.9699999999999,0.000853436535053317
112,724.43596,0.0008800795454299538
113,725.9300000000001,0.0008846979902013506
114,734.34,0.0009164970696072294
115,744.56,0.0010026730379221025
116,754.9100000000001,0.0010596982866558533
117,765.41,0.0010909820897190788
118,774.28,0.00119931476906868
119,785.0500000000001,0.00126504846992496
120,794.14,0.0013314013622911238
121,805.1899999999999,0.0013983936978957565
122,814.51,0.0014525315402337815
123,825.84,0.001580739510586767
124,831.763771,0.001433610345073456
125,835.4,0.0013424448706171278
126,845.08,0.0016765596848494133
127,854.86,0.001727947433113024
128,864.76,0.001858276902214225
129,874.78,0.0019811590921530167
130,884.91,0.0021364786095262656
131,895.15,0.0022482214543339727
132,905.52,0.002271941413382403
133,916.0,0.00320182669986529
134,924.48,0.019496610305721675
135,935.1800000000001,0.042793731247073474
136,946.01,0.082252151302666
137,954.7700000000001,0.1167017039238101
138,954.992586,0.11701284741991876
139,965.82,0.132149493215392
140,974.7599999999999,0.021864526195946688
141,986.05,0.11273797950136755
142,995.17,0.11859924791106094
143,1004.38,0.17219851403532366
144,1016.01,0.16444741870689536
145,1025.4099999999999,0.06985438000636005
146,1034.9,0.11430633902039405
147,1044.47,0.21928279600293415
148,1054.1399999999999,0.21478645044610684
149,1063.8899999999999,0.16944040285778564
150,1076.21,0.2013768900077223
151,1086.17,0.15886793708672955
152,1096.22,0.21038118188030613
153,1096.4782,0.21007532383418584
154,1103.82,0.20137799181499844
155,1114.03,0.19275998034867828
156,1124.3400000000001,0.17298676093459786
157,1134.74,0.2192791343675332
158,1145.24,0.19861149985270837
159,1155.8400000000001,0.21037665739012326
160,1163.8500000000001,0.2167672207745283
161,1174.62,0.1499733648007508
162,1185.49,0.20892520087921304
163,1193.71,0.14388604757332157
164,1204.75,0.10376507014059146
165,1215.9,0.06856780396532505
166,1224.33,0.13996181396913707
167,1235.6499999999999,0.21134021428267827
168,1244.22,0.232259233159626
169,1255.7299999999998,0.22130061837242274
170,1258.92541,0.21001403687950523
171,1264.44,0.19053629558392204
172,1276.14,0.24488796172624427
173,1284.98,0.2558440117004433
174,1293.89,0.20229356207036558
175,1305.8600000000001,0.1995198297390491
176,1314.9099999999999,0.24830148090041798
177,1324.03,0.2371238324575102
178,1336.28,0.2103702017090869
179,1345.54,0.24886935405762567
180,1354.87,0.24041760680188778
181,1364.26,0.21477525988534124
182,1373.72,0.22489021336451803
183,1386.4299999999998,0.2269751852165621
184,1396.04,0.19587863954371737
185,1405.71,0.202296294210064
186,1415.46,0.20892154932866586
187,1425.27,0.21378460478645914
188,1435.15,0.21231446063997567
189,1441.77,0.22334799806409303
190,1445.43977,0.225057437349189
191,1448.43,0.22645033299763737
192,1455.1100000000001,0.21977926469199477
193,1465.2,0.20276131256565744
194,1475.36,0.20229436077144658
195,1485.58,0.20558220926191562
196,1495.8799999999999,0.20844315813195777
197,1506.25,0.19723610733412641
198,1513.2,0.17579254030954322
199,1516.69,0.18749395686842157
200,1523.69,0.1819697900810716
201,1534.25,0.15848834018472646
202,1544.8899999999999,0.17139659066795448
203,1555.6000000000001,0.16217914148330898
204,1566.3799999999999,0.16633739263079
205,1573.61,0.1770090269347128
206,1584.52,0.18492197869900015
207,1595.5,0.18836133079541403
208,1606.56,0.18407488327140106
209,1613.9800000000002,0.18407361847681006
210,1625.1599999999999,0.1745809715221568
211,1636.43,0.1853486249945233
212,1643.9799999999998,0.18749506081673867
213,1655.3799999999999,0.17377791490591155
214,1659.58691,0.17928498911807458
215,1666.85,0.18879298652796123
216,1670.69,0.1690441195816379
217,1678.4099999999999,0.18966298707496698
218,1686.1499999999999,0.196783655261284
219,1693.9399999999998,0.18492332518007076
220,1705.68,0.17742033196396761
221,1713.5500000000002,0.168267304654706
222,1725.43,0.16711261628951815
223,1733.3899999999999,0.17742239209870203
224,1745.41,0.1729798085844295
225,1753.46,0.18323198751205894
226,1765.62,0.1686608088487017
227,1773.77,0.17219109124127063
228,1786.06,0.17498901708233472
229,1794.3100000000002,0.18535420293984317
230,1806.75,0.18365303397831648
231,1815.08,0.16982952260777653
232,1823.46,0.17298281296970633
233,1836.1,0.16634595093805865
234,1844.5800000000002,0.15311844476492795
235,1853.09,0.15382383963127905
236,1865.94,0.15776748487600434
237,1874.5500000000002,0.16943768320729494
238,1883.1999999999998,0.15632138292456138
239,1896.26,0.1496305354456596
240,1905.01,0.15849733862786552
241,1905.46072,0.15818560368121823
242,1913.8,0.15241718178397867
243,1927.07,0.14894368909992262
244,1935.9599999999998,0.15347209204180218
245,1944.8999999999999,0.15959669275050897
246,1953.88,0.14894239167267753
247,1967.42,0.16218558692948848
248,1976.5,0.1663447813853115
249,1985.62,0.1574034740545963
250,1994.79,0.15276496449070825
251,2004.0,0.15703775314028204
252,2013.25,0.1520604400033176
253,2027.2,0.1581280169481117
254,2036.56,0.14997249889816716
255,2045.96,0.15488547906168437
256,2055.4,0.14622225743866335
257,2064.89,0.14757643358246952
258,2074.42,0.15848950793973748
259,2079.2,0.15100919444841965
260,2084.0,0.1559559800638327
261,2093.62,0.14791555040138965
262,2103.2799999999997,0.1489365189524084
263,2112.99,0.15031358527025437
264,2122.74,0.1520554498015621
265,2137.46,0.14223189235549544
266,2147.32,0.14487915197382306
267,2157.23,0.14962020935897788
268,2167.19,0.14487876451095993
269,2177.19,0.14388061787640377
270,2187.2400000000002,0.14125596900867485
271,2187.7616199999998,0.1415645639919169
272,2197.34,0.1472319867958932
273,2207.48,0.14321794787966105
274,2212.57,0.13677472913374175
275,2222.78,0.13304909271019838
276,2233.04,0.14028245806714693
277,2243.35,0.13490132520458742
278,2253.7,0.12972209376642152
279,2264.11,0.13213336446484591
280,2274.56,0.1349022365876639
281,2285.06,0.1374058104909738
282,2295.6,0.1300473858186773
283,2306.2,0.13038676328297114
284,2316.85,0.1254208425277569
285,2327.54,0.10221772319693626
286,2332.9,0.1176417140656735
287,2343.67,0.11420999758363998
288,2354.49,0.12156998288209839
289,2365.36,0.11323546996104877
290,2376.28,0.11564075882049109
291,2387.25,0.10820604946042536
292,2392.75,0.1141071453145401
293,2403.79,0.1100128384471631
294,2414.89,0.11209513371637644
295,2426.04,0.11741313076608174
296,2437.23,0.11320352924018061
297,2442.85,0.11855652936747602
298,2454.13,0.11669923104646039
299,2465.46,0.11566673450593672
300,2476.83,0.11177513938980661
301,2482.54,0.11360984272198754
302,2494.0,0.10533275081074293
303,2505.52,0.11740486103608869
304,2511.29,0.10635966650485995
305,2511.88643,0.10664252329648602
306,2517.08,0.10910531616613886
307,2522.88,0.10517743623085642
308,2534.5299999999997,0.10618037567119425
309,2546.23,0.10451931442243484
310,2552.1,0.11073053352241621
311,2563.88,0.10799667117110118
312,2575.71,0.11285900813068887
313,2587.6,0.11160744426335986
314,2593.56,0.11009626212296617
315,2605.54,0.10663459701526207
316,2617.56,0.10521073135628017
317,2623.6,0.10892444811333087
318,2635.71,0.1117563812139739
319,2647.87,0.11923731362551965
320,2653.98,0.12147522941783419
321,2666.23,0.11133506058900487
322,2672.37,0.11526877596786105
323,2684.71,0.11530890589865665
324,2697.1,0.11015803514035502
325,2703.32,0.11248234941665557
326,2715.7999999999997,0.10745837741797885
327,2722.06,0.10673719114300158
328,2734.62,0.11078031804176924
329,2747.2400000000002,0.0987719941136202
330,2753.58,0.10062265673608732
331,2766.29,0.1037138815675632
332,2772.6600000000003,0.10737709377657195
333,2785.46,0.10211071736767276
334,2791.88,0.08593733888758426
335,2804.77,0.09085123123830999
336,2817.71,0.10555397289993845
337,2824.2099999999996,0.10953358331729433
338,2837.25,0.1056052036007283
339,2843.79,0.10298641346680636
340,2856.91,0.09929520264768468
341,2863.5,0.10739884182466547
342,2876.72,0.10768675962734928
343,2883.35,0.10696556825305228
344,2884.0315,0.10695494466456343
345,2896.66,0.10675825529878039
346,2910.03,0.11391005152776366
347,2930.2,0.10959584583880275
348,2950.51,0.10740994011035476
349,2970.9600000000005,0.10871353434241968
350,2991.55,0.1082816285349975
351,3012.2900000000004,0.10859232268526775
352,3033.17,0.10840191679605089
353,3047.17,0.10794641284734229
354,3068.29,0.1082584068904333
355,3089.56,0.10807360089121669
356,3110.98,0.10813669484969253
357,3132.54,0.10597988876868125
358,3147.0,0.10602598469022935
359,3168.82,0.10608907853588492
360,3190.7799999999997,0.10114037234205342
361,3212.9,0.10379896610309382
362,3227.7299999999996,0.09916780192028318
363,3250.1000000000004,0.10462435561081092
364,3272.63,0.10737564925621056
365,3287.7400000000002,0.10643524499442576
366,3310.5299999999997,0.10528163856649222
367,3311.31121,0.10532113853240802
368,3325.81,0.10605416017271725
369,3333.4700000000003,0.10755461887213243
370,3341.1600000000003,0.10249567740979598
371,3348.86,0.1095961358935423
372,3356.58,0.10517159426945422
373,3364.32,0.0959372825375317
374,3372.0699999999997,0.09617963075169197
375,3379.85,0.1049924688041006
376,3387.64,0.10550012680259202
377,3395.45,0.10312388469324901
378,3403.27,0.10701724252998879
379,3411.1200000000003,0.10081680020497694
380,3418.98,0.10247805782604785
381,3426.86,0.10416811533928437
382,3434.77,0.10809557269076923
383,3442.6800000000003,0.10067233004225411
384,3450.62,0.10280068723198735
385,3458.57,0.10141644436780335
386,3466.5499999999997,0.10004310134186772
387,3474.54,0.1038211582620149
388,3482.5499999999997,0.10008931507432764
389,3490.58,0.10410377177880596
390,3498.62,0.09785139842936706
391,3506.69,0.10319828491817654
392,3514.77,0.0985781613530688
393,3522.8700000000003,0.10348089768012661
394,3530.99,0.09816861389935003
395,3539.14,0.10376290995682179
396,3547.29,0.10620326601429356
397,3555.47,0.10453052191001368
398,3563.67,0.10311677769789938
399,3571.88,0.09737251343186788
400,3580.12,0.09605683900408474
401,3588.3700000000003,0.08843792452238437
402,3596.64,0.0969916999328496
403,3604.9300000000003,0.10135215523548037
404,3613.24,0.09526696043027674
405,3617.0299999999997,0.1020558899956532
406,3619.77,0.10735637522233694
407,3622.5099999999998,0.10420686044902071
408,3625.2400000000002,0.08974133572962167
409,3627.98,0.09816230095630543
410,3630.7200000000003,0.1259518161829892
411,3633.45,0.09943139146359017
412,3636.19,0.10183068669027392
413,3638.9300000000003,0.0828829119169577
414,3641.66,0.08767057719755866
415,3644.3999999999996,0.09268848242424242
416,3647.14,0.09734299765092619
417,3649.87,0.11615831293152716
418,3652.61,0.12091659815821092
419,3655.35,0.10326658338489468
420,3658.0800000000004,0.09798352866549564
421,3660.82,0.1096575538921794
422,3663.56,0.10487583911886315
423,3666.29,0.10540102439946414
424,3669.0299999999997,0.1069178096261479
425,3671.77,0.10492769485283165
426,3674.5,0.09482841013343263
427,3677.24,0.10049806536011638
428,3679.98,0.10618505058680014
429,3682.71,0.10261503586740113
430,3685.4500000000003,0.08665506109408487
431,3688.19,0.09697943632076864
432,3690.9199999999996,0.0879126016013696
433,3693.6600000000003,0.09125781682805337
434,3696.4,0.09857710205473713
435,3699.13,0.0897698373353381
436,3701.87,0.09367452256202186
437,3704.6099999999997,0.10307601778870562
438,3707.34,0.10169780306930659
439,3710.08,0.10696948829599036
440,3712.82,0.10350857352267412
441,3715.55,0.09985784880327508
442,3718.2900000000004,0.10872874402995884
443,3721.03,0.1336689292566426
444,3723.7599999999998,0.21442031453724356
445,3726.5,0.27755549976392735
446,3729.24,0.2875968849906111
447,3731.9799999999996,0.22715457021729485
448,3734.71,0.15546605549789583
449,3737.45,0.12254834072457958
450,3740.19,0.11573622595126334
451,3742.92,0.09454530123186432
452,3745.6600000000003,0.09691573645854808
453,3748.4,0.09509866168523184
454,3751.1299999999997,0.1054293669658328
455,3753.8700000000003,0.09770589219251657
456,3756.61,0.11610523741920033
457,3759.3399999999997,0.0998228526998013
458,3762.08,0.09535254792648507
459,3764.8199999999997,0.09987440315316883
460,3767.55,0.11434647843376979
461,3770.29,0.10526756366045355
462,3773.03,0.10221034888713731
463,3775.76,0.12065653416773829
464,3778.5,0.12483801939442205
465,3781.2400000000002,0.10665160462110582
466,3783.97,0.10018038990170677
467,3786.7099999999996,0.11694747512839054
468,3789.45,0.12458976035507428
469,3792.18,0.11688994563567527
470,3794.92,0.11327333086235904
471,3797.66,0.10569981608904279
472,3800.3900000000003,0.11698800136964377
473,3801.8939600000003,0.11662062084173253
474,3803.13,0.1163186879849311
475,3805.87,0.13252627628981123
476,3808.6,0.11130656463737428
477,3811.3399999999997,0.1288754529422544
478,3814.0800000000004,0.11816424124713451
479,3816.81,0.12147542959469755
480,3819.5499999999997,0.13526041789957768
481,3822.29,0.1014949062044578
482,3825.02,0.11011829455202084
483,3827.76,0.09031691285690097
484,3830.5,0.09911279116178108
485,3833.2300000000005,0.08803294950934412
486,3835.9700000000003,0.08957859781422424
487,3838.71,0.08510829611910438
488,3841.44,0.10099922446666741
489,3844.18,0.11769711277154753
490,3846.9199999999996,0.12772150107642763
491,3849.65,0.12101388942399069
492,3852.39,0.11098897772887083
493,3855.13,0.12581226603375092
494,3857.86,0.12195975438131397
495,3860.6000000000004,0.1295847426861941
496,3863.34,0.11705083099107422
497,3866.0699999999997,0.13501251933863728
498,3868.81,0.12145770764351739
499,3871.55,0.1304553959483975
500,3874.2799999999997,0.13243428429596055
501,3877.02,0.11436887260084067
502,3879.7599999999998,0.1188273609057208
503,3882.4900000000002,0.10525574925328383
504,3885.23,0.09464263755816396
505,3887.9700000000003,0.11531462586304407
506,3890.7000000000003,0.11744341421060711
507,3893.44,0.11533210251548724
508,3896.1800000000003,0.11571259082036736
509,3898.91,0.11237907916793041
510,3901.6499999999996,0.12989606747281052
511,3904.39,0.12659655577769066
512,3907.12,0.11241944412525369
513,3909.86,0.1160415324301338
514,3912.6,0.1284134207350139
515,3915.34,0.12040740903989405
516,3918.07,0.1243068973874571
517,3920.81,0.1322259856923372
518,3923.55,0.11948447399721734
519,3926.2799999999997,0.10917186234478038
520,3929.0199999999995,0.1069798506496605
521,3931.76,0.09528816895454062
522,3934.49,0.08971090730210367
523,3937.23,0.1014657156069838
524,3939.97,0.1107807039118639
525,3942.7000000000003,0.11515319225942694
526,3945.44,0.11763318056430708
527,3948.18,0.1153834688691872
528,3950.9100000000003,0.11333045721675024
529,3953.65,0.11651414552163035
530,3956.3900000000003,0.12033803382651048
531,3959.12,0.11906372217407352
532,3961.8599999999997,0.10759691047895364
533,3964.6,0.09974085878383376
534,3967.33,0.0964304171313968
535,3970.07,0.10217507543627692
536,3972.81,0.10563566374115704
537,3975.54,0.10409015208872008
538,3978.28,0.10850244039360021
539,3981.02,0.12525802869848032
540,3983.75,0.13142431704604338
541,3986.49,0.1278999053509235
542,3989.2300000000005,0.13371949365580363
543,3991.96,0.14075678200336667
544,3994.7,0.1470665703082468
545,3997.44,0.14378445861312691
546,4000.17,0.13337954696068996
547,4002.91,0.14190433526557006
548,4005.65,0.1406178235704502
549,4008.38,0.13332761191801323
550,4011.1200000000003,0.13794170022289334
551,4013.86,0.13966028852777349
552,4016.5899999999997,0.14451737687533653
553,4019.33,0.14850276518021666
554,4022.0699999999997,0.14223275348509673
555,4024.8,0.14088354183265978
556,4027.54,0.14380193013753992
557,4030.28,0.13656871844242005
558,4033.01,0.13468880678998307
559,4035.75,0.1394009950948632
560,4038.4900000000002,0.14462638339974335
561,4041.22,0.13579617174730638
562,4043.9599999999996,0.1349019600521865
563,4046.7,0.1461779483570666
564,4049.43,0.14060663670462964
565,4052.17,0.14181192500950976
566,4054.91,0.1418059133143899
567,4057.6400000000003,0.13255460166195293
568,4060.38,0.13489618996683306
569,4063.12,0.1397293782717132
570,4065.85,0.14193316661927624
571,4068.59,0.13856445492415634
572,4071.3300000000004,0.13554764322903645
573,4074.06,0.1315566315765995
574,4076.7999999999997,0.12782461988147964
575,4079.54,0.12938750818635975
