,lambda (Angstroms),Total Flux (erg/s/cm^2/Angstrom)
0,102.01,0.0003543868
1,103.91,0.0003668095
2,104.712855,0.0003775614303546084
3,106.08,0.0003958704
4,108.06,0.000429952
5,110.06,0.0005868652
6,113.93,0.0006615087
7,117.94000000000001,0.0007119565
8,120.22644299999999,0.0014250696804375765
9,120.96000000000001,0.001653857
10,124.92,0.00183019
11,126.95,0.001912157
12,128.13,0.00196542
13,131.10999999999999,0.002082108
14,132.02,0.002267417
15,133.86,0.002346925
16,136.98,0.002627031
17,138.038426,0.002682419986911888
18,139.84,0.002776699
19,143.1,0.004202377
20,147.11,0.006116251
21,150.88,0.006508568
22,155.11,0.006957825
23,158.489319,0.007380234780549245
24,159.09,0.007455319
25,162.05,0.0078254
26,165.82,0.008346563
27,170.07999999999998,0.008820464
28,172.84,0.009214759
29,176.87,0.009715811
30,180.15,0.01008093
31,181.82,0.01036304
32,181.970086,0.010381202175882077
33,186.06,0.01087613
34,190.82999999999998,0.01149447
35,193.93,0.01192557
36,197.99,0.01245983
37,202.14,0.01298493
38,204.95,0.01338151
39,208.929613,0.013569081417292775
40,210.21,0.01362943
41,216.1,0.01480652
42,220.10999999999999,0.01536388
43,223.17,0.01564994
44,226.79999999999998,0.01623664
45,229.95999999999998,0.02418137
46,234.23,0.03940031
47,239.88329199999998,0.05030169123879529
48,240.24,0.05098954
49,245.84,0.04869267
50,252.14000000000001,0.05087469
51,256.83,0.04059611
52,259.8,0.04903481
53,264.02,0.05146273
54,268.93,0.05110942
55,273.93,0.05064109
56,275.42287,0.05036949596625491
57,279.03000000000003,0.04971326
58,284.21,0.04971671
59,290.17,0.04715015
60,296.24,0.04715108
61,301.05,0.04420826
62,308.07,0.0448221
63,316.227766,0.04524210771648563
64,318.15999999999997,0.04534159
65,327.83,0.04430768
66,337.79,0.04280495
67,348.05,0.04135186
68,356.98,0.04069098
69,363.078055,0.04062826190376092
70,366.14,0.04059677
71,374.67,0.03939796
72,385.16,0.03676974
73,395.03999999999996,0.03719649
74,405.18,0.03668464
75,413.66,0.03560368
76,416.86938299999997,0.035155993307409934
77,422.32,0.03439567
78,430.17,0.03322747
79,441.21,0.03262022
80,451.49,0.03158555
81,459.88,0.03030346
82,469.51,0.02934133
83,478.630092,0.02883988333282267
84,480.45,0.02873982
85,490.51,0.02731967
86,499.63,0.02706939
87,506.58000000000004,0.0262703
88,512.4399999999999,0.02776545
89,519.57,0.02688422
90,530.45,0.02567316
91,540.3100000000001,0.02401489
92,549.5408739999999,0.023217204712161203
93,550.36,0.02314642
94,560.59,0.02357697
95,569.7,0.02330704
96,580.29,0.02246445
97,589.7199999999999,0.02195287
98,600.6800000000001,0.02067704
99,610.44,0.01838603
100,620.36,0.0202999
101,630.44,0.01943028
102,630.957344,0.019425784406821463
103,640.69,0.01934121
104,649.6,0.01864149
105,658.6400000000001,0.01788483
106,664.73,0.01800845
107,675.53,0.01772142
108,684.93,0.01661444
109,694.4599999999999,0.01676832
110,705.74,0.01557749
111,715.56,0.01601361
112,724.43596,0.0156881789479799
113,725.51,0.0156488
114,735.61,0.0153283
115,745.84,0.01480715
116,754.48,0.0144041
117,764.9699999999999,0.01310601
118,775.61,0.0137247
119,784.59,0.01307677
120,795.51,0.01301652
121,804.72,0.01283728
122,815.92,0.01257375
123,825.36,0.01234451
124,831.763771,0.0116002725764069
125,834.92,0.01123346
126,844.59,0.01173484
127,854.37,0.01141564
128,864.26,0.01128462
129,874.2700000000001,0.01105304
130,884.39,0.01080166
131,894.63,0.01060446
132,904.99,0.01031545
133,915.47,0.01024451
134,923.94,0.01665294
135,934.6400000000001,0.02298792
136,945.46,0.02860879
137,954.21,0.03122407
138,954.992586,0.03137134985230949
139,965.26,0.03330364
140,974.19,0.01907642
141,985.4699999999999,0.02927527
142,994.59,0.02776519
143,1006.11,0.03093766
144,1015.42,0.03079548
145,1024.81,0.0207251
146,1034.3,0.02751016
147,1043.87,0.03322653
148,1055.95,0.03202504
149,1065.72,0.02874081
150,1075.59,0.03016415
151,1085.54,0.02567358
152,1095.58,0.02995682
153,1096.4782,0.02983154058757395
154,1105.72,0.02854251
155,1115.95,0.0279574
156,1126.28,0.02549631
157,1134.08,0.02795737
158,1144.5800000000002,0.02669811
159,1155.1699999999998,0.02651491
160,1165.86,0.02615094
161,1173.94,0.0206298
162,1184.8,0.0249164
163,1195.76,0.02225821
164,1204.05,0.01961059
165,1215.19,0.01427207
166,1223.62,0.02120796
167,1234.94,0.02346833
168,1246.36,0.02374082
169,1255.0,0.02314653
170,1258.92541,0.022768779222965514
171,1263.7,0.02230931
172,1275.3999999999999,0.02346856
173,1284.24,0.02336044
174,1296.1200000000001,0.02096424
175,1305.1,0.02091617
176,1314.15,0.02246441
177,1326.31,0.02155226
178,1335.5,0.02025308
179,1344.7600000000002,0.02135439
180,1354.08,0.0208681
181,1363.47,0.01965521
182,1376.0800000000002,0.01952116
183,1385.62,0.01934185
184,1395.23,0.01631077
185,1404.9,0.01601346
186,1414.64,0.01813326
187,1424.4399999999998,0.01759907
188,1434.32,0.01784365
189,1440.94,0.01792557
190,1445.43977,0.017842740399142857
191,1447.59,0.01780316
192,1454.27,0.01735756
193,1464.3500000000001,0.01665285
194,1474.5,0.01649991
195,1484.72,0.01646278
196,1495.01,0.01619946
197,1505.38,0.01557753
198,1512.3300000000002,0.01460393
199,1515.81,0.01491011
200,1526.32,0.01480719
201,1533.36,0.013412
202,1543.99,0.01275
203,1554.69,0.01251722
204,1565.47,0.01316727
205,1576.32,0.01359896
206,1583.6,0.01362945
207,1594.58,0.01362936
208,1605.63,0.01322734
209,1616.7599999999998,0.01301653
210,1624.22,0.01274996
211,1635.48,0.01301644
212,1646.82,0.01286679
213,1654.42,0.01260348
214,1659.58691,0.012736007183717275
215,1665.88,0.01289742
216,1673.5700000000002,0.01211947
217,1677.43,0.01347324
218,1685.18,0.01341189
219,1696.8600000000001,0.01283732
220,1704.69,0.01266139
221,1716.5,0.0126036
222,1724.43,0.01269085
223,1736.3799999999999,0.01341209
224,1744.4,0.01316716
225,1756.49,0.01401185
226,1764.5900000000001,0.01286689
227,1776.8300000000002,0.01328857
228,1785.03,0.01372447
229,1793.2699999999998,0.01508254
230,1805.7,0.0148761
231,1814.0300000000002,0.01427196
232,1826.61,0.01443683
233,1835.04,0.01420636
234,1843.5099999999998,0.01220349
235,1856.29,0.01369275
236,1864.8500000000001,0.01532863
237,1873.46,0.01532852
238,1886.45,0.01494499
239,1895.1599999999999,0.01586705
240,1903.9,0.01579405
241,1905.46072,0.015846366043818182
242,1917.1,0.01623652
243,1925.9499999999998,0.01470576
244,1934.84,0.0117621
245,1943.77,0.01723834
246,1957.24,0.01719801
247,1966.28,0.01970123
248,1975.35,0.01855615
249,1984.47,0.01952093
250,1993.63,0.01979188
251,2002.83,0.01881414
252,2016.7199999999998,0.01952092
253,2026.03,0.01704062
254,2035.3799999999999,0.02067683
255,2044.77,0.02267212
256,2054.21,0.02145267
257,2063.69,0.0207721
258,2073.2200000000003,0.0241264
259,2078.0,0.03345725
260,2082.79,0.03736676
261,2097.23,0.03463294
262,2106.9,0.03277127
263,2116.63,0.03651662
264,2126.4,0.03262044
265,2136.2200000000003,0.03051259
266,2146.08,0.03771309
267,2155.98,0.03753948
268,2165.9300000000003,0.0329986
269,2175.9300000000003,0.03361164
270,2185.9700000000003,0.04031721
271,2187.7616199999998,0.04053464412832502
272,2196.06,0.04154175
273,2206.2000000000003,0.03967231
274,2216.38,0.03202503
275,2226.61,0.03601533
276,2236.89,0.04618338
277,2247.2200000000003,0.0436
278,2257.5899999999997,0.03407918
279,2262.79,0.03247082
280,2273.24,0.03527667
281,2283.73,0.04492126
282,2294.27,0.03794509
283,2304.86,0.04527441
284,2315.5,0.03986142
285,2326.19,0.0320807
286,2336.9300000000003,0.02857219
287,2342.31,0.01989687
288,2353.13,0.03685413
289,2363.99,0.02168537
290,2374.9,0.02869907
291,2385.86,0.01669425
292,2396.87,0.02114679
293,2402.4,0.02113909
294,2413.4900000000002,0.0250473
295,2424.63,0.04221363
296,2435.8199999999997,0.04169911
297,2447.06,0.04940991
298,2452.7,0.05148139
299,2464.02,0.04637999
300,2475.4,0.0400865
301,2486.8199999999997,0.02658705
302,2492.56,0.03101101
303,2504.0600000000004,0.04766272
304,2511.88643,0.029996991571539875
305,2515.62,0.02156962
306,2527.2299999999996,0.01838679
307,2533.06,0.02974018
308,2544.75,0.03191668
309,2556.5,0.05304911
310,2562.39,0.0405977
311,2574.22,0.05095246
312,2586.1,0.04537562
313,2592.06,0.04079873
314,2604.0200000000004,0.03485831
315,2616.04,0.03097173
316,2622.07,0.0433295
317,2634.18,0.07054026
318,2646.3399999999997,0.0957382
319,2652.4399999999996,0.12645
320,2664.68,0.08581263
321,2676.98,0.09687251
322,2683.15,0.1099078
323,2695.54,0.08121928
324,2707.98,0.09824264
325,2714.22,0.07212999
326,2726.75,0.06105913
327,2733.03,0.07543542
328,2745.65,0.04199514
329,2751.98,0.05767874
330,2764.68,0.07527452
331,2777.44,0.08114746
332,2783.84,0.04809431
333,2796.69,0.01904237
334,2803.14,0.02368823
335,2816.0800000000004,0.07180438
336,2822.5699999999997,0.1035037
337,2835.6,0.09717954
338,2842.1400000000003,0.07351643
339,2855.26,0.04236444
340,2861.84,0.09745574
341,2875.05,0.1242861
342,2884.0315,0.11717230529389586
343,2888.3199999999997,0.1137756
344,2894.9799999999996,0.1333007
345,2908.3399999999997,0.1767869
346,2928.5,0.1558963
347,2948.7999999999997,0.1456258
348,2969.2400000000002,0.1512312
349,2989.82,0.1538317
350,3010.55,0.155393
351,3031.41,0.163228
352,3052.42,0.1718606
353,3066.51,0.1818693
354,3087.7700000000004,0.1778806
355,3109.17,0.1992967
356,3130.73,0.1857144
357,3152.43,0.1833096
358,3166.98,0.2012623
359,3188.93,0.1778691
360,3211.03,0.1960843
361,3233.29,0.1689539
362,3248.22,0.2276821
363,3270.73,0.2622101
364,3293.4,0.2570082
365,3308.61,0.242934
366,3311.31121,0.23965623114256748
367,3323.88,0.2244047
368,3331.54,0.2425533
369,3339.22,0.211621
370,3346.92,0.2537078
371,3354.63,0.2312557
372,3362.37,0.1944765
373,3370.12,0.2146026
374,3377.89,0.2095984
375,3385.67,0.2173464
376,3393.48,0.2488345
377,3401.2999999999997,0.2829368
378,3409.14,0.2384776
379,3417.0,0.2158709
380,3424.88,0.2753973
381,3432.77,0.2855803
382,3440.69,0.2597067
383,3448.62,0.20761
384,3456.5699999999997,0.2471738
385,3464.54,0.214657
386,3472.52,0.2700871
387,3480.53,0.2109865
388,3488.55,0.2460487
389,3496.59,0.2310807
390,3504.65,0.2770255
391,3512.73,0.2601767
392,3520.83,0.2831542
393,3528.9500000000003,0.1975903
394,3537.0800000000004,0.2757578
395,3545.2299999999996,0.2865978
396,3553.4100000000003,0.2937851
397,3561.6,0.2702509
398,3569.81,0.2120898
399,3578.04,0.2329489
400,3586.29,0.1883691
401,3594.55,0.2504749
402,3602.84,0.3079685
403,3611.15,0.2405746
404,3619.4700000000003,0.2766867
405,3627.8100000000004,0.294257
406,3636.18,0.2293309
407,3644.56,0.3193094
408,3652.96,0.2534793
409,3661.38,0.3496972
410,3669.8199999999997,0.325407
411,3678.2799999999997,0.3304994
412,3686.76,0.3061218
413,3695.26,0.3354596
414,3703.7799999999997,0.3567539
415,3712.32,0.2559158
416,3712.74,0.2579367
417,3715.4700000000003,0.2679013
418,3718.2,0.2508124
419,3720.9199999999996,0.2175758
420,3723.65,0.2387071
421,3726.38,0.2918853
422,3729.11,0.2690491
423,3731.84,0.2738893
424,3734.5699999999997,0.2500808
425,3737.3,0.2203502
426,3740.0299999999997,0.2493593
427,3742.7500000000005,0.2685471
428,3745.48,0.2131397
429,3748.21,0.2150079
430,3750.94,0.2383901
431,3753.67,0.2430118
432,3756.3999999999996,0.2684261
433,3759.13,0.2859408
434,3761.86,0.2474036
435,3764.5899999999997,0.2439945
436,3767.31,0.2601229
437,3770.04,0.264821
438,3772.7699999999995,0.2786864
439,3775.5,0.2992167
440,3778.23,0.3631025
441,3780.96,0.383316
442,3783.69,0.3872164
443,3786.4199999999996,0.2800513
444,3789.15,0.3002538
445,3791.87,0.273737
446,3794.6000000000004,0.2707867
447,3797.33,0.2452518
448,3800.06,0.2096975
449,3801.8939600000003,0.2886250923780382
450,3802.79,0.3271877
451,3805.52,0.3284113
452,3808.2500000000005,0.3130706
453,3810.98,0.3331638
454,3813.7,0.2603742
455,3816.4300000000003,0.2500706
456,3819.16,0.2480709
457,3821.89,0.2706445
458,3824.6200000000003,0.2547793
459,3827.35,0.2467593
460,3830.08,0.2414599
461,3832.81,0.1463028
462,3835.54,0.1434728
463,3838.26,0.1826115
464,3840.9900000000002,0.209217
465,3843.72,0.2621767
466,3846.4500000000003,0.2297801
467,3849.18,0.2746323
468,3851.91,0.3000467
469,3854.64,0.3108308
470,3857.37,0.288541
471,3860.0899999999997,0.2610626
472,3862.82,0.2694648
473,3865.5499999999997,0.274895
474,3868.28,0.30067
475,3871.0099999999998,0.2577513
476,3873.74,0.255544
477,3876.4700000000003,0.3270127
478,3879.2,0.3122511
479,3881.9300000000003,0.3140756
480,3884.65,0.291252
481,3887.3799999999997,0.2682082
482,3890.11,0.2652142
483,3892.84,0.3092907
484,3895.5699999999997,0.3352951
485,3898.3,0.3435006
486,3901.0299999999997,0.3537602
487,3903.76,0.3535196
488,3906.4900000000002,0.38691
489,3909.21,0.3682496
490,3911.94,0.3788043
491,3914.67,0.3735485
492,3917.3999999999996,0.3697459
493,3920.13,0.3641296
494,3922.86,0.3452924
495,3925.5899999999997,0.3102953
496,3928.32,0.2532819
497,3931.04,0.2146148
498,3933.77,0.1443366
499,3936.5,0.1480187
500,3939.23,0.2182092
501,3941.96,0.2554895
502,3944.69,0.2756593
503,3947.4199999999996,0.3249257
504,3950.15,0.3451939
505,3952.8799999999997,0.3744433
506,3955.6000000000004,0.3995973
507,3958.33,0.3605683
508,3961.06,0.2912406
509,3963.79,0.2217602
510,3966.52,0.1969246
511,3969.2499999999995,0.1598625
512,3971.98,0.206605
513,3974.71,0.2787839
514,3977.44,0.3205548
515,3980.16,0.368195
516,3982.89,0.4179204
517,3985.6200000000003,0.4578666
518,3988.35,0.4756762
519,3991.0800000000004,0.4727587
520,3993.81,0.45355
521,3996.54,0.497976
522,3999.27,0.4755768
523,4001.9900000000002,0.4890948
524,4004.72,0.5153177
525,4007.4500000000003,0.4633956
526,4010.18,0.49353
527,4012.9100000000003,0.4997359
528,4015.64,0.4990472
529,4018.37,0.524669
530,4021.1000000000004,0.5368187
531,4023.83,0.5291373
532,4026.5499999999997,0.5283966
533,4029.28,0.5456708
534,4032.0099999999998,0.5126622
535,4034.74,0.4941527
536,4037.4700000000003,0.5195451
537,4040.2,0.530045
538,4042.9300000000003,0.4904369
539,4045.66,0.482537
540,4048.3799999999997,0.47736
541,4051.11,0.5077021
542,4053.84,0.4976277
543,4056.5699999999997,0.4660176
544,4059.3,0.4785826
545,4062.0299999999997,0.4732394
546,4064.76,0.4954522
547,4067.4900000000002,0.4802972
548,4070.22,0.5006416
549,4072.94,0.5103901
550,4075.67,0.5096686
551,4078.3999999999996,0.4911046
552,4081.13,0.4823742
553,4083.86,0.4987851
554,4086.59,0.5065972
555,4089.32,0.5426208
556,4092.0499999999997,0.521511
557,4094.77,0.4876963
558,4097.5,0.4748248
559,4100.2300000000005,0.4746825
560,4102.96,0.4473665
561,4105.6900000000005,0.4518132
562,4108.42,0.4885144
563,4111.15,0.502915
564,4113.88,0.5094704
565,4116.61,0.5444998
566,4119.33,0.5261895
567,4122.06,0.4992996
568,4124.79,0.505582
569,4127.52,0.5139403
570,4130.25,0.5071111
571,4132.98,0.522648
572,4135.71,0.4925567
573,4138.44,0.4908956
574,4141.17,0.5143213
575,4143.89,0.4855326
576,4146.62,0.4896515
577,4149.35,0.5077562
578,4152.08,0.4985013
579,4154.8099999999995,0.472857
580,4157.54,0.4999867
581,4160.2699999999995,0.524647
582,4163.0,0.5510774
583,4165.72,0.5709874
584,4168.45,0.5189232
585,4171.18,0.4922738
586,4173.91,0.5136235
587,4176.639999999999,0.4914428
588,4179.37,0.4921855
589,4182.1,0.4873668
590,4184.83,0.485214
591,4187.56,0.5325245
592,4190.28,0.515001
593,4193.01,0.5047409
594,4195.74,0.5198078
595,4198.47,0.4930819
596,4201.2,0.4808879
597,4203.93,0.5011996
598,4206.66,0.5251934
599,4209.39,0.5387636
600,4212.11,0.5079427
601,4214.84,0.5115372
602,4217.57,0.5228457
603,4220.3,0.5310838
604,4223.03,0.5189007
605,4225.76,0.4831605
606,4228.49,0.4807017
607,4231.22,0.4841105
608,4233.95,0.5154904
609,4236.67,0.528342
610,4239.4,0.510357
611,4242.13,0.5434416
612,4244.86,0.5383278
613,4247.59,0.5294991
614,4250.320000000001,0.5290399
615,4253.05,0.5222981
616,4255.78,0.515753
617,4258.51,0.5162553
618,4261.23,0.5113733
619,4263.96,0.5364817
620,4266.6900000000005,0.5445669
621,4269.42,0.5294992
622,4272.150000000001,0.4817839
623,4274.88,0.5027621
624,4277.61,0.518736
625,4280.34,0.5232592
626,4283.06,0.5253045
627,4285.79,0.5087509
628,4288.52,0.5149567
629,4291.25,0.4703007
630,4293.9800000000005,0.462958
631,4296.71,0.4608708
632,4299.44,0.4139859
633,4302.17,0.3999563
634,4304.9,0.3967329
635,4307.62,0.4019572
636,4310.35,0.4322448
637,4313.08,0.4608496
638,4315.8099999999995,0.5320779
639,4318.54,0.5640698
640,4321.2699999999995,0.5678063
641,4324.0,0.5460845
642,4326.73,0.5423803
643,4329.45,0.555625
644,4332.18,0.5771606
645,4334.91,0.5828965
646,4337.639999999999,0.5313787
647,4340.37,0.4971136
648,4343.099999999999,0.5241996
649,4345.83,0.5557654
650,4348.56,0.5902047
651,4351.29,0.5940395
652,4354.01,0.5565429
653,4356.74,0.5656878
654,4359.469999999999,0.5914189
655,4362.2,0.6205591
656,4364.93,0.6280432
657,4365.15832,0.6274674823384634
658,4367.66,0.6211594
659,4370.39,0.6118498
660,4373.12,0.5795078
661,4375.85,0.5950337
662,4378.57,0.5803075
663,4381.3,0.5569686
664,4384.03,0.5076579
665,4386.76,0.5286689
666,4389.49,0.5342518
667,4392.22,0.5690736
668,4394.95,0.5752139
669,4397.68,0.5794093
670,4400.4,0.5991992
671,4403.13,0.5857595
672,4405.86,0.5544882
673,4408.59,0.5390818
674,4411.320000000001,0.5818034
675,4414.05,0.637396
676,4416.78,0.6252674
677,4419.51,0.5787758
678,4422.24,0.5966508
679,4424.96,0.6480069
680,4427.6900000000005,0.6445867
681,4430.42,0.6394619
682,4433.150000000001,0.6308734
683,4435.88,0.6298899
684,4438.61,0.6345223
685,4441.34,0.6451312
686,4444.07,0.6620339
687,4446.79,0.6796716
688,4449.52,0.6662756
689,4452.25,0.6567693
690,4454.9800000000005,0.6435045
691,4457.71,0.5947182
692,4460.44,0.608201
693,4463.17,0.6271687
694,4465.9,0.6394932
695,4468.63,0.6378649
696,4471.35,0.6578734
697,4474.08,0.6850905
698,4476.81,0.7028672
699,4479.54,0.673344
700,4482.2699999999995,0.6865536
701,4485.0,0.6889571
702,4487.73,0.690246
703,4490.46,0.6930865
704,4493.1900000000005,0.681089
705,4495.91,0.6918431
706,4498.639999999999,0.675945
707,4501.37,0.7154105
708,4504.099999999999,0.7318433
709,4506.83,0.7403435
710,4509.56,0.7624034
711,4512.29,0.7544924
712,4515.02,0.7181948
713,4517.74,0.7020267
714,4520.469999999999,0.7094562
715,4523.2,0.682304
716,4525.93,0.7009439
717,4528.66,0.6571619
718,4531.39,0.6337793
719,4534.12,0.6459071
720,4536.85,0.6714853
721,4539.58,0.69325
722,4542.3,0.704649
723,4545.03,0.7048889
724,4547.76,0.6996986
725,4550.49,0.6928255
726,4553.22,0.700113
727,4555.950000000001,0.713683
728,4558.68,0.7253519
729,4561.41,0.7392936
730,4564.13,0.7545824
731,4566.86,0.7413394
732,4569.59,0.7310792
733,4572.320000000001,0.7342693
734,4575.05,0.733952
735,4577.78,0.716721
736,4580.51,0.6990965
737,4583.24,0.7110275
738,4585.969999999999,0.7251111
739,4588.6900000000005,0.71681
740,4591.42,0.7139906
741,4594.150000000001,0.7133019
742,4596.88,0.7175956
743,4599.61,0.722228
744,4602.34,0.7255383
745,4605.07,0.7358414
746,4607.8,0.7700403
747,4610.53,0.7808569
748,4613.25,0.7685022
749,4615.9800000000005,0.7663384
750,4618.71,0.7704026
751,4621.44,0.7845955
752,4624.17,0.7607649
753,4626.9,0.7469973
754,4629.63,0.7534545
755,4632.36,0.7679423
756,4635.08,0.7427272
757,4637.81,0.7520907
758,4640.54,0.7448243
759,4643.2699999999995,0.7182075
760,4646.0,0.6992282
761,4648.73,0.695939
762,4651.46,0.723757
763,4654.1900000000005,0.7297879
764,4656.92,0.7432706
765,4659.64,0.7291456
766,4662.37,0.7212128
767,4665.099999999999,0.6966501
768,4667.83,0.6895149
769,4670.56,0.6845431
770,4673.29,0.7150161
771,4676.02,0.7298101
772,4678.75,0.7083723
773,4681.469999999999,0.7161654
774,4684.2,0.7104178
775,4686.93,0.7218354
776,4689.66,0.7157709
777,4692.39,0.7298547
778,4695.12,0.7451402
779,4697.85,0.7173652
780,4700.58,0.7135297
781,4703.31,0.719058
782,4706.03,0.7257695
783,4708.76,0.7073584
784,4711.49,0.7164158
785,4714.22,0.7112801
786,4716.95,0.7207419
787,4719.68,0.7506359
788,4722.41,0.776356
789,4725.14,0.7699419
790,4727.87,0.7554533
791,4730.59,0.7346634
792,4733.32,0.7314835
793,4736.05,0.7420598
794,4738.780000000001,0.734411
795,4741.51,0.7581316
796,4744.24,0.7663149
797,4746.97,0.763889
798,4749.7,0.7659318
799,4752.42,0.7626787
800,4755.150000000001,0.7630936
801,4757.88,0.747119
802,4760.61,0.7401257
803,4763.34,0.7183493
804,4766.07,0.6962123
805,4768.8,0.7137704
806,4771.53,0.7379609
807,4774.26,0.7481111
