,lambda (Angstroms),Total Flux (erg/s/cm^2/Angstrom)
0,100.09,0.008299348547109424
1,101.94999999999999,0.009971349808006175
2,104.09,0.011895050183447425
3,104.712855,0.012454950369125892
4,106.02000000000001,0.011474532041457786
5,107.99,0.009996942251885013
6,110.0,0.008489350639215857
7,114.13,0.005391662400270809
8,117.87,0.002586491937060646
9,120.22644299999999,0.0008190522856303767
10,120.89000000000001,0.0007960230137599256
11,125.14000000000001,0.0006485233926602183
12,126.88,0.0005881353129925603
13,128.05,0.0005475295352838749
14,131.04,0.0004437592150718193
15,131.94,0.00041252400322849744
16,134.09,0.00033790654974727175
17,136.9,0.0002403832777773884
18,138.038426,0.00020087330289710493
19,140.09,0.00019835863829879177
20,143.02,0.00019476731311973393
21,147.03,0.00018985229898054538
22,151.14000000000001,0.0001848146567592116
23,155.02,0.00018005897161056387
24,158.489319,0.00017580669611196902
25,159.0,0.00017484495492904256
26,161.95000000000002,0.0001692893965581485
27,166.11,0.00016145518037870675
28,169.98,0.00015416718625682274
29,173.14,0.00014821632244231791
30,177.17,0.00014062720170693994
31,180.05,0.00013520381662204947
32,181.970086,0.00013158809036620194
33,182.13,0.00013168503636256222
34,185.95000000000002,0.00013400107203952587
35,191.16,0.000137160020975937
36,193.82,0.00013877322054801634
37,197.88,0.0001412354294536112
38,202.02,0.00014374649898574976
39,204.83,0.00014545125437884866
40,208.929613,0.00014793802923898603
41,210.07999999999998,0.00015217252741172595
42,215.97000000000003,0.00017385581562045387
43,219.98,0.0001886184888118626
44,223.04000000000002,0.00019988377091154132
45,227.19,0.00021516301686594195
46,229.82,0.0002248659256035742
47,234.09,0.00024062632890482508
48,239.88329199999998,0.0002619974205113822
49,240.1,0.00026134226595734037
50,246.26,0.00024268663499939604
51,252.0,0.00022532842968176598
52,257.27,0.00020934076958544019
53,260.25,0.00020036056141844758
54,263.87,0.00018942796899478539
55,268.78,0.00017458158536158634
56,273.77,0.00015949515565880342
57,275.42287,0.00015449839070875822
58,278.86,0.00016565360050789477
59,284.05,0.0001825041301718642
60,290.0,0.00020180490477969033
61,296.07,0.00022152724447338864
62,300.88,0.00023713770316542967
63,307.89,0.0002599328584317929
64,316.227766,0.00028705741916289733
65,317.96999999999997,0.00028295533827450524
66,327.64,0.0002601904230458306
67,338.37,0.0002349181071438989
68,347.85,0.00021262239663967595
69,356.77,0.00019166573724962663
70,363.078055,0.00017686581090640052
71,365.92,0.0001821946581273871
72,375.31,0.00019977487423641278
73,384.94,0.00021775513141531765
74,394.81,0.00023636240166410185
75,404.94,0.00025541752257192185
76,414.37,0.0002731137118592608
77,416.86938299999997,0.00027780304342288445
78,422.08000000000004,0.0002837224216973663
79,429.92,0.00029264645917568383
80,440.95000000000005,0.00030528584078612304
81,451.22,0.00031699699660019473
82,459.61,0.0003265620505495677
83,470.32,0.0003388057351404837
84,478.630092,0.00034839401307470053
85,480.16999999999996,0.0003462195988163379
86,490.22,0.0003318894090744859
87,500.49,0.00031749017307161826
88,506.28,0.0003106086290203424
89,512.14,0.00031317422770419783
90,520.47,0.0003028096711848319
91,530.14,0.00029097323816655254
92,540.0,0.0002770424022864868
93,549.5408739999999,0.0002735571587639882
94,550.04,0.00027386490518831836
95,560.26,0.0002778582737567877
96,569.37,0.0002818750281069595
97,579.9499999999999,0.00027721821588136316
98,589.38,0.0002882499306368099
99,600.33,0.00028920361981731274
100,610.09,0.00030270901717819926
101,620.0,0.00031650351754155853
102,630.0699999999999,0.0003268613531075552
103,630.957344,0.0003270828072176437
104,640.3100000000001,0.000339820907735289
105,650.72,0.00037216171682004216
106,658.25,0.0003938293795873996
107,664.34,0.0004141615191960592
108,675.1400000000001,0.00043193339288629307
109,684.53,0.00044456800223363515
110,695.65,0.0005226324366258018
111,705.33,0.0005262491478592707
112,716.7900000000001,0.0006045811154972411
113,724.43596,0.000631217518225817
114,726.76,0.0006386740942796701
115,735.18,0.0006696117768978987
116,745.4,0.0007419063056815444
117,755.7700000000001,0.0007949221383123082
118,764.53,0.0008498157629840044
119,775.16,0.0009252307689497728
120,784.14,0.0010022794325972423
121,795.0500000000001,0.0010594770790776312
122,804.25,0.0011219106817008738
123,815.44,0.001181376268695883
124,824.8800000000001,0.0012999654774745147
125,831.763771,0.001200617725434776
126,834.4300000000001,0.001159057432186532
127,844.1,0.0014072547432375996
128,855.8399999999999,0.0014641370255271068
129,865.75,0.0015794209230985728
130,875.77,0.001704137685325222
131,885.9200000000001,0.0018605334694170872
132,894.11,0.0019846198469256953
133,904.47,0.0020250002817229096
134,914.94,0.003098580581175306
135,925.53,0.021120686823887902
136,934.1,0.04808515818838714
137,944.9100000000001,0.0957170251604101
138,954.992586,0.13487776715234184
139,955.86,0.13824737974156934
140,964.7,0.16276627293288634
141,975.8699999999999,0.02793478439748034
142,984.9,0.15017674379992293
143,994.01,0.15869810318599734
144,1005.52,0.22825126208102664
145,1014.83,0.22101439642618062
146,1024.22,0.09352318075496643
147,1036.0800000000002,0.16275553582838495
148,1045.66,0.31067683636829635
149,1055.34,0.3092334243877476
150,1065.1,0.25197350239083055
151,1074.96,0.3028953678734534
152,1084.91,0.24680262208766204
153,1094.94,0.32679826628550246
154,1096.4782,0.3248947863249748
155,1105.08,0.3142480029278728
156,1115.3,0.3071073980395882
157,1125.62,0.27880125396452976
158,1136.04,0.3550035707026975
159,1143.91,0.3275274867035977
160,1154.5,0.35093743682424994
161,1165.18,0.3666241516768058
162,1175.96,0.2601841273425877
163,1184.1100000000001,0.36829913362052125
164,1195.07,0.2674618387501103
165,1206.12,0.195592108611603
166,1214.49,0.12374072867863409
167,1225.72,0.26622582800393385
168,1234.22,0.396433197128159
169,1245.6399999999999,0.43465962199858854
170,1254.2700000000002,0.4208798401800077
171,1258.92541,0.4018399151664938
172,1265.88,0.37339960972236763
173,1274.6499999999999,0.46681205417117544
174,1286.45,0.48768008307607075
175,1295.3600000000001,0.39460963142714
176,1304.34,0.40101608172934
177,1316.41,0.4933197181600253
178,1325.54,0.47330687264321974
179,1334.73,0.42870062879881193
180,1343.9799999999998,0.502496586626802
181,1356.41,0.49446363309187386
182,1365.8200000000002,0.4499258953795912
183,1375.2800000000002,0.4711402590609734
184,1384.82,0.4809930249722193
185,1394.42,0.41702339255586296
186,1404.0800000000002,0.44069896181190443
187,1413.8100000000002,0.4593547330190766
188,1423.61,0.4711393061773794
189,1433.48,0.4765841812868131
190,1443.42,0.5013439583473774
191,1445.43977,0.5041554980927726
192,1446.75,0.5059793452962461
193,1453.42,0.4967432013327015
194,1463.5,0.46574483714191733
195,1473.6399999999999,0.46897067435475953
196,1483.86,0.47658521343910343
197,1494.1399999999999,0.48544905392707366
198,1504.5,0.46147179628654555
199,1511.44,0.4151023586393192
200,1518.42,0.44273682192784375
201,1525.43,0.43968508591818134
202,1535.9999999999998,0.38831243319034525
203,1546.6499999999999,0.41895368233401087
204,1553.79,0.4019502493655388
205,1564.5600000000002,0.417028101316457
206,1575.4,0.4447896549049392
207,1586.32,0.4646827103649231
208,1593.65,0.4754809818412676
209,1604.69,0.47114304010850405
210,1615.82,0.47548460048117996
211,1623.28,0.4572362749987148
212,1634.53,0.4876869381786432
213,1645.8600000000001,0.4956057032300734
214,1653.4499999999998,0.4678887807887985
215,1659.58691,0.48954016774720027
216,1664.91,0.5083211337527351
217,1672.6,0.46897134751489394
218,1676.4599999999998,0.5130298069585784
219,1684.19,0.5298282275543506
220,1695.87,0.504825122969437
221,1703.7,0.4888177606492425
222,1715.51,0.46682587827357225
223,1723.4199999999998,0.4668294296206043
224,1735.37,0.49675907116258067
225,1743.3799999999999,0.48658243959364594
226,1755.46,0.5166047033448656
227,1763.5700000000002,0.48324208885996417
228,1775.79,0.49109367652883035
229,1783.99,0.5036813774195589
230,1796.35,0.5323015890060717
231,1804.6499999999999,0.5335233069808335
232,1812.9799999999998,0.49335353008080535
233,1825.54,0.5106950758353846
234,1833.97,0.49449801601938975
235,1846.68,0.458340487400019
236,1855.2099999999998,0.45833654466805734
237,1863.77,0.47334960706130563
238,1876.69,0.5142375143184047
239,1885.3500000000001,0.4722676937956864
240,1894.05,0.45205938010658137
241,1905.46072,0.4820878613916596
242,1907.18,0.48661165090638364
243,1915.99,0.4668549108114435
244,1924.83,0.4583453641100506
245,1933.7099999999998,0.4799332086000542
246,1947.12,0.49793135551570156
247,1956.1100000000001,0.46577577578204526
248,1965.1299999999999,0.5095250894419362
249,1974.2,0.5274170920910728
250,1983.3200000000002,0.4990606837294548
251,1997.06,0.48883345797412253
252,2006.28,0.5060120275909955
253,2015.5400000000002,0.49448848839926507
254,2024.85,0.5201723381967801
255,2034.1899999999998,0.4899461813878424
256,2043.5800000000002,0.5071589135681502
257,2053.02,0.48881783473770357
258,2067.25,0.4956100010769773
259,2072.0099999999998,0.5273975528531505
260,2076.79,0.4967463002250217
261,2086.37,0.5165896905644626
262,2096.0,0.49219356989314883
263,2105.68,0.5036565382110807
264,2115.4,0.5083119977204089
265,2125.1600000000003,0.5177702484211335
266,2134.97,0.49332088811110364
267,2144.83,0.4967324167903194
268,2154.73,0.5165697366609314
269,2164.67,0.5071321477229399
270,2174.66,0.504803947774194
271,2184.7,0.4955888368146935
272,2187.7616199999998,0.5019518414191956
273,2194.79,0.5165617966135182
274,2204.92,0.5071273751968141
275,2215.09,0.4910557608031434
276,2225.32,0.47767635694402344
277,2235.59,0.5013382601079373
278,2245.9100000000003,0.4887991720506432
279,2256.2799999999997,0.47439039277214134
280,2266.69,0.4854434205166732
281,2277.15,0.4956032570399973
282,2282.4,0.5036753788131763
283,2292.94,0.48119312938256775
284,2303.52,0.4846804869749931
285,2314.15,0.46839705334621057
286,2324.83,0.38530592849622025
287,2335.5699999999997,0.44866171418078055
288,2346.35,0.44165890688837456
289,2357.1800000000003,0.4636904083747608
290,2362.61,0.44087546175159154
291,2373.52,0.44923007728404524
292,2384.47,0.42918069983953266
293,2395.48,0.4505811329295707
294,2406.53,0.4364539730426425
295,2417.64,0.44370492369026493
296,2423.2200000000003,0.45937630340347224
297,2434.4,0.4439530663414037
298,2445.64,0.4629012398138858
299,2456.93,0.45882142206516
300,2462.59,0.45680951582443485
301,2473.96,0.44555351212177663
302,2485.38,0.4581970171979105
303,2496.85,0.4317404310528366
304,2502.6,0.46912964061393736
305,2511.88643,0.4433154776813549
306,2514.16,0.43699491659201223
307,2519.9500000000003,0.4513897231471874
308,2525.76,0.43513902834331314
309,2537.42,0.43832633601746557
310,2543.2700000000004,0.4314058384954923
311,2555.0099999999998,0.45086114073344685
312,2566.8,0.4458700395737777
313,2572.72,0.46374923729513123
314,2584.59,0.46178743069926415
315,2596.52,0.4598430200262486
316,2602.51,0.44844251299092897
317,2614.52,0.44655049688171555
318,2626.5899999999997,0.45607567669535365
319,2632.64,0.46143726558288556
320,2644.7999999999997,0.484477739280801
321,2657.0,0.4869139102606175
322,2663.13,0.46188549371195153
323,2675.42,0.4761066585760453
324,2687.77,0.47519411936299066
325,2693.97,0.4612888980576515
326,2706.4,0.46789215340839896
327,2712.64,0.4552300293849608
328,2725.16,0.4554028786199856
329,2737.7400000000002,0.4705162237778619
330,2744.05,0.43417819499775057
331,2756.72,0.43837843403990423
332,2763.07,0.44764390254169395
333,2775.8300000000004,0.46142253546812495
334,2782.2200000000003,0.4520556012518157
335,2795.07,0.39846692806252404
336,2807.9700000000003,0.41934055147560867
337,2814.44,0.4620004118231015
338,2827.4300000000003,0.46861952912046345
339,2833.9500000000003,0.4528045860703326
340,2847.0299999999997,0.4488462972519719
341,2853.5899999999997,0.44481975148374203
342,2866.77,0.4638334558701339
343,2873.37,0.46073500738380513
344,2884.0315,0.4617470852370636
345,2886.64,0.4619948792809593
346,2893.29,0.4589142700330524
347,2913.35,0.47642344213635873
348,2926.7900000000004,0.4668647234458521
349,2947.0800000000004,0.46182149522930604
350,2967.5099999999998,0.46639186681806716
351,2988.0800000000004,0.46562083821213557
352,3008.79,0.4680715094115111
353,3029.6499999999996,0.46838558040228734
354,3050.6499999999996,0.46654835119837074
355,3071.79,0.4657962217997614
356,3093.09,0.466109192178646
357,3107.36,0.4641685723338893
358,3128.9,0.4602285423790149
359,3150.5899999999997,0.461608712215541
360,3172.43,0.45980728184346775
361,3187.07,0.4474783614841659
362,3209.17,0.4550772307505203
363,3231.4100000000003,0.446059999822182
364,3246.33,0.4556024790734946
365,3268.83,0.460138647783584
366,3291.4900000000002,0.45834991627116733
367,3306.6800000000003,0.457527795147001
368,3311.31121,0.4595270996657897
369,3321.94,0.46411530614958874
370,3329.6,0.46959520251527825
371,3337.28,0.46220399834928544
372,3344.97,0.45491779391745146
373,3352.6800000000003,0.46029528895393534
374,3360.41,0.45304398345873687
375,3368.1499999999996,0.4542009776976972
376,3375.92,0.43386857113913424
377,3383.7,0.4420475643147301
378,3391.5,0.4598028569586436
379,3399.32,0.47279754907087496
380,3407.1600000000003,0.446458440651424
381,3415.0099999999998,0.45486493196613187
382,3422.8799999999997,0.4688052227491575
383,3430.77,0.46461811300050077
384,3438.6800000000003,0.4668780027201619
385,3446.61,0.4429202919081407
386,3454.56,0.4554391805644372
387,3462.52,0.4370526689548926
388,3470.5000000000005,0.4473501568136657
389,3478.5,0.43426964414075653
390,3486.52,0.4444945309361651
391,3494.56,0.4456332171998914
392,3502.6099999999997,0.45298870319777657
393,3510.69,0.4417616883981383
394,3518.78,0.43883757333265894
395,3526.89,0.44199015773549727
396,3535.02,0.4523923416066533
397,3543.17,0.4630572249461271
398,3551.34,0.46315990775391863
399,3559.53,0.4569259900300279
400,3567.73,0.457048872040296
401,3575.96,0.43160455325304076
402,3584.2000000000003,0.4238294341999443
403,3592.46,0.42199071461516563
404,3600.7400000000002,0.4471024944987046
405,3602.8300000000004,0.4316728389379071
406,3605.55,0.42950306662911797
407,3608.2799999999997,0.40263949405448773
408,3611.01,0.35738872147985745
409,3613.73,0.32334734917106833
410,3616.46,0.3545000765964381
411,3619.19,0.44286320402180784
412,3621.92,0.4605667314471776
413,3624.64,0.4925447591383885
414,3627.37,0.4775889865637583
415,3630.1,0.41967721398912805
416,3632.82,0.4601484416803389
417,3635.55,0.4471013691057087
418,3638.2799999999997,0.4300092965310784
419,3641.01,0.42795972395644816
420,3643.73,0.45428145164765904
421,3646.46,0.5023501790730287
422,3649.19,0.4433351064983985
423,3651.92,0.41414263392376827
424,3654.6400000000003,0.45524406161497916
425,3657.37,0.508881389040349
426,3660.1,0.5209286164657186
427,3662.82,0.44839714415692955
428,3665.55,0.4293086715822993
429,3668.2799999999997,0.45289609900766903
430,3671.01,0.4543489264330388
431,3673.73,0.4455247541242497
432,3676.4599999999996,0.4314446815496194
433,3679.19,0.48291060897498916
434,3681.92,0.4587262364003589
435,3684.6400000000003,0.43818676409156987
436,3687.37,0.4518800915169396
437,3690.1,0.40388001894230935
438,3692.82,0.4829293466335202
439,3695.55,0.43666277405889
440,3698.2799999999997,0.4801609014842597
441,3701.01,0.4776209289096295
442,3703.73,0.46389365660084037
443,3706.4599999999996,0.4817196840262101
444,3709.19,0.44443671145157987
445,3711.92,0.4552931388769496
446,3714.6400000000003,0.5074971665681606
447,3717.37,0.48021309399353024
448,3720.1,0.5497334214189
449,3722.82,0.7416636491101108
450,3725.55,1.2184351765354806
451,3728.2799999999997,1.6795491039608506
452,3731.01,1.72872003138622
453,3733.73,1.336761959077431
454,3736.4599999999996,0.8158587865028007
455,3739.19,0.5750551139281705
456,3741.91,0.5239055416193814
457,3744.6400000000003,0.5166899690447512
458,3747.37,0.4985644964701209
459,3750.1,0.46621972389549066
460,3752.82,0.4705993515867016
461,3755.55,0.5140975790120712
462,3758.2799999999997,0.517511506437441
463,3761.01,0.5501699338628108
464,3763.73,0.5699775615540217
465,3766.4599999999996,0.5382980889793914
466,3769.19,0.48485181640476116
467,3771.91,0.46203584409597204
468,3774.6400000000003,0.4902113715213418
469,3777.37,0.5450219989467117
470,3780.1,0.5850701263720813
471,3782.82,0.6144044540632922
472,3785.5499999999997,0.646239681488662
473,3788.28,0.6186753089140318
474,3791.01,0.6162753363394015
475,3793.73,0.5407497640306124
476,3796.46,0.5094555914559821
477,3799.19,0.5000160188813518
478,3801.8939600000003,0.5197764270327989
479,3801.91,0.5198936466614101
480,3804.6400000000003,0.5571050892085684
481,3807.37,0.5704305317557266
482,3810.1000000000004,0.6059432743028847
483,3812.82,0.6373789170604929
484,3815.5499999999997,0.6185004596076511
485,3818.28,0.6357484021548092
486,3821.01,0.6172726447019674
487,3823.73,0.6126343874595757
488,3826.46,0.6024416300067339
489,3829.19,0.5501860725538921
490,3831.91,0.5105242153115003
491,3834.6400000000003,0.4736087578586584
492,3837.37,0.47886150040581665
493,3840.1000000000004,0.4787381429529748
494,3842.82,0.530451885710583
495,3845.5499999999997,0.5584872282577412
496,3848.28,0.5942626708048994
497,3851.0,0.6257158135625075
498,3853.73,0.6753954561096657
499,3856.46,0.6763926986568239
500,3859.19,0.655202541203982
501,3861.91,0.6865858839615903
502,3864.64,0.7022578265087485
503,3867.37,0.7399241690559067
504,3870.1000000000004,0.7667684116030649
505,3872.82,0.7452843543606731
506,3875.5499999999997,0.6900514969078313
507,3878.28,0.6253276394549895
508,3881.0,0.6158559822125976
509,3883.73,0.6162053247597558
510,3886.46,0.586329567306914
511,3889.19,0.5853655098540722
512,3891.9100000000003,0.5741952526116804
513,3894.64,0.5680652951588385
514,3897.37,0.5628809377059967
515,3900.1000000000004,0.5888322802531549
516,3902.82,0.6211084230107631
517,3905.5499999999997,0.6470947655579212
518,3908.28,0.6823797081050795
519,3911.0,0.7044994508626876
520,3913.7300000000005,0.7069325934098459
521,3916.46,0.699366535957004
522,3919.19,0.6839377785041623
523,3921.9100000000003,0.6720847212617704
524,3924.64,0.6737298638089286
525,3927.37,0.6372521063560868
526,3930.1000000000004,0.604521948903245
527,3932.82,0.5751220916608532
528,3935.5499999999997,0.5491339342080114
529,3938.28,0.6043997767551695
530,3941.0,0.6410889195127777
531,3943.7299999999996,0.6488455620599358
532,3946.46,0.648722104607094
533,3949.19,0.6651470471542523
534,3951.9100000000003,0.6587401899118605
535,3954.64,0.6566553324590187
536,3957.37,0.6537473750061769
537,3960.09,0.6270268177637851
538,3962.82,0.5851205603109433
539,3965.5499999999997,0.5459461028581014
540,3968.28,0.5286788454052596
541,3971.0,0.5196971881628678
542,3973.7299999999996,0.532409930710026
543,3976.46,0.5381353732571842
544,3979.19,0.5665559158043423
545,3981.9100000000003,0.5932807585619505
546,3984.64,0.6491070011091087
547,3987.37,0.6766518436562668
548,3990.09,0.675585986413875
549,3992.82,0.6950055289610333
550,3995.5499999999997,0.7239511715081915
551,3998.28,0.7151768140553497
552,4001.0,0.7027811568129578
553,4003.7299999999996,0.6966159993601161
554,4006.46,0.7015357419072742
555,4009.19,0.7218832844544324
556,4011.9100000000003,0.7213079272120406
557,4014.64,0.7127961697591988
558,4017.37,0.7124623123063569
559,4020.09,0.7150566550639651
560,4022.8199999999997,0.7305183976111234
561,4025.55,0.7437737401582815
562,4028.28,0.7317245827054397
563,4031.0,0.7445807254630479
564,4033.73,0.7250891680102062
565,4036.46,0.7015175105573643
566,4039.1899999999996,0.7137571531045225
567,4041.9100000000003,0.7294500958621307
568,4044.64,0.7358058384092889
569,4047.3700000000003,0.716436780956447
570,4050.09,0.7181555237140552
571,4052.8199999999997,0.6948113662612134
572,4055.55,0.7298162088083716
573,4058.28,0.7208316513555297
574,4061.0,0.721657194113138
575,4063.73,0.7014477366602961
576,4066.46,0.7278366792074543
577,4069.18,0.7289775219650625
