,lambda (Angstroms),Total Flux (erg/s/cm^2/Angstrom)
0,102.07000000000001,0.01396489953697809
1,103.97,0.01633130090719711
2,104.712855,0.01725650833556027
3,105.9,0.0160228330200214
4,108.12,0.01371582116829011
5,109.88,0.01188684699759369
6,114.0,0.007605377869133175
7,118.01,0.003438229604095563
8,120.22644299999999,0.0011351303560493255
9,121.02999999999999,0.0010965719779420671
10,125.0,0.0009058345422167691
11,127.03,0.000808303664022977
12,127.91,0.0007660445120695107
13,130.89,0.0006228925766293634
14,132.1,0.0005648897619808468
15,133.94,0.0004765327679963257
16,137.06,0.00032692428237039896
17,138.038426,0.00027996819121648195
18,139.93,0.0002769333479917444
19,142.86,0.000275711988475116
20,146.85999999999999,0.0002792252871315959
21,150.98,0.00027475215351777023
22,154.85,0.0002713511250504145
23,158.489319,0.00026852518511443396
24,158.82,0.0002679671354679337
25,162.15,0.000262226059331837
26,165.92,0.00025717223571829814
27,170.17999999999998,0.00025068140786851673
28,172.94,0.00024749084278274285
29,176.97,0.00024237755202344264
30,179.85000000000002,0.00023915760671654814
31,181.93,0.00023689703955045776
32,181.970086,0.00023685398027402165
33,186.17000000000002,0.00024682813072201415
34,190.94,0.00025971295157829874
35,194.04999999999998,0.00026870599762925156
36,198.10999999999999,0.00027985776311699066
37,201.79,0.00029190492883001524
38,205.07000000000002,0.00030153672109597203
39,208.929613,0.0003103406983483535
40,209.85,0.0003163605789440227
41,216.22,0.00036925846739567785
42,220.23999999999998,0.00040170076780001894
43,222.79,0.00042160040163859364
44,226.94,0.0004560943018072544
45,230.09,0.0005647579730196114
46,233.83,0.0007686729893161875
47,239.83,0.0009277866630540102
48,239.88329199999998,0.0009280243840049153
49,245.98,0.000898522136162756
50,251.70999999999998,0.0009386688333363542
51,256.97999999999996,0.0008408199796024734
52,259.96,0.0009230028659161422
53,264.18,0.0009545683807630153
54,269.09,0.0009583220219711075
55,274.1,0.0009573591090286512
56,275.42287,0.0009571888626085147
57,279.19,0.0009894223479259667
58,283.72999999999996,0.0010310530188034146
59,289.67,0.0010469468181452746
60,295.74,0.0011122826237016867
61,301.23,0.001148221024608557
62,308.25,0.0012162678601943908
63,316.227766,0.0012937273063594167
64,318.35,0.0012978441429671228
65,328.02,0.0013001954316400374
66,337.99,0.0012938160525365167
67,348.26000000000005,0.0012803963056565613
68,357.19,0.0012717909148446819
69,363.078055,0.0012705680582623436
70,366.36,0.0012890812886611144
71,374.89000000000004,0.0013230158566713466
72,385.39,0.0013308019614905065
73,395.28000000000003,0.0014047161945058872
74,405.42,0.0014507383585883901
75,413.90999999999997,0.0014775803776278826
76,416.86938299999997,0.0014832328528903871
77,421.6,0.0014874170781847837
78,430.43,0.0015035474279942384
79,441.46999999999997,0.0015307452107684606
80,450.72,0.0015398346066617173
81,460.16,0.0015492532614976465
82,469.79,0.001561532175276248
83,478.630092,0.0015819766280335066
84,479.63,0.0015807344172660595
85,489.66999999999996,0.0015402925752760921
86,499.93,0.0015321440335612448
87,505.71,0.0015079398316984946
88,511.57,0.0015711652844812426
89,519.88,0.0015544005357823751
90,529.5500000000001,0.0015242409160569782
91,539.39,0.0014704514374532652
92,549.42,0.0014788887636326105
93,549.5408739999999,0.00147912145354513
94,559.64,0.0015123016318838247
95,570.04,0.0015387077786890072
96,580.64,0.0015039816398558275
97,590.0699999999999,0.001548253522007065
98,599.66,0.001524879375647613
99,609.4,0.0014606627650593895
100,619.31,0.0016117525616785584
101,629.3700000000001,0.0016205358940689556
102,630.957344,0.0016204500470914497
103,639.6,0.0016333031642979182
104,649.99,0.0016930275074511195
105,657.51,0.0017223823997044472
106,665.13,0.0017689257745675268
107,674.38,0.001773746415969559
108,685.34,0.0017502761099983451
109,694.8699999999999,0.001954612502707682
110,704.5400000000001,0.0018974227710706715
111,715.99,0.002077066029887241
112,724.43596,0.0021117248814608138
113,725.95,0.0021173604617228045
114,734.35,0.002158395345025374
115,744.5699999999999,0.002296066486376834
116,754.9300000000001,0.0023780481091166695
117,765.43,0.002397222213244882
118,774.29,0.002585977678252116
119,785.0600000000001,0.0026897687107721967
120,794.15,0.0027750669666317626
121,805.1999999999999,0.0028642189619285953
122,814.53,0.002931957043025378
123,825.86,0.0031307470010989635
124,831.763771,0.002864270090128243
125,835.4200000000001,0.002693386404579226
126,845.09,0.0032211843924850564
127,854.88,0.003276095678069139
128,864.78,0.0034502752365249533
129,874.79,0.0036363020678524993
130,884.92,0.003883157196858297
131,895.17,0.004046538623542347
132,905.53,0.004018216323098128
133,916.02,0.006001771345138683
134,924.5,0.03915044638106851
135,935.2,0.08585559292404601
136,946.0300000000001,0.16557798678950827
137,954.78,0.23974528349521418
138,954.992586,0.24013133777670023
139,965.84,0.25984016844919905
140,974.78,0.038492807604437594
141,986.06,0.20129776083386608
142,995.1899999999999,0.22686397702931665
143,1004.4,0.3552802793469617
144,1016.03,0.3504085618609913
145,1025.43,0.15311203121884837
146,1034.92,0.2326689849641743
147,1044.49,0.47807822483169476
148,1054.1599999999999,0.4693248473519584
149,1063.91,0.3552767559944165
150,1076.23,0.43602841881237386
151,1086.1899999999998,0.33005049102559264
152,1096.24,0.4650258476262803
153,1096.4782,0.46446611779458813
154,1103.84,0.44716440930610174
155,1114.05,0.42411106591183406
156,1124.36,0.376287968223793
157,1134.76,0.5028745216713558
158,1145.26,0.4523476208251452
159,1155.86,0.4891476656851611
160,1163.8700000000001,0.5051805167539091
161,1174.64,0.33382826931451004
162,1185.51,0.49027016758133773
163,1193.73,0.31515180463316145
164,1204.77,0.2151010106005742
165,1215.92,0.15876785684483624
166,1224.35,0.3315009798797357
167,1235.68,0.5264972283952056
168,1244.24,0.5839418808481995
169,1255.76,0.5500098262054999
170,1258.92541,0.518280511858529
171,1264.46,0.4628063213242256
172,1276.16,0.6257017731642598
173,1285.01,0.6627393149406959
174,1293.91,0.4993390586480725
175,1305.89,0.4902294213013725
176,1314.94,0.64320077080157
177,1324.05,0.6142758226188957
178,1336.3,0.5289352956992734
179,1345.5700000000002,0.6566709536956082
180,1354.8899999999999,0.6343751136228835
181,1364.29,0.5563922766396631
182,1373.74,0.592058141587383
183,1386.4499999999998,0.5989131324324116
184,1396.0600000000002,0.5180611035591407
185,1405.74,0.5387452773891861
186,1415.48,0.5487584535363599
187,1425.3,0.5719559327730381
188,1435.18,0.5654194143268448
189,1441.8,0.6030527699833429
190,1445.43977,0.6107376892038225
191,1448.46,0.6171145084397213
192,1455.14,0.5961546249543379
193,1465.2299999999998,0.542490751995129
194,1475.38,0.5437157809806619
195,1485.61,0.5589610125591843
196,1495.91,0.5719675464065723
197,1506.2800000000002,0.5375244825228263
198,1513.23,0.46923980778878227
199,1516.72,0.5097872209079458
200,1523.72,0.4902445477945203
201,1534.2800000000002,0.41825029006912406
202,1544.9199999999998,0.47251123493671726
203,1555.63,0.4440186820731762
204,1566.41,0.45123153147850087
205,1573.64,0.48460756581991987
206,1584.5500000000002,0.5145169194388522
207,1595.53,0.5264975753266505
208,1606.59,0.5168847338074383
209,1614.01,0.5204649743072072
210,1625.19,0.48800403667747894
211,1636.46,0.5252752019648638
212,1644.01,0.5350482466782405
213,1655.4099999999999,0.4891044161792332
214,1659.58691,0.5076297118600738
215,1666.88,0.5399772778477795
216,1670.73,0.4703461891483753
217,1678.4399999999998,0.5449784141165814
218,1686.1799999999998,0.5746187461858311
219,1693.97,0.5362744900901535
220,1705.71,0.5121686689652171
221,1713.5800000000002,0.4824205318056557
222,1725.46,0.4802166438189227
223,1733.43,0.5180797303295067
224,1745.44,0.5051638731139627
225,1753.5,0.5449966809276776
226,1765.65,0.493662056850337
227,1773.8000000000002,0.5086371859671827
228,1786.1,0.5193178973950601
229,1794.3400000000001,0.5615602478150366
230,1806.78,0.5564397923811175
231,1815.1200000000001,0.5086444664712393
232,1823.5000000000002,0.5216884500294192
233,1836.14,0.4982452419357909
234,1844.6100000000001,0.4544347467971016
235,1853.13,0.45651956349348505
236,1865.97,0.47362750274014737
237,1874.59,0.5181154431066761
238,1883.24,0.4747330905742485
239,1896.29,0.4565350795282161
240,1905.04,0.4846704506659337
241,1905.46072,0.48378132028369636
242,1913.84,0.46606839364208597
243,1927.1,0.45759564787278456
244,1936.0,0.46929473238660185
245,1944.94,0.4948193046959869
246,1953.91,0.46286386785204764
247,1967.46,0.5121910336006122
248,1976.54,0.5265348631944842
249,1985.6599999999999,0.49709598058392396
250,1994.83,0.4824334827178233
251,2004.03,0.4970921756983985
252,2013.2900000000002,0.47801625037232526
253,2027.2399999999998,0.501656594076567
254,2036.6000000000001,0.475803138239413
255,2046.0,0.4982191701978268
256,2055.44,0.47142468995180825
257,2064.9300000000003,0.4735871944502493
258,2074.46,0.5133454867442583
259,2079.24,0.49249842831460056
260,2084.04,0.5145226637827268
261,2093.66,0.48461032861676295
262,2103.3199999999997,0.4857525812463669
263,2113.0299999999997,0.49248571862043045
264,2122.7799999999997,0.49819864379006173
265,2132.58,0.4596172537041527
266,2147.36,0.4768728441664245
267,2157.27,0.4959040205183267
268,2167.23,0.47797008161468857
269,2177.23,0.47465913050661807
270,2187.28,0.4692203641430073
271,2187.7616199999998,0.47032870138940075
272,2197.38,0.4924684569873203
273,2207.52,0.4779679236697188
274,2212.61,0.45019236187616934
275,2222.82,0.43691734558694734
276,2233.08,0.4724992414608535
277,2243.3900000000003,0.4501968494978879
278,2253.75,0.4269919696980504
279,2264.15,0.43692199962871564
280,2274.6,0.45122934172250895
281,2285.1,0.46711309597943046
282,2295.65,0.4379542623994802
283,2306.24,0.4411141385500325
284,2316.89,0.41845692929633865
285,2327.58,0.3242064297731473
286,2332.95,0.3826820360931158
287,2343.72,0.36808715603092956
288,2354.5299999999997,0.4064889856992459
289,2365.4,0.3665850299633161
290,2376.32,0.3804309863905145
291,2387.29,0.3486669549808411
292,2392.79,0.3744962929249429
293,2403.8399999999997,0.35939218097627457
294,2414.9300000000003,0.37040107875810885
295,2426.08,0.40063169113569697
296,2437.28,0.3853779156764132
297,2442.9,0.41013128281202266
298,2454.17,0.40556712438111847
299,2465.5,0.4000897805459681
300,2476.88,0.3839611488739459
301,2482.59,0.38845623790318606
302,2494.0499999999997,0.363477325692169
303,2505.56,0.41546992564428015
304,2511.34,0.3602887317018998
305,2511.88643,0.36108492536931325
306,2517.13,0.3687234709509021
307,2522.93,0.35381012488660407
308,2534.5800000000004,0.36380692805055714
309,2546.27,0.35808742744854954
310,2552.14,0.39266937479382036
311,2563.92,0.3768317657184012
312,2575.76,0.4029327509940411
313,2587.65,0.3956813315622301
314,2593.61,0.3876398704340894
315,2605.5899999999997,0.3728633425288669
316,2617.61,0.36616231085768375
317,2623.65,0.3878954421976216
318,2635.7599999999998,0.41096500205302694
319,2647.92,0.45490215720098137
320,2654.03,0.4763711819504881
321,2666.2799999999997,0.4160067286250311
322,2672.4199999999996,0.4396892505500673
323,2684.7599999999998,0.44287948875119876
324,2697.1499999999996,0.4153346222448793
325,2703.37,0.43298503663799415
326,2715.8500000000004,0.4032730616582632
327,2722.1099999999997,0.3987028722854174
328,2734.67,0.4224222897737651
329,2747.29,0.3555749016131718
330,2753.63,0.3689582047084047
331,2766.3399999999997,0.38822880807439974
332,2772.7200000000003,0.40752230740367196
333,2785.5099999999998,0.37435340323774574
334,2791.9300000000003,0.2960780988010573
335,2804.82,0.3187924852202294
336,2817.77,0.40046666599046055
337,2824.26,0.43411785496334077
338,2837.2999999999997,0.41855132726016037
339,2843.84,0.40255381152558983
340,2856.97,0.3758083753489979
341,2863.55,0.4354936558484667
342,2876.77,0.4447512111984633
343,2883.3999999999996,0.4367131869904812
344,2884.0315,0.436862642633048
345,2896.71,0.43986440310668606
346,2910.08,0.4902637773456261
347,2930.25,0.4662665384824564
348,2950.56,0.4558633993495374
349,2971.02,0.46882675992760126
350,2991.61,0.4701263202551836
351,3012.35,0.47910958029374884
352,3033.23,0.47930884006256474
353,3047.23,0.4816715130876329
354,3068.3500000000004,0.4874658723940214
355,3089.6200000000003,0.4922324314113927
356,3111.04,0.496998990139747
357,3132.6,0.4881742485983519
358,3147.06,0.4894757207371009
359,3168.88,0.4953421786947428
360,3190.8399999999997,0.4635870363826354
361,3212.96,0.48679419376224303
362,3227.79,0.45448366518808303
363,3250.1600000000003,0.49968102208599546
364,3272.6899999999996,0.527143278675623
365,3287.8,0.5212726495619644
366,3310.59,0.5179209056506289
367,3311.31121,0.518044143264685
368,3318.2200000000003,0.5192244497921267
369,3325.8700000000003,0.5169357680225264
370,3333.54,0.5364010855162734
371,3341.22,0.5076788026416942
372,3348.92,0.5554362190304624
373,3356.6400000000003,0.531754434682578
374,3364.38,0.45794794959804125
375,3372.1400000000003,0.4654737637768518
376,3379.91,0.5308049775873361
377,3387.7000000000003,0.5308835906611679
378,3395.5099999999998,0.5094478029983471
379,3403.34,0.5548406145988738
380,3411.18,0.5026305258310741
381,3419.05,0.5144119359582957
382,3426.9300000000003,0.5252871457171909
383,3434.83,0.5590558547394338
384,3442.75,0.5029840630250239
385,3450.68,0.5207548709422878
386,3458.64,0.520833377754573
387,3466.61,0.5090512841985317
388,3474.6,0.534387489905838
389,3482.6099999999997,0.5151581948764917
390,3490.64,0.5358053991104929
391,3498.69,0.49100300260784147
392,3506.75,0.5409271057368638
393,3514.84,0.5049510077609073
394,3522.94,0.5423842094166246
395,3531.06,0.5027830103356893
396,3539.2000000000003,0.5463236105181014
397,3547.36,0.564330509963861
398,3555.54,0.552863608672968
399,3563.73,0.5428576070137487
400,3571.95,0.4986432042495507
401,3580.18,0.49986700111702637
402,3588.44,0.44253149687952315
403,3596.71,0.5128690922736937
404,3605.0,0.5421061869312117
405,3613.31,0.4922203808520772
406,3621.64,0.49233807403629015
407,3629.9900000000002,0.6016038664838506
408,3633.22,0.4699564475144637
409,3635.9599999999996,0.4231454465930643
410,3638.71,0.4445399453033387
411,3641.45,0.5934866443819393
412,3644.19,0.65602134346054
413,3646.94,0.6742626421708143
414,3649.6800000000003,0.508374141249415
415,3652.42,0.5447445403280157
416,3655.16,0.5516015394066164
417,3657.91,0.6263482381168907
418,3660.6499999999996,0.6800959371954912
419,3663.3900000000003,0.6142137362740919
420,3666.14,0.7500751349843663
421,3668.88,0.6350175340629669
422,3671.62,0.46794623314156764
423,3674.3700000000003,0.577210731851842
424,3677.11,0.6327314309304427
425,3679.85,0.5499844300090433
426,3682.6,0.6040046287193176
427,3685.3399999999997,0.6593677277979182
428,3688.0800000000004,0.5585345268765189
429,3690.82,0.5571956259551195
430,3693.5699999999997,0.6210273246653939
431,3696.31,0.6709134237439945
432,3699.0499999999997,0.6210292228225952
433,3701.8,0.5636944215328696
434,3704.54,0.5766592206114702
435,3707.28,0.5660210196900709
436,3710.03,0.5082924184003452
437,3712.7700000000004,0.6266619174789458
438,3715.51,0.5944699165575466
439,3718.2599999999998,0.8013762152678209
440,3721.0,1.0953679143464214
441,3723.74,1.3155588134250222
442,3726.48,1.2397477125036227
443,3729.23,0.9705762112138973
444,3731.97,0.8779001102924979
445,3734.71,0.6843105093710986
446,3737.46,0.6327679080813728
447,3740.2000000000003,0.5697622071599735
448,3742.94,0.5475393062385742
449,3745.69,0.5748045049488485
450,3748.43,0.5696829040274491
451,3751.1699999999996,0.6458512031060498
452,3753.92,0.6613344018163242
453,3756.66,0.5662936008949249
454,3759.4,0.6043190999735255
455,3762.14,0.6967219990521262
456,3764.8900000000003,0.6061301977624005
457,3767.63,0.5894632968410011
458,3770.37,0.6528648959196017
459,3773.12,0.7125982946298761
460,3775.8599999999997,0.7683162937084769
461,3778.6,0.7484972927870774
462,3781.35,0.7102728914973518
463,3784.09,0.6644867905759525
464,3786.83,0.6533759896545531
465,3789.5800000000004,0.6820198883648274
466,3792.32,0.6421049874434281
467,3795.06,0.6328065865220287
468,3797.8,0.6572379856006294
469,3800.5499999999997,0.7016827843109038
470,3801.8939600000003,0.6937204094545769
471,3803.2899999999995,0.6854494941034365
472,3806.03,0.8033073142102125
473,3808.7799999999997,0.7707175340254073
474,3811.52,0.7802543541321835
475,3814.2599999999998,0.7509391742389594
476,3817.01,0.7161035940541542
477,3819.75,0.6336720141609302
478,3822.4900000000002,0.6396229342677063
479,3825.23,0.6304033543744822
480,3827.9800000000005,0.6229142741896772
481,3830.7200000000003,0.6534925942964531
482,3833.46,0.632412414403229
483,3836.21,0.589144834218424
484,3838.95,0.6177922543252
485,3841.6899999999996,0.752160174431976
486,3844.44,0.8387271942471708
487,3847.18,0.8446785143539469
488,3849.92,0.8154815344607229
489,3852.67,0.8410120542759177
490,3855.4100000000003,0.8499579743826937
491,3858.15,0.8061816944894696
492,3860.8900000000003,0.8056707145962457
493,3863.64,0.8573259344114407
494,3866.3799999999997,0.9126895545182165
495,3869.12,0.8238746746249925
496,3871.87,0.7909693944401874
497,3874.61,0.7826958145469635
498,3877.35,0.7602368346537395
499,3880.1000000000004,0.7178356544689344
500,3882.84,0.6638929745757103
501,3885.58,0.6063644946824863
502,3888.33,0.6246849144976813
503,3891.0699999999997,0.6139680346044573
504,3893.81,0.6600713547112331
505,3896.5499999999997,0.7418353748180091
506,3899.3,0.8254078946332041
507,3902.04,0.8758459147399801
508,3904.7799999999997,0.804368634846756
509,3907.53,0.7897074546619509
510,3910.27,0.8113807747687268
511,3913.01,0.8542532948755029
512,3915.7599999999998,0.8060989146906978
513,3918.4999999999995,0.8153600347974738
514,3921.24,0.7910885549042498
515,3923.99,0.6660577747194447
516,3926.73,0.6703537948262207
517,3929.47,0.6520319149329966
518,3932.21,0.7061344350397726
519,3934.96,0.7152734548549675
520,3937.7000000000003,0.7664206749617436
521,3940.44,0.7389178950685196
522,3943.1899999999996,0.7720931148837143
523,3945.9300000000003,0.7966033349904904
524,3948.67,0.7935704550972664
525,3951.42,0.7748507749124613
526,3954.16,0.7663407950192372
527,3956.8999999999996,0.7410446151260133
528,3959.65,0.6646383349412082
529,3962.39,0.5752321550479842
530,3965.13,0.5358685751547602
531,3967.87,0.5948567952615361
532,3970.6200000000003,0.684655715076731
533,3973.36,0.673820635183507
534,3976.1000000000004,0.665073955290283
535,3978.85,0.7653933751054779
536,3981.5899999999997,0.8053892952122539
537,3984.33,0.8583885153190298
538,3987.08,0.8236315351342247
539,3989.82,0.8618937552410008
540,3992.56,0.9260837753477767
541,3995.3100000000004,0.8702454951629716
542,3998.05,0.8498356152697476
543,4000.79,0.8572447353765237
544,4003.53,0.9486628554832996
545,4006.2799999999997,0.9196190752984945
546,4009.02,0.9485033954052704
547,4011.7599999999998,0.9609956155120465
548,4014.51,0.9483437353272414
549,4017.25,0.9680468554340174
550,4019.99,0.9187147755407933
551,4022.7400000000002,0.9368372953559881
552,4025.48,0.9347108154627642
553,4028.2200000000003,0.9256099355695402
554,4030.97,0.9229271553847351
555,4033.7099999999996,0.941802975491511
556,4036.45,0.837896395598287
557,4039.1899999999996,0.9316000157050631
558,4041.94,0.901255835520258
559,4044.68,0.910083655627034
560,4047.42,0.8679228757338099
561,4050.17,0.9018069955490048
562,4052.9100000000003,0.9837287156557808
563,4055.65,0.9697811357625568
564,4058.3999999999996,1.0004334555777517
565,4061.14,0.9664691756845276
566,4063.88,0.9188708957913037
567,4066.63,0.9358506156064986
568,4069.37,0.8310773357132746
569,4072.1099999999997,0.8423479558200505
570,4074.85,0.7839133759268265
571,4077.6,0.8875028957420215
572,4080.34,0.9143381158487974
573,4083.08,0.8716650359555734
574,4085.83,0.8183095557707682
575,4088.57,0.8125577758775443
576,4091.3100000000004,0.8415994959843203
577,4094.06,0.8065667157995151
578,4096.8,0.7897031359062912
579,4099.54,0.7500245560130671
580,4102.29,0.7673989758282621
