,lambda (Angstroms),Total Flux (erg/s/cm^2/Angstrom)
0,100.00999999999999,0.0007622555303945061
1,102.11,0.0009371513195865258
2,104.0,0.0010945567056423425
3,104.712855,0.0011539260678931124
4,105.94,0.001068655714869239
5,107.91,0.0009317678084939772
6,109.91000000000001,0.0007928058134836085
7,114.03999999999999,0.000505832147730751
8,118.05,0.0002271973841083138
9,120.22644299999999,7.605640639253625e-05
10,121.07,7.338182215826117e-05
11,125.03999999999999,6.067361161896292e-05
12,127.07,5.417720363589605e-05
13,127.95,5.1365435884615796e-05
14,130.93,4.183325434050778e-05
15,132.14,3.798933915749754e-05
16,133.98,3.211199018663889e-05
17,137.1,2.2182985023009016e-05
18,138.038426,1.9192522670895173e-05
19,139.97,1.902856702277262e-05
20,142.91,1.9086439086396294e-05
21,146.91,1.9186308798809456e-05
22,151.03,1.8999690452595013e-05
23,154.9,1.8891475811854746e-05
24,158.489319,1.8820493617483876e-05
25,158.86999999999998,1.878977363702497e-05
26,161.82999999999998,1.858648092807764e-05
27,165.98000000000002,1.8327650653708913e-05
28,169.84,1.8150524668392466e-05
29,173.0,1.8018394898029776e-05
30,177.03,1.7913140260510274e-05
31,179.91,1.7891469976129088e-05
32,181.970086,1.788478258168774e-05
33,181.99,1.7889310664204686e-05
34,185.79999999999998,1.8828098527940042e-05
35,191.01,2.0105955218244826e-05
36,194.11,2.093865619136284e-05
37,198.17999999999998,2.20886594657468e-05
38,201.85999999999999,2.3299586124157857e-05
39,205.14000000000001,2.4272999689263364e-05
40,208.929613,2.5331908072169032e-05
41,209.92000000000002,2.5890733927386744e-05
42,215.79999999999998,3.003151010510236e-05
43,219.81,3.274834520249007e-05
44,222.87,3.473800515211759e-05
45,227.01,3.7638886848672476e-05
46,230.17,4.7964234182274745e-05
47,233.91,6.831668634293061e-05
48,239.88329199999998,8.413249317186394e-05
49,239.91,8.418660089158646e-05
50,246.06,8.399365486707404e-05
51,251.8,8.831072991086244e-05
52,257.07,7.826576886221522e-05
53,260.05,8.868685451212628e-05
54,264.27,9.268864815059094e-05
55,269.18,9.412990413752493e-05
56,274.19,9.528066205901969e-05
57,275.42287,9.552682236165872e-05
58,279.28999999999996,9.854482467398906e-05
59,283.82,0.00010283186756321061
60,289.77,0.00010401420895192323
61,295.83000000000004,0.00011048153705538516
62,301.33,0.0001115199927928506
63,308.35,0.00011848753495230651
64,316.227766,0.0001263264067637791
65,317.72,0.00012703600920101812
66,328.13,0.00012877281840677074
67,338.1,0.00012976647506204002
68,348.38,0.00013027953919605894
69,357.31,0.00013116683527745863
70,363.078055,0.00013228685449480132
71,365.64,0.00013378625827503121
72,375.02,0.00013729947551571466
73,384.64,0.00013758303605466716
74,395.41,0.0001444165415644924
75,404.62,0.00014827551563556854
76,414.04999999999995,0.00015074740439672472
77,416.86938299999997,0.0001514475572300852
78,421.74,0.0001523231058585602
79,429.59,0.00015312622754988398
80,440.6,0.00015601767504306555
81,450.87,0.00015737230889910315
82,460.31,0.00015804317205401992
83,469.95000000000005,0.0001593338064622188
84,478.630092,0.00016074520852951316
85,479.79,0.00016065808317094593
86,489.83,0.00015841978917245612
87,500.09,0.00015822302598276434
88,505.88,0.00016415838681431256
89,511.73999999999995,0.00020420130744866016
90,520.0500000000001,0.00020348872118098582
91,529.72,0.00020259592536769932
92,539.5699999999999,0.00019602635476161122
93,549.5408739999999,0.00021079384007475076
94,549.6,0.00021088678782436035
95,559.8199999999999,0.00022626969257683616
96,570.23,0.00023593785749594318
97,579.49,0.00023016790035386157
98,590.27,0.00024621002454482924
99,599.86,0.00024474998242900175
100,609.61,0.0002554543172956005
101,619.51,0.0002819819680832239
102,629.58,0.0002901506569146751
103,630.957344,0.0002907695011840348
104,639.81,0.00029565937894342247
105,650.1999999999999,0.0003126594168855556
106,657.73,0.00031992363918625466
107,665.35,0.0003344977864546911
108,674.6,0.0003423564748054834
109,685.57,0.00033786862920636893
110,695.1,0.00038693088412345545
111,704.77,0.0003727015223236891
112,716.22,0.00042610787655250767
113,724.43596,0.00043588164527407554
114,726.19,0.00043792353220189887
115,734.6,0.00044979684464565005
116,744.82,0.00048160048854281265
117,755.1800000000001,0.0005012739453700733
118,765.68,0.0005172338151274322
119,774.55,0.0005514848129129344
120,785.32,0.0005829765718926253
121,794.42,0.000602859412349003
122,805.4699999999999,0.0006234727971888901
123,814.8,0.0006405248803161433
124,824.23,0.000683195629822038
125,831.763771,0.000639251559762533
126,835.7,0.0006158703706577854
127,845.37,0.000716499402683265
128,855.16,0.0007383668280741072
129,865.07,0.0007781388468303122
130,875.08,0.0008183122267243194
131,885.22,0.0008665403660974697
132,895.47,0.0009034656327222024
133,905.8299999999999,0.0009170646265985176
134,914.22,0.001329917996060128
135,924.8000000000001,0.007831011544439609
136,935.51,0.016833769552298233
137,944.17,0.033030714006831906
138,954.992586,0.04535895427369612
139,955.1,0.045481318506187245
140,963.9399999999999,0.05556766596469776
141,975.1,0.012950496511867145
142,984.12,0.05885461188242878
143,995.52,0.05831861964566633
144,1004.73,0.07257242281228193
145,1014.03,0.06483242493492308
146,1025.77,0.025760838754257182
147,1035.26,0.050328658672952296
148,1044.84,0.08644621754767297
149,1054.51,0.0866439353784192
150,1064.26,0.07460706228118814
151,1074.1100000000001,0.0848677680239855
152,1084.05,0.07290421272280842
153,1094.0800000000002,0.0870454663776569
154,1096.4782,0.08639084133807176
155,1104.2,0.08428286821918302
156,1114.42,0.08331865718196924
157,1124.73,0.07704608287730447
158,1135.14,0.08866050494213858
159,1145.64,0.0819849737395217
160,1156.24,0.08526137890640369
161,1164.26,0.08784526774021442
162,1175.03,0.06819626673524452
163,1185.9,0.08370194209977352
164,1194.1200000000001,0.063645623672582
165,1205.17,0.049065392502208996
166,1216.32,0.024939477701334877
167,1224.75,0.05479686165009103
168,1236.09,0.07865262995126479
169,1244.6599999999999,0.08684055881731939
170,1256.17,0.08564855094664126
171,1258.92541,0.0828693715915653
172,1264.8799999999999,0.07686364628829628
173,1273.65,0.09177071893552091
174,1285.4299999999998,0.09477952935562423
175,1294.34,0.08293426236437806
176,1306.32,0.08160606330095173
177,1315.37,0.09391309667123483
178,1324.49,0.09093032022228255
179,1333.67,0.08486175392827137
180,1346.01,0.09347858579449166
181,1355.34,0.09156233988783324
182,1364.74,0.08544960416193943
183,1374.1999999999998,0.08764410859098674
184,1383.72,0.08886034317497517
185,1396.53,0.08048787625490074
186,1406.21,0.08293390125206543
187,1415.95,0.08447651640417123
188,1425.77,0.08466785176286515
189,1435.65,0.08427812727650019
190,1442.28,0.08744098439749212
191,1445.43977,0.08801696533080433
192,1445.6,0.08804617290440273
193,1455.62,0.0864401846211625
194,1465.71,0.08236240648963619
195,1475.87,0.08160743850982376
196,1486.1,0.08179454068172523
197,1496.4099999999999,0.08236164302701399
198,1503.31,0.07956811798166893
199,1513.73,0.07391548056536525
200,1517.22,0.07704165812938636
201,1524.23,0.07546210332244885
202,1534.79,0.06882462620957296
203,1545.43,0.07306985927008434
204,1556.14,0.06946192248230962
205,1563.32,0.07010462804382013
206,1574.16,0.07357279153779979
207,1585.0700000000002,0.07546287518349334
208,1596.06,0.07704152900257419
209,1603.43,0.07442888497587953
210,1614.54,0.07425813905504133
211,1625.73,0.07157165330759044
212,1633.24,0.07425809958432358
213,1644.56,0.07460026411862707
214,1655.96,0.07010455882631784
215,1659.58691,0.07256695374120573
216,1663.6000000000001,0.07529159020500492
217,1671.28,0.06946212176164648
218,1675.1299999999999,0.07511467269824416
219,1686.74,0.07686555645769841
220,1694.53,0.07340727975538563
221,1706.28,0.07124002573071618
222,1714.15,0.0693027302946184
223,1726.03,0.06866625832754834
224,1734.0,0.07173820447421936
225,1746.02,0.06994554472302558
226,1754.0800000000002,0.07307098229418847
227,1766.24,0.06787943475887097
228,1774.39,0.07010641375452577
229,1786.69,0.07042800843508454
230,1794.9399999999998,0.07323759901350811
231,1803.22,0.07256881006676232
232,1815.72,0.06946469791285863
233,1824.1,0.06978076054888159
234,1836.75,0.06788021076913106
235,1845.22,0.06349738482964594
236,1853.74,0.06393583968154518
237,1866.59,0.06527967306733219
238,1875.21,0.0681970495020002
239,1883.86,0.06438084641149887
240,1896.92,0.06234180312110029
241,1905.46072,0.06462187180533283
242,1905.6799999999998,0.06468040382718429
243,1914.47,0.06320897449302809
244,1923.31,0.06205266413876862
245,1936.64,0.06248600217923483
246,1945.5800000000002,0.06557899978476879
247,1954.56,0.06248503657422015
248,1968.1100000000001,0.06618343012623193
249,1977.19,0.06710457487547672
250,1981.75,0.06437998184205782
251,1995.49,0.06291779151767714
252,2004.7,0.06349567361465341
253,2013.9499999999998,0.06248445489554707
254,2023.25,0.06364513515633745
255,2037.27,0.06219485911937841
256,2046.6799999999998,0.06349468713594157
257,2056.12,0.06105962454044277
258,2065.61,0.06148224092484069
259,2075.15,0.06452764628913533
260,2079.9300000000003,0.063349948767262
261,2084.73,0.06452738083734735
262,2094.35,0.06176516456947675
263,2104.02,0.062193107281502874
264,2113.73,0.062481899177446364
265,2123.48,0.06291575025730724
266,2133.29,0.05953205011304418
267,2143.13,0.06105782935671916
268,2153.0299999999997,0.062047177376270204
269,2162.96,0.06021685478375928
270,2172.95,0.05966523096712442
271,2182.98,0.059804076334406944
272,2187.7616199999998,0.060734424101229964
273,2193.05,0.06176356480246199
274,2203.1800000000003,0.06021669958123823
275,2213.34,0.05764265484800689
276,2223.56,0.0567220410907604
277,2233.82,0.060083527984170486
278,2244.14,0.05790989585356543
279,2254.4900000000002,0.055812714210952796
280,2264.9,0.05607453354432501
281,2275.35,0.057381083528353805
282,2285.86,0.05871390448836744
283,2296.4100000000003,0.055935916099037655
284,2307.0099999999998,0.056514508523028584
285,2317.66,0.05490873176034022
286,2323.0,0.047035068622992254
287,2333.72,0.051748492998952886
288,2344.49,0.049133758188234226
289,2355.31,0.053192554190836294
290,2366.19,0.0490149711694232
291,2377.11,0.050675238798666686
292,2382.59,0.04661689793861671
293,2393.5899999999997,0.04897794686917333
294,2404.63,0.04769466645038652
295,2415.73,0.04829791700758456
296,2426.8799999999997,0.051330708378103315
297,2432.48,0.04967139947002305
298,2443.71,0.05182635214185495
299,2454.99,0.05128667562700756
300,2466.3199999999997,0.05051855992548087
301,2477.7,0.048741355037274905
302,2483.41,0.048710167918500205
303,2494.8799999999997,0.04677999449427152
304,2506.39,0.0513434817206994
305,2511.88643,0.046307909327249215
306,2512.17,0.046048109342683004
307,2517.96,0.04591201289156099
308,2523.77,0.044529306314528345
309,2535.42,0.04540043297159715
310,2547.12,0.045235649313889424
311,2552.99,0.04854969235912495
312,2564.77,0.046946648197774776
313,2576.6099999999997,0.04920462365869277
314,2582.55,0.04860872626324116
315,2594.47,0.04776629122051671
316,2606.4500000000003,0.04608153580006043
317,2612.4599999999996,0.04520944796392167
318,2624.52,0.04738264203982294
319,2636.6299999999997,0.049660225800947685
320,2642.7099999999996,0.05416159752412179
321,2654.91,0.05624340071864878
322,2667.1600000000003,0.05098814359839924
323,2673.31,0.0528635048808862
324,2685.65,0.05364771719403891
325,2698.04,0.04999403919241509
326,2704.26,0.05183196003421492
327,2716.75,0.04830317140303804
328,2723.01,0.04749618199301664
329,2735.5800000000004,0.04977551285819732
330,2741.8799999999997,0.043322593196354696
331,2754.54,0.044985103494937624
332,2767.25,0.04725139347874401
333,2773.63,0.04898760331325895
334,2786.44,0.04502366266751229
335,2792.8599999999997,0.036069972250206
336,2805.75,0.038325001100816894
337,2812.2200000000003,0.04787600036873407
338,2825.2,0.050868078652747215
339,2838.2400000000002,0.04929223655902852
340,2844.78,0.04693028538625857
341,2857.9100000000003,0.04352971272594212
342,2864.5,0.04959404123839563
343,2877.72,0.05102046801148143
344,2884.0315,0.05031764655434865
345,2884.36,0.05028106823491645
346,2897.67,0.05089986652006334
347,2911.05,0.05572310479619148
348,2931.22,0.05308555219749973
349,2951.5400000000004,0.05187087957948207
350,2972.0,0.05246359694342688
351,2992.6000000000004,0.052454844289334175
352,3013.3500000000004,0.052686421615915545
353,3027.2599999999998,0.05308462982375877
354,3048.24,0.05344018712070707
355,3069.3700000000003,0.053673154398329447
356,3090.64,0.05353463165791431
357,3112.07,0.05426179889688486
358,3126.43,0.05293465704675032
359,3148.1,0.0526729842547994
360,3169.9300000000003,0.05362997144223417
361,3191.8999999999996,0.05072870861163141
362,3206.6299999999997,0.05253620671382628
363,3228.86,0.049690793849725266
364,3251.2400000000002,0.05433155096629833
365,3266.25,0.05717902903241816
366,3288.89,0.05649391611549297
367,3311.31121,0.05557762458500143
368,3311.6800000000003,0.055562552318458504
369,3319.32,0.053999673501795485
370,3326.9700000000003,0.054695274660503314
371,3334.64,0.05748406576995287
372,3342.33,0.05371590683014415
373,3350.0299999999997,0.05593732786570629
374,3357.76,0.05536970882738101
375,3365.5,0.048291199764426584
376,3373.25,0.04813312067684302
377,3381.0299999999997,0.052602851515372036
378,3388.82,0.055027132329271915
379,3396.6400000000003,0.05177893306928437
380,3404.47,0.05606535378466768
381,3412.31,0.05227471447542186
382,3420.18,0.05443294509228862
383,3428.0699999999997,0.055133885659897096
384,3435.97,0.05520353620287643
385,3443.89,0.04983761669659748
386,3451.8300000000004,0.05611863714106026
387,3459.78,0.0542830775608939
388,3467.7599999999998,0.05373150790684011
389,3475.7500000000005,0.05455051822815719
390,3483.77,0.05436825847558684
391,3491.7999999999997,0.05532107869838735
392,3499.85,0.050286478871929594
393,3507.92,0.05546004899621355
394,3516.0000000000005,0.05158832909586836
395,3524.1099999999997,0.05273459912163575
396,3532.23,0.055160449122774007
397,3540.37,0.05651469907465398
398,3548.54,0.05870899895264653
399,3556.72,0.056139798806009944
400,3564.91,0.056857418634744215
401,3573.13,0.04879344838959107
402,3581.37,0.050803378095179645
403,3589.62,0.04461097777613907
404,3597.9,0.05296108738321109
405,3606.19,0.05217856696565396
406,3614.51,0.05164411647420941
407,3619.71,0.039342733667056574
408,3622.45,0.03881825691867219
409,3625.1899999999996,0.04987845017028781
410,3627.94,0.05865546339727428
411,3630.68,0.0480975666488899
412,3633.4300000000003,0.03970827987587638
413,3636.17,0.048236673127492
414,3638.9100000000003,0.047172666379107615
415,3641.66,0.05507989960609409
416,3644.3999999999996,0.051356742857709706
417,3647.15,0.05844125608469619
418,3649.89,0.053586559336311804
419,3652.63,0.05073693258792743
420,3655.3799999999997,0.0574724758149139
421,3658.1200000000003,0.07312360906652951
422,3660.87,0.059083522293515996
423,3663.61,0.05216433554513161
424,3666.35,0.07075246879674724
425,3669.1000000000004,0.06051806202373371
426,3671.84,0.05068383527534933
427,3674.5899999999997,0.0519816685023358
428,3677.33,0.06397053175395143
429,3680.0699999999997,0.061909915005567036
430,3682.82,0.06481080823255352
431,3685.56,0.06004712148416913
432,3688.3100000000004,0.05172364471115561
433,3691.05,0.06225231796277123
434,3693.79,0.06986386121438684
435,3696.54,0.061866844441373324
436,3699.2799999999997,0.055095917692988945
437,3702.03,0.06352607091997542
438,3704.77,0.06203282417159103
439,3707.5099999999998,0.06393847742320666
440,3710.26,0.05798082065019313
441,3713.0,0.050139373901808754
442,3715.7400000000002,0.05951726715342436
443,3718.49,0.06832745038041085
444,3721.23,0.06551211363202647
445,3723.98,0.06909813685901295
446,3726.7200000000003,0.06104260011062856
447,3729.46,0.06387961336224417
448,3732.21,0.05102672658923065
449,3734.9500000000003,0.05786318984084628
450,3737.7,0.042055703067832746
451,3740.44,0.05834484631944837
452,3743.18,0.05902474957106398
453,3745.9300000000003,0.057552582798050464
454,3748.67,0.06271262604966608
455,3751.4199999999996,0.062348439276652554
456,3754.1600000000003,0.06314610252826817
457,3756.9,0.05553480577988379
458,3759.65,0.06924263900687028
459,3762.39,0.06535678225848589
460,3765.1400000000003,0.06863235548547236
461,3767.88,0.062177238737087984
462,3770.62,0.06879855198870359
463,3773.37,0.07118558521569009
464,3776.1099999999997,0.06990109846730569
465,3778.86,0.07801541169429219
466,3781.6,0.07601905494590779
467,3784.34,0.07447764819752341
468,3787.09,0.08162313142450989
469,3789.83,0.07801562467612551
470,3792.58,0.07074654790311198
471,3795.3199999999997,0.0690392011547276
472,3798.06,0.06360644440634322
473,3800.81,0.0650032676333297
474,3801.8939600000003,0.06744482156669579
475,3803.55,0.07117495173478772
476,3806.3,0.07069834637301221
477,3809.0400000000004,0.07637761103073408
478,3811.78,0.07827793568845594
479,3814.5299999999997,0.07964259032668045
480,3817.27,0.08150546498440231
481,3820.02,0.07845422962262681
482,3822.76,0.07093397428034867
483,3825.5,0.07098229893807054
484,3828.2500000000005,0.06405044357629504
485,3830.9900000000002,0.0652388482340169
486,3833.74,0.058553252872241404
487,3836.48,0.06212355752996327
488,3839.22,0.05892281218768513
489,3841.9700000000003,0.06591847682590964
490,3844.71,0.0759761714836315
491,3847.4599999999996,0.07459494612185599
492,3850.2,0.07524276077957785
493,3852.94,0.07760877543729973
494,3855.69,0.08000114007552422
495,3858.43,0.0797069047332461
496,3861.1800000000003,0.08235083937147059
497,3863.92,0.08274709402919245
498,3866.6600000000003,0.08739868868691432
499,3869.41,0.08640817332513882
500,3872.1499999999996,0.08137153798286069
501,3874.9,0.07917671262108518
502,3877.64,0.07980313727880704
503,3880.38,0.0779887519365289
504,3883.13,0.07605085657475341
505,3885.8700000000003,0.06923178123247528
506,3888.62,0.06392713587069977
507,3891.3599999999997,0.06724052052842164
508,3894.1,0.0739314251861435
509,3896.85,0.07724444982436801
510,3899.59,0.07818666448208987
511,3902.34,0.08114104912031436
512,3905.0800000000004,0.08225990377803623
513,3907.82,0.08197103843575809
514,3910.5699999999997,0.0858032430739826
515,3913.31,0.08575522773170446
516,3916.06,0.08558368236992896
517,3918.8,0.08630644702765082
518,3921.54,0.08594264168537269
519,3924.2899999999995,0.07976547632359719
520,3927.03,0.07170994098131905
521,3929.7799999999997,0.06383070561954356
522,3932.52,0.058355110277265414
523,3935.2599999999998,0.05735964493498728
524,3938.01,0.059944769573211786
525,3940.75,0.06702103423093365
526,3943.5,0.07172575886915815
527,3946.24,0.07777969352688001
528,3948.9800000000005,0.08194417818460188
529,3951.73,0.07931045282282638
530,3954.47,0.08042393748054824
531,3957.2200000000003,0.08060568211877274
532,3959.96,0.07404889677649461
533,3962.7000000000003,0.06919957143421647
534,3965.45,0.06066195607244097
535,3968.1899999999996,0.05452799073016283
536,3970.94,0.051852585368387334
537,3973.68,0.053896310026109194
538,3976.42,0.06127231468383106
539,3979.17,0.07161870932205557
540,3981.9100000000003,0.08043994397977744
541,3984.66,0.08990307861800192
542,3987.3999999999996,0.09475807327572379
543,3990.14,0.09725793793344566
544,3992.89,0.09572143257167016
545,3995.63,0.09646027722939203
546,3998.38,0.09582303186761652
547,4001.1200000000003,0.10088677652533838
548,4003.86,0.09913665118306025
549,4006.6099999999997,0.10082776582128475
550,4009.35,0.10030876047900662
551,4012.1,0.1040231551172311
552,4014.84,0.10487974977495297
553,4017.58,0.10430724443267485
554,4020.33,0.10601973907089934
555,4023.07,0.10539373372862121
556,4025.82,0.1031078283668457
557,4028.56,0.10490112302456757
558,4031.2999999999997,0.10533491768228943
559,4034.05,0.10364321232051393
560,4036.79,0.10236410697823581
561,4039.54,0.1067048016164603
562,4042.2799999999997,0.10418389627418216
563,4045.0199999999995,0.10317779093190403
564,4047.77,0.10314538557012853
565,4050.5099999999998,0.1050885802278504
566,4053.26,0.1067207748660749
567,4056.0,0.09962877952379676
