,lambda (Angstroms),Total Flux (erg/s/cm^2/Angstrom)
0,100.07000000000001,0.0017611630218982838
1,101.93,0.0021168550477760023
2,104.07,0.0025256167036675674
3,104.712855,0.0026485327046301614
4,106.0,0.0024444177864818093
5,107.97,0.002132273369833397
6,109.98,0.001815966754907858
7,114.11,0.001162164433294689
8,118.11999999999999,0.0005273874745128962
9,120.22644299999999,0.0002204055140099904
10,120.87,0.0002242697452968341
11,125.12,0.00020308990228438658
12,126.86,0.00019464331669811395
13,128.03,0.00018914819104527545
14,131.01,0.00017369409963890055
15,131.92000000000002,0.0001779113574644704
16,134.07,0.00016676889946993828
17,136.87,0.0001651077127793845
18,138.038426,0.0001596922846626663
19,140.06,0.00016467960817690815
20,142.98999999999998,0.000292805497630538
21,147.0,0.0005183308831967685
22,151.12,0.0005538170683670603
23,154.99,0.0005960368544372131
24,158.489319,0.0006386970573551285
25,158.97000000000003,0.0006444899920971304
26,161.92999999999998,0.0006792843044571713
27,166.08,0.0007316414248268233
28,169.95,0.0007782993021353904
29,173.11,0.0008193445166819206
30,177.14000000000001,0.000868310975739679
31,180.02,0.0009045930472251243
32,181.970086,0.0009307838860756041
33,182.1,0.0009325973103484159
34,185.92000000000002,0.0009866260924129404
35,191.12,0.0010559692810871621
36,193.78,0.0011021952387551294
37,197.84,0.0011583901741430795
38,201.98000000000002,0.0012175663939721713
39,204.79000000000002,0.0012625576349672798
40,208.929613,0.0012833219668332203
41,210.04999999999998,0.0012896724818369596
42,215.93,0.0014283159488224237
43,219.95000000000002,0.0014969623293124858
44,223.01000000000002,0.0015333532458049212
45,227.14999999999998,0.001606905309294687
46,229.77999999999997,0.0024106845283715186
47,234.04999999999998,0.003990782081777629
48,239.88329199999998,0.005109008586783894
49,240.06,0.0051426314428308665
50,246.22000000000003,0.004887030930405784
51,251.95,0.005193864952127257
52,257.23,0.004236844370048614
53,260.21,0.005048338924102714
54,263.83,0.005330188892450311
55,268.73,0.005327129689384904
56,273.73,0.005299622176052857
57,275.42287,0.005282435257645509
58,278.82,0.005252462962007261
59,284.0,0.005280513558709827
60,289.95,0.005036917838706019
61,296.02,0.0050755575109038146
62,300.83,0.0048748280649847705
63,307.83000000000004,0.0049582542767449955
64,316.227766,0.005039880571379798
65,317.92,0.00505431614396412
66,328.33,0.00498060777935722
67,338.31,0.004863284669004016
68,347.78999999999996,0.00473806901708534
69,356.71000000000004,0.0046905709986133385
70,363.078055,0.0046949335064782865
71,365.86,0.004699330326546746
72,375.25,0.004596933958264209
73,384.87,0.004335916866370921
74,394.75000000000006,0.004429704826048082
75,404.87,0.004403537987174891
76,414.3,0.004308002319133964
77,416.86938299999997,0.00426405195395871
78,422.0,0.004175485073128064
79,429.85,0.004065147741003503
80,440.88,0.004021781295992814
81,451.15000000000003,0.003916356871671892
82,459.53000000000003,0.0037793263540663088
83,470.24,0.003688777549346048
84,478.630092,0.003648685282472916
85,480.08000000000004,0.003640967713695657
86,490.14000000000004,0.0034690834416435056
87,500.40000000000003,0.00345816741467978
88,506.19,0.0033488036099897246
89,512.0600000000001,0.0035334371033350393
90,520.38,0.0034362470990135776
91,530.05,0.003296357249038994
92,539.9,0.003091100819643995
93,549.5408739999999,0.0029891648085606914
94,549.94,0.0029850278512258297
95,560.17,0.0030453657452388606
96,570.5799999999999,0.0030374675494104788
97,579.85,0.002935045922577712
98,590.63,0.002881272542075315
99,600.23,0.0027155667505332913
100,609.98,0.0023808508841234232
101,619.89,0.002683116937854522
102,629.97,0.002574890906735397
103,630.957344,0.002574794671484801
104,640.1999999999999,0.0025760747527996796
105,650.6,0.002491538607783626
106,658.14,0.002393175027646987
107,665.76,0.002426897284856378
108,675.0200000000001,0.0023954867076593916
109,684.41,0.0022451977411497045
110,695.5300000000001,0.0022823761322479236
111,705.21,0.0021204214511175968
112,716.67,0.002194603900936445
113,724.43596,0.0021652440576359257
114,726.6400000000001,0.0021567828103612294
115,735.05,0.002119116022919207
116,745.28,0.0020498255145325384
117,755.6400000000001,0.0020008160260783945
118,764.39,0.0018062384446137464
119,775.03,0.001919131537552734
120,785.81,0.001824058421188287
121,794.9100000000001,0.001828803816465053
122,804.11,0.0018092869193822225
123,815.3000000000001,0.0017782314043434323
124,824.74,0.0017515470055975719
125,831.763771,0.0016324275853913579
126,834.2900000000001,0.0015889648899713562
127,845.9,0.0016700020599303485
128,855.69,0.0016245270447622635
129,865.6,0.0016084748659761837
130,875.62,0.0015820382038736086
131,885.76,0.0015490473781530382
132,896.02,0.0015200323888144732
133,904.31,0.0014786174188713246
134,914.7800000000001,0.0014967291432012686
135,925.3699999999999,0.0024605137039132178
136,933.94,0.0034778756855280805
137,944.75,0.004485643279607039
138,954.992586,0.005066919163703636
139,955.69,0.0051065966939778775
140,964.53,0.005468839915596836
141,975.7,0.0027493432555836888
142,984.73,0.004746383431060974
143,996.1299999999999,0.004607309662560537
144,1005.35,0.005455033791896148
145,1014.65,0.005380735796540528
146,1024.04,0.0033636054109072735
147,1035.9,0.004595828425432257
148,1045.48,0.006170745993657329
149,1055.16,0.005976056906018361
150,1064.92,0.005174309693688162
151,1074.77,0.005617769091080328
152,1084.72,0.004689794832608455
153,1094.76,0.005655799183858948
154,1096.4782,0.005612826395150857
155,1104.88,0.0054022191617949175
156,1115.11,0.005255371805972
157,1125.43,0.00475172096901281
158,1135.8400000000001,0.005437037650917347
159,1143.71,0.005122377467112229
160,1154.3,0.005180268186744223
161,1164.98,0.005156007425239945
162,1175.76,0.0038826303513620312
163,1183.8999999999999,0.004912694724148097
164,1194.86,0.004090688687997639
165,1205.92,0.0034299093394735457
166,1214.27,0.002481204256274976
167,1225.51,0.003914258945478339
168,1234.01,0.004731964393719317
169,1245.42,0.004918575951887498
170,1254.06,0.004762789762805386
171,1258.92541,0.004629742511054179
172,1265.66,0.00444618115026026
173,1274.43,0.004985835003210299
174,1286.2199999999998,0.005054824712022267
175,1295.1399999999999,0.004335869451852866
176,1304.12,0.004316067546435688
177,1316.18,0.004873000851632663
178,1325.3100000000002,0.004665579833096045
179,1334.49,0.004296823110186279
180,1343.75,0.004719326860279479
181,1356.1799999999998,0.004591665353115167
182,1365.5800000000002,0.004238118930963555
183,1375.04,0.004277209863564168
184,1384.58,0.004267485269167745
185,1394.17,0.0035866189703981756
186,1403.8400000000001,0.0035866501446315704
187,1413.5700000000002,0.00396631867361719
188,1423.37,0.003921546616480404
189,1436.54,0.0039485984845935174
190,1443.17,0.004039968684714243
191,1445.43977,0.004039963019660338
192,1446.5,0.004039959366026398
193,1456.52,0.0039217210885897314
194,1466.62,0.0037036942081395984
195,1473.3899999999999,0.0036868218031250043
196,1483.6,0.003703794468531355
197,1493.8799999999999,0.003678510481300923
198,1504.24,0.0035143888910570244
199,1511.18,0.003229525329638814
200,1518.16,0.0033496569667138707
201,1525.17,0.0032967057526588775
202,1535.7399999999998,0.0029344182045046296
203,1546.3799999999999,0.0029211620037135986
204,1553.52,0.0028229664347617224
205,1564.2900000000002,0.0029480028790738085
206,1575.1299999999999,0.003078698670749111
207,1586.05,0.0031426338594109475
208,1593.3700000000001,0.003164279183678772
209,1604.42,0.0030788210174437255
210,1615.54,0.0030509001985718964
211,1626.7400000000002,0.0029416237766866
212,1634.2400000000002,0.0030579879941741253
213,1645.5700000000002,0.0030510602173919464
214,1653.1699999999998,0.0029150309311126383
215,1659.58691,0.0029951470426158944
216,1664.63,0.0030582685303815037
217,1672.31,0.0028110908457410514
218,1676.1699999999998,0.003107898728200407
219,1683.9,0.0031367138555089104
220,1695.5700000000002,0.002983628764395098
221,1703.3999999999999,0.0028967625156015118
222,1715.21,0.002793476497944774
223,1723.1299999999999,0.002774741510659308
224,1735.07,0.0029111402040698548
225,1743.08,0.002852362478292508
226,1755.16,0.0029857752451601296
227,1763.2600000000002,0.0027825547808909023
228,1775.48,0.0028148536212155993
229,1783.68,0.002866854780844283
230,1796.0400000000002,0.003035282694626055
231,1804.3300000000002,0.003001185115762858
232,1816.8400000000001,0.0028099334653914963
233,1825.23,0.0028618435104262106
234,1833.65,0.0027787646426302975
235,1846.36,0.0025204972400547578
236,1854.8899999999999,0.0026081383585465465
237,1863.45,0.002735945564207709
238,1876.36,0.0028507234094279905
239,1885.02,0.0026874362389870633
240,1893.7300000000002,0.0026816628804950922
241,1905.46072,0.002753955637897458
242,1906.85,0.0027624020931433543
243,1915.65,0.0027122460236074166
244,1924.5,0.0025738116184491158
245,1933.38,0.002436937811917397
246,1946.78,0.0028368798651240376
247,1955.77,0.0027165109202231196
248,1964.79,0.0030021005739487836
249,1973.8600000000001,0.002954208892052084
250,1982.97,0.002967288341657494
251,1996.7199999999998,0.002946427045507592
252,2005.94,0.002932592356743803
253,2015.19,0.002938868266606596
254,2024.5,0.002813968373722553
255,2033.8400000000001,0.002985230079465092
256,2043.23,0.003167086449585268
257,2052.66,0.0029775589512075528
258,2066.8900000000003,0.002963333233082963
259,2071.65,0.0032684878818339783
260,2076.43,0.004309163596336049
261,2086.01,0.004931506091091244
262,2095.64,0.004582919250224076
263,2105.31,0.0044583235408590174
264,2115.0299999999997,0.004862841495871595
265,2124.79,0.004467486582386283
266,2134.6,0.0042476073332786074
267,2144.46,0.005031429748548568
268,2154.35,0.005030987762445111
269,2164.3,0.004516945973594817
270,2174.29,0.004547700316246635
271,2184.3199999999997,0.0053630867904005605
272,2187.7616199999998,0.005375444447656068
273,2194.41,0.00539987463274697
274,2204.54,0.005241978909247527
275,2214.71,0.004304974675487475
276,2224.93,0.0048056013039016595
277,2235.2,0.006043689794490083
278,2245.52,0.005759962147252743
279,2255.8900000000003,0.004612672362189641
280,2266.3,0.00437641106686593
281,2276.7599999999998,0.004709322633716455
282,2287.27,0.006004340062741219
283,2292.54,0.005079494335905872
284,2303.12,0.005995204371974569
285,2313.75,0.005231086270217503
286,2324.4300000000003,0.004262246030634675
287,2335.16,0.003975325653226085
288,2345.94,0.003005510137991732
289,2356.77,0.004928791484931617
290,2367.65,0.0032260956940457397
291,2373.1,0.003973488671037648
292,2384.06,0.0026934348596305514
293,2395.06,0.0032064955379628446
294,2406.12,0.003188548450904223
295,2417.22,0.003635795853584991
296,2422.7999999999997,0.0057074146722299185
297,2433.98,0.005714018054389467
298,2445.21,0.0067311552987232535
299,2456.5,0.0070875017776661255
300,2462.16,0.006195171575789833
301,2473.5299999999997,0.005506484034211485
302,2484.95,0.0036457753548073744
303,2496.42,0.004272874537577503
304,2502.17,0.0064088946876148375
305,2511.88643,0.0036947863453455376
306,2513.72,0.0031825171318659307
307,2519.5099999999998,0.002636474673594943
308,2525.3199999999997,0.0028693129270397724
309,2536.9799999999996,0.004399187857361065
310,2542.83,0.004638981534237529
311,2554.5699999999997,0.008044849311422088
312,2566.3599999999997,0.006076279367896191
313,2572.27,0.007697470179920106
314,2584.15,0.006840461939115385
315,2596.0699999999997,0.006177602121742298
316,2602.06,0.00536326378062948
317,2614.07,0.00486644566597757
318,2626.1400000000003,0.00657530168647311
319,2632.1899999999996,0.011252127480507742
320,2644.34,0.015149762347866552
321,2656.54,0.021117536494514904
322,2662.6699999999996,0.013498658135412803
323,2674.96,0.015299500984782331
324,2687.31,0.017826142969299307
325,2693.5,0.012871243745344658
326,2705.93,0.015992694576724906
327,2712.17,0.0115220846320598
328,2724.69,0.009148827166161222
329,2737.27,0.011682852835410094
330,2743.58,0.006648341881750349
331,2756.24,0.00911327139786249
332,2762.5899999999997,0.011982907867634379
333,2775.34,0.012823914086467695
334,2788.1600000000003,0.007643274296306371
335,2794.58,0.003528947757083618
336,2807.48,0.004231485813785563
337,2813.9500000000003,0.011291467553852352
338,2826.94,0.01655390031327547
339,2833.46,0.015496146332631805
340,2846.54,0.011094337794776102
341,2853.1,0.006371822237564068
342,2866.27,0.015472903402429542
343,2872.8799999999997,0.021213228124507048
344,2884.0315,0.019591541729853362
345,2886.14,0.019284946762467198
346,2892.79,0.023733674800783446
347,2912.8399999999997,0.03236251888623317
348,2933.0299999999997,0.028244282930384293
349,2953.3599999999997,0.02604992693323681
350,2967.0,0.027248302909572683
351,2987.5600000000004,0.027744436844577492
352,3008.27,0.02786237073533379
353,3029.1200000000003,0.029980234584791488
354,3050.12,0.03152602839000068
355,3071.26,0.03447424215391126
356,3092.55,0.033603055873573345
357,3106.83,0.039164331661115596
358,3128.36,0.03620665530998006
359,3150.0499999999997,0.03619680891164613
360,3171.88,0.04022387247201359
361,3186.52,0.034925968153359424
362,3208.61,0.03881326163702947
363,3230.85,0.032881485076451014
364,3253.2499999999995,0.046526308468674143
365,3268.26,0.05461010404087367
366,3290.92,0.0537258273563994
367,3311.31121,0.050613681079336705
368,3313.7299999999996,0.05024450770146175
369,3321.3700000000003,0.047033364618942634
370,3329.02,0.05329667148003278
371,3336.7000000000003,0.05308854817195074
372,3344.39,0.04946785480747796
373,3352.1,0.04567133133022372
374,3359.83,0.05544827774018802
375,3367.5699999999997,0.050608404093761584
376,3375.34,0.03720715027816295
377,3383.12,0.04167625640617359
378,3390.91,0.05249682247779349
379,3398.73,0.0504034783802412
380,3406.5699999999997,0.05404374416990745
381,3414.42,0.05236645990318296
382,3422.29,0.05892909552367701
383,3430.18,0.0545345110313896
384,3438.0899999999997,0.05610104642632072
385,3446.0099999999998,0.03684615176486112
386,3453.9599999999996,0.05762194693422931
387,3461.92,0.047308822047206774
388,3469.9,0.05096208704740277
389,3477.9,0.04421752193481731
390,3485.92,0.05174516670945039
391,3493.9500000000003,0.04562494142769273
392,3502.0099999999998,0.05134542597676287
393,3510.08,0.05711789046944228
394,3518.17,0.04990231484934023
395,3526.2799999999997,0.04554672911645673
396,3534.41,0.05711131327079175
397,3542.56,0.06516548731234531
398,3550.7300000000005,0.0628543612411174
399,3558.9100000000003,0.05750126511349877
400,3567.11,0.05407556887309867
401,3575.34,0.046063072463526374
402,3583.58,0.038259135997563344
403,3591.84,0.03917886941881885
404,3600.12,0.06342332272729291
405,3608.42,0.05183245592298548
406,3616.74,0.0560934990058966
407,3625.07,0.054985302032416986
408,3633.4300000000003,0.058150994889765176
409,3641.81,0.0685226676343319
410,3650.2000000000003,0.053730540322507896
411,3658.6200000000003,0.07524401284151169
412,3667.05,0.07478269530412476
413,3675.5,0.07658035765395638
414,3683.98,0.062012129834615785
415,3692.47,0.06543132195888446
416,3700.98,0.07414895397037166
417,3709.5099999999998,0.05181890586907742
418,3718.07,0.08179661759861098
419,3726.64,0.0542173592717538
420,3735.23,0.06045816083211516
421,3743.84,0.06573004227969505
422,3752.47,0.038745623614493484
423,3761.12,0.06115355483651045
424,3769.79,0.05791280594574596
425,3778.48,0.07245499694219999
426,3787.1899999999996,0.08286564782587258
427,3795.92,0.06335043859676369
428,3801.8939600000003,0.06368341733540607
429,3804.67,0.06383815251663164
430,3813.44,0.07540268336642961
431,3822.23,0.05633308412694548
432,3831.04,0.04160889479817925
433,3839.8700000000003,0.04088090538013092
434,3848.73,0.06335009582815943
435,3857.6,0.06238488623154689
436,3866.4900000000002,0.06674377654565225
437,3875.4,0.05245509677047551
438,3884.34,0.05729468686137561
439,3893.29,0.054132226907634654
440,3895.09,0.06760839887224541
441,3899.15,0.07442090074797858
442,3903.2099999999996,0.07537662262371173
443,3907.27,0.08083691449944488
444,3911.33,0.07595502637517804
445,3915.3900000000003,0.07657598825091119
446,3919.45,0.06880089012664435
447,3923.51,0.05744752200237751
448,3927.57,0.04890892387811067
449,3931.6400000000003,0.03923227570920276
450,3935.7,0.04026592758493592
451,3939.7599999999998,0.046129609460669074
452,3943.82,0.06488709133640223
453,3947.8799999999997,0.06972369321213538
454,3951.94,0.07169350508786855
455,3956.0,0.0704613769636017
456,3960.0600000000004,0.06170182883933486
457,3964.12,0.05300726071506801
458,3968.18,0.045690572590801164
459,3972.2400000000002,0.050839174466534326
460,3976.2999999999997,0.05944940634226748
461,3980.36,0.07937374821800064
462,3984.42,0.0876167300937338
463,3988.48,0.09414310196946694
464,3992.54,0.1007901438452001
465,3996.6000000000004,0.10127142572093326
466,4000.66,0.09986692759666642
467,4004.72,0.10234708947239957
468,4008.78,0.10688477134813273
469,4012.8399999999997,0.10897105322386588
470,4016.9,0.10724533509959905
471,4020.96,0.1083214169753322
472,4025.0200000000004,0.10445309885106535
473,4029.08,0.1065887807267985
474,4033.14,0.10407646260253167
475,4037.2000000000003,0.09789718447826481
476,4041.2599999999998,0.10116072635399798
477,4045.32,0.10464190822973113
478,4049.38,0.10339019010546428
479,4053.4399999999996,0.10164817198119744
480,4057.5,0.1052199538569306
481,4061.56,0.10354943573266374
482,4065.62,0.1002213176083969
483,4069.68,0.10035419948413006
484,4073.7400000000002,0.10041938135986322
485,4077.7999999999997,0.10559086323559637
486,4081.86,0.11299804511132953
487,4085.92,0.11509792698706268
488,4089.9799999999996,0.10971230886279584
489,4094.04,0.106819090738529
490,4098.1,0.10403377261426215
491,4102.16,0.1000782544899953
492,4106.22,0.09858274636572847
493,4110.28,0.10663071824146161
494,4114.34,0.10594190011719477
495,4118.4,0.10666958199292793
496,4122.46,0.1086622638686611
497,4126.52,0.10433294574439424
498,4130.58,0.10479412762012741
499,4134.64,0.10696550949586055
500,4138.7,0.10340279137159371
501,4142.76,0.10388077324732686
502,4146.82,0.10367615512306003
503,4150.88,0.10019793699879317
504,4154.94,0.10689061887452633
505,4159.0,0.10355910075025948
506,4163.06,0.10763148262599265
507,4167.12,0.1076283645017258
508,4171.18,0.10522004637745896
509,4175.24,0.10274622825319212
510,4179.3,0.10465111012892526
511,4183.36,0.10496329200465843
512,4187.42,0.10611027388039158
513,4191.4800000000005,0.10682225575612474
514,4195.54,0.1054410376318579
515,4199.6,0.10521641950759104
516,4203.66,0.10469330138332421
517,4207.719999999999,0.10727098325905736
518,4211.78,0.10911686513479052
519,4215.84,0.10870094701052367
520,4219.9,0.10557382888625683
521,4223.96,0.10567471076198998
522,4228.02,0.10195319263772314
523,4232.08,0.1002334745134563
524,4236.14,0.10184255638918945
525,4240.2,0.1034516382649226
526,4244.26,0.10506022014065576
527,4248.32,0.10666930201638891
528,4252.38,0.10692948389212208
529,4256.4400000000005,0.11012096576785523
530,4260.5,0.10734854764358838
531,4264.56,0.10467042951932154
532,4268.62,0.1045726113950547
533,4272.679999999999,0.10475809327078785
534,4276.74,0.104286875146521
535,4280.8,0.10397455702225415
536,4284.86,0.10330183889798732
537,4288.92,0.10115682077372047
538,4292.9800000000005,0.09341742264945363
539,4297.04,0.08365348452518678
540,4301.1,0.08766739640091994
541,4305.17,0.08679601823201205
542,4309.23,0.0949479801077452
543,4313.29,0.10064231198347837
544,4317.349999999999,0.1055568938592115
545,4321.41,0.11646197573494467
546,4325.47,0.11997195761067782
547,4329.53,0.11611403948641098
548,4333.59,0.11872422136214414
549,4337.650000000001,0.11703370323787729
550,4341.71,0.11689408511361045
551,4345.7699999999995,0.11539256698934361
552,4349.83,0.11751144886507675
553,4353.89,0.12288773074080991
554,4357.95,0.12280661261654306
555,4362.01,0.12704149449227622
556,4365.15832,0.12542598904474178
557,4366.070000000001,0.12495818276571127
558,4370.13,0.12187649313243873
559,4374.19,0.11268150349916618
560,4378.25,0.11189841386589365
561,4382.3099999999995,0.1097691242326211
