,lambda (Angstroms),Total Flux (erg/s/cm^2/Angstrom)
0,100.04,0.0011294450163811661
1,101.89999999999999,0.00135858184701279
2,104.03,0.0016193430603167495
3,104.712855,0.0017033991266357687
4,105.97,0.0015785420794113823
5,107.94,0.0013838269113481334
6,109.94999999999999,0.001192326581496799
7,114.07000000000001,0.0007870849973239105
8,118.08000000000001,0.00039272865806826054
9,120.22644299999999,0.00026557750792789757
10,121.11,0.0002984872296951175
11,125.08,0.0003140096123181765
12,127.11,0.00031904525355868274
13,127.99,0.00032567177439200563
14,130.97,0.00033287605857757635
15,131.88,0.0003661118460302171
16,134.02,0.0003714867648748886
17,137.14000000000001,0.0004209581932839425
18,138.038426,0.00042602952587783636
19,140.02,0.0004461632544041005
20,142.95000000000002,0.0009167748494789766
21,146.95,0.0017861534458269302
22,151.07,0.0019025553030653224
23,154.95,0.0020409618385228375
24,158.489319,0.0021779581397044236
25,158.92,0.002194590296153691
26,161.87,0.002311944939644129
27,166.03,0.0024856942199560678
28,169.89000000000001,0.0026368917060147416
29,173.05,0.0027656530054824646
30,177.08,0.0029208123082846557
31,179.96,0.003042532733115998
32,181.970086,0.0031309935643422247
33,182.04000000000002,0.003134093847769791
34,185.85999999999999,0.0032961451072571783
35,191.06,0.003507240172527967
36,194.17000000000002,0.003654680394257227
37,197.78,0.0038265024876471404
38,201.92000000000002,0.0040065199049973445
39,205.2,0.004137198023091227
40,208.929613,0.004189762730763442
41,209.98,0.0042050023173641525
42,215.86,0.0046327592121300125
43,219.88,0.004829493783041367
44,222.94000000000003,0.004920380799705234
45,227.07999999999998,0.0051415689398975235
46,230.23999999999998,0.007697746597628837
47,233.98,0.01284425717355134
48,239.88329199999998,0.01593103785505463
49,239.98,0.01598151808455806
50,246.14000000000001,0.015155199116897666
51,251.87,0.01590230598626552
52,257.15,0.013138496871128044
53,260.12,0.015325692368863213
54,263.74,0.016007832066439413
55,269.26,0.015895984809704777
56,274.27,0.015747986103864107
57,275.42287,0.015700766565407552
58,278.72999999999996,0.015568108503876023
59,283.90999999999997,0.015499630001787298
60,289.85,0.014670203302480922
61,295.92,0.01477439335891363
62,300.73,0.014243203321259813
63,307.74,0.014344203765344378
64,316.227766,0.01440375348758598
65,317.82,0.014413720204184577
66,328.22999999999996,0.014083461244756953
67,338.20000000000005,0.013697832990626942
68,347.68,0.01326105143103291
69,356.59999999999997,0.012986188950908568
70,363.078055,0.012879087918499458
71,365.75000000000006,0.012836434228764878
72,375.13,0.012489525279103497
73,384.75,0.01174133622838468
74,394.61999999999995,0.011770569572397704
75,404.74,0.011559015311142567
76,414.17,0.011221468840427552
77,416.86938299999997,0.011097693981856806
78,421.87,0.01086790136430798
79,429.71000000000004,0.010549625360991065
80,440.74,0.01028832704254903
81,451.0,0.009942201420861335
82,460.45000000000005,0.009607324506148984
83,470.09000000000003,0.00930525704288686
84,478.630092,0.009105889710941865
85,479.93,0.009075093653896955
86,489.98,0.008666363462834122
87,500.24,0.008526825040913255
88,506.03000000000003,0.008294347247256159
89,511.89,0.008543977709979719
90,520.2099999999999,0.008310516182652078
91,529.88,0.007972580599808534
92,539.73,0.007544121676229537
93,549.5408739999999,0.007293009006735256
94,549.77,0.007287174792622747
95,559.99,0.0072866117000877
96,570.4,0.007170153465910611
97,579.67,0.006895385081585767
98,590.4399999999999,0.00675401984219218
99,600.04,0.0064063693697522135
100,609.79,0.0056731043118053714
101,619.6999999999999,0.006216842029317864
102,629.76,0.005978998161323482
103,630.957344,0.0059693605511427356
104,640.0,0.005897931562830256
105,650.4,0.005712689397491854
106,657.9300000000001,0.005507589016242029
107,665.5500000000001,0.005508088387407546
108,674.81,0.005396626024808161
109,685.77,0.0051091960967207676
110,695.31,0.005133430852746887
111,704.98,0.004815787806706276
112,716.4399999999999,0.004894491947592997
113,724.43596,0.004797582625555024
114,726.4,0.004773705960407717
115,734.82,0.004676966623003433
116,745.04,0.004540581503256191
117,755.4,0.0044284242448822736
118,764.15,0.004042348080715115
119,774.7800000000001,0.004231814054989754
120,785.5600000000001,0.004071260380735812
121,794.65,0.004034753879903871
122,805.71,0.003971284928396582
123,815.04,0.0038911951899189136
124,824.4799999999999,0.0038301368425202862
125,831.763771,0.0036287460626089215
126,835.95,0.0035123475466926246
127,845.63,0.003650025299997649
128,855.4200000000001,0.0035587553004993214
129,865.3199999999999,0.0035171965481976416
130,875.34,0.0034684449746559417
131,885.48,0.003404704579874221
132,895.73,0.0033498474322891485
133,904.02,0.003265909698291075
134,914.49,0.003718253045099299
135,925.08,0.008077580570667502
136,935.79,0.013538803274995685
137,944.45,0.021439028008840882
138,954.992586,0.027445922844993045
139,955.39,0.027672394888934162
140,964.2299999999999,0.03104563560273088
141,975.39,0.009394710137343023
142,984.4200000000001,0.027798844642499626
143,995.8100000000001,0.027929162292968473
144,1005.03,0.03663884658948496
145,1014.3299999999999,0.03474927953499508
146,1026.07,0.01645599127481108
147,1035.57,0.026185890842805287
148,1045.1499999999999,0.043842459059793136
149,1054.8200000000002,0.042844405756898817
150,1064.58,0.03523405093412234
151,1074.43,0.040355554591463706
152,1084.3700000000001,0.032580356728922906
153,1094.4099999999999,0.041199217177624155
154,1096.4782,0.040857647223459366
155,1104.53,0.0395275766723056
156,1114.75,0.03809851649352333
157,1125.07,0.03442909102923439
158,1135.48,0.04148415080798943
159,1145.98,0.03792285582978847
160,1153.93,0.03952482563200775
161,1164.6,0.04025867166844544
162,1175.38,0.02923838189082579
163,1186.26,0.03835911682769946
164,1194.48,0.02805113235905071
165,1205.53,0.021430098310563035
166,1213.8899999999999,0.013621596442204937
167,1225.12,0.026238382879805244
168,1233.61,0.037140344140288474
169,1245.03,0.04025346053542609
170,1253.66,0.03870864439619997
171,1258.92541,0.03651350262983566
172,1265.26,0.03387297990778774
173,1274.03,0.041764332879009394
174,1285.81,0.043133317166465616
175,1294.73,0.03538777070161923
176,1303.7,0.03473970442475015
177,1315.77,0.041571299802474815
178,1324.8899999999999,0.0397923440895377
179,1334.07,0.03571357860217336
180,1346.41,0.04100386499497555
181,1355.75,0.03961036010913863
182,1365.1399999999999,0.03587904541127903
183,1374.61,0.03705398101418314
184,1384.14,0.037224916842660036
185,1393.73,0.0324228128967097
186,1403.3899999999999,0.033256159213927626
187,1416.3799999999999,0.03426548805043495
188,1426.19,0.034662994931584826
189,1436.0800000000002,0.034342872113498416
190,1442.71,0.035796307039290834
191,1445.43977,0.03606879274786119
192,1446.0300000000002,0.03612770916436917
193,1456.0600000000002,0.035062820812516424
194,1466.1499999999999,0.032572372649984596
195,1476.3100000000002,0.03227467470832717
196,1486.5500000000002,0.03257230701909765
197,1493.41,0.03279829866478958
198,1503.76,0.031107671322648408
199,1510.7,0.02804902322076824
200,1517.67,0.029640705213548533
201,1524.6799999999998,0.02876615733254277
202,1535.25,0.025347090684578306
203,1545.89,0.02709673425748825
204,1556.6,0.025640708051272602
205,1563.79,0.0260569907382296
206,1574.6299999999999,0.02747306494220928
207,1585.54,0.028372039367063367
208,1596.54,0.028898464075898835
209,1603.9,0.02804938729926511
210,1615.02,0.02791970238674242
211,1626.2199999999998,0.026480407726647625
212,1633.7199999999998,0.027790061391762717
213,1645.0500000000002,0.02798303714186325
214,1656.4499999999998,0.02593778311283819
215,1659.58691,0.02677641412022943
216,1664.1000000000001,0.027983047005657714
217,1671.78,0.025173463975288215
218,1675.6299999999999,0.028049682690532672
219,1683.37,0.02889937104273841
220,1695.03,0.02722277972319305
221,1706.78,0.026118490477510546
222,1714.66,0.024943902055725175
223,1726.55,0.024715586036051562
224,1734.52,0.02611879968812905
225,1746.54,0.02540806666403512
226,1754.6000000000001,0.02691280238997546
227,1766.76,0.02460337259189042
228,1774.92,0.025233990622122827
229,1783.11,0.025525909343642853
230,1795.47,0.027100004154141943
231,1803.76,0.02666733517995403
232,1816.26,0.024831713216462006
233,1824.6499999999999,0.025177106546566158
234,1833.07,0.02421179056795793
235,1845.77,0.022134253213050036
236,1854.2900000000002,0.02244209953873387
237,1867.1499999999999,0.02323031587069328
238,1875.77,0.024605604500669176
239,1884.42,0.0229126038219327
240,1893.1200000000001,0.022288734295342248
241,1905.46072,0.023125027193281154
242,1906.2399999999998,0.02317779551494644
243,1915.04,0.022546794132232952
244,1923.88,0.021831701561416218
245,1937.22,0.02158153532898463
246,1946.16,0.023498519787909785
247,1955.1399999999999,0.0222363730587317
248,1968.6899999999998,0.02426744058875809
249,1977.7800000000002,0.02443492059229608
250,1982.34,0.023660285148526364
251,1996.0800000000002,0.023121757035062345
252,2005.3000000000002,0.023335243177264802
253,2014.55,0.022856968428389822
254,2023.8500000000001,0.022909362194385795
255,2033.19,0.022856604772278518
256,2047.29,0.023877005965885312
257,2056.74,0.022750515276494118
258,2066.23,0.022646153398999683
259,2075.77,0.024376050036376197
260,2085.35,0.03033065548564946
261,2094.97,0.028438439746819484
262,2104.6400000000003,0.027982972522860455
263,2114.36,0.02943616381377237
264,2124.12,0.028178033916581045
265,2133.92,0.026418452831286476
266,2143.77,0.029570400260862852
267,2153.67,0.029911996205310175
268,2163.61,0.027661150961654255
269,2173.59,0.027597544529895088
270,2183.63,0.03039944631598106
271,2187.7616199999998,0.030630001614040312
272,2193.71,0.03096225446363063
273,2203.83,0.02998067412188503
274,2214.0,0.025995654964221716
275,2224.2200000000003,0.02740849699064069
276,2234.4900000000002,0.03257109020114195
277,2244.8,0.03096365435890903
278,2255.17,0.02647916993757486
279,2265.58,0.02581749646350651
280,2276.03,0.027346893936703993
281,2286.54,0.032199982830800215
282,2297.09,0.028303172672162265
283,2302.39,0.03153278818488443
284,2313.02,0.02822874992077814
285,2323.69,0.022788122603937675
286,2334.42,0.022995046707995948
287,2345.19,0.019170671759320055
288,2356.02,0.0266341482315429
289,2366.8900000000003,0.01988278565103157
290,2372.35,0.022718794952817048
291,2383.2999999999997,0.017555964266837375
292,2394.3,0.019828834764939986
293,2405.35,0.019374786447124884
294,2416.45,0.021092269313392066
295,2427.61,0.02870318360055799
296,2433.2000000000003,0.02837242598095741
297,2444.43,0.032344691925838526
298,2455.7200000000003,0.03339546929161839
299,2467.05,0.030174317604664082
300,2472.74,0.02745686235322807
301,2484.15,0.021265592560805416
302,2495.62,0.022991314189281502
303,2507.14,0.031143367001839874
304,2511.88643,0.02119954431878129
305,2512.92,0.019034169932009896
306,2518.71,0.017359906864225918
307,2524.52,0.017721073613133527
308,2536.1699999999996,0.022870586835986143
309,2547.88,0.02361452950891353
310,2553.75,0.03564465570789592
311,2565.54,0.028707477647589682
312,2577.38,0.03450242912901243
313,2583.32,0.03153732468641538
314,2595.25,0.029090515342950297
315,2607.2200000000003,0.025984645632868387
316,2613.24,0.02419323045703772
317,2625.2999999999997,0.03023773992206798
318,2637.4199999999996,0.045744298837173014
319,2643.49,0.05946356320307133
320,2655.7,0.07854475129328853
321,2667.95,0.05285470901688892
322,2674.11,0.05915989255789939
323,2686.4500000000003,0.06697651945661195
324,2692.64,0.05080785272265982
325,2705.07,0.06092477879648454
326,2717.56,0.04599998432038403
327,2723.82,0.03852518694485248
328,2736.3900000000003,0.04705645173551835
329,2742.7000000000003,0.029152803901715766
330,2755.36,0.03719831786749381
331,2768.08,0.046708411283346615
332,2774.46,0.04969819280796461
333,2787.27,0.03253371539892958
334,2793.6899999999996,0.01764062655693077
335,2806.59,0.020340178323007906
336,2813.06,0.04457303902273808
337,2826.0400000000004,0.06207667005558159
338,2832.56,0.05873357029704073
339,2845.63,0.04454817050499641
340,2852.19,0.028635940379838735
341,2865.36,0.05924337967125237
342,2871.96,0.0768382091794779
343,2884.0315,0.07066832393654159
344,2885.22,0.07006087831617602
345,2891.8700000000003,0.08344952706881961
346,2911.91,0.11021785330986884
347,2932.1000000000004,0.09685426952278221
348,2952.42,0.0901522957113112
349,2972.8900000000003,0.09436939187170429
350,2986.61,0.09566026929821106
351,3007.3100000000004,0.09651221541546252
352,3028.16,0.10195923150457811
353,3049.15,0.10648022756743357
354,3070.28,0.11431712360402889
355,3091.57,0.11193341961061265
356,3113.0,0.12758621559093627
357,3127.36,0.11876871289739667
358,3149.04,0.11818110883082719
359,3170.87,0.12953370473612186
360,3192.85,0.11303940061328063
361,3207.59,0.12505919784846356
362,3229.8199999999997,0.10640859367872924
363,3252.21,0.14614638947898337
364,3267.2200000000003,0.16930728666352174
365,3289.87,0.165773282415007
366,3311.31121,0.15665869525454362
367,3312.6699999999996,0.15608107352106682
368,3320.3100000000004,0.1469955461266122
369,3327.9599999999996,0.15930911869630093
370,3335.63,0.1679532911942765
371,3343.32,0.15315546362053878
372,3351.0299999999997,0.1510362359750878
373,3358.76,0.16943880825792365
374,3366.5,0.14156988050490288
375,3374.26,0.11532555268016884
376,3382.04,0.1367291247837216
377,3389.83,0.16322799685141773
378,3397.6499999999996,0.143464468811544
379,3405.48,0.17166514073581368
380,3413.33,0.1579898125883701
381,3421.2,0.16887628436921331
382,3429.09,0.1634975560783433
383,3436.99,0.16536742775161664
384,3444.91,0.11102589935317678
385,3452.8599999999997,0.17074007084716705
386,3460.82,0.1560552423053007
387,3468.79,0.15747911372757775
388,3476.79,0.14796868504228494
389,3484.81,0.16147535628527893
390,3492.8399999999997,0.15033192749241628
391,3500.89,0.14288819862784036
392,3508.96,0.17616846969155125
393,3517.0499999999997,0.14284904068354892
394,3525.16,0.14784941160383333
395,3533.2799999999997,0.17650498248826113
396,3541.43,0.1904115532651191
397,3549.59,0.19082312400612045
398,3557.77,0.16849239467540852
399,3565.9800000000005,0.1864285652371268
400,3574.2000000000003,0.13075953576298846
401,3582.44,0.13074060621713685
402,3590.7,0.11152397659957204
403,3598.9700000000003,0.1767173469461506
404,3607.27,0.15567731718515931
405,3611.1,0.1404579034520754
406,3613.83,0.14864999366321924
407,3616.57,0.15713078383850643
408,3619.2999999999997,0.16338107404965027
409,3622.0299999999997,0.1627165642607941
410,3624.76,0.15755055447193791
411,3627.5,0.16383584464722517
412,3630.23,0.179069634858369
413,3632.96,0.16677092506951283
414,3635.6899999999996,0.17059681528065665
415,3638.42,0.18369020549180048
416,3641.16,0.1879894956670877
417,3643.8900000000003,0.17385938587823152
418,3646.62,0.16624417608937533
419,3649.35,0.17968236630051918
420,3652.09,0.20489985647580639
421,3654.8199999999997,0.2212423466869502
422,3657.55,0.21647923689809406
423,3660.28,0.2165208271092379
424,3663.0099999999998,0.22036601732038172
425,3665.75,0.22090300749566893
426,3668.48,0.21185079770681275
427,3671.2099999999996,0.2051320879179566
428,3673.94,0.21388687812910043
429,3676.68,0.19629686830438764
430,3679.4100000000003,0.18907065851553145
431,3682.14,0.17900614872667528
432,3684.87,0.18138663893781912
433,3687.6,0.18502772914896295
434,3690.3399999999997,0.18695211932425018
435,3693.07,0.207294109535394
436,3695.8,0.23414269974653784
437,3698.5299999999997,0.22984018995768168
438,3701.27,0.2168066801329689
439,3704.0,0.20532737034411272
440,3706.7299999999996,0.18832596055525655
441,3709.46,0.17814015076640036
442,3712.19,0.2029504409775442
443,3714.9300000000003,0.2195429311528314
444,3717.66,0.20841382136397527
445,3720.39,0.1959828115751191
446,3723.12,0.22344650178626294
447,3725.85,0.2645027919974067
448,3728.59,0.27093658217269395
449,3731.32,0.24291627238383778
450,3734.0499999999997,0.2015130625949816
451,3736.78,0.17187635280612545
452,3739.52,0.16271014298141265
453,3742.2499999999995,0.1729901331925565
454,3744.98,0.16367032340370033
455,3747.71,0.15599711361484414
456,3750.44,0.16498360382598798
457,3753.18,0.18779879400127522
458,3755.91,0.19207968421241906
459,3758.64,0.18650557442356286
460,3761.37,0.17698166463470671
461,3764.11,0.18357025480999392
462,3766.84,0.19338684502113773
463,3769.5699999999997,0.21036113523228156
464,3772.3,0.2142256254434254
465,3775.0299999999997,0.22236251565456921
466,3777.7699999999995,0.22763530582985647
467,3780.5,0.2476738960410003
468,3783.23,0.2522086862521441
469,3785.96,0.22852977646328795
470,3788.7,0.21593766663857517
471,3791.4300000000003,0.20845765684971898
472,3794.16,0.18632874706086283
473,3796.89,0.19346723727200665
474,3799.6200000000003,0.19406042748315047
475,3801.8939600000003,0.2021240972667263
476,3802.36,0.2037767180066233
477,3805.0899999999997,0.23484811025739188
478,3807.82,0.22270960250816046
479,3810.5499999999997,0.21723199475892907
480,3813.28,0.22406988700969763
481,3816.02,0.19781907923208075
482,3818.75,0.18123697148284934
483,3821.48,0.1777011637336179
484,3824.21,0.16281525598438648
485,3826.9500000000003,0.1541400482067696
486,3829.68,0.1408705404575382
487,3832.41,0.1578226327083068
488,3835.1400000000003,0.13057992495907536
489,3837.87,0.13636961720984395
490,3840.6099999999997,0.16409720943222705
491,3843.34,0.17589150168299564
492,3846.0699999999997,0.1985585939337642
493,3848.8,0.1892995861845328
494,3851.54,0.20015227840691593
495,3854.27,0.1963627706576845
496,3857.0,0.18669546290845307
497,3859.73,0.19605975515922167
498,3862.4599999999996,0.19807894740999024
499,3865.2,0.21283453963237334
500,3867.93,0.21524553188314194
501,3870.6600000000003,0.20500722413391054
502,3873.39,0.2064169163846791
503,3876.1299999999997,0.19439030860706222
504,3878.86,0.1896933008578308
505,3881.5899999999997,0.18469289310859938
506,3884.32,0.20002598535936794
507,3887.05,0.19132957761013655
508,3889.7900000000004,0.19394076983251968
509,3892.52,0.20598056208328824
510,3895.25,0.21595445433405683
511,3897.9799999999996,0.2290782465848254
512,3900.72,0.22162463880720853
513,3903.45,0.2251857310579771
514,3906.1800000000003,0.21217002330874568
515,3908.91,0.24005301555951428
516,3911.6400000000003,0.25039660781028283
517,3914.38,0.24617830003266597
518,3917.1099999999997,0.25066609228343456
519,3919.84,0.21833748453420312
520,3922.57,0.19727877678497172
521,3925.2999999999997,0.18337476903574032
522,3928.04,0.15723736125812343
523,3930.77,0.12717865350889201
524,3933.5,0.10851114575966057
525,3936.23,0.11914973801042915
526,3938.97,0.14660433023281227
527,3941.7000000000003,0.16934042248358086
528,3944.43,0.19940781473434943
529,3947.1600000000003,0.21924230698511804
530,3949.89,0.2316875992358866
531,3952.6299999999997,0.2535840914582697
532,3955.36,0.2357496837090383
533,3958.09,0.21612537595980688
534,3960.8199999999997,0.19968116821057544
535,3963.56,0.16221296043295858
536,3966.29,0.13880145268372718
537,3969.02,0.12150494493449575
538,3971.75,0.15003313718526431
539,3974.48,0.1769204294360329
540,3977.2200000000003,0.22082752165841601
541,3979.95,0.2481946139091846
542,3982.6800000000003,0.2686856061599532
543,3985.41,0.2868707984107218
544,3988.1499999999996,0.3033636906331049
545,3990.88,0.30766688288387345
546,3993.61,0.30424697513464205
547,3996.3399999999997,0.3055436673854106
548,3999.07,0.3133221596361792
549,4001.81,0.3152516518585623
550,4004.54,0.3124386441093309
551,4007.27,0.3152799363600995
552,4010.0000000000005,0.32336182861086804
553,4012.73,0.3253756208616367
554,4015.47,0.3334559130840198
555,4018.2000000000003,0.34705420533478837
556,4020.93,0.33753879758555694
557,4023.66,0.3311125898363255
558,4026.4,0.32849098205870864
559,4029.13,0.3249332743094772
560,4031.8599999999997,0.3134317665602458
561,4034.59,0.31321145881101436
562,4037.3199999999997,0.33072645106178294
563,4040.06,0.3296770432841661
564,4042.79,0.31403843553493466
565,4045.5200000000004,0.3095980277857032
