,lambda (Angstroms),Total Flux (erg/s/cm^2/Angstrom)
0,102.05000000000001,0.00977422686326489
1,103.95,0.011433478907355835
2,104.712855,0.012099681475320843
3,105.88,0.011249315150557129
4,108.10000000000001,0.009631871143417613
5,110.11,0.0081675699821305
6,113.96999999999998,0.005355416938210468
7,117.97999999999999,0.0024340449418958593
8,120.22644299999999,0.0008001264013223234
9,121.01,0.0007747227323240457
10,124.97,0.0006428713571626252
11,127.0,0.0005752274441177551
12,127.88000000000001,0.0005461261857485502
13,130.86,0.0004469368338846525
14,132.07,0.0004079326032519968
15,133.91,0.0003469551705709324
16,137.03,0.00024544120080738846
17,138.038426,0.00021220030437970965
18,139.9,0.00021138301941713152
19,143.16,0.00023704715175712284
20,147.17,0.0002994229670894434
21,150.94,0.00030930261746421855
22,155.17,0.0003214118323409558
23,158.489319,0.0003336557803275943
24,159.14999999999998,0.000335670788714674
25,162.10999999999999,0.0003454316916420574
26,165.89,0.00036249478321824307
27,170.14000000000001,0.000377148897556547
28,172.91,0.00039117801043115925
29,176.93,0.00040953901575821385
30,179.81,0.000423744080768641
31,181.89000000000001,0.000435118166609505
32,181.970086,0.00043551646808981636
33,186.13000000000002,0.0004662652598191808
34,190.9,0.0005066364551960667
35,194.0,0.000536078752820458
36,198.07000000000002,0.000570127129378933
37,202.21,0.0006100363178192491
38,205.03,0.000639488767916276
39,208.929613,0.0006619757149078158
40,209.79999999999998,0.0006695942306429309
41,216.17999999999998,0.0007739902839956668
42,220.20000000000002,0.0008331059147915914
43,222.73999999999998,0.0008681367924586681
44,226.89000000000001,0.0009328494130564509
45,230.04,0.0013369259274860932
46,233.78,0.0021703905725549387
47,239.78,0.002704851409563781
48,239.88329199999998,0.0027044688618966307
49,245.93,0.002642646977902979
50,252.24,0.002825966799521843
51,256.93,0.0024497218365095563
52,259.9,0.0028156536083333325
53,264.12,0.002971239886816947
54,269.03,0.0030022659809767916
55,274.04,0.003026517555669424
56,275.42287,0.0030333778295076755
57,279.13,0.0030743434545544464
58,284.32,0.003138044919491525
59,290.27,0.0030692931326660178
60,295.67,0.0031803849227739615
61,301.17,0.003190923153439459
62,308.18,0.0032958364365240295
63,316.227766,0.003412068086860358
64,318.28000000000003,0.0034305281905329748
65,327.95,0.003459705336421038
66,337.92,0.0034515855250977687
67,348.18,0.003435529788470212
68,357.11,0.0034297172954795606
69,363.078055,0.0034305736113015646
70,366.28000000000003,0.003444163370469295
71,374.81,0.0034520184388146034
72,385.31,0.003367326673002849
73,395.19,0.003466218428600932
74,405.33,0.003484424546188438
75,413.82,0.0034699387126892194
76,416.86938299999997,0.0034624764391448454
77,422.48,0.003444712208475868
78,430.34000000000003,0.0034167432728215014
79,441.37999999999994,0.003414409989154299
80,450.62,0.003367491393041532
81,460.04999999999995,0.003335613713242463
82,469.68999999999994,0.0033043705198953772
83,478.630092,0.003289366738163132
84,479.52000000000004,0.0032856550662780674
85,489.56,0.003197465663046166
86,499.81,0.003169747302176944
87,505.6,0.0031159137558908184
88,511.46,0.003186450223725585
89,519.77,0.003141511185791611
90,529.43,0.0030626821344748615
91,540.52,0.0029518359430563573
92,549.5408739999999,0.0029002656520595274
93,550.5600000000001,0.0028954116145149837
94,559.51,0.0029035363565918944
95,569.91,0.0028926847328600365
96,580.51,0.0028150280586717964
97,589.9399999999999,0.002798770879653391
98,599.53,0.0027065520602698795
99,610.6700000000001,0.0024557498498494084
100,620.59,0.0026854191472128674
101,630.68,0.002624223201688401
102,630.957344,0.002623568093892754
103,639.45,0.002612685334905903
104,649.84,0.0025860262146189207
105,657.37,0.0025418507713310503
106,664.98,0.0025573369594557925
107,674.23,0.0025362835915390854
108,685.1899999999999,0.002449128095066966
109,694.72,0.0025067554370944026
110,704.38,0.0024105654301673335
111,715.8299999999999,0.0024783999260974644
112,724.43596,0.0024617146622583465
113,725.7800000000001,0.0024587494252403938
114,734.1899999999999,0.0024414290215032932
115,744.4000000000001,0.0024350439891423184
116,754.76,0.002418746904396021
117,765.26,0.002278655237423422
118,774.1199999999999,0.002400949676530353
119,784.89,0.002375492315264173
120,795.81,0.0023841599016126707
121,805.0200000000001,0.002382639885153848
122,814.34,0.0023714266969457887
123,825.67,0.0023899060067744038
124,831.763771,0.0022714507017091655
125,835.23,0.0022001806723565952
126,844.91,0.0023435667016190064
127,854.69,0.002317149778704376
128,864.5899999999999,0.0023284245131772957
129,874.5999999999999,0.0023398056002554707
130,884.7199999999999,0.0023561520399389005
131,894.9699999999999,0.002362858441792176
132,905.33,0.0023209641962507062
133,915.8199999999999,0.002920397912879084
134,924.29,0.010508173063483693
135,934.99,0.021120639180540284
136,945.82,0.03878070525976672
137,954.57,0.053941931944275615
138,954.992586,0.05421908360650253
139,965.62,0.06119592414627309
140,974.5600000000001,0.011925106777008252
141,985.84,0.05319822479431168
142,994.97,0.05556713431540922
143,1004.1700000000001,0.07913578532242974
144,1015.8000000000001,0.07540799076934808
145,1025.2,0.032349467450434266
146,1034.68,0.05331633440114672
147,1044.26,0.100260349188892
148,1053.92,0.09843320424626355
149,1066.12,0.07840590036426903
150,1075.99,0.09272081987940953
151,1085.95,0.07334987844787957
152,1095.99,0.09663622728597587
153,1096.4782,0.09644760041564039
154,1106.13,0.09271591367021631
155,1113.8,0.08915985386341341
156,1124.11,0.08039610906443846
157,1134.51,0.10093322000436675
158,1145.01,0.09164118287640972
159,1155.6,0.09705888148735593
160,1166.29,0.09999856203041682
161,1174.38,0.07018680233849564
162,1185.24,0.09637928816615153
163,1196.21,0.06625940211913357
164,1204.5,0.04792670629144179
165,1215.65,0.030777081722230284
166,1224.07,0.0640055664062876
167,1235.3999999999999,0.09702788331488255
168,1243.96,0.10686335470390045
169,1255.48,0.1022893692835133
170,1258.92541,0.09642385898202757
171,1264.18,0.0874805199696218
172,1275.8700000000001,0.11292211650487345
173,1284.72,0.11823765614020082
174,1293.6200000000001,0.0939459271294001
175,1305.5900000000001,0.09223275124633441
176,1314.6399999999999,0.11502226629714941
177,1323.76,0.1098493132433851
178,1336.0,0.0972453846712277
179,1345.27,0.11528449567907909
180,1354.59,0.11137714804080238
181,1363.98,0.09950791229794634
182,1373.4399999999998,0.10442985845051098
183,1386.1399999999999,0.10539790233397511
184,1395.75,0.09223435254815547
185,1405.43,0.09569177465775648
186,1415.17,0.0972459883920038
187,1424.9800000000002,0.09950974402167176
188,1434.85,0.09859832127598603
189,1441.48,0.10395410079940076
190,1445.43977,0.10495862005531664
191,1448.1299999999999,0.1056410691574996
192,1454.82,0.10253012119320791
193,1464.9,0.09438133026943209
194,1475.05,0.09395086093646339
195,1485.28,0.09547323342155994
196,1495.57,0.09702561727020546
197,1505.94,0.09181386293691626
198,1512.89,0.08165520088133671
199,1516.3799999999999,0.08728690019443416
200,1523.38,0.0845208392751454
201,1533.94,0.0736298292597612
202,1544.5700000000002,0.08109482083518413
203,1555.28,0.07639173422867232
204,1566.06,0.07727435921296763
205,1573.29,0.08222250352061652
206,1584.19,0.08609284123200973
207,1595.1699999999998,0.08789223076146822
208,1606.2299999999998,0.08569714210899197
209,1613.65,0.08589454073454589
210,1624.83,0.08091176480916755
211,1636.0900000000001,0.08589573070185447
212,1643.64,0.08708967228176445
213,1655.0400000000002,0.07998534135606561
214,1659.58691,0.08296076499721526
215,1666.51,0.0874921136607887
216,1670.35,0.07781205095632246
217,1678.0600000000002,0.08789574052626135
218,1685.8100000000002,0.0916126467346954
219,1693.5900000000001,0.08570378792200077
220,1705.33,0.08223225632032537
221,1713.2,0.07835850244424483
222,1725.08,0.07782053407730241
223,1733.0400000000002,0.08280613513783595
224,1745.05,0.08073987834600276
225,1753.11,0.08610957600277415
226,1765.26,0.07836683244567395
227,1773.3999999999999,0.08074517337943564
228,1785.7,0.08186820471669223
229,1793.94,0.08771457224669177
230,1806.3799999999999,0.08651450681868136
231,1814.71,0.08019656928529498
232,1823.09,0.08149771005002751
233,1835.7299999999998,0.07801855781449282
234,1844.2,0.07149619351583944
235,1856.98,0.07215878451503777
236,1865.55,0.07469014681262223
237,1874.17,0.08020547740832563
238,1887.1599999999999,0.07418223325962345
239,1895.8700000000001,0.07166966879194092
240,1904.62,0.07521386096275354
241,1905.46072,0.07498643222033725
242,1913.41,0.07283299992221981
243,1926.67,0.0710124832455257
244,1935.5700000000002,0.07149975929208846
245,1944.5000000000002,0.07642659892083067
246,1953.48,0.07199090785320525
247,1967.02,0.07873716127685243
248,1976.1000000000001,0.08001164881649177
249,1985.22,0.076590687799037
250,1994.38,0.07450708822448811
251,2003.5900000000001,0.07571197795357161
252,2012.83,0.07348330126483454
253,2026.79,0.07553394483899369
254,2036.1399999999999,0.07331068461824783
255,2045.5400000000002,0.07640488370113437
256,2054.98,0.07296799422692678
257,2064.47,0.07280038405635159
258,2074.0,0.0781723953286823
259,2078.78,0.08035824275593735
260,2083.5699999999997,0.0851120080439189
261,2093.19,0.07998641006278787
262,2102.85,0.07943711352456274
263,2117.43,0.08146613446376334
264,2127.2,0.08090579439352945
265,2137.02,0.07482025362692792
266,2146.88,0.0799748043032323
267,2156.79,0.08221133428316905
268,2166.75,0.07779508356673819
269,2176.75,0.0774353842932132
270,2186.79,0.07996685646259413
271,2187.7616199999998,0.08023676954849986
272,2196.89,0.08277611556743647
273,2207.03,0.08015400507298914
274,2217.22,0.0731150531066757
275,2227.45,0.07311668796286937
276,2232.59,0.08240186465503314
277,2242.89,0.07833939145061425
278,2253.24,0.07129490677432924
279,2263.64,0.07145942062617813
280,2274.09,0.07465128300616092
281,2284.59,0.08128090391427759
282,2295.13,0.07433607164490134
283,2305.73,0.0782285396092858
284,2316.37,0.07238380439617736
285,2327.06,0.057287187711202794
286,2332.43,0.06310721363278246
287,2343.19,0.05719910888719535
288,2354.01,0.0692521943753689
289,2364.87,0.057785856686049575
290,2375.79,0.0625123492304909
291,2386.76,0.053498750303066125
292,2392.2599999999998,0.0585271783977939
293,2403.2999999999997,0.05657384140975657
294,2414.39,0.05940041294985312
295,2425.54,0.07076865472371034
296,2436.73,0.06903812332007467
297,2442.35,0.07570570188232378
298,2453.62,0.07644488412370234
299,2464.95,0.07237878659884156
300,2476.33,0.06790624760211467
301,2487.7599999999998,0.06197607713352166
302,2493.49,0.06185059445766534
303,2505.0,0.07574957763408656
304,2510.78,0.05646824348636411
305,2511.88643,0.056225827325020794
306,2516.56,0.05520075368917095
307,2522.37,0.05420987015801646
308,2534.0099999999998,0.060553921775462566
309,2545.7000000000003,0.06100470009229632
310,2557.4599999999996,0.07768357378827279
311,2563.35,0.06847820497613856
312,2575.1800000000003,0.07738540405125775
313,2587.07,0.07343802916564213
314,2593.03,0.06999709573265062
315,2605.0,0.06521914556605524
316,2617.03,0.06246534143872504
317,2623.06,0.07155164338487624
318,2635.17,0.0911240739765663
319,2647.33,0.11084773126764401
320,2653.43,0.13388682859293793
321,2665.6800000000003,0.09934287994291342
322,2677.98,0.10897120799227657
323,2684.16,0.11786140003659074
324,2696.5499999999997,0.09766000214485167
325,2702.76,0.11085587220879843
326,2715.24,0.09122362837595713
327,2727.77,0.08287291124250348
328,2734.06,0.0947175560254705
329,2746.6800000000003,0.06728912295091465
330,2753.01,0.07761294509339177
331,2765.72,0.09016660607773369
332,2772.0899999999997,0.09574690557972093
333,2784.89,0.07303990062296065
334,2797.7400000000002,0.04822121236558799
335,2804.1899999999996,0.0536083965865955
336,2817.1400000000003,0.08974242172799816
337,2823.6299999999997,0.11323219330851578
338,2836.66,0.1089522331689387
339,2843.2000000000003,0.091930411448844
340,2856.3300000000004,0.0707771847080422
341,2862.9100000000003,0.11186560034745761
342,2876.13,0.1323918276655536
343,2882.7599999999998,0.12359859000435666
344,2884.0315,0.12507678256226626
345,2896.06,0.13906138981981642
346,2909.4300000000003,0.17513257175754127
347,2929.6,0.15731634450876864
348,2949.8999999999996,0.14933871708437182
349,2970.35,0.15650818945733166
350,2990.94,0.15845866164115774
351,3011.67,0.16080133363585003
352,3032.55,0.16736270542789902
353,3046.55,0.17294558651452188
354,3067.67,0.18334995798234155
355,3088.93,0.18225292926102746
356,3110.3399999999997,0.20092710033706998
357,3131.9,0.1903057712104692
358,3153.61,0.19047904188122514
359,3168.17,0.20421872221131293
360,3190.13,0.18135869254432996
361,3212.2400000000002,0.19856926267470365
362,3227.07,0.17267644264003348
363,3249.44,0.22519441241915875
364,3271.96,0.2564130819956407
365,3287.06,0.2518949615962125
366,3309.85,0.24134973080793645
367,3311.31121,0.2405291833441229
368,3325.12,0.2327744722210046
369,3332.79,0.23772217414275448
370,3340.47,0.2193972758062537
371,3348.1699999999996,0.2674989769532516
372,3355.8900000000003,0.2567246775837482
373,3363.63,0.17893997769774353
374,3371.38,0.20128537755348816
375,3379.15,0.25697467689273157
376,3386.94,0.24549517571547358
377,3394.7500000000005,0.2388861740217143
378,3402.58,0.28659807181145375
379,3410.42,0.23685346934294255
380,3418.28,0.22317086635793001
381,3426.16,0.2487450628564162
382,3434.06,0.2772482588384011
383,3441.98,0.21780605430388467
384,3449.91,0.22709464951111757
385,3457.8599999999997,0.2525367442018492
386,3465.84,0.22672153811782883
387,3473.83,0.2689040317755579
388,3481.8300000000004,0.23865552517503621
389,3489.86,0.26055261779976263
390,3497.9100000000003,0.2355376099079877
391,3505.97,0.2826087017579621
392,3514.05,0.24341499309143527
393,3522.15,0.2769975839084071
394,3530.27,0.23262237420887763
395,3538.4100000000003,0.2816721639928469
396,3546.57,0.28898735326031477
397,3554.7400000000002,0.28645834226953204
398,3562.94,0.2680436305039973
399,3571.15,0.22304821848021203
400,3579.3799999999997,0.24576740593992538
401,3587.63,0.1904335928831374
402,3595.9,0.2587104793098482
403,3604.19,0.2910223652200576
404,3612.5,0.22343225061376576
405,3620.8,0.24343693626572455
406,3623.54,0.23280676550504587
407,3626.27,0.24568409500261787
408,3629.0099999999998,0.2814501242419392
409,3631.74,0.27326355373951117
410,3634.48,0.27581238297883254
411,3637.22,0.2921755122181539
412,3639.9500000000003,0.27809524171572586
413,3642.69,0.2908831709550472
414,3645.4199999999996,0.2579968004526192
415,3648.16,0.2635571296919405
416,3650.9,0.2721564589312619
417,3653.63,0.3130504884288339
418,3656.37,0.31819261766815515
419,3659.1099999999997,0.3392035469074765
420,3661.84,0.3381044764050485
421,3664.58,0.33177820564436983
422,3667.31,0.32883653514194183
423,3670.05,0.3292482643812632
424,3672.7900000000004,0.3151938936205845
425,3675.52,0.29929862311815647
426,3678.2599999999998,0.3254250523574778
427,3680.9900000000002,0.28851788185504984
428,3683.73,0.27966151109437115
429,3686.47,0.27784574033369247
430,3689.2000000000003,0.28001926983126446
431,3691.94,0.2897543990705858
432,3694.6800000000003,0.31810842830990715
433,3697.41,0.32856035780747916
434,3700.1499999999996,0.32869708704680045
435,3702.88,0.3115367165443724
436,3705.62,0.2945395457836938
437,3708.36,0.28320797502301515
438,3711.09,0.30889600452058713
439,3713.8300000000004,0.29946203375990843
440,3716.56,0.3172018632574804
441,3719.2999999999997,0.3482237924968018
442,3722.04,0.3847734217361231
443,3724.77,0.4379365512336951
444,3727.5099999999998,0.5025107804730164
445,3730.25,0.46711440971233775
446,3732.98,0.3656049392099098
447,3735.7200000000003,0.31268986844923113
448,3738.45,0.2670727979468031
449,3741.1899999999996,0.2960512271861245
450,3743.93,0.26200285642544574
451,3746.66,0.2580295859230177
452,3749.4,0.2554190151623391
453,3752.13,0.2635935446599111
454,3754.8700000000003,0.2994337738992324
455,3757.61,0.3069412031385537
456,3760.3399999999997,0.30012163263612573
457,3763.08,0.2875798618754471
458,3765.8199999999997,0.28625909111476844
459,3768.55,0.2961608206123404
460,3771.29,0.2941799498516617
461,3774.02,0.3273211793492337
462,3776.76,0.35179740858855507
463,3779.5,0.3660427378278764
464,3782.2299999999996,0.3816376673254484
465,3784.97,0.35110939656476975
466,3787.7,0.3384869260623417
467,3790.44,0.316264255301663
468,3793.18,0.2948393845409844
469,3795.9100000000003,0.28623201403855636
470,3798.65,0.2835911432778777
471,3801.39,0.305702272517199
472,3801.8939600000003,0.3066873628518506
473,3804.12,0.3110386139930029
474,3806.86,0.33755005797615434
475,3809.59,0.32976800216374674
476,3812.33,0.3167586461468981
477,3815.0699999999997,0.31395279013004945
478,3817.8,0.27798073431764186
479,3820.54,0.2615860783007932
480,3823.2699999999995,0.25379262248838563
481,3826.01,0.24688626647153702
482,3828.75,0.2310720104546884
483,3831.48,0.20615835464228083
484,3834.22,0.2075026986254322
485,3836.96,0.21939144260858356
486,3839.69,0.22582758679617598
487,3842.43,0.2660656307793273
488,3845.1600000000003,0.28557107496691975
489,3847.9,0.2971489189500712
490,3850.6400000000003,0.3048763629332225
491,3853.37,0.3036671071208149
492,3856.1099999999997,0.2952782511039663
493,3858.84,0.28898119529155875
494,3861.58,0.30660943927471007
495,3864.32,0.32591528325786145
496,3867.05,0.32649382744545385
497,3869.79,0.3214327714286052
498,3872.53,0.3117513154117566
499,3875.2599999999998,0.29967875959934903
500,3878.0,0.2937651035825004
501,3880.73,0.29640624777009283
502,3883.47,0.28892499175324415
503,3886.21,0.29299463573639556
504,3888.94,0.29783587992398797
505,3891.6800000000003,0.31422662390713935
506,3894.41,0.32990386809473177
507,3897.1499999999996,0.33562361207788316
508,3899.89,0.3489340560610345
509,3902.62,0.3512177002486269
510,3905.36,0.3586150442317783
511,3908.1,0.3744005882149296
512,3910.83,0.3792146324025221
513,3913.57,0.38952707638567347
514,3916.2999999999997,0.38136012057326585
515,3919.04,0.36279526455641725
516,3921.78,0.3339997085395686
517,3924.5099999999998,0.312273852727161
518,3927.25,0.2701479967103124
519,3929.98,0.22538334089790482
520,3932.7200000000003,0.20707738488105618
521,3935.46,0.19848792886420755
522,3938.1899999999996,0.22104037305179997
523,3940.9300000000003,0.25793411703495134
524,3943.67,0.3053143610181027
525,3946.4,0.3324325052056951
526,3949.14,0.36562704918884653
527,3951.87,0.3756388933764389
528,3954.61,0.3813585373595903
529,3957.35,0.35245298134274167
530,3960.0800000000004,0.33328492553033406
531,3962.82,0.2812499695134854
532,3965.5499999999997,0.22034971370107787
533,3968.29,0.19934575768422924
534,3971.0299999999997,0.21126750166738062
535,3973.76,0.250728345854973
536,3976.5,0.31246488983812437
537,3979.24,0.3664785338212757
538,3981.9700000000003,0.3972546780088682
539,3984.71,0.42384842199201955
540,3987.44,0.43575816617961194
541,3990.18,0.45121361016276335
542,3992.9199999999996,0.45635555414591467
543,3995.65,0.4674678983335071
544,3998.39,0.4725272423166585
545,4001.1200000000003,0.47932178650425095
546,4003.86,0.4783581304874023
547,4006.6000000000004,0.48614037447055364
548,4009.33,0.48944201865814607
549,4012.0699999999997,0.5050348626412975
550,4014.81,0.5186199066244488
551,4017.54,0.5213166508120413
552,4020.2799999999997,0.5189503947951926
553,4023.01,0.513066438982785
554,4025.75,0.5177958829659364
555,4028.4900000000002,0.5088840269490877
556,4031.22,0.4849035711366802
557,4033.9599999999996,0.4770919151198315
558,4036.69,0.49287965930742395
559,4039.43,0.49719650329057535
560,4042.17,0.49573794727372666
561,4044.9,0.4848759914613191
562,4047.6400000000003,0.48476503544447047
563,4050.38,0.48842187942762183
564,4053.1099999999997,0.4938411236152143
565,4055.85,0.49207996759836564
566,4058.58,0.47511251178595804
567,4061.3199999999997,0.47148125576910943
568,4064.06,0.4672174997522608
569,4066.79,0.4729668439398532
570,4069.53,0.4838017879230046
571,4072.2599999999998,0.48352813211059703
