,lambda (Angstroms),Total Flux (erg/s/cm^2/Angstrom)
0,102.06,2.428773999456954
1,103.95,2.421887897459664
2,104.712855,2.4191084808851944
3,105.89,2.3965797398937148
4,108.10000000000001,2.3542837461418458
5,110.11,2.3158154442293175
6,113.98,2.2417496092401876
7,117.99000000000001,2.165004390223998
8,120.22644299999999,2.122202321682604
9,121.02,2.109469233911294
10,124.98,2.045928706940537
11,127.01,2.0133561642106943
12,127.89,1.999236047645791
13,130.87,1.951420197521678
14,132.07999999999998,1.932005039346948
15,133.92,1.9024811597689948
16,137.04,1.8524189340364106
17,138.038426,1.8363986040828844
18,139.91,1.8149332943894123
19,142.84,1.7813288498265096
20,146.84,1.735452619848756
21,150.95000000000002,1.6883146129890285
22,154.83,1.6438145323826194
23,158.489319,1.6018454748311617
24,159.16,1.5960301114843967
25,162.12,1.5703644687417997
26,165.9,1.5375887969946695
27,170.14999999999998,1.5007378297137857
28,172.92,1.4767197242606
29,176.95,1.4417764082601705
30,179.82000000000002,1.4168912556295052
31,181.9,1.3988560266419288
32,181.970086,1.3982483263978238
33,186.14,1.3706645296318734
34,190.92000000000002,1.339045156372172
35,194.01999999999998,1.318538909295625
36,198.07999999999998,1.2916823512324185
37,202.23000000000002,1.2642305165610246
38,205.04000000000002,1.2456427376276353
39,208.929613,1.2199132745475274
40,209.82,1.215485240515385
41,216.19,1.1838068896988678
42,220.20999999999998,1.1638152228040584
43,222.76000000000002,1.1511339712672906
44,226.89999999999998,1.130545690617845
45,230.05999999999997,1.114836395268094
46,233.8,1.0962486013357682
47,239.8,1.0664190177539625
48,239.88329199999998,1.0660048012303638
49,245.95,1.0427557370615
50,252.26,1.0185793882030696
51,256.95,1.0006008781427942
52,259.92,0.9892267802378436
53,264.14,0.9730591908732676
54,269.06,0.9542072132485011
55,274.06,0.9350484568799985
56,275.42287,0.9298262761297058
57,279.15,0.9188665187236595
58,283.69,0.9055172383077061
59,290.3,0.8860769497296768
60,295.69,0.8702295263636438
61,301.19,0.8540556272713656
62,308.21000000000004,0.833414489488239
63,316.227766,0.8098400473381627
64,318.29999999999995,0.8052897250120017
65,327.98,0.7840326520323383
66,337.94,0.7621595855668585
67,348.21,0.7396051871595816
68,357.14000000000004,0.7199946713394271
69,363.078055,0.7069552872205795
70,366.3,0.701657548400558
71,374.84000000000003,0.6876136954499449
72,385.34,0.6703408960303385
73,395.22,0.6540984192682708
74,405.36,0.6374246377756224
75,413.84999999999997,0.6234619568231979
76,416.86938299999997,0.6184957434806085
77,421.53999999999996,0.6126296427065685
78,430.37,0.6015395072849798
79,441.41,0.5876770343458702
80,450.65000000000003,0.5760720427359631
81,460.09000000000003,0.5642149695561447
82,469.71999999999997,0.5521205793549105
83,478.630092,0.5409315602597129
84,479.56,0.5400335813267448
85,489.59999999999997,0.5303327958936788
86,499.85,0.5204356488766541
87,505.64,0.5148405174189398
88,511.49,0.5092016333658085
89,519.81,0.5011648838013555
90,529.47,0.4918318422392619
91,540.56,0.4811124509864031
92,549.5408739999999,0.4724387005972166
93,550.61,0.4716511256590183
94,559.55,0.46507194707437294
95,569.96,0.4574068761523195
96,580.5500000000001,0.4495997595399713
97,589.99,0.44264935980450687
98,599.57,0.43558498359881315
99,609.31,0.4283874491128573
100,620.64,0.4200705292292968
101,629.28,0.41370311239514296
102,630.957344,0.41246763553560084
103,639.5000000000001,0.40748047792007314
104,649.8900000000001,0.40141487066703774
105,657.42,0.39701606971772535
106,665.0300000000001,0.39257769713893803
107,674.28,0.3871745472559182
108,685.24,0.3807643077178751
109,694.77,0.37521992973169355
110,704.44,0.369558977843931
111,715.88,0.36289824332903936
112,724.43596,0.3579031413584892
113,725.8399999999999,0.3572948729703357
114,734.25,0.353652318185708
115,744.46,0.3492369261678664
116,754.8199999999999,0.34475128280559036
117,765.32,0.3401889036951753
118,774.1800000000001,0.33637645067724414
119,784.9499999999999,0.33171280386684715
120,795.87,0.32698876121201553
121,805.0799999999999,0.32300499852373726
122,814.41,0.31896659137991135
123,825.7399999999999,0.3140737143769588
124,831.763771,0.31142937937221904
125,835.3,0.31026436693424897
126,844.97,0.30719247403485356
127,854.75,0.3040289295858271
128,864.65,0.30084067291902117
129,874.66,0.297618926902584
130,884.7900000000001,0.2943630951683674
131,895.04,0.2910597401163714
132,905.4,0.2877008566147441
133,915.89,0.2845373379271891
134,924.36,0.2854817651055885
135,935.0600000000001,0.2873990241869194
136,945.8900000000001,0.29308048808232257
137,954.64,0.29866874095256984
138,954.992586,0.29866814264116137
139,965.7,0.298724960726055
140,974.63,0.2697870034664979
141,985.92,0.28750677442501976
142,995.04,0.2866868376067487
143,1004.25,0.29801258157645516
144,1015.88,0.2930679789562257
145,1025.28,0.2663982623672182
146,1034.76,0.27448115870085743
147,1044.34,0.29975361368780523
148,1054.0,0.2959072315973996
149,1066.21,0.279852905166359
150,1076.07,0.28600601038257034
151,1086.03,0.2712935942520901
152,1096.08,0.28320989890958737
153,1096.4782,0.28299784898398456
154,1106.22,0.2783702339169086
155,1113.89,0.27427673915860185
156,1124.19,0.2663157734205889
157,1134.6000000000001,0.27781494859216993
158,1145.09,0.26942016624345577
159,1155.69,0.2709379148043356
160,1163.7,0.271113745584774
161,1174.47,0.2485984519150265
162,1185.34,0.2642126663449099
163,1196.3,0.24157611606446114
164,1204.6,0.22722028833382932
165,1215.74,0.2148981186327162
166,1224.17,0.2346235774316046
167,1235.5,0.25480717111979034
168,1244.06,0.259648976448199
169,1255.57,0.2534300107157204
170,1258.92541,0.24867406980920215
171,1264.2700000000002,0.24149721958549886
172,1275.9699999999998,0.2581229521389852
173,1284.8200000000002,0.2606868303525196
174,1293.7199999999998,0.24109990109833407
175,1305.6899999999998,0.23830093332613156
176,1314.74,0.25403049166878544
177,1323.8600000000001,0.24907676955663116
178,1336.1100000000001,0.23748271996519582
179,1345.37,0.2502296369434252
180,1354.69,0.2458955649603903
181,1364.08,0.2353352825225473
182,1373.54,0.23777893962989602
183,1386.25,0.2366436713354354
184,1395.86,0.2250293560396237
185,1405.5300000000002,0.2262085017825478
186,1415.28,0.22585493557711978
187,1425.09,0.22652609041042748
188,1434.96,0.224363676282471
189,1441.5900000000001,0.2276356560627799
190,1445.43977,0.22775661224299615
191,1448.24,0.22800116188908937
192,1454.93,0.22498608013604637
193,1465.01,0.21757931686688747
194,1475.17,0.21626557468289392
195,1485.39,0.21659112831277444
196,1495.69,0.21694325302782036
197,1506.06,0.21146506119238603
198,1513.01,0.2025437679661306
199,1516.5,0.2069725828064714
200,1523.5000000000002,0.2039532477584443
201,1534.06,0.19399647100027784
202,1544.69,0.19902227769163106
203,1555.4,0.19414840546814968
204,1566.18,0.19384962669418807
205,1573.41,0.1972053672660115
206,1584.31,0.199449770119798
207,1595.3,0.19977115169439558
208,1606.35,0.19707223908286714
209,1613.77,0.1965862847319585
210,1624.95,0.19129010138382385
211,1636.2199999999998,0.19448284675650035
212,1643.77,0.19480244166898544
213,1655.1599999999999,0.18768628866941003
214,1659.58691,0.1896714785085124
215,1666.64,0.19310744886010642
216,1670.48,0.1846402105525638
217,1678.19,0.1937377684819508
218,1685.9399999999998,0.19668424580396765
219,1693.72,0.19082122767045678
220,1705.46,0.18699121940729257
221,1713.3300000000002,0.18361631490719868
222,1725.21,0.18254085451823865
223,1733.17,0.18725080365156174
224,1745.18,0.18419929628864845
225,1753.24,0.18953214390354595
226,1765.39,0.1809307444148368
227,1773.5400000000002,0.1831004856631513
228,1785.83,0.18332089404864635
229,1794.0800000000002,0.18961080377853518
230,1806.51,0.18702686003823446
231,1814.8500000000001,0.18086172340154028
232,1823.23,0.1814619261574759
233,1835.87,0.17696587422848137
234,1844.34,0.169791820617834
235,1857.12,0.17044871656304364
236,1865.7,0.17328947628212804
237,1874.31,0.1775279005456848
238,1882.9599999999998,0.17156645420187133
239,1896.01,0.1689497610473319
240,1904.76,0.17155429318509283
241,1905.46072,0.17134752396136282
242,1913.56,0.16915345359782974
243,1926.82,0.16604868380818447
244,1935.71,0.16406666072900294
245,1944.65,0.17176257109707016
246,1953.6200000000001,0.1674728115334866
247,1967.17,0.17452091573788375
248,1976.25,0.17501851975824734
249,1985.37,0.17133543053640984
250,1994.53,0.1689734580723713
251,2003.74,0.1692349890555815
252,2012.99,0.16637370679659064
253,2026.94,0.1673459485789774
254,2036.3,0.16585705990393365
255,2045.7,0.16931195798668885
256,2055.14,0.1653006628272431
257,2064.62,0.16397885442559623
258,2074.15,0.17077247947119806
259,2078.94,0.17217878371762335
260,2083.73,0.1756256079640486
261,2093.35,0.1698774832146981
262,2103.0099999999998,0.16772634522314658
263,2112.72,0.16916688067884372
264,2127.36,0.1683886540332625
265,2137.18,0.16020865307290683
266,2147.04,0.16536903887035007
267,2156.96,0.16758734480449172
268,2166.91,0.16255752080698266
269,2176.91,0.16189446025672227
270,2186.96,0.16291005315371054
271,2187.7616199999998,0.1632110111715191
272,2197.06,0.16690146506358472
273,2207.2,0.1633168005818008
274,2217.38,0.15570014105275143
275,2222.5,0.1542516950027777
276,2232.75,0.16352589414101382
277,2243.06,0.15869258070835185
278,2253.42,0.1514947834666081
279,2263.82,0.15239672117759895
280,2274.27,0.15582415507950803
281,2284.76,0.16080326393415165
282,2295.31,0.15362693021789717
283,2305.9,0.15630931145437724
284,2316.55,0.1508402001199592
285,2327.24,0.13196846373827575
286,2332.6,0.13980382740470948
287,2343.37,0.1334638409284952
288,2354.19,0.1459234706431991
289,2365.0499999999997,0.13326947531063763
290,2375.97,0.13819977740717798
291,2386.94,0.1275632956946366
292,2392.44,0.13327600669564135
293,2403.48,0.13059553365038548
294,2414.58,0.13352243803423147
295,2425.7200000000003,0.144417947370812
296,2436.92,0.14161287413649445
297,2442.54,0.14779187999570298
298,2453.81,0.14752675542867094
299,2465.1400000000003,0.14493159829074073
300,2476.52,0.13986004734372878
301,2482.22,0.13799287310840647
302,2493.68,0.13482839206686364
303,2505.19,0.1488302772162391
304,2510.9700000000003,0.1291672028863859
305,2511.88643,0.1288586772948318
306,2516.76,0.12727369157850488
307,2522.56,0.12598667951500317
308,2534.2,0.13009263792549286
309,2545.8999999999996,0.13019878014222216
310,2557.65,0.14159917053081783
311,2563.55,0.13531622481104888
312,2575.38,0.14234799027463071
313,2587.27,0.1397042395444522
314,2593.2300000000005,0.13695453763092286
315,2605.2,0.13234308197573058
316,2617.2200000000003,0.1291857844924046
317,2623.26,0.13815751765386144
318,2635.3700000000003,0.14862585087989494
319,2647.53,0.16484483227779484
320,2653.63,0.17515276924549128
321,2665.88,0.15312711135275064
322,2672.03,0.16137503649231347
323,2684.36,0.16385956367455898
324,2696.75,0.15228138466304414
325,2702.9700000000003,0.16031360924321988
326,2715.45,0.1480217609410645
327,2727.98,0.14585767081077544
328,2734.27,0.15384347483156413
329,2746.8900000000003,0.12873881541063453
330,2753.2200000000003,0.13570039196891628
331,2765.93,0.14361127325734618
332,2772.31,0.15021256798749427
333,2785.1,0.13337880435091037
334,2797.96,0.10782045015493932
335,2804.41,0.11334105432570038
336,2817.35,0.14582527520471553
337,2823.85,0.16307129754734292
338,2836.88,0.15955921913571752
339,2843.4199999999996,0.153103054015838
340,2856.5499999999997,0.13912476194794537
341,2863.1299999999997,0.16478390936555892
342,2876.35,0.16964377800702574
343,2882.98,0.1663146935965057
344,2884.0315,0.16651551378769744
345,2896.2799999999997,0.16897509596319754
346,2909.6499999999996,0.1908640734990603
347,2929.82,0.18048007416460643
348,2950.13,0.1769643688357637
349,2970.58,0.1831380575125321
350,2991.17,0.1843538401949116
351,3011.9,0.1884082168829023
352,3032.7799999999997,0.18905385143404774
353,3046.78,0.19175845199516056
354,3067.9,0.19643931912735366
355,3089.1600000000003,0.19921948026515787
356,3110.58,0.20349226312366053
357,3132.14,0.19896303998777431
358,3146.6,0.20121647799589515
359,3168.41,0.20559275129860022
360,3190.3700000000003,0.19133218246446007
361,3212.4799999999996,0.20209187149347474
362,3227.31,0.18716777223071068
363,3249.68,0.21123362155586028
364,3272.21,0.22572549260170827
365,3287.31,0.22388291749262287
366,3310.1000000000004,0.22277944883460582
367,3311.31121,0.22250532334260612
368,3325.38,0.21941812713128434
369,3333.04,0.22937270307943944
370,3340.73,0.21139847723626876
371,3348.43,0.2389711841293229
372,3356.15,0.23054485649482645
373,3363.89,0.1926004943327795
374,3371.6400000000003,0.20215336490695732
375,3379.41,0.23173500095358465
376,3387.2000000000003,0.22738940247266143
377,3395.0099999999998,0.2162026694641877
378,3402.8399999999997,0.24989590192816347
379,3410.68,0.21812496712836402
380,3418.54,0.21686619780101402
381,3426.42,0.22633399394611353
382,3434.32,0.24551375556366253
383,3442.24,0.21713608265366102
384,3450.18,0.226642775216109
385,3458.1299999999997,0.22960810051478173
386,3466.1,0.22359789128590396
387,3474.09,0.23706354752947564
388,3482.1000000000004,0.22690926924549684
389,3490.13,0.23698975643396755
390,3498.17,0.213195676358663
391,3506.24,0.24148899449203265
392,3514.32,0.22291454536162705
393,3522.42,0.24096276170367098
394,3530.54,0.21949434351816435
395,3538.6800000000003,0.24229029080510728
396,3546.84,0.24839950356449964
397,3555.01,0.24837664906011675
398,3563.21,0.24033189276440814
399,3571.42,0.21639016920492424
400,3579.66,0.2217288438541146
401,3587.9100000000003,0.19775585123952968
402,3596.18,0.22981182409739428
403,3604.4700000000003,0.24579536242770836
404,3611.73,0.20770622892687363
405,3614.5899999999997,0.20829449148715085
406,3617.45,0.2404918540474281
407,3620.32,0.23753024934393008
408,3623.18,0.2507745119042073
409,3626.04,0.23689157446448453
410,3628.9,0.24155153702476176
411,3631.7700000000004,0.24166673232126373
412,3634.6299999999997,0.23826549488154097
413,3637.49,0.24186895744181822
414,3640.35,0.24961602000209546
415,3643.22,0.2548079152985974
416,3646.08,0.24604277785887463
417,3648.94,0.2365083404191519
418,3651.8,0.2369839029794291
419,3654.6600000000003,0.27262726553970634
420,3657.5299999999997,0.25952236083620833
421,3660.39,0.26109532339648556
422,3663.25,0.2426586859567628
423,3666.11,0.26232324851704003
424,3668.98,0.27410964381354197
425,3671.84,0.2587704063738192
426,3674.7000000000003,0.26691746893409646
427,3677.5600000000004,0.24778343149437368
428,3680.4300000000003,0.23650432679087566
429,3683.29,0.2331234893511529
430,3686.15,0.24417295191143013
431,3689.0099999999998,0.25240191447170734
432,3691.88,0.25947070976820935
433,3694.7400000000002,0.25125937232848655
434,3697.6,0.2667188348887638
435,3700.46,0.26047669744904106
436,3703.32,0.2494449600093183
437,3706.1899999999996,0.24460655530582026
438,3709.0499999999997,0.24557431786609749
439,3711.91,0.2604594804263747
440,3714.77,0.26495534298665196
441,3717.64,0.2796032382831539
442,3720.5,0.2624487008434312
443,3723.36,0.3050558634037084
444,3726.2200000000003,0.3275101259639856
445,3729.0899999999997,0.3239636212604876
446,3731.95,0.29962998382076483
447,3734.81,0.27050664638104205
448,3737.67,0.2502445089413193
449,3740.54,0.2598670042378213
450,3743.4,0.25385046679809853
451,3746.26,0.24633652935837574
452,3749.1200000000003,0.25592959191865294
453,3751.9799999999996,0.26387145447893023
454,3754.85,0.26578144977543217
455,3757.71,0.2685851123357094
456,3760.5699999999997,0.27350147489598664
457,3763.43,0.28052033745626387
458,3766.3,0.2680513327527658
459,3769.16,0.2613373953130431
460,3772.02,0.2740995578733203
461,3774.88,0.28791812043359755
462,3777.7500000000005,0.3015198157300995
463,3780.6099999999997,0.30175947829037675
464,3783.47,0.316490940850654
465,3786.33,0.3288224034109312
466,3789.2,0.3040152987074332
467,3792.06,0.28067646126771045
468,3794.92,0.2621476238279877
469,3797.78,0.2595975863882649
470,3800.6400000000003,0.2746981489485421
471,3801.8939600000003,0.2808919665297286
472,3803.5099999999998,0.2888820838938492
473,3806.37,0.2971455207366829
474,3809.23,0.2916146575795165
475,3812.09,0.2994165944223502
476,3814.96,0.29943271251288606
477,3817.82,0.27756414935571977
478,3820.6800000000003,0.27027948619855346
479,3823.5400000000004,0.2634460230413871
480,3826.4100000000003,0.256672841131923
481,3829.27,0.25011637797475667
482,3832.13,0.23772421481759035
483,3834.99,0.23337265166042406
484,3837.86,0.2387016697509599
485,3840.7200000000003,0.2499906065937936
486,3843.58,0.27028424343662727
487,3846.44,0.28939858027946097
488,3849.2999999999997,0.30724121712229463
489,3852.1699999999996,0.3221592352128305
490,3855.0299999999997,0.3042596720556642
491,3857.89,0.30182610889849787
492,3860.75,0.31099224574133155
493,3863.62,0.31398246383186745
494,3866.48,0.32403050067470107
495,3869.34,0.32822233751753477
496,3872.2000000000003,0.32302997436036845
497,3875.0699999999997,0.31207209245090434
498,3877.93,0.29181372929373806
499,3880.79,0.2815548661365717
500,3883.65,0.27075230297940533
501,3886.52,0.2641637210699413
502,3889.38,0.27522705791277496
503,3892.2400000000002,0.2869980947556086
504,3895.1000000000004,0.29753833159844234
505,3897.9599999999996,0.308581168441276
506,3900.83,0.3273246865318119
507,3903.69,0.3283885233746455
508,3906.5499999999997,0.33265216021747923
509,3909.41,0.3325877970603129
510,3912.28,0.32976291515084877
511,3915.14,0.34095965199368244
512,3918.0,0.3282701888365161
513,3920.86,0.3150575256793498
514,3923.7300000000005,0.29620264376988564
515,3926.5899999999997,0.27174948061271936
516,3929.45,0.23862991745555306
517,3932.31,0.22699665429838672
518,3935.18,0.2364280723889226
519,3938.04,0.2616446092317563
520,3940.9,0.29565064607458996
521,3943.76,0.30967798291742366
522,3946.6200000000003,0.31758241976025736
523,3949.49,0.3259879378507932
524,3952.35,0.3354308746936269
525,3955.21,0.32850531153646056
526,3958.07,0.3027700483792942
527,3960.94,0.2796794664698301
528,3963.8,0.2428781033126638
529,3966.6600000000003,0.2152967401554975
530,3969.5200000000004,0.21628857699833115
531,3972.39,0.24165789508886704
532,3975.25,0.29165283193170066
533,3978.11,0.32651006877453437
534,3980.97,0.34312200561736805
535,3983.84,0.3577322237079039
536,3986.7000000000003,0.36124726055073764
537,3989.56,0.3635519973935713
538,3992.42,0.37401043423640495
539,3995.2799999999997,0.38675577107923864
540,3998.1499999999996,0.3801360891697746
541,4001.0099999999998,0.39253272601260825
542,4003.87,0.39130956285544194
543,4006.73,0.40952139969827556
544,4009.6,0.41054231778881145
545,4012.46,0.4059037546316452
546,4015.32,0.4261668914744788
547,4018.1800000000003,0.4077956283173125
548,4021.0499999999997,0.4110215464078484
549,4023.91,0.40247558325068206
550,4026.77,0.4087495200935158
551,4029.63,0.4025520569363494
552,4032.5,0.3922708750268853
553,4035.36,0.401242011869719
554,4038.2200000000003,0.40948514871255265
555,4041.0800000000004,0.4035954855553863
556,4043.9399999999996,0.38909072239821996
557,4046.81,0.3978036404887559
558,4049.67,0.39297027733158957
559,4052.5299999999997,0.40662851417442325
560,4055.39,0.4078462510172569
561,4058.26,0.3919036691077928
562,4061.12,0.3880343059506265
563,4063.98,0.4090667427934601
564,4066.8399999999997,0.4017205796362938
565,4069.7100000000005,0.3962699977268297
566,4072.5699999999997,0.3911187345696634
567,4075.43,0.3955977714124971
568,4078.29,0.3962821082553308
569,4081.16,0.4030772263458666
570,4084.02,0.4090433631887003
571,4086.88,0.400292300031534
572,4089.7400000000002,0.3831311368743677
573,4092.6,0.38307707371720134
574,4095.47,0.36157599180773725
575,4098.33,0.36274232865057093
576,4101.1900000000005,0.34331466549340456
577,4104.05,0.35308580233623826
578,4106.92,0.3696959204267742
579,4109.78,0.3804311572696078
580,4112.64,0.3817615941124415
581,4115.5,0.4092347309552752
582,4118.37,0.39872784904581104
583,4121.2300000000005,0.3971662858886448
584,4124.09,0.3927020227314784
585,4126.95,0.3977554595743121
586,4129.82,0.398345677664848
587,4132.68,0.40892711450768165
