,lambda (Angstroms),Total Flux (erg/s/cm^2/Angstrom)
0,100.1,0.001173384728621725
1,101.96000000000001,0.0014091612803452539
2,104.10000000000001,0.0016788605570594191
3,104.712855,0.0017564585910102768
4,106.03,0.00162048237396668
5,108.0,0.0014175588058133795
6,110.01,0.001217448022824478
7,113.88000000000001,0.0008204355249801764
8,117.88,0.00040901898142017655
9,120.22644299999999,0.00022346330616407892
10,120.9,0.0002373607159216342
11,124.86,0.0002389473269309344
12,126.89,0.0002389353974735807
13,128.07,0.00023948261237029142
14,131.05,0.0002399946686348657
15,131.96,0.0002554916623263968
16,134.1,0.00025547018595263485
17,136.91,0.0002766021510880221
18,138.038426,0.00027814771954145324
19,140.1,0.0002905924328218575
20,143.03,0.0004799671242072722
21,147.04,0.0007744446909156384
22,151.16,0.0008384317634439347
23,155.04,0.0009140800414560199
24,158.489319,0.0009880624611059421
25,159.01,0.0009991825167418326
26,161.97,0.0010608011685609893
27,166.11999999999998,0.0011546237260101448
28,169.99,0.0012374587880169478
29,173.15,0.001311628236580642
30,177.19,0.001402831670820302
31,180.07,0.0014706036239416436
32,181.970086,0.0015199135652220058
33,182.14999999999998,0.0015246450191581128
34,185.97,0.0016215197239475656
35,191.18,0.0017445218527310862
36,193.83999999999997,0.001830241563395993
37,197.89000000000001,0.001937999698054968
38,202.04,0.0020425752804833
39,204.85,0.002128387662802243
40,208.929613,0.0021785362146031573
41,210.10000000000002,0.0021934247263151363
42,215.99,0.0024336183903477296
43,220.01,0.0025606807145261722
44,223.07,0.0026272695433784193
45,227.21,0.002758240429472636
46,229.84,0.0041704166614600245
47,234.11999999999998,0.006917999369789312
48,239.88329199999998,0.009106919856018374
49,240.11999999999998,0.009196600997297721
50,246.28,0.008821912768376525
51,252.01999999999998,0.009404611032336318
52,256.7,0.007561392254519566
53,260.28,0.00923024833901017
54,263.9,0.009796219519416869
55,268.8,0.009839418769138644
56,273.8,0.009837446758650661
57,275.42287,0.009815189512783356
58,278.89,0.00977066825300626
59,284.08,0.009862608911498085
60,290.02,0.009444775959945374
61,296.1,0.009534648174517685
62,300.91,0.009067380382098738
63,307.92,0.009302074200215827
64,316.227766,0.00951916911264346
65,318.01000000000005,0.009564348557079478
66,327.66999999999996,0.009474214102936526
67,337.62,0.009298913809072922
68,347.88,0.009084675065852766
69,356.81,0.009060753863420408
70,363.078055,0.009115866912917405
71,365.96,0.00914290271827761
72,375.34999999999997,0.008978789657691211
73,384.97999999999996,0.008480881499709636
74,394.84999999999997,0.008680339244332879
75,404.98,0.008682667050111342
76,414.40999999999997,0.008508117306625748
77,416.86938299999997,0.008428912293742504
78,422.12,0.008259273200720995
79,429.97,0.00805499501596392
80,441.0,0.008001638947445381
81,451.27,0.007804118266240902
82,459.66,0.007542054648392258
83,470.36,0.007373094511207457
84,478.630092,0.007304080234378539
85,480.21000000000004,0.007290330765867292
86,490.27000000000004,0.006978060541108771
87,500.53000000000003,0.006976060735341135
88,506.33,0.006770428886076779
89,512.19,0.007200725862509689
90,520.52,0.007003899663480019
91,530.1899999999999,0.006734632571689275
92,540.05,0.00632885192793987
93,549.5408739999999,0.00613825724872131
94,550.09,0.006127304916892178
95,560.3199999999999,0.006282855317537147
96,569.42,0.006268133344503835
97,580.01,0.006069403970391443
98,589.4300000000001,0.005972358864240476
99,600.39,0.005639164054960794
100,610.15,0.004994100494872319
101,620.06,0.005599317028634943
102,630.14,0.005372358335428813
103,630.957344,0.005373299711232602
104,640.37,0.005385600265492894
105,649.28,0.005216601427668816
106,658.32,0.005017997162356844
107,664.41,0.005088011290039377
108,675.1999999999999,0.005019635808544226
109,684.5999999999999,0.004719897590188858
110,695.7199999999999,0.004797035485070592
111,705.4000000000001,0.004469792192125915
112,715.21,0.004615870471693344
113,724.43596,0.004550372828669577
114,726.8299999999999,0.0045332850166794085
115,735.2499999999999,0.004461740483132614
116,745.48,0.0043217816246784915
117,755.85,0.004215363857115515
118,764.6,0.003830734037812134
119,775.24,0.004046593945539224
120,784.21,0.003866718269064789
121,795.12,0.003867179852081946
122,804.33,0.0038239693314209033
123,815.52,0.003763928096220352
124,824.96,0.003705080224880478
125,831.763771,0.0034703915505009115
126,834.52,0.003374874494225178
127,844.1800000000001,0.0035472258595955273
128,855.92,0.003458201556225745
129,865.8299999999999,0.003425637317180213
130,875.86,0.003370316828015058
131,886.0,0.003301005192906915
132,894.2,0.0032477477680660106
133,904.55,0.003166393945248528
134,915.03,0.0031724357681347866
135,925.62,0.005290434445078058
136,934.19,0.007475940165701649
137,945.01,0.00957680744658231
138,954.992586,0.01063888710116061
139,955.95,0.010740838483510503
140,964.79,0.011559934203577484
141,975.96,0.006052163259363476
142,985.0,0.010211031488934236
143,994.11,0.009774970496831317
144,1005.62,0.01129660161877373
145,1014.93,0.01114179913617459
146,1024.32,0.007120991257376958
147,1036.18,0.009707115270950986
148,1045.76,0.012555211076181943
149,1055.44,0.01215741213616479
150,1065.21,0.010689431625424338
151,1075.06,0.011478709718485398
152,1085.01,0.009684120066298346
153,1095.05,0.011504600843387993
154,1096.4782,0.011431764505316166
155,1105.18,0.010987660598407598
156,1115.41,0.010737431804029593
157,1125.73,0.009771668093572017
158,1136.1499999999999,0.010985728920803808
159,1144.02,0.010395849036956801
160,1154.61,0.010443350578260508
161,1165.29,0.010394747203484645
162,1176.07,0.007999520366398147
163,1184.22,0.00990420418808136
164,1195.18,0.008471256518835717
165,1206.24,0.00726244338727944
166,1214.6,0.005194136738110319
167,1225.84,0.008070461774394898
168,1234.34,0.009456559477990886
169,1245.76,0.00974283768211632
170,1254.3899999999999,0.009477334284708485
171,1258.92541,0.00927834378651449
172,1266.0,0.008968361033471747
173,1274.78,0.009809418146457288
174,1283.6100000000001,0.009900231453708119
175,1295.49,0.008684549611141854
176,1304.47,0.008644664501188566
177,1313.51,0.00956472362435363
178,1325.6699999999998,0.00919810086967301
179,1334.86,0.008546198575633952
180,1344.1100000000001,0.00921952451471325
181,1356.54,0.008989378809065213
182,1365.95,0.00839059236979345
183,1375.42,0.008429105163640038
184,1384.95,0.008390683190604977
185,1394.55,0.00709509248954133
186,1404.2199999999998,0.007062673060449092
187,1413.9499999999998,0.007849873864475207
188,1423.75,0.007724748940472732
189,1433.62,0.007795998288441668
190,1443.5600000000002,0.007922434908382016
191,1445.43977,0.007912194925133703
192,1446.89,0.007904293940914577
193,1453.5600000000002,0.007689302691099818
194,1463.6399999999999,0.007327431560944982
195,1473.7900000000002,0.007277083659052958
196,1484.0,0.007293692952814776
197,1494.29,0.00722712150744838
198,1504.6499999999999,0.0069344982903447976
199,1511.59,0.006443216920972321
200,1518.57,0.006638329682035738
201,1525.58,0.006547510540926075
202,1536.15,0.005891444008610933
203,1543.2399999999998,0.0057843011283730565
204,1553.94,0.00561406801997457
205,1564.71,0.005877916139838896
206,1575.56,0.00612589852057501
207,1586.48,0.0062109271295739355
208,1593.8,0.006268317999342447
209,1604.85,0.006070047032258028
210,1615.9699999999998,0.006014555293436422
211,1623.4299999999998,0.005824451619730562
212,1634.68,0.00601463230482561
213,1646.02,0.0060145892834014185
214,1653.6100000000001,0.005771295033612211
215,1659.58691,0.005905315074193834
216,1665.08,0.006028599334624316
217,1672.76,0.0055762052240148925
218,1676.6200000000001,0.006312157144984637
219,1684.3600000000001,0.006356097463198577
220,1696.03,0.006029394369342853
221,1703.8600000000001,0.00590652783079184
222,1715.67,0.005825881070857298
223,1723.5900000000001,0.005812707675541331
224,1735.5400000000002,0.006142048249527971
225,1743.5500000000002,0.00600308999744705
226,1755.6299999999999,0.006343153667217645
227,1763.74,0.005827001796508997
228,1775.96,0.006003882800200775
229,1784.1599999999999,0.006115132072727173
230,1796.53,0.00659654664847736
231,1804.82,0.006476853064238803
232,1813.15,0.0062005534325491555
233,1825.72,0.006229373771043889
234,1834.1499999999999,0.006060499520726515
235,1846.86,0.005428965193142432
236,1855.39,0.00576277332419733
237,1863.95,0.006201741169663912
238,1876.87,0.006316974842961601
239,1885.53,0.0060617520698004555
240,1894.24,0.006202465487325446
241,1902.98,0.006274280619262118
242,1905.46072,0.0062770703671985225
243,1916.17,0.006288529960737053
244,1925.02,0.00589707229977811
245,1933.9,0.005245941717934561
246,1942.8300000000002,0.006628305601283334
247,1956.29,0.006462749431056514
248,1965.3200000000002,0.007215120244789932
249,1974.4,0.007002687523715672
250,1983.51,0.007115705881756806
251,1997.2599999999998,0.007082876809645455
252,2006.48,0.006905795791109697
253,2015.74,0.006985332544727798
254,2025.04,0.006505297070499757
255,2034.39,0.007213003061464039
256,2043.78,0.007744827824582177
257,2053.21,0.007295614359854174
258,2062.69,0.007179028360318493
259,2072.21,0.00810799213293667
260,2076.99,0.010439655405322688
261,2086.58,0.011550281029210118
262,2096.21,0.010780385425251404
263,2105.88,0.010343188593446547
264,2115.6,0.011287000226834014
265,2125.37,0.010414100325413803
266,2135.1800000000003,0.00971988219614745
267,2145.03,0.011601846839034953
268,2154.94,0.011601482640153246
269,2164.88,0.01038893752038693
270,2174.8700000000003,0.010508780865812938
271,2184.91,0.01228717267643127
272,2187.7616199999998,0.012367834881654967
273,2195.0,0.012572982293428708
274,2205.1299999999997,0.012118980213160406
275,2215.31,0.01001380335658278
276,2225.53,0.0110545694789577
277,2235.81,0.013880901069761436
278,2246.13,0.013135783639517715
279,2256.49,0.010607247188226537
280,2266.91,0.010130912205364176
281,2277.37,0.010904478201454359
282,2282.62,0.013629026688975721
283,2293.16,0.01162957464297099
284,2303.74,0.013627323575918802
285,2314.38,0.012034683977295433
286,2325.06,0.009717131357624606
287,2335.79,0.009089617961644458
288,2346.57,0.006789060789354988
289,2357.41,0.011304777085494338
290,2362.84,0.007288688978302145
291,2373.75,0.009106810987608445
292,2384.7,0.005954390975867287
293,2395.71,0.007170064432554944
294,2406.77,0.007136339112933283
295,2412.32,0.008152712942598722
296,2423.4500000000003,0.012788833336144013
297,2434.6400000000003,0.012699357198118117
298,2445.87,0.014880442039044766
299,2457.16,0.01550713834840023
300,2462.83,0.013885787114923302
301,2474.2,0.012235015382183852
302,2485.62,0.008470702873135085
303,2497.0899999999997,0.009654246587776997
304,2502.85,0.014300446556943291
305,2511.88643,0.008779770440046675
306,2514.4,0.007244055904285952
307,2520.2000000000003,0.00587850896662673
308,2526.0,0.00641336102896751
309,2537.66,0.009516821585328456
310,2543.5099999999998,0.010055478174068724
311,2555.25,0.016555076972668854
312,2567.05,0.012794805202948366
313,2572.97,0.01595313912864792
314,2584.8399999999997,0.014316786695886723
315,2596.77,0.01296701369480491
316,2602.76,0.011269886957463749
317,2614.77,0.01016111319862112
318,2626.8399999999997,0.013728018871457878
319,2632.9,0.022248601471076004
320,2645.0499999999997,0.029861366386151944
321,2657.26,0.039991860732907274
322,2663.39,0.026733462669484686
323,2675.68,0.030123736258479198
324,2688.03,0.03442078927915309
325,2694.23,0.02540278055268979
326,2706.6600000000003,0.030882862815602874
327,2712.8999999999996,0.02268753371025916
328,2725.42,0.018785015120691324
329,2738.0,0.023421585962802874
330,2744.32,0.013485946099698344
331,2756.98,0.01818157618404908
332,2763.34,0.02357543594206414
333,2776.09,0.025313695173933955
334,2782.4900000000002,0.01533088455306861
335,2795.34,0.006826851837737403
336,2801.7799999999997,0.008259397837991646
337,2814.7100000000005,0.022396509364899623
338,2827.71,0.03220963622876689
339,2834.2200000000003,0.030197184565980417
340,2847.31,0.02233466057736676
341,2853.87,0.01337230844097978
342,2867.04,0.030113043694605306
343,2873.6499999999996,0.03950476108461782
344,2884.0315,0.03691053947664086
345,2886.92,0.036188762191017264
346,2893.5699999999997,0.04330303090193589
347,2906.93,0.05785999831214233
348,2927.0800000000004,0.05084773440612883
349,2947.3700000000003,0.04722370047297678
350,2967.7999999999997,0.04909592651268618
351,2988.3700000000003,0.04999326252525702
352,3009.08,0.050326578510689314
353,3029.94,0.05341355446704457
354,3050.9399999999996,0.056171520396261276
355,3072.09,0.06031004629640096
356,3093.39,0.05878451216746362
357,3107.66,0.06701177940126944
358,3129.21,0.0622339452238704
359,3150.8999999999996,0.0617875310193328
360,3172.74,0.06819686678571818
361,3187.38,0.059797953947800686
362,3209.48,0.06615248966378588
363,3231.7200000000003,0.05668165535263253
364,3246.64,0.07785855246043792
365,3269.14,0.09039606809888438
366,3291.81,0.08871884370437691
367,3307.0,0.08335409075984365
368,3311.31121,0.08152677537263528
369,3322.26,0.07688606935224344
370,3329.92,0.08665423096731271
371,3337.6,0.08236632250826992
372,3345.2900000000004,0.08160263401217106
373,3353.0,0.07545174544196011
374,3360.74,0.08641782676058103
375,3368.48,0.08366929807920194
376,3376.25,0.06569658928665471
377,3384.03,0.07038575045705146
378,3391.83,0.08539144155333611
379,3399.65,0.08777346257550867
380,3407.4900000000002,0.08557009352356913
381,3415.34,0.08227760443457355
382,3423.21,0.09732415527146587
383,3431.11,0.09293367599719007
384,3439.02,0.09207024668585821
385,3446.94,0.06224709733747032
386,3454.89,0.09078756787791428
387,3462.85,0.07533543838130219
388,3470.84,0.08471097877352197
389,3478.84,0.06806453912868572
390,3486.86,0.08276420940973737
391,3494.9,0.07478434961667693
392,3502.9500000000003,0.09177760978656045
393,3511.03,0.09176853984527582
394,3519.12,0.09091639986693514
395,3527.23,0.0708952698144824
396,3535.36,0.09089600968791754
397,3543.52,0.10434635945018456
398,3551.68,0.10079322921245155
399,3559.87,0.09492786886355044
400,3568.08,0.08919569844053722
401,3576.3,0.07894309798046796
402,3584.55,0.060294997409230576
403,3592.81,0.07198074680093713
404,3601.09,0.1045032461185316
405,3609.39,0.084937565362014
406,3617.71,0.09333445453138428
407,3626.05,0.09727110362664247
408,3634.4100000000003,0.08335780264778858
409,3642.7900000000004,0.1134687915948226
410,3651.19,0.08666387046774453
411,3659.6,0.1198870293036104
412,3668.04,0.11580299802830814
413,3676.4999999999995,0.12096576667889379
414,3684.9700000000003,0.1024766352924234
415,3693.47,0.11286780379478488
416,3701.9800000000005,0.12148227226009031
417,3710.52,0.0848168206142276
418,3719.0699999999997,0.12543010893130885
419,3727.64,0.098485677174278
420,3736.23,0.08498249534313507
421,3744.85,0.10721501340082398
422,3753.48,0.06811597142145688
423,3762.13,0.08693132936797768
424,3770.81,0.09270820720333033
425,3779.5,0.11429978500162694
426,3788.21,0.12852345272581145
427,3796.9399999999996,0.09681733037588389
428,3801.8939600000003,0.10463008583723495
429,3805.7000000000003,0.11063249085345768
430,3814.47,0.11907746512668282
431,3823.26,0.08606078934123804
432,3832.08,0.07108223346778832
433,3840.9100000000003,0.0655726075650036
434,3849.7599999999998,0.10294996160354895
435,3858.64,0.09875929555408937
436,3867.53,0.1070314094752948
437,3876.4500000000003,0.0852083933084953
438,3885.3900000000003,0.09384538708302585
439,3886.15,0.1275755548535676
440,3887.92,0.13105234966127668
441,3889.69,0.12140184446898573
442,3891.4500000000003,0.11812543930602978
443,3893.22,0.14660953411373887
444,3894.99,0.13290432892144793
445,3896.76,0.154575623729157
446,3898.53,0.1529592185368661
447,3900.2999999999997,0.13660301334457514
448,3902.07,0.14872090815228423
449,3903.84,0.12487440295999327
450,3905.61,0.12900779776770233
451,3907.37,0.12828119260474638
452,3909.14,0.12576058741245544
453,3910.9100000000003,0.1651436822201645
454,3912.68,0.16889167702787358
455,3914.45,0.13742797183558267
456,3916.2200000000003,0.14200556664329173
457,3917.9900000000002,0.13148526145100078
458,3919.7599999999998,0.13108665625870985
459,3921.5299999999997,0.12227005106641893
460,3923.3,0.120831045874128
461,3925.0600000000004,0.11257034071117206
462,3926.83,0.08073701551888111
463,3928.6,0.06155417032659019
464,3930.3700000000003,0.06402009513429927
465,3932.14,0.05321610994200833
466,3933.91,0.0736679547497174
467,3935.68,0.07146706955742647
468,3937.4500000000003,0.07030907436513553
469,3939.22,0.0873337491728446
470,3940.99,0.11016529398055368
471,3942.75,0.09413592881759772
472,3944.5200000000004,0.1254115836253068
473,3946.29,0.13081487843301587
474,3948.06,0.13486667324072493
475,3949.83,0.136530468048434
476,3951.6,0.12302016285614306
477,3953.37,0.13414605766385215
478,3955.14,0.1334135524715612
479,3956.9100000000003,0.12610024727927027
480,3958.68,0.13047844208697934
481,3960.44,0.10973743692402338
482,3962.21,0.08102669173173245
483,3963.9799999999996,0.07233301653944152
484,3965.75,0.05853316134715059
485,3967.52,0.05194235615485966
486,3969.29,0.06901959096256872
487,3971.06,0.0782842757702778
488,3972.83,0.09246737057798687
489,3974.6,0.10298299538569594
490,3976.3599999999997,0.11324589022274
491,3978.13,0.13686568503044905
492,3979.9,0.13754807983815812
493,3981.67,0.13425917464586717
494,3983.4399999999996,0.14327726945357624
495,3985.21,0.14877276426128533
496,3986.98,0.15492165906899438
497,3988.75,0.15369585387670345
498,3990.52,0.16220324868441252
499,3992.29,0.1532808434921216
500,3994.05,0.16656433832916565
501,3995.8199999999997,0.1692707331368747
502,3997.5899999999997,0.1649006279445838
503,3999.36,0.15639292275229286
504,4001.13,0.16368111756000192
505,4002.8999999999996,0.160463112367711
506,4004.67,0.15010980717542005
507,4006.44,0.16782630198312914
508,4008.21,0.1657792967908382
509,4009.98,0.15988249159854728
510,4011.74,0.16945358643559133
511,4013.51,0.1714709812433004
512,4015.2799999999997,0.17736387605100945
513,4017.0499999999997,0.16566887085871854
514,4018.82,0.1622378656664276
515,4020.59,0.16770156047413667
516,4022.3599999999997,0.16187495528184573
517,4024.13,0.1727802500895548
518,4025.9,0.17437374489726387
519,4027.6600000000003,0.1501261397343079
520,4029.43,0.15243133454201696
521,4031.2,0.15833472934972603
522,4032.9700000000003,0.1569548241574351
523,4034.74,0.16484351896514418
524,4036.5099999999998,0.16643711377285325
525,4038.28,0.1601414085805623
526,4040.05,0.16348600338827138
527,4041.8199999999997,0.15517099819598046
528,4043.59,0.1600997930036895
529,4045.35,0.14872818784073358
530,4047.1200000000003,0.14166568264844265
531,4048.89,0.15403127745615172
532,4050.66,0.1548217722638608
533,4052.4300000000003,0.16202226707156986
534,4054.2,0.16534436187927892
535,4055.97,0.16287195668698798
536,4057.7400000000002,0.15286545149469705
537,4059.51,0.14606204630240613
538,4061.2799999999997,0.1442515411101152
539,4063.04,0.15734683594715923
540,4064.81,0.1582854307548683
541,4066.5800000000004,0.15230852556257737
542,4068.35,0.14529202037028646
543,4070.12,0.1551163151779955
544,4071.8900000000003,0.1446867099857046
545,4073.66,0.15353870479341367
546,4075.43,0.15787909960112273
547,4077.2000000000003,0.1439245944088318
548,4078.9700000000003,0.15854738921654088
549,4080.73,0.17926008405358493
550,4082.5,0.176477278861294
551,4084.27,0.17287547366900305
552,4086.0400000000004,0.17712746847671212
553,4087.81,0.1718403632844212
554,4089.58,0.17792955809213026
555,4091.3500000000004,0.18292495289983934
556,4093.12,0.1722157477075484
557,4094.89,0.16570254251525748
558,4096.66,0.15327323732296655
559,4098.42,0.15009223216001055
560,4100.1900000000005,0.15154912696771963
561,4101.96,0.1589717217754287
562,4103.73,0.16073671658313776
563,4105.5,0.15641951139084684
564,4107.27,0.1696070061985559
565,4109.04,0.170881001006265
566,4110.8099999999995,0.16335619581397404
567,4112.58,0.1751868906216831
568,4114.34,0.18207558545872718
569,4116.11,0.17619828026643625
570,4117.88,0.1704691750741453
