,lambda (Angstroms),Total Flux (erg/s/cm^2/Angstrom)
0,101.99,0.010365338160914077
1,103.89,0.012134402067853186
2,104.712855,0.012900551062778383
3,106.06,0.011853981173940178
4,108.03,0.010323527782430172
5,110.03999999999999,0.008761999299832521
6,113.91,0.005755474266731186
7,117.91,0.0026479549574671
8,120.22644299999999,0.0008483602716992166
9,120.94000000000001,0.0008227107611931104
10,124.89999999999999,0.0006803611015784283
11,126.92999999999999,0.0006073889350864847
12,128.1,0.0005653312090818964
13,131.09,0.0004578502830263932
14,132.0,0.00042514067145993595
15,134.14000000000001,0.0003482148198971674
16,136.95000000000002,0.0002472085251428318
17,138.038426,0.00020808369221505727
18,140.14000000000001,0.00020541812349956977
19,143.07999999999998,0.00020173480758873494
20,147.08,0.00019675890741202088
21,150.86,0.0001919934424623761
22,155.07999999999998,0.00018667571211859285
23,158.489319,0.00018238730711276255
24,159.06,0.0001812807874242368
25,162.02,0.0001755438896743413
26,166.17,0.00016750814719594055
27,170.04999999999998,0.00016000007560215866
28,172.81,0.0001546694453704993
29,176.83,0.000146901782343952
30,180.12,0.00014054318262396684
31,181.970086,0.00013697205367050756
32,182.21,0.00013712755530340947
33,186.02,0.00013960991202368169
34,190.79,0.00014272728700811697
35,193.89,0.00014476215303406024
36,197.95,0.00014742355812416658
37,202.1,0.00015015710782341322
38,204.91,0.00015202108216434893
39,208.929613,0.00015463196726031665
40,210.17000000000002,0.0001593874536592476
41,216.04999999999998,0.000182094522401321
42,220.07,0.00019759519702090193
43,223.13,0.0002093687026417769
44,226.76000000000002,0.00022341160307438366
45,229.91,0.00023647816050763725
46,234.19,0.0002548110939185343
47,239.88329199999998,0.0002781464360661385
48,240.19,0.00027727123002103287
49,245.79,0.0002597668068638518
50,252.08999999999997,0.00024092423893702316
51,256.78,0.00022530513318038404
52,259.75,0.0002173470745434504
53,263.98,0.0002048418221211511
54,268.88,0.00018991577173361777
55,273.88,0.00017460410866470608
56,275.42287,0.00016988200665891476
57,278.97,0.00018205667979241612
58,284.16,0.00019995368718061737
59,290.11,0.00021992748303028924
60,296.19,0.0002409678807220548
61,301.0,0.0002572301888795207
62,308.01,0.0002815221020570333
63,316.227766,0.00030996402002440144
64,318.09999999999997,0.0003055693052455503
65,327.77,0.00028263745874197347
66,337.72999999999996,0.0002588298566141943
67,347.98999999999995,0.000234205841771723
68,356.91,0.00021308438705487632
69,363.078055,0.00019865238752836385
70,366.07,0.00020473349184439092
71,374.6,0.00022157624300622085
72,385.09000000000003,0.00024155680183243373
73,394.96999999999997,0.0002620484365896293
74,405.09999999999997,0.0002825745664570779
75,413.58,0.0002993089085968573
76,416.86938299999997,0.00030568763248625414
77,422.23999999999995,0.0003119848485755716
78,430.09,0.00032135908874780794
79,441.13,0.0003352863432957684
80,451.4,0.000347739304718554
81,459.78999999999996,0.00035771521500454925
82,470.5,0.0003711569339274348
83,478.630092,0.0003818796444111211
84,480.36,0.00037956371319215504
85,490.42,0.0003652704469027347
86,499.53,0.00035412611962672895
87,506.47999999999996,0.00036711833894964444
88,512.35,0.0005537444115720203
89,519.47,0.0005633021075977984
90,530.35,0.0005722117565810099
91,540.21,0.0005499730853470453
92,549.5408739999999,0.0006987988182023437
93,550.26,0.0007110000937691933
94,560.48,0.0008231688290908242
95,569.59,0.0009232631751554091
96,580.18,0.0008902764402293887
97,589.61,0.001096643752566275
98,600.5699999999999,0.0011511841473926033
99,610.3299999999999,0.0013785754186978008
100,620.25,0.001564032373139149
101,630.32,0.0017203807180206385
102,630.957344,0.0017215942218304497
103,640.57,0.0017509724888786962
104,649.48,0.0020380242341929587
105,658.5100000000001,0.0022147323565484905
106,664.61,0.002360951356146358
107,675.4,0.0024076876751071763
108,684.8,0.002418900543339956
109,694.3299999999999,0.0031773184033674446
110,705.61,0.00307246784524678
111,715.42,0.0037270249183705634
112,724.43596,0.0039034193645520253
113,725.3800000000001,0.0039216200514367505
114,735.47,0.004115069512401365
115,745.6999999999999,0.004718468663607313
116,754.33,0.005094278640626602
117,764.8299999999999,0.0054662364087265485
118,775.47,0.006009600867067827
119,784.45,0.006550652569690448
120,795.3599999999999,0.006864569644925726
121,804.57,0.007225283910087679
122,815.76,0.007538877365805621
123,825.2099999999999,0.008350938957095572
124,831.763771,0.007351513054553525
125,834.76,0.006891013181386328
126,844.4300000000001,0.008878771141189457
127,854.2099999999999,0.009213145848208548
128,864.1,0.0099756823024436
129,874.11,0.010780805299096061
130,884.23,0.011813012042964486
131,894.47,0.012544710329250322
132,904.82,0.01259331836275212
133,915.3,0.02007528973387278
134,925.9000000000001,0.14793840264741084
135,934.47,0.33241707113505436
136,945.29,0.6464736935430244
137,954.03,0.9278684225490926
138,954.992586,0.938358783535594
139,965.0799999999999,1.0482994245900268
140,974.01,0.15957256651151105
141,985.2900000000001,0.8861292036754913
142,994.41,0.9494923209570071
143,1005.92,1.410779128293657
144,1015.23,1.3628659209352045
145,1024.62,0.5774875032020285
146,1034.1,0.9451104737972883
147,1046.0800000000002,1.8553749201824377
148,1055.76,1.8215286648408886
149,1065.53,1.4303553978277757
150,1075.3799999999999,1.7236401204399392
151,1085.3400000000001,1.3503668287868578
152,1095.3799999999999,1.8215535267590528
153,1096.4782,1.8126667456036079
154,1105.51,1.739577718444579
155,1115.74,1.6651325662146228
156,1126.07,1.4908833733959086
157,1133.8700000000001,1.9250132074727746
158,1144.36,1.7435609497120474
159,1154.95,1.863957651362562
160,1165.64,1.9294153124243183
161,1173.72,1.316594032852662
162,1184.58,1.8855156249135294
163,1195.54,1.289575176385639
164,1203.83,0.9087608115775904
165,1214.97,0.6060103899899353
166,1226.21,1.277724727813522
167,1234.71,1.9652632777690813
168,1246.13,2.1548726425329034
169,1254.77,2.0484381356642016
170,1258.92541,1.9450744728867386
171,1266.38,1.7596486642527658
172,1275.1599999999999,2.266812917735918
173,1283.9999999999998,2.3627171729513017
174,1295.88,1.8340835159330613
175,1304.86,1.8383147751903173
176,1313.9,2.3089900361798046
177,1326.06,2.189870387245309
178,1335.25,1.9338776525653742
179,1344.5099999999998,2.3089509199063754
180,1353.83,2.2357011889796077
181,1366.3600000000001,1.9880145507272045
182,1375.8300000000002,2.086473824131015
183,1385.36,2.1106570992670557
184,1394.97,1.8131053767127383
185,1404.64,1.8941976558906524
186,1414.3700000000001,1.9472539368007973
187,1424.1799999999998,1.9971632200205836
188,1434.05,1.997183504972601
189,1440.67,2.1009696960954334
190,1445.43977,2.118410695052294
191,1447.32,2.1252858793605114
192,1454.0,2.062606041221787
193,1464.0800000000002,1.9029522854675438
194,1474.23,1.9029425314094517
195,1484.4399999999998,1.9293957788052034
196,1494.73,1.9562530281394133
197,1505.0900000000001,1.8341072791697743
198,1512.04,1.6271674475733469
199,1515.53,1.7435225321385939
200,1526.03,1.7038397865612573
201,1536.61,1.477171042922379
202,1543.7,1.6048502147182535
203,1554.3999999999999,1.5220744739870629
204,1565.1799999999998,1.5646857351943304
205,1576.03,1.6612059980977494
206,1583.3,1.7355241742551553
207,1594.28,1.7636954403085687
208,1605.3300000000002,1.7395047080581336
209,1616.46,1.7515689777461567
210,1623.92,1.6650741585074011
211,1635.1699999999998,1.7718404311031122
212,1646.51,1.7882147058795883
213,1654.1100000000001,1.6727608900331352
214,1659.58691,1.737858351539344
215,1665.5700000000002,1.8089730814652958
216,1673.26,1.6536014422298928
217,1677.12,1.804768125266479
218,1684.86,1.8725364948787002
219,1696.54,1.7637065616837062
220,1704.3700000000001,1.6921359472216513
221,1716.1799999999998,1.5864760370304802
222,1724.1100000000001,1.5791854402636734
223,1736.0600000000002,1.6765955548458502
224,1744.0700000000002,1.6346719722352419
225,1756.1599999999999,1.7315511115907662
226,1764.27,1.6085515466754066
227,1776.49,1.6234567090347536
228,1784.6999999999998,1.6612281618146423
229,1797.0700000000002,1.751599350716862
230,1805.3600000000001,1.7516048176529493
231,1813.69,1.593808291667136
232,1826.2700000000002,1.6460115177293768
233,1834.7,1.579195009438812
234,1843.16,1.4535845064568216
235,1855.94,1.4369487679095594
236,1864.51,1.4772012843923419
237,1873.1100000000001,1.6197318061836992
238,1886.1,1.4670351047964583
239,1894.8000000000002,1.3881926442830639
240,1903.55,1.5012041926172937
241,1905.46072,1.4899942973714024
242,1916.74,1.4238159579910101
243,1925.5900000000001,1.391399939361589
244,1934.48,1.4636709116084194
245,1943.41,1.501192874731501
246,1956.88,1.3881748023090943
247,1965.9099999999999,1.525598742622804
248,1974.99,1.5755816715318274
249,1984.1000000000001,1.4771965935980396
250,1993.26,1.4369305042595655
251,2007.08,1.4943043520043569
252,2016.3400000000001,1.4402652398565108
253,2025.6499999999999,1.5220911163039788
254,2034.9999999999998,1.4139849836276979
255,2044.39,1.4602638418276683
256,2053.83,1.4010026886229527
257,2063.31,1.4139725262944884
258,2072.83,1.5011803548422753
259,2077.61,1.3945732645542943
260,2087.2,1.4569170771355207
261,2096.83,1.3754218805929983
262,2106.51,1.4042116726457898
263,2116.23,1.413967455574833
264,2126.0,1.4336062270991896
265,2135.82,1.3565299872188605
266,2145.6800000000003,1.3596557382147827
267,2155.58,1.4139574800869559
268,2165.5299999999997,1.381741210554443
269,2175.52,1.3690989318981817
270,2185.57,1.328706639556297
271,2187.7616199999998,1.3409374665186793
272,2195.65,1.3849635742219457
273,2205.79,1.3534284182561491
274,2215.97,1.304470269564649
275,2226.2000000000003,1.2572901299660202
276,2236.48,1.3165439994602617
277,2246.7999999999997,1.2747838762288002
278,2257.17,1.2315077620902093
279,2267.5899999999997,1.2601886570444893
280,2272.81,1.2806906063402035
281,2283.3,1.2985115140245027
282,2293.84,1.2344514308016727
283,2304.4300000000003,1.2293753566717136
284,2315.0699999999997,1.179997291634625
285,2325.76,0.9508555356904077
286,2336.49,1.1202551870204867
287,2347.27,1.1054161474434367
288,2352.69,1.1498221331106342
289,2363.55,1.0935301080821775
290,2374.46,1.1067540921465917
291,2385.41,1.0599150834853024
292,2396.43,1.1129370875540323
293,2407.49,1.0658460988970588
294,2413.04,1.0834581082057204
295,2424.17,1.1117701322787663
296,2435.36,1.067199167263257
297,2446.6099999999997,1.1154712131591928
298,2452.25,1.0953822388350218
299,2463.56,1.0909122956424024
300,2474.94,1.0592663651798024
301,2486.36,1.0945404419914988
302,2497.84,1.0243785297146406
303,2503.6000000000004,1.1055185772133596
304,2511.88643,1.0529704866054024
305,2515.15,1.0322738544602794
306,2526.76,1.0280440373065887
307,2532.58,1.0306876276739891
308,2544.2799999999997,1.0054238041857737
309,2556.02,1.0461349778822138
310,2567.82,1.0346661473556378
311,2573.74,1.0737907306846775
312,2585.6200000000003,1.0645168945274126
313,2597.55,1.0601650548509673
314,2603.54,1.0291736332531545
315,2615.56,1.0226657872421843
316,2627.63,1.0374289377120338
317,2633.69,1.0425115111873684
318,2645.8399999999997,1.0822136560265294
319,2658.06,1.0778117959388376
320,2664.18,1.0248653651911557
321,2676.48,1.0516994994727753
322,2682.6499999999996,1.042352065205913
323,2695.0299999999997,1.014491193856844
324,2707.4700000000003,1.0220943182847584
325,2713.7099999999996,0.9967963790910437
326,2726.24,0.9973637971844335
327,2732.52,1.0255885551753743
328,2745.14,0.9488812669342394
329,2757.81,0.951603775173924
330,2764.17,0.965105327534176
331,2776.92,0.992725430143172
332,2783.33,0.9816137789842437
333,2796.17,0.8713600752587151
334,2802.62,0.9147947212844424
335,2815.55,0.9852810112243889
336,2822.04,0.9832867544347721
337,2835.07,0.9439144373363577
338,2848.1600000000003,0.933662516014927
339,2854.7200000000003,0.9339112542984574
340,2867.9,0.9584325266425019
341,2874.51,0.943382661406852
342,2884.0315,0.9453352979147378
343,2887.7799999999997,0.9461042858499261
344,2894.4399999999996,0.9355286762567528
345,2907.7999999999997,0.9600972570127897
346,2927.9500000000003,0.9390727279883992
347,2948.25,0.9248740987479462
348,2968.6800000000003,0.9235802693202392
349,2989.26,0.9159289396764696
350,3009.98,0.9146690098310418
351,3030.85,0.9091788797695515
352,3051.86,0.8995750495064029
353,3073.0099999999998,0.890104519041596
354,3087.19,0.8825008986164914
355,3108.59,0.8711937677915804
356,3130.1400000000003,0.8620421367506069
357,3151.84,0.856916505493571
358,3166.39,0.8456871845355124
359,3188.34,0.8234033529183724
360,3210.44,0.8279975210851699
361,3232.6899999999996,0.815555389035905
362,3247.61,0.8142135675448922
363,3270.1200000000003,0.8131131351211189
364,3292.79,0.8046153024668791
365,3307.9900000000002,0.7995671805725498
366,3311.31121,0.8029196621473668
367,3323.26,0.8149806467761483
368,3330.92,0.8040830358564178
369,3338.6,0.7896468243859831
370,3346.29,0.789933412640196
371,3354.01,0.7721982000683528
372,3361.74,0.7831764872211573
373,3369.49,0.7621107738232575
374,3377.26,0.7553567598746537
375,3385.0400000000004,0.7821604456506975
376,3392.85,0.7842317306006851
377,3400.67,0.8009083152753205
378,3408.5,0.7633708996746037
379,3416.36,0.7742721832478306
380,3424.2400000000002,0.7835015662703532
381,3432.13,0.7873668490175236
382,3440.04,0.7786240312139899
383,3447.9700000000003,0.7576756128597519
384,3455.92,0.7458011939548096
385,3463.89,0.7358339744991631
386,3471.8700000000003,0.7411630547681645
387,3479.88,0.7380284342111094
388,3487.9,0.7416900133787022
389,3495.94,0.7488085919955907
390,3504.0,0.733676070061775
391,3512.0800000000004,0.7305861475772552
392,3520.17,0.7358746248173831
393,3528.29,0.7361561012314546
394,3536.42,0.744941977370174
395,3544.57,0.7434789529581891
396,3552.75,0.7488849277201479
397,3560.93,0.7474260024821067
398,3569.14,0.7256232764180091
399,3577.3700000000003,0.6996355498032072
400,3585.62,0.691864422637701
401,3593.8799999999997,0.6953260951968427
402,3602.17,0.7117539669299281
403,3610.4700000000003,0.7087450383876612
404,3618.79,0.7139109092946903
405,3627.14,0.7409536793756628
406,3635.5,0.7260282491812833
407,3643.88,0.7313161184361995
408,3652.2799999999997,0.7182168871404114
409,3660.7000000000003,0.7301339552939191
410,3669.1400000000003,0.7220410228967225
411,3677.59,0.7157008902241738
412,3678.15,0.6859660748044546
413,3680.89,0.6640854993579713
414,3683.63,0.674619523911488
415,3686.37,0.6995507484650048
416,3689.1099999999997,0.6830794730185216
417,3691.85,0.6833643975720384
418,3694.5899999999997,0.704269422125555
419,3697.33,0.7053678466790718
420,3700.08,0.6870624709572364
421,3702.82,0.6637991955107533
422,3705.56,0.68185722006427
423,3708.2999999999997,0.6972310446177866
424,3711.04,0.6977599691713035
425,3713.7799999999997,0.7680798937248202
426,3716.52,0.9803405182783369
427,3719.2599999999998,1.5702700428318537
428,3721.9999999999995,2.79226296738537
429,3724.7400000000002,4.084699891938888
430,3727.48,4.312457816492404
431,3730.23,3.2619977407705685
432,3732.97,1.9452476653240853
433,3735.71,1.121343589877602
434,3738.45,0.8453121144311188
435,3741.1899999999996,0.7891056389846355
436,3743.93,0.7638493635381524
437,3746.6699999999996,0.7204133880916691
438,3749.4100000000003,0.7158179126451858
439,3752.15,0.7293208371987026
440,3754.8900000000003,0.7821524617522193
441,3757.63,0.827053286305736
442,3760.3799999999997,0.8334345105839007
443,3763.12,0.8164344351374174
444,3765.8599999999997,0.7557134596909342
445,3768.6,0.704346784244451
446,3771.34,0.7401372087979676
447,3774.0800000000004,0.8039498333514844
448,3776.82,0.8399437579050012
449,3779.56,0.890538482458518
450,3782.3,0.8930604070120346
451,3785.04,0.8770772315655514
452,3787.78,0.8726037561190682
453,3790.5299999999997,0.8303020803972327
454,3793.2700000000004,0.7798302049507495
455,3796.01,0.7520524295042663
456,3798.75,0.725006754057783
457,3801.4900000000002,0.7767400786112998
458,3801.8939600000003,0.7876470464604415
459,3804.23,0.8507204165673543
460,3806.9700000000003,0.8843147568410443
461,3809.71,0.9129880971147343
462,3812.45,0.9319816373884241
463,3815.19,0.9369031776621142
464,3817.94,0.8972042177178248
465,3820.6800000000003,0.8660102579915148
466,3823.42,0.8621468982652049
467,3826.1600000000003,0.8460010385388947
468,3828.9,0.7760071788125847
469,3831.64,0.7403800190862747
470,3834.38,0.7369639593599646
471,3837.12,0.7559979996336547
472,3839.86,0.7941474399073446
473,3842.6,0.8222106801810345
474,3845.3399999999997,0.8764251204547245
475,3848.09,0.8902895605104353
476,3850.83,0.9297404007841252
477,3853.57,0.9435686410578152
478,3856.31,0.9653687813315052
479,3859.05,0.9687854216051952
480,3861.79,1.0188924618788853
481,3864.5299999999997,1.108368402152575
482,3867.27,1.154895342426265
483,3870.0099999999998,1.086854282699955
484,3872.75,0.9884314229736451
485,3875.49,0.9237245632473349
486,3878.2400000000002,0.8948034033030456
487,3880.98,0.8640162435767356
488,3883.72,0.8548249838504256
489,3886.46,0.9085919241241156
490,3889.2,0.8826037643978055
491,3891.94,0.8287155046714956
492,3894.68,0.8550297449451855
493,3897.4199999999996,0.8598698852188754
494,3900.16,0.8765046254925654
495,3902.9,0.8965962657662554
496,3905.6400000000003,0.9133124060399452
497,3908.39,0.9257938460956561
498,3911.13,0.940923786369346
499,3913.87,0.957233026643036
500,3916.6099999999997,0.9105028669167259
501,3919.35,0.9015555071904159
502,3922.0899999999997,0.9087140474641059
503,3924.8300000000004,0.8756897877377958
504,3927.57,0.8424215280114858
505,3930.3100000000004,0.8375413682851758
506,3933.05,0.8563316085588658
507,3935.79,0.8723155488325558
508,3938.54,0.8987066888882664
509,3941.2799999999997,0.9072885291619565
510,3944.0199999999995,0.9062720694356463
511,3946.76,0.8954947097093363
512,3949.5000000000005,0.8979760499830263
513,3952.2400000000002,0.9138379902567163
514,3954.98,0.8831726305304063
515,3957.7200000000003,0.8470167708040962
516,3960.46,0.8103321110777861
517,3963.2000000000003,0.8231030513514761
518,3965.94,0.8395749916251661
519,3968.69,0.8810550316808768
520,3971.4300000000003,0.7965012719545668
521,3974.17,0.7928818122282568
522,3976.9100000000003,0.7802742525019467
523,3979.65,0.8332684927756366
524,3982.39,0.8665781330493266
525,3985.13,0.8780475733230166
526,3987.87,0.9036704135967065
527,3990.61,0.8928116538703965
528,3993.35,0.9375498941440865
529,3996.1000000000004,0.9362440341997972
530,3998.84,0.9238398744734873
531,4001.58,0.9155435147471772
532,4004.32,0.9030172550208672
533,4007.06,0.914730795294557
534,4009.8,0.922621235568247
535,4012.54,0.9136741758419371
536,4015.2799999999997,0.932627016115627
537,4018.02,0.905052556389317
538,4020.7599999999998,0.9170101966630069
539,4023.5,0.9139196369366969
540,4026.25,0.9377890769924077
541,4028.9900000000002,0.9037074172660976
542,4031.73,0.9006574575397875
543,4034.47,0.9190408978134775
544,4037.21,0.9022850380871675
545,4039.95,0.9218478783608575
546,4042.69,0.9203842186345474
547,4045.43,0.9237601589082375
548,4048.1699999999996,0.9132268991819275
549,4050.91,0.9091601394556172
550,4053.6499999999996,0.9039140797293073
551,4056.4,0.9356330197850181
552,4059.14,0.902202060058708
553,4061.88,0.936894500332398
554,4064.62,0.9364473406060879
555,4067.3599999999997,0.9508450808797779
556,4070.1,0.9144859211534678
557,4072.8399999999997,0.8877656614271578
558,4075.58,0.9148933017008478
559,4078.3199999999997,0.9049700419745378
560,4081.0600000000004,0.8918337822482277
561,4083.8,0.8929322225219176
562,4086.5499999999997,0.8559586625776284
563,4089.29,0.8504278028513184
564,4092.0299999999997,0.8191930431250083
565,4094.77,0.8384712833986984
566,4097.51,0.9104994236723883
567,4100.25,0.9757760639460783
568,4102.990000000001,0.9538548042197682
569,4105.7300000000005,0.8513651444934582
570,4108.47,0.7913759847671482
571,4111.21,0.8281021250408381
572,4113.95,0.824645365314528
573,4116.7,0.8536398053702389
574,4119.44,0.8662480456439289
575,4122.179999999999,0.8485159859176187
576,4124.92,0.8418464261913087
