,lambda (Angstroms),Total Flux (erg/s/cm^2/Angstrom)
0,100.03,41.62438874694611
1,101.89,41.50860040384278
2,104.02,41.37600407545029
3,104.712855,41.33287260638546
4,105.96,40.925056704711686
5,107.92,40.284137511450304
6,109.92999999999999,39.62686833877056
7,114.05999999999999,38.27636003868848
8,118.07,36.96509168921973
9,120.22644299999999,36.25993571588582
10,121.09,36.02318739725101
11,125.06,34.93479274001747
12,127.09,34.37825844426293
13,127.97,34.137002197841895
14,130.95000000000002,33.32002081790262
15,131.85999999999999,33.0705399267922
16,134.01,32.481107052037366
17,137.13,31.625743996771703
18,138.038426,31.376694625347653
19,140.0,30.992301863597916
20,142.93,30.418135002301188
21,146.93,29.63428946279596
22,151.05,28.82692855262952
23,154.93,28.06659837708074
24,158.489319,27.36910929645701
25,158.9,27.30826674213443
26,161.85000000000002,26.871223064322283
27,166.01000000000002,26.254917405941487
28,169.86999999999998,25.683056870416312
29,173.03,25.21490161538957
30,177.06,24.617855518823387
31,179.94,24.19118238182471
32,181.970086,23.890424340092647
33,182.01999999999998,23.884782829948847
34,185.82999999999998,23.45415909171715
35,191.04,22.86530091421549
36,194.14000000000001,22.514924656280115
37,198.20999999999998,22.054914541114233
38,201.89,21.63898403821363
39,205.17000000000002,21.268263370140094
40,208.929613,20.84333463858166
41,209.95,20.75662877939447
42,215.83,20.256984655596824
43,219.85000000000002,19.915391229559305
44,222.91,19.655372349856485
45,227.04999999999998,19.30358213955937
46,230.21,19.035066572969164
47,233.95,18.717267056332183
48,239.88329199999998,18.21309586028321
49,239.95,18.208727747715795
50,246.11,17.805363119967257
51,251.84,17.430156259334595
52,257.11,17.085069180299232
53,260.09000000000003,16.889936269908578
54,263.71,16.652894948335025
55,269.23,16.291438909568384
56,274.23,15.964033208359922
57,275.42287,15.885922764281396
58,278.69,15.721737166003123
59,283.87,15.461422633565185
60,289.82,15.162412139604175
61,295.88,14.85787459158558
62,300.69,14.61615385215678
63,307.7,14.263875566806345
64,316.227766,13.835324197512819
65,317.78000000000003,13.777061935265031
66,328.19,13.386327985646219
67,338.15999999999997,13.012109272087528
68,347.63,12.656658184112606
69,357.37,12.291072882076252
70,363.078055,12.076825203294193
71,365.7,12.003124817401364
72,375.08,11.739460609396717
73,384.7,11.469048961344045
74,394.57,11.19161403655259
75,404.69,10.907150656192355
76,414.11999999999995,10.64208149842396
77,416.86938299999997,10.564798546413282
78,421.81000000000006,10.458744065577527
79,429.65999999999997,10.29023781986033
80,440.68,10.053686491227742
81,450.94,9.83344775334878
82,460.39,9.630595333737633
83,470.03000000000003,9.423666186080577
84,478.630092,9.239060164328022
85,479.87,9.218590701860784
86,489.92,9.052673384182642
87,500.17,8.883458784353444
88,505.97,8.787710192742775
89,511.83,8.691018395065791
90,520.14,8.553834520480851
91,529.8100000000001,8.39419920399272
92,539.66,8.231581410905637
93,549.5408739999999,8.068504222186679
94,549.6899999999999,8.066626862636873
95,559.91,7.937958525004737
96,570.32,7.806893820929047
97,579.5899999999999,7.690145760314675
98,590.37,7.554452631106801
99,599.96,7.433697719934865
100,609.7099999999999,7.310972038084149
101,619.61,7.186385644509573
102,629.68,7.059626456901296
103,630.957344,7.043542938964354
104,639.9100000000001,6.954185555316119
105,650.3100000000001,6.850465382805955
106,657.8399999999999,6.775357392243308
107,665.4599999999999,6.699348495390667
108,674.72,6.606936682453729
109,685.6800000000001,6.49752813423917
110,695.22,6.4025992459000385
111,704.89,6.306027005442029
112,716.34,6.192015155048624
113,724.43596,6.111274634467118
114,726.3100000000001,6.0974067573212505
115,734.7199999999999,6.035189414486305
116,744.94,5.959736980916369
117,755.3,5.883161647256435
118,765.81,5.805459580071503
119,774.68,5.74002805422656
120,785.46,5.660435624296627
121,794.55,5.593275652881687
122,805.6,5.511611898206758
123,814.93,5.442676429351818
124,824.37,5.373182424711877
125,831.763771,5.317951213869285
126,835.84,5.2951304945795465
127,845.52,5.242600107841475
128,855.31,5.188619295788198
129,865.21,5.134273109419715
130,875.23,5.079285073071008
131,885.36,5.023827497407095
132,895.62,4.96750861409794
133,905.99,4.910194690473579
134,914.37,4.868115605187935
135,924.9599999999999,4.882487205933165
136,935.67,4.93055855869817
137,944.33,5.067518312792001
138,954.992586,5.1734844563877544
139,955.26,5.176174049461027
140,964.0999999999999,5.20915576855294
141,975.26,4.619928332610151
142,984.2900000000001,5.01883123930698
143,995.6800000000001,5.0015710946754055
144,1004.9,5.246672748977152
145,1014.1999999999999,5.176115210691496
146,1025.94,4.61876469849003
147,1035.43,4.811113277809289
148,1045.01,5.3633699654677205
149,1054.68,5.305341461465321
150,1064.44,5.004970765802094
151,1074.29,5.157847078478037
152,1084.23,4.864892499493152
153,1094.26,5.145123528847437
154,1096.4782,5.124905793914263
155,1104.3899999999999,5.060566024550759
156,1114.6100000000001,4.981675188966322
157,1124.9199999999998,4.825552973225077
158,1135.33,5.102415001754039
159,1145.8300000000002,4.937678650126193
160,1153.78,5.004377069607967
161,1164.45,5.0193803332394795
162,1175.23,4.527403465568224
163,1186.1,4.9099562177401594
164,1194.32,4.421951696751503
165,1205.3700000000001,4.093120588609816
166,1213.73,3.8210916095994545
167,1224.96,4.302080741144149
168,1236.29,4.8119422169590536
169,1244.86,4.9571373509161365
170,1256.38,4.842664690844441
171,1258.92541,4.763796396981603
172,1265.0900000000001,4.580643849745534
173,1273.86,5.016356299149503
174,1285.65,5.097443097150963
175,1294.56,4.646408662052829
176,1303.53,4.610602419310936
177,1315.5900000000001,5.01213408291548
178,1324.71,4.913915321064192
179,1333.89,4.6656407515691445
180,1346.24,4.992158011562191
181,1355.5700000000002,4.914196922957748
182,1364.97,4.671521392102252
183,1374.43,4.761110053602999
184,1383.9499999999998,4.767932907459988
185,1393.55,4.48908568445863
186,1406.4399999999998,4.536061675657852
187,1416.19,4.561706933547097
188,1426.01,4.602420749185293
189,1435.8899999999999,4.571189757179731
190,1442.52,4.6778200125444185
191,1445.43977,4.707289238678675
192,1445.85,4.71182159243481
193,1455.87,4.6406561003754945
194,1465.96,4.463991039010375
195,1476.12,4.450546408339454
196,1486.35,4.483090208362728
197,1496.6499999999999,4.512124439080198
198,1503.56,4.398968240464443
199,1510.5,4.169083797860486
200,1517.48,4.288152029938927
201,1524.48,4.225348099358568
202,1535.05,3.967502134182224
203,1545.69,4.128212599700077
204,1556.4,4.011932495912126
205,1563.59,4.039748020073157
206,1574.42,4.1494109403324
207,1585.3400000000001,4.232053128627038
208,1596.33,4.268157747615874
209,1603.7,4.219248807847695
210,1614.8100000000002,4.217994450883724
211,1626.0,4.088193443284549
212,1633.51,4.214599364904762
213,1644.83,4.238077300023381
214,1656.23,4.057362584506794
215,1659.58691,4.137672063217828
216,1663.88,4.243218637475674
217,1671.56,3.999969195830613
218,1675.4099999999999,4.255693009589274
219,1683.1499999999999,4.347273775431361
220,1694.81,4.200479097100448
221,1706.56,4.103543230000257
222,1714.44,3.9971444799790232
223,1726.3200000000002,3.9787815624343192
224,1734.29,4.114401623643808
225,1746.3100000000002,4.056724190235782
226,1754.3700000000001,4.200407062675993
227,1766.53,3.9965371134046457
228,1774.6899999999998,4.051893331656769
229,1786.99,4.0831218665221005
230,1795.2399999999998,4.2329438960049455
231,1803.5200000000002,4.209417529231364
232,1816.0200000000002,4.022975755720523
233,1824.4099999999999,4.066083269340047
234,1837.0500000000002,3.9654519799658834
235,1845.53,3.785230304816129
236,1854.05,3.7951217679911395
237,1866.8999999999999,3.846001704821995
238,1875.52,4.013033513808918
239,1884.18,3.8337154611206072
240,1892.8700000000001,3.744269012175871
241,1905.46072,3.849525675702671
242,1905.99,3.8541690864258253
243,1914.7900000000002,3.7757817648455827
244,1923.63,3.7372351099854293
245,1936.97,3.7846274611353796
246,1945.9099999999999,3.884523473075451
247,1954.8899999999999,3.744792151735613
248,1968.4399999999998,3.9373765031660337
249,1977.5200000000002,3.9972588486264193
250,1982.08,3.869361854716657
251,1995.8200000000002,3.802572873067505
252,2005.03,3.8642518853681826
253,2014.29,3.786722231068973
254,2023.5900000000001,3.8856212434898527
255,2032.93,3.765584922630822
256,2047.02,3.8430392747824555
257,2056.47,3.7287352874036723
258,2065.96,3.743389966744978
259,2075.5,3.902604979486397
260,2080.2799999999997,3.7842376525371284
261,2085.07,3.8644179922678825
262,2094.7,3.736630005129504
263,2104.3700000000003,3.751653684711213
264,2114.08,3.7670430310130136
265,2123.8399999999997,3.804260710714926
266,2133.64,3.6362240571369284
267,2143.4900000000002,3.686406736959043
268,2153.38,3.7653120835012475
269,2163.32,3.6901327634435637
270,2173.31,3.668248776785993
271,2183.34,3.625816456848511
272,2187.7616199999998,3.6694918038789286
273,2193.42,3.727457706999151
274,2203.54,3.6661731548684973
275,2213.71,3.5600712650296873
276,2223.9300000000003,3.4922330374827224
277,2234.2000000000003,3.631708472227602
278,2244.51,3.5305722368059578
279,2254.87,3.447588663676158
280,2265.28,3.4935507528382024
281,2275.74,3.545900504292092
282,2286.24,3.594542585579457
283,2296.79,3.468016329158666
284,2307.39,3.469279735029721
285,2312.71,3.381354602881985
286,2323.39,2.9608896684199912
287,2334.11,3.2422220637914725
288,2344.89,3.179747453913167
289,2355.71,3.3225761738683373
290,2366.58,3.1666615561153524
291,2377.5099999999998,3.216355933112581
292,2382.9900000000002,3.0796151202987483
293,2393.99,3.1937448245045594
294,2405.04,3.1136281910022148
295,2416.14,3.148910219791715
296,2427.29,3.25030791087306
297,2432.89,3.1715510875596546
298,2444.12,3.2700304383079506
299,2455.4,3.236958451348091
300,2466.73,3.218307126680076
301,2472.42,3.1486622954919907
302,2483.83,3.1997156304909278
303,2495.29,3.058377627781709
304,2506.81,3.2677006198227034
305,2511.88643,3.087137942685442
306,2512.59,3.0622502986237663
307,2518.38,3.1127484895499133
308,2524.19,3.033041254537981
309,2535.8399999999997,3.0480226456069985
310,2547.54,3.0144034718308177
311,2553.42,3.1280922460356093
312,2565.2000000000003,3.0887363685071136
313,2577.04,3.1845672131643807
314,2582.9800000000005,3.166527709554935
315,2594.9100000000003,3.140157137490847
316,2606.8799999999997,3.0768557135506014
317,2612.89,3.0503532191578797
318,2624.95,3.126520378496278
319,2637.07,3.1621952600204404
320,2643.15,3.3086227748444426
321,2655.3500000000004,3.332325952616288
322,2667.61,3.152953852573898
323,2673.76,3.2385583766146233
324,2686.1000000000004,3.2258395728199174
325,2692.29,3.137874244984485
326,2704.72,3.179235024468424
327,2717.2000000000003,3.0888582391071644
328,2723.4599999999996,3.0897869204884563
329,2736.04,3.1748310054368027
330,2742.3399999999997,2.9349618349419364
331,2755.0,2.9586062161379667
332,2767.7200000000003,3.0152423195197606
333,2774.1,3.0972004452725788
334,2786.9,3.0035128449020565
335,2793.33,2.6582894058096773
336,2806.22,2.7627733887178
337,2812.69,3.073391097749263
338,2825.67,3.1396666639360307
339,2832.19,3.0565778081222956
340,2845.26,3.0147229575877077
341,2851.8199999999997,2.9634812498978156
342,2864.9799999999996,3.0953109826418728
343,2878.21,3.0723137246026533
344,2884.0315,3.0774023140202167
345,2884.84,3.0782447118726406
346,2898.1600000000003,3.0523464534371647
347,2911.5299999999997,3.1888450213589135
348,2931.71,3.1124889391345962
349,2952.0400000000004,3.0829693359819514
350,2972.5,3.10423228135809
351,2993.1000000000004,3.100236740534456
352,3006.92,3.114386745671222
353,3027.7599999999998,3.105006371362265
354,3048.75,3.095557476124979
355,3069.8799999999997,3.091338094687922
356,3091.16,3.0972121923225373
357,3112.59,3.0772217690288244
358,3126.9599999999996,3.0501128640950568
359,3148.63,3.0556456073160208
360,3170.46,3.0458617948801017
361,3192.43,2.949843496244411
362,3207.1699999999996,2.9986053063541016
363,3229.4,2.9233821047759765
364,3251.78,2.998796382269524
365,3266.79,3.0386582547082255
366,3289.44,3.017981594530783
367,3311.31121,3.0082189951811205
368,3312.2400000000002,3.007913719071925
369,3319.88,3.031530308046669
370,3327.53,3.0395090391535793
371,3335.2,3.1012250545248214
372,3342.89,2.966523354160395
373,3350.59,3.0690747959281346
374,3358.32,2.9820466640923717
375,3366.06,2.943482674388775
376,3373.82,2.8609399689495096
377,3381.6000000000004,2.943530547774577
378,3389.39,3.0347302687318094
379,3397.21,2.9795284160855395
380,3405.0399999999995,2.9665357055714363
381,3412.89,2.9228672793216637
382,3420.75,2.997627995204058
383,3428.64,2.9898931374829494
384,3436.54,2.997606421894007
385,3444.4700000000003,2.852274132701562
386,3452.4100000000003,3.056384985641283
387,3460.36,2.9120469807131704
388,3468.3399999999997,2.919723402181555
389,3476.34,2.8916391079142714
390,3484.35,2.9092849557791536
391,3492.38,2.921854087908368
392,3500.43,2.8534955043019137
393,3508.5,2.8910552049597915
394,3516.59,2.833236189882001
395,3524.7000000000003,2.9059614590685423
396,3532.8199999999997,2.9444938703872494
397,3540.97,2.9732327081024543
398,3549.1299999999997,3.013108687949825
399,3557.3100000000004,2.9572269520615277
400,3563.81,3.1574463379693594
401,3566.47,3.2125841451254877
402,3569.1299999999997,3.0435609522816165
403,3571.8,3.2204379015699103
404,3574.46,3.2009207087260387
405,3577.12,3.066488515882167
406,3579.79,2.800905465170461
407,3582.45,2.746406272326589
408,3585.11,3.019843079482717
409,3587.7799999999997,2.7554320287710112
410,3590.4399999999996,2.87564983592714
411,3593.1000000000004,3.0763856430832677
412,3595.77,3.080304592371562
413,3598.4300000000003,2.8254853995276905
414,3601.1,3.021710348815984
415,3603.7599999999998,3.258993155972113
416,3606.42,2.7037929631282407
417,3609.0899999999997,2.890637912416535
418,3611.7500000000005,3.002451719572663
419,3614.4100000000003,2.757794526728791
420,3617.08,2.9637924760170855
421,3619.7400000000002,3.0470722831732138
422,3622.4,2.831340090329342
423,3625.07,2.802231039617636
424,3627.73,2.9445328467737646
425,3630.39,3.0147196539298924
426,3633.0600000000004,2.9580536032181866
427,3635.7200000000003,2.9358004103743145
428,3638.38,2.936217217530443
429,3641.05,2.743726166818737
430,3643.71,2.954624973974865
431,3646.37,2.8831217811309937
432,3649.04,2.9202647304192877
433,3651.7,3.018593537575416
434,3654.37,2.9697454868637103
435,3657.03,2.795445294019838
436,3659.69,3.1044511011759663
437,3662.36,2.8687690504642602
438,3665.02,2.9432558576203887
439,3667.68,2.900676664776517
440,3670.35,3.139310614064811
441,3673.0099999999998,2.9308104212209396
442,3675.6699999999996,3.0394972283770674
443,3678.34,2.929478177665362
444,3681.0,3.01236798482149
445,3683.6600000000003,2.862691791977618
446,3686.33,2.8378827412659122
447,3688.99,2.9897605484220406
448,3691.65,2.8441883555781686
449,3694.3199999999997,3.0093403048664626
450,3696.9800000000005,2.920053112022591
451,3699.65,2.804172061310885
452,3702.31,3.0324638684670138
453,3704.9700000000003,2.8954906756231416
454,3707.64,2.9938046249114354
455,3710.3,2.776313432067564
456,3712.96,3.0558092392236924
457,3715.6299999999997,3.0552331885119863
458,3718.2900000000004,3.479348995668114
459,3720.9500000000003,4.498170802824243
460,3723.6200000000003,6.269188752112537
461,3726.28,8.165901559268665
462,3728.94,8.510291366424793
463,3731.61,6.911640315713088
464,3734.27,5.157074122869216
465,3736.93,3.8242459300253433
466,3739.6000000000004,3.526022879313638
467,3742.26,3.396672686469766
468,3744.92,3.537802493625894
469,3747.59,3.258146442914188
470,3750.25,3.1799992500703165
471,3752.92,3.1614431993586107
472,3755.58,3.468300006514739
473,3758.24,3.4534738136708674
474,3760.9100000000003,3.5107437629591614
475,3763.57,3.485951570115289
476,3766.23,3.3464383772714177
477,3768.9,3.426380326559712
478,3771.56,3.2409401337158403
479,3774.22,3.2474159408719685
480,3776.89,3.405335890160263
481,3779.5499999999997,3.6418366973163905
482,3782.2099999999996,4.007129504472519
483,3784.88,4.0098724537608135
484,3787.54,3.846518260916941
485,3790.2000000000003,3.6728050680730693
486,3792.87,3.5215480173613636
487,3795.5299999999997,3.3065978245174916
488,3798.2,3.064662773805786
489,3800.8599999999997,3.154196580961914
490,3801.8939600000003,3.273397711851862
491,3803.5200000000004,3.46099216517606
492,3806.19,3.633399421901384
493,3808.85,3.7370307076277363
494,3811.51,4.005999993354089
495,3814.18,4.065835250079412
496,3816.84,4.0311005358057646
497,3819.5,3.8112908215321175
498,3822.1699999999996,3.836731078257441
499,3824.8300000000004,3.8780193639837934
500,3827.4900000000002,3.5976256497101455
501,3830.1600000000003,3.2935659064354694
502,3832.82,3.143134192161822
503,3835.48,2.9327034778881744
504,3838.15,2.938602734613498
505,3840.81,3.1921310203398505
506,3843.47,3.511325306066203
507,3846.1400000000003,3.6925265627915267
508,3848.8,4.013284848517879
509,3851.4700000000003,3.976185105243203
510,3854.13,3.9060783909695553
511,3856.79,4.017722676695907
512,3859.46,3.9986039334212315
513,3862.12,4.162820219147584
514,3864.7799999999997,4.209777504873936
515,3867.4500000000003,4.36166176159926
516,3870.11,4.530569047325613
517,3872.77,4.182164333051965
518,3875.44,4.069627589777289
519,3878.1,4.059517875503641
520,3880.7599999999998,3.9253081612299936
521,3883.43,3.6433324179553175
522,3886.0899999999997,3.5657967036816696
523,3888.7500000000005,3.527348989408022
524,3891.42,3.569597246133346
525,3894.08,3.742411531859698
526,3896.7400000000002,3.8003128175860508
527,3899.41,3.9619690743113742
528,3902.07,4.123254360037727
529,3904.74,4.2735756167630505
530,3907.3999999999996,4.2914129024894025
531,3910.0600000000004,4.5042931882157555
532,3912.73,4.491230444941079
533,3915.3900000000003,4.525289730667431
534,3918.05,4.570684016393784
535,3920.72,4.579118273119108
536,3923.38,4.50998955884546
537,3926.04,4.457861844571813
538,3928.71,4.030286101297136
539,3931.3700000000003,3.7172553870234886
540,3934.03,3.635225672749841
541,3936.7000000000003,3.8207259294751648
542,3939.36,4.150669215201517
543,3942.02,4.229091500927869
544,3944.69,4.224042757653193
545,3947.35,4.268263043379545
546,3950.02,4.224910300104869
547,3952.6800000000003,4.299423585831222
548,3955.34,4.202345871557575
549,3958.01,4.023753128282898
550,3960.67,3.68375241400925
551,3963.33,3.5462186997356033
552,3966.0,3.3809179564609266
553,3968.66,3.155439242187279
554,3971.3199999999997,3.179723527913631
555,3973.9900000000002,3.275716784638955
556,3976.65,3.4375870703653075
557,3979.31,3.50838635609166
558,3981.98,3.8473016128169837
559,3984.64,4.095163898543336
560,3987.2999999999997,4.152869184269688
561,3989.97,4.268793440995012
562,3992.6299999999997,4.344870726721365
563,3995.2900000000004,4.3134590124477175
564,3997.96,4.251734269173041
565,4000.62,4.157392554899394
566,4003.29,4.213905811624717
567,4005.95,4.22392609735107
568,4008.61,4.387165383077422
569,4011.2799999999997,4.3879796398027455
570,4013.9399999999996,4.3200229255290985
571,4016.6000000000004,4.2856792112554505
572,4019.27,4.352940467980774
573,4021.9300000000003,4.419245753707126
574,4024.59,4.345620039433479
575,4027.2599999999998,4.377899296158803
576,4029.92,4.390851581885155
577,4032.58,4.5333758676115075
578,4035.25,4.636400124336831
579,4037.9100000000003,4.657170410063184
580,4040.57,4.501462695789536
581,4043.2400000000002,4.41198695251486
582,4045.9,4.405005238241213
583,4048.56,4.473654523967564
584,4051.23,4.498311780692888
585,4053.89,4.563445066419241
586,4056.56,4.570902323144565
587,4059.2200000000003,4.487506608870917
588,4061.88,4.46703989459727
589,4064.55,4.586676151322593
590,4067.21,4.468297437048945
591,4069.87,4.504896722775298
592,4072.54,4.489488979500622
593,4075.2,4.555208265226974
594,4077.8599999999997,4.438978550953326
595,4080.53,4.34872080767865
596,4083.19,4.373789093405003
597,4085.85,4.273585379131355
598,4088.52,4.306254635856679
