,lambda (Angstroms),Total Flux (erg/s/cm^2/Angstrom)
0,100.09,0.0011600196557798492
1,101.96000000000001,0.00139499809537871
2,104.09,0.001662638153987572
3,104.712855,0.001740908189115357
4,106.03,0.0016028811167852792
5,108.0,0.0013964629733958164
6,110.0,0.0011869849599923004
7,113.86999999999999,0.0007815891023794979
8,117.87,0.00036263343347246437
9,120.22644299999999,0.00011817796479886427
10,120.9,0.00011564193476213194
11,125.14000000000001,9.644965516136323e-05
12,126.88,8.865997404689692e-05
13,128.06,8.339782778536222e-05
14,131.04,6.997034085368994e-05
15,131.95,6.714246759267591e-05
16,134.09,5.758836944040109e-05
17,136.9,4.7161616249797304e-05
18,138.038426,4.225545613957352e-05
19,140.09,4.301348938875908e-05
20,143.02,7.235136725667964e-05
21,147.03,0.00014716203628410674
22,151.15,0.00015962906181852063
23,155.03,0.00017494020042859974
24,158.489319,0.00019028042523765672
25,159.0,0.00019249808974683918
26,161.95999999999998,0.00020497700271498618
27,166.11999999999998,0.0002264585695891387
28,169.98,0.0002456678979867899
29,173.14,0.00026196156993927113
30,177.18,0.0002823393214228231
31,180.06,0.0002990602907972364
32,181.970086,0.00031008767040372257
33,182.14000000000001,0.00031112773806728396
34,185.96,0.0003359986895828497
35,191.17,0.0003686686731943936
36,193.82,0.0003921905264708987
37,197.88,0.0004191762058303744
38,202.03,0.0004500476081313164
39,204.83999999999997,0.00047369211330376134
40,208.929613,0.00048646110931387744
41,210.09,0.0004905827598863346
42,215.98,0.0005630999522854254
43,219.99,0.0006010817440545858
44,223.04999999999998,0.0006215262918884089
45,227.20000000000002,0.0006645814943427769
46,229.83,0.0010096416665006053
47,234.1,0.0017258070923994368
48,239.88329199999998,0.0021457253962735615
49,240.11,0.0021619737395948443
50,246.26999999999998,0.0020870776802144235
51,252.01000000000002,0.0022518655794281227
52,257.28000000000003,0.00193223262278286
53,260.26,0.0022332339641864883
54,263.88,0.0023623091305895526
55,268.79,0.0023871297098821066
56,273.78,0.0024016603922995907
57,275.42287,0.002408025726432062
58,278.87,0.0024244016700570967
59,284.06,0.0024490234726888827
60,290.01,0.0023585110768621254
61,296.08,0.002426602965489282
62,300.89,0.0024233058673503406
63,307.90000000000003,0.0024765739841998246
64,316.227766,0.0025414648759807747
65,317.99,0.0025538153051016203
66,327.65000000000003,0.002568149474466045
67,338.38,0.0025587141004784963
68,347.85999999999996,0.002544055912649795
69,356.79,0.002529359966730987
70,363.078055,0.00253134201480087
71,365.94,0.002533932537682121
72,375.33,0.0025133088318800728
73,384.95,0.002420445605062639
74,394.83,0.002473045615358248
75,404.96,0.0024643942767240898
76,414.39,0.0024334649150932796
77,416.86938299999997,0.0024200647364263444
78,422.09000000000003,0.002391309122906959
79,429.94,0.0023602541256321353
80,440.96999999999997,0.0023353445358306954
81,451.23999999999995,0.0022847660247463084
82,459.63,0.0022451578136462105
83,470.34,0.0022066155727782665
84,478.630092,0.002187083208653248
85,480.19,0.002182848516310354
86,490.24,0.002113115970076632
87,500.51,0.0020967796676069485
88,506.3,0.002053483764851401
89,512.16,0.0021086566214753204
90,520.49,0.0020738199876318476
91,530.16,0.0020164597476238786
92,540.02,0.001938451854503033
93,549.5408739999999,0.0019036612989466115
94,550.06,0.0019018355787551
95,560.2900000000001,0.0019054182067346655
96,569.39,0.0019047996568435652
97,579.97,0.001844742109827319
98,589.4,0.0018315777092258825
99,600.36,0.0017537740007856125
100,610.11,0.0015657324116165766
101,620.03,0.0017445375660210037
102,630.0999999999999,0.0017010377882843688
103,630.957344,0.001699694752699057
104,640.3399999999999,0.001686455449098584
105,650.7400000000001,0.0016571796792218111
106,658.28,0.0016170776460611507
107,664.37,0.0016322951962006176
108,675.1600000000001,0.0016113412349534656
109,684.5600000000001,0.0015375992121802286
110,695.6800000000001,0.0015808047043889102
111,705.36,0.0014950726724266832
112,716.8199999999999,0.0015474005106201625
113,724.43596,0.0015322876435648835
114,726.79,0.0015275258002465416
115,735.21,0.001514241385679985
116,745.43,0.0015012473789258035
117,755.8,0.00148833298948932
118,764.56,0.0013795688408428787
119,775.19,0.0014727476547570716
120,784.17,0.0014438076781765874
121,795.0799999999999,0.0014508307110838161
122,804.28,0.0014480529065692888
123,815.4699999999999,0.001435686158469554
124,824.92,0.001449073049484523
125,831.763771,0.0013418121452929033
126,834.4699999999999,0.0012989609911434044
127,844.13,0.0014160255578338967
128,855.87,0.0013990018531699607
129,865.78,0.0014104717430149687
130,875.8100000000001,0.0014252563479741445
131,885.9499999999999,0.001443443775121307
132,894.15,0.0014522589745894266
133,904.5,0.0014220831531863826
134,914.9699999999999,0.0018417880468975063
135,925.57,0.007469199548648978
136,934.13,0.015251928893459601
137,944.9499999999999,0.028112841039587045
138,954.992586,0.03891453166762733
139,955.89,0.03987986354798736
140,964.74,0.04302581868826556
141,975.91,0.007465598232548906
142,984.9399999999999,0.03363586522313785
143,994.05,0.037219715813864906
144,1005.5600000000001,0.0569689944087352
145,1014.8699999999999,0.05580263149980753
146,1024.26,0.024599417191017964
147,1036.12,0.03738991966149248
148,1045.71,0.07474671185304818
149,1055.38,0.073049682644742
150,1065.15,0.05541836168660844
151,1075.0,0.067392229328613
152,1084.95,0.051129235220790194
153,1094.99,0.07105733953812275
154,1096.4782,0.07061060081170326
155,1105.12,0.0680161202166683
156,1115.35,0.06436005995610258
157,1125.67,0.0569654247665583
158,1136.08,0.07526354464803543
159,1143.96,0.0675455130885772
160,1154.54,0.07270668365976146
161,1165.22,0.07457383875430283
162,1176.01,0.049503197824537055
163,1184.1599999999999,0.07203944147814308
164,1195.1100000000001,0.046842381785748705
165,1206.17,0.03218951606904718
166,1214.53,0.02343188822170316
167,1225.77,0.048263112647044464
168,1234.27,0.07560738713240044
169,1245.69,0.08327720169978457
170,1254.32,0.0784381990655048
171,1258.92541,0.0735040453643095
172,1265.93,0.06599986413002878
173,1274.7,0.08821343829356636
174,1283.54,0.09279334272978898
175,1295.4199999999998,0.07007244900833248
176,1304.4,0.06879185398992514
177,1316.46,0.08964673096965871
178,1325.5900000000001,0.0852172665355764
179,1334.7800000000002,0.07337302233522412
180,1344.03,0.09068365836860184
181,1356.4699999999998,0.08720260682862552
182,1365.87,0.0764808534463283
183,1375.34,0.0810099203367161
184,1384.87,0.08176097746083393
185,1394.4699999999998,0.07055846485763675
186,1404.14,0.07320360252712461
187,1413.8700000000001,0.07439346043034249
188,1423.6699999999998,0.07718626860624539
189,1433.5400000000002,0.0763060170548333
190,1443.48,0.08119601577610623
191,1445.43977,0.08219858743551132
192,1446.8,0.08289444785759947
193,1453.48,0.08008557969754827
194,1463.5600000000002,0.07287094265363869
195,1473.7,0.0727023858058963
196,1483.92,0.0745690392197102
197,1494.2,0.0763069928296913
198,1504.5600000000002,0.07170389670122868
199,1511.5,0.06260008939123536
200,1518.48,0.0676935822120202
201,1525.49,0.06600146513088864
202,1536.06,0.05669984968901123
203,1546.71,0.06509913450869009
204,1553.85,0.060473897852587465
205,1564.62,0.06089661306460074
206,1575.47,0.06661577853817029
207,1586.39,0.07088614424060156
208,1593.71,0.07337366817300056
209,1604.76,0.07137648430046079
210,1615.88,0.07104980065678276
211,1623.3400000000001,0.06570256504690523
212,1634.59,0.07105026182825615
213,1645.9199999999998,0.07371216887116333
214,1653.52,0.06524569371900928
215,1659.58691,0.06991021442668782
216,1664.98,0.07405678232101756
217,1672.67,0.06202481592904291
218,1676.52,0.07880589785243662
219,1684.26,0.08347075265427227
220,1695.94,0.07560760152836019
221,1703.76,0.07270371824029234
222,1715.57,0.07088807021828707
223,1723.49,0.07088818931783984
224,1735.44,0.07754380463850342
225,1743.45,0.07508463588691473
226,1755.53,0.08271127431148512
227,1763.6399999999999,0.07187585794751707
228,1775.86,0.0768344897147563
229,1784.0600000000002,0.0771899254996468
230,1796.43,0.08680674084831697
231,1804.72,0.08405425878206602
232,1813.05,0.0786290176708633
233,1825.6200000000001,0.07880920779477471
234,1834.0400000000002,0.07406077883243055
235,1846.75,0.06692594229901082
236,1855.28,0.06943533596304935
237,1863.84,0.07354814034337405
238,1876.76,0.0779088188239576
239,1885.4299999999998,0.07287669583066499
240,1894.1299999999999,0.07237552355365856
241,1902.8700000000001,0.07423133223170038
242,1905.46072,0.07403089710861395
243,1916.06,0.07321028787745334
244,1924.9099999999999,0.0713823155036992
245,1933.79,0.06769861220664418
246,1947.19,0.07754672979892602
247,1956.1799999999998,0.07389120311643452
248,1965.21,0.0821437052028752
249,1974.28,0.08271291605824807
250,1983.3999999999999,0.07917016537478616
251,1997.14,0.07683464250299159
252,2006.3600000000001,0.07683415874186014
253,2015.62,0.07405927374966087
254,2024.93,0.07543435721862685
255,2034.27,0.07491566976429195
256,2043.6599999999999,0.0797160507711223
257,2053.1,0.07543359023911787
258,2067.33,0.07457020228674255
259,2072.09,0.08270963578967253
260,2076.87,0.08366301867706859
261,2086.46,0.08620639352855985
262,2096.0899999999997,0.08101087714898329
263,2105.76,0.07862514953833893
264,2115.48,0.0800855303888598
265,2125.25,0.0811961497005459
266,2135.06,0.07203537778116417
267,2144.91,0.07843757463071463
268,2154.81,0.08082294994143033
269,2164.76,0.07612382371331125
270,2174.75,0.07560504625412437
271,2184.79,0.07718381725610271
272,2187.7616199999998,0.07842102818088767
273,2194.87,0.08138094022509369
274,2205.0,0.0782567487953274
275,2215.18,0.07104806859246254
276,2225.41,0.06975073961649914
277,2235.68,0.0791648116220569
278,2246.0,0.0742236848545161
279,2256.37,0.06800841931387676
280,2266.7799999999997,0.06911398475475856
281,2277.2400000000002,0.07253841142254183
282,2282.4900000000002,0.07754192024719404
283,2293.03,0.07121315887801963
284,2303.61,0.07357717849036637
285,2314.25,0.06855081957499484
286,2324.93,0.05027495164114448
287,2335.66,0.059239424934195574
288,2346.44,0.053693109454148125
289,2357.27,0.06579431520100212
290,2362.7000000000003,0.054243828442499545
291,2373.6099999999997,0.05924026615239585
292,2384.57,0.04988209508919361
293,2395.5699999999997,0.05549097500751253
294,2406.6299999999997,0.05339826639811319
295,2417.74,0.0562095590156153
296,2423.31,0.06606104569243679
297,2434.5,0.06386123027298123
298,2445.73,0.0694233558350468
299,2457.02,0.06931672286939412
300,2462.69,0.06729147200001853
301,2474.06,0.06328103099740816
302,2485.47,0.06174218097631897
303,2496.95,0.05914188267289181
304,2502.7,0.07194622376655851
305,2511.88643,0.05929238026060649
306,2514.2599999999998,0.056022826641974464
307,2520.0499999999997,0.05514688165513618
308,2525.8599999999997,0.05304975647836064
309,2537.52,0.05662042574493501
310,2543.37,0.05677276018828494
311,2555.1099999999997,0.06813856869511026
312,2566.8999999999996,0.062475516727092416
313,2572.82,0.0696385705056619
314,2584.7,0.06747779768292637
315,2596.6299999999997,0.06478735438534766
316,2602.61,0.06104769759410537
317,2614.6200000000003,0.05861102353677761
318,2626.69,0.06687452890963803
319,2632.75,0.07751777135864668
320,2644.9,0.09240892597175807
321,2657.1099999999997,0.10495851001505764
322,2663.2299999999996,0.08188378189425448
323,2675.5299999999997,0.08943593508283637
324,2687.88,0.0930742077965751
325,2694.07,0.08147158901099152
326,2706.5099999999998,0.08980778087001255
327,2712.75,0.0777088416095858
328,2725.27,0.07409894270885778
329,2737.85,0.08224900323831795
330,2744.16,0.061001123313110785
331,2756.83,0.06739750298785327
332,2763.1800000000003,0.07495586268277156
333,2775.94,0.08037024150279636
334,2782.33,0.06581253081784011
335,2795.18,0.04322168878314721
336,2808.08,0.04841883627361115
337,2814.55,0.07728491482890584
338,2827.54,0.09234522146465209
339,2834.06,0.08883679954510364
340,2847.1400000000003,0.07997548532613218
341,2853.71,0.06904354293174055
342,2866.88,0.09213593785805141
343,2873.4900000000002,0.10176435508378524
344,2884.0315,0.0987196137874579
345,2886.75,0.09793444444424591
346,2893.3999999999996,0.10401505315178217
347,2906.7599999999998,0.1274799505551934
348,2926.91,0.11666634663893116
349,2947.2,0.11206384269545915
350,2967.63,0.11721953872477736
351,2988.2,0.11872003472688583
352,3008.9100000000003,0.12051393070178452
353,3029.77,0.12404422664752991
354,3050.77,0.12621592256606554
355,3071.92,0.1332441184554478
356,3093.21,0.13371241431762035
357,3107.49,0.14306451154222458
358,3129.0299999999997,0.13711370735580825
359,3150.7200000000003,0.1388793031402386
360,3172.56,0.14560759889551564
361,3187.2,0.13048619605015194
362,3209.2900000000004,0.14128779175684011
363,3231.54,0.12579878743243142
364,3246.46,0.15525288453264816
365,3268.96,0.1728240801596506
366,3291.62,0.17067497575555618
367,3306.81,0.16578447280329695
368,3311.31121,0.1649345514504806
369,3322.0699999999997,0.16290303195603445
370,3329.73,0.17584140349662616
371,3337.4100000000003,0.16722817496291134
372,3345.1,0.16769164639204326
373,3352.81,0.1572903177468686
374,3360.5400000000004,0.17214188902738742
375,3368.29,0.17182496023359967
376,3376.0499999999997,0.1449711314026587
377,3383.84,0.14537060246025782
378,3391.6400000000003,0.17484797348070372
379,3399.46,0.17899934442684304
380,3407.29,0.16984561533582912
381,3415.15,0.16797758613335534
382,3423.02,0.1907380568937283
383,3430.91,0.17849802757979472
384,3438.82,0.18106429819155462
385,3446.75,0.13647566872900793
386,3454.69,0.17710443922930796
387,3462.6600000000003,0.1518572096181482
388,3470.64,0.16928637996983514
389,3478.64,0.14382485024721553
390,3486.66,0.16294052045028937
391,3494.6899999999996,0.15283909061620995
392,3502.75,0.1813125606706707
393,3510.83,0.1797320306508249
394,3518.9199999999996,0.1658910005938258
395,3527.0299999999997,0.1556081704625202
396,3535.16,0.178739940256908
397,3543.31,0.1974325099769893
398,3551.48,0.19436397962276403
399,3559.6699999999996,0.18613424919423224
400,3567.8700000000003,0.17580721872854713
401,3576.1,0.1560416881514022
402,3584.3399999999997,0.13379605753710402
403,3592.6000000000004,0.15053712684849926
404,3600.89,0.1976242960484347
405,3609.19,0.16984446521121688
406,3617.5099999999998,0.18291343429969248
407,3625.85,0.18943370331386156
408,3633.65,0.16895947433430744
409,3636.4,0.16983336411715697
410,3639.15,0.18254115390000647
411,3641.89,0.18965454372000926
412,3644.6400000000003,0.19131813350285878
413,3647.39,0.19410412328570828
414,3650.1299999999997,0.18680591310571104
415,3652.88,0.20196170288856055
416,3655.62,0.19502439270856337
417,3658.3700000000003,0.21045658249141286
418,3661.12,0.20177537227426237
419,3663.8599999999997,0.21574766209426519
420,3666.61,0.21954335187711468
421,3669.3599999999997,0.2107774416599642
422,3672.1,0.21214323147996697
423,3674.85,0.2117535212628165
424,3677.59,0.19920401108281927
425,3680.3399999999997,0.1942568008656688
426,3683.09,0.2010475906485183
427,3685.83,0.2031860804685211
428,3688.5800000000004,0.18501737025137058
429,3691.33,0.2008838600342201
430,3694.0699999999997,0.20918744985422288
431,3696.82,0.21355283963707242
432,3699.56,0.2144504294570752
433,3702.31,0.2208125192399247
434,3705.06,0.21742770902277422
435,3707.8,0.187448798842777
436,3710.55,0.1867433886256265
437,3713.2999999999997,0.19653497840847603
438,3716.04,0.22364976822847882
439,3718.79,0.20717895801132832
440,3721.54,0.21233394779417783
441,3724.2799999999997,0.21983093761418063
442,3727.03,0.2327812273970301
443,3729.77,0.2661346172170329
444,3732.5199999999995,0.2639907069998824
445,3735.27,0.22908649678273194
446,3738.0099999999998,0.19947988660273472
447,3740.76,0.17205517638558424
448,3743.5099999999998,0.18972656616843375
449,3746.25,0.1813848559884365
450,3749.0,0.17358354577128604
451,3751.7400000000002,0.17005313559128882
452,3754.49,0.18946762537413833
453,3757.2400000000002,0.20224301515698787
454,3759.98,0.20712850497699065
455,3762.73,0.21231169475984016
456,3765.48,0.21320808454268966
457,3768.22,0.21182127436269244
458,3770.9700000000003,0.20851546414554195
459,3773.71,0.22009055396554475
460,3776.46,0.24019304374839426
461,3779.21,0.24740123353124377
462,3781.95,0.2603640233512466
463,3784.7,0.26159321313409606
464,3787.45,0.2581180029169456
465,3790.19,0.25113019273694837
466,3792.94,0.22391968251979788
467,3795.6800000000003,0.21047897233980067
468,3798.43,0.19910716212265017
469,3801.1800000000003,0.2000826519054997
470,3801.8939600000003,0.1991553871886708
471,3803.92,0.1965240432939263
472,3806.6699999999996,0.2236885352056408
473,3809.42,0.2353809271173553
474,3812.16,0.24710281905848172
475,3814.9100000000003,0.24320471097019622
476,3817.65,0.23086390291132264
477,3820.4,0.2157918948230371
478,3823.15,0.20061278673475158
479,3825.8900000000003,0.19594867867587804
480,3828.64,0.1909394705875925
481,3831.39,0.173803162499307
482,3834.13,0.16798265444043342
483,3836.8799999999997,0.16271964635214792
484,3839.6200000000003,0.16588453829327435
485,3842.37,0.17288973020498882
486,3845.1200000000003,0.19228162211670333
487,3847.86,0.21345691405782974
488,3850.6099999999997,0.22451200596954424
489,3853.36,0.22676769788125872
490,3856.1,0.22330518982238515
491,3858.85,0.2238292817340996
492,3861.5899999999997,0.21549327367522605
493,3864.34,0.22698266558694052
494,3867.09,0.23033835749865503
495,3869.8300000000004,0.23991114943978145
496,3872.58,0.24051414135149593
497,3875.3300000000004,0.22937363326321042
498,3878.07,0.22228412520433685
499,3880.8199999999997,0.22576391711605134
500,3883.56,0.21954310905717778
501,3886.31,0.20759600096889225
502,3889.06,0.20562139288060674
503,3891.8,0.21127388482173318
504,3894.55,0.21967787673344763
505,3897.3,0.23225026864516213
506,3900.04,0.25301956058628855
507,3902.79,0.2557265524980031
508,3905.5299999999997,0.2546951444391295
509,3908.28,0.26589113635084394
510,3911.0299999999997,0.26507272826255845
511,3913.7699999999995,0.2846745202036849
512,3916.52,0.2804154121153994
513,3919.2700000000004,0.2779330040271138
514,3922.01,0.25973739596824025
515,3924.7599999999998,0.24997308787995476
516,3927.5,0.22700547982108119
517,3930.25,0.20281267173279569
518,3933.0,0.17424856364451013
519,3935.74,0.16081895558563658
520,3938.4900000000002,0.17338014749735106
521,3941.24,0.19112493940906555
522,3943.9800000000005,0.21118343135019196
523,3946.73,0.23667262326190647
524,3949.47,0.2535612152030329
525,3952.2200000000003,0.26618430711474733
526,3954.97,0.26664629902646186
527,3957.71,0.2698679909675883
528,3960.46,0.25569268287930275
529,3963.2099999999996,0.22629937479101728
530,3965.95,0.1906065667321437
531,3968.7,0.1670963586438582
532,3971.44,0.1573838505849846
533,3974.19,0.17057684249669908
534,3976.94,0.20429003440841356
535,3979.68,0.24060462634954
536,3982.4300000000003,0.26894801826125453
537,3985.18,0.28747101017296894
538,3987.9199999999996,0.3028650021140954
539,3990.67,0.30762509402580984
540,3993.4199999999996,0.31475978593752435
541,3996.1600000000003,0.3202715778786508
542,3998.91,0.3270565697903653
543,4001.65,0.3283718617314917
544,4004.4,0.3326015536432062
545,4007.15,0.33770564555492066
546,4009.89,0.3421571374960471
547,4012.64,0.3442942294077616
548,4015.39,0.3522637213194761
549,4018.1299999999997,0.3549892132606025
550,4020.88,0.353589705172317
551,4023.62,0.35168979711344345
552,4026.3700000000003,0.3493595890251579
553,4029.12,0.3482985809368724
554,4031.8599999999997,0.3390208728779988
555,4034.61,0.3341806647897133
556,4037.3599999999997,0.33851765670142775
557,4040.1,0.3432736486425542
558,4042.85,0.34859204055426873
559,4045.59,0.3443570324953952
560,4048.34,0.3293694244071096
561,4051.09,0.3306436163188241
562,4053.83,0.33378640825995054
563,4056.5800000000004,0.338388500171665
564,4059.33,0.3358946920833795
565,4062.0699999999997,0.32641958402450594
566,4064.82,0.3281731759362204
567,4067.56,0.32446836787734684
568,4070.31,0.3284330597890613
569,4073.06,0.33045175170077584
