,lambda (Angstroms),Total Flux (erg/s/cm^2/Angstrom)
0,102.02,0.03527561849362374
1,103.92,0.041279610228310906
2,104.712855,0.043790962271467025
3,106.09,0.04027987273113742
4,108.07000000000001,0.03528168061126991
5,110.08,0.030373108310798383
6,113.94,0.020711686873076892
7,117.95,0.010674088532335119
8,120.22644299999999,0.008575742838770124
9,120.97,0.009734453816364069
10,124.94,0.010477539312699692
11,126.97,0.010660462898987177
12,128.14000000000001,0.010906321690098683
13,131.13,0.011101883489605868
14,132.04,0.012616147993803705
15,133.87,0.012762451744003752
16,136.98999999999998,0.015017805186967772
17,138.038426,0.01516089703339224
18,139.86,0.015620951461897698
19,143.12,0.041051007682680773
20,147.13,0.09464657668431885
21,150.9,0.09772681559608333
22,155.13,0.10204159968010554
23,158.489319,0.1062606566073309
24,159.11,0.10703877113050736
25,162.07,0.11026904397630455
26,165.84,0.11620252797247192
27,170.09,0.12025417783552532
28,172.85999999999999,0.12385899127568012
29,176.89,0.12787737761641077
30,180.17,0.13083506104013198
31,181.83999999999997,0.13292775686867295
32,181.970086,0.13305052292814884
33,186.07999999999998,0.13696464312373485
34,190.85000000000002,0.14176386572356794
35,193.95,0.14573277936287246
36,198.01,0.1491240101291874
37,202.16000000000003,0.1536513300011596
38,204.97000000000003,0.15650303430001308
39,208.929613,0.1546335490733243
40,210.23,0.15403344708037717
41,216.12,0.16622560350972965
42,220.14,0.1709190987297631
43,223.2,0.1713436443450124
44,226.82999999999998,0.17658086316310234
45,229.98000000000002,0.2626668571788002
46,234.26,0.4304816700001293
47,239.88329199999998,0.5219793559885482
48,240.27,0.5282625584753787
49,245.86,0.4851767009604086
50,252.17,0.5055738753934209
51,256.86,0.4129289779434729
52,259.83,0.47726805972890024
53,264.05,0.49624770253513034
54,268.96,0.4871628926248436
55,273.96,0.47603963670805466
56,275.42287,0.4729110433834521
57,279.06,0.465211476640535
58,284.24,0.45891190739013854
59,290.2,0.42836919141863994
60,296.27,0.42356660988390893
61,301.09000000000003,0.40831740065863653
62,308.1,0.4037260679471926
63,316.227766,0.39938663959761245
64,318.19,0.3983008495728733
65,327.86,0.38384856296219055
66,337.82,0.3665240925751791
67,348.09,0.34916867401347146
68,357.02,0.3388120701423859
69,363.078055,0.3356970034123314
70,366.17999999999995,0.33414737336351
71,374.71,0.321391895957687
72,385.2,0.29596649255943575
73,395.09000000000003,0.2987512399751931
74,405.22,0.293380027065347
75,413.71,0.2828491930471245
76,416.86938299999997,0.27824016275881375
77,422.36999999999995,0.27020153395891083
78,430.21999999999997,0.26049664948750584
79,441.26,0.25463484368313494
80,450.5,0.24437490947730278
81,459.93,0.232917806602736
82,469.56,0.2250856735505538
83,478.630092,0.2217345558491549
84,480.5,0.22102704836948034
85,490.56,0.20725707794540224
86,499.68,0.20720495147745074
87,505.47,0.19790353072641573
88,512.5,0.21097175199070312
89,519.63,0.2042740685788068
90,530.51,0.19373445981002255
91,540.37,0.17835179873831183
92,549.5408739999999,0.17172237928151807
93,550.42,0.1710898714632529
94,559.36,0.17666288656049398
95,569.76,0.17786400345213904
96,580.35,0.17066170824853535
97,589.78,0.16792521846855582
98,599.37,0.15460706587152467
99,610.51,0.13473276723430605
100,620.4300000000001,0.15528157257710598
101,630.51,0.14763391510285429
102,630.957344,0.1477198436285776
103,639.28,0.1493506077833081
104,649.67,0.1436681126543297
105,658.71,0.13631522844201352
106,664.8,0.14045151252907045
107,675.5999999999999,0.1395135251957724
108,685.0,0.12762123807234632
109,694.53,0.132704038786575
110,704.1899999999999,0.1191975273384584
111,715.63,0.128279057052076
112,724.43596,0.126494216975946
113,725.59,0.12625920847335628
114,735.68,0.12427021959610637
115,744.2,0.11954375287319566
116,754.56,0.11658590413500844
117,765.0500000000001,0.10379101916748104
118,775.7,0.11217733576384264
119,784.68,0.1047603485371128
120,795.59,0.10671289267479403
121,804.81,0.1064740077938977
122,814.13,0.10479544889043196
123,825.4499999999999,0.10362620953557874
124,831.763771,0.09475601078161454
125,835.0100000000001,0.09018238812699479
126,844.6800000000001,0.09897993076148495
127,854.4599999999999,0.09628929129564358
128,864.35,0.09626338972947061
129,874.36,0.09514363859929963
130,884.49,0.09339643790513058
131,894.73,0.09209412511062998
132,905.09,0.08958065275213133
133,915.57,0.09266951082963461
134,924.04,0.16641163910410534
135,934.74,0.24236985298094552
136,945.5600000000001,0.3112786372937877
137,954.3100000000001,0.35644060658559623
138,954.992586,0.35779466896711076
139,965.36,0.37838473159079333
140,974.3000000000001,0.17613625084979223
141,985.58,0.3090951543443681
142,994.7,0.302076095467642
143,1003.9,0.36891370186392725
144,1015.5300000000001,0.371460453427927
145,1024.92,0.24791657734761374
146,1034.41,0.3199122578585645
147,1043.98,0.4333051036425264
148,1056.0700000000002,0.41764875552634034
149,1065.84,0.35394321449283017
150,1075.7,0.3871343343914576
151,1085.6499999999999,0.32658191522222263
152,1095.7,0.3924959526442516
153,1096.4782,0.3910760982220832
154,1105.84,0.3739864957569423
155,1116.07,0.362959897127002
156,1123.81,0.32205778144804426
157,1134.2,0.37740476543972756
158,1144.7,0.3563082999837771
159,1155.29,0.3587647122524899
160,1165.98,0.35383588865971743
161,1174.06,0.25238061105170984
162,1184.93,0.335579542908264
163,1195.89,0.2798466524894814
164,1204.18,0.23606448957235476
165,1215.32,0.1854633546028987
166,1223.75,0.2721937014796928
167,1235.0700000000002,0.3294060219595633
168,1243.63,0.3401643922164265
169,1255.1399999999999,0.3286139545594751
170,1258.92541,0.31969412758476645
171,1263.84,0.3081206865783617
172,1275.53,0.3488656162694143
173,1284.37,0.3545229705439143
174,1296.26,0.30111531956244425
175,1305.24,0.2990522873661784
176,1314.29,0.3425047619345296
177,1326.45,0.32711173704515406
178,1335.6499999999999,0.30042892610911326
179,1344.9,0.33165982000494193
180,1354.2299999999998,0.32115312163176146
181,1363.6100000000001,0.29496412809045036
182,1376.23,0.2970027476542727
183,1385.77,0.2942823695749435
184,1395.3799999999999,0.2354697982602314
185,1405.05,0.2322381327437625
186,1414.79,0.2715369739919107
187,1424.6000000000001,0.2678175220046759
188,1434.4699999999998,0.27216477581568443
189,1441.09,0.27721541555518553
190,1445.43977,0.27763171316363694
191,1447.7400000000002,0.2778518224698103
192,1454.4299999999998,0.26843696507408094
193,1464.51,0.25228368263029144
194,1474.66,0.2522845058639756
195,1484.88,0.2540298347751334
196,1495.17,0.25228796936376496
197,1505.54,0.23928881044093786
198,1512.49,0.2187815741329679
199,1515.97,0.22750165638451675
200,1526.48,0.22284400881663702
201,1533.53,0.19414388061934376
202,1544.16,0.18756894278427605
203,1554.8600000000001,0.182887910626682
204,1565.64,0.1959384849576293
205,1576.49,0.20609816496605032
206,1583.77,0.21089075542331345
207,1594.75,0.21235244597561415
208,1605.8,0.20657674220538855
209,1613.2099999999998,0.20374854320653138
210,1624.39,0.19730414998018544
211,1635.6499999999999,0.2056340632423809
212,1643.2,0.2056338755984711
213,1654.59,0.19684639940454624
214,1659.58691,0.20067595381112624
215,1666.06,0.20564013874773265
216,1673.75,0.18715789359266494
217,1677.61,0.2099357798997441
218,1685.36,0.2113987702831284
219,1693.1299999999999,0.20006387251266333
220,1704.87,0.19373282620310614
221,1716.6899999999998,0.1833514272781516
222,1724.6100000000001,0.1804373183538166
223,1736.5700000000002,0.18935090235191673
224,1744.58,0.18505894673525974
225,1756.6799999999998,0.19111581365641456
226,1764.78,0.18046101134743558
227,1777.02,0.17881406119164509
228,1785.2199999999998,0.18172151811341944
229,1793.46,0.18808919872749513
230,1805.89,0.186381361110136
231,1814.23,0.17278270095496504
232,1826.8000000000002,0.1751885462606606
233,1835.23,0.16965513941316765
234,1843.71,0.1572887621810514
235,1856.49,0.15692943187132896
236,1865.05,0.15984660202381537
237,1873.66,0.16812710179167842
238,1886.65,0.15515749586653804
239,1895.3600000000001,0.14957735486515444
240,1904.11,0.15695733755607222
241,1905.46072,0.15593072987074125
242,1912.8999999999999,0.15026645777437245
243,1926.16,0.14516883388370377
244,1935.0500000000002,0.14921184644870797
245,1943.9799999999998,0.15478982847407213
246,1952.95,0.14382587995979626
247,1966.49,0.15547864229164737
248,1975.5700000000002,0.15798870979336146
249,1984.68,0.1512502543903455
250,1993.8500000000001,0.14746735317786952
251,2003.0500000000002,0.1505385290606635
252,2016.93,0.1471113318055744
253,2026.24,0.14983162370435832
254,2035.6,0.14343207742859218
255,2044.9899999999998,0.14743000824809604
256,2054.43,0.1351156008930499
257,2063.91,0.13760696299836367
258,2073.44,0.14979528692912744
259,2078.2200000000003,0.15900263744214432
260,2083.0099999999998,0.17270238032025118
261,2092.62,0.1626847431717349
262,2107.13,0.16267306491731542
263,2116.86,0.16914023614987905
264,2126.63,0.16454047684280265
265,2136.44,0.15715018699608624
266,2146.31,0.16873225133990977
267,2156.21,0.17067259277900332
268,2166.17,0.16040418840863677
269,2176.16,0.15929636113354026
270,2186.21,0.17143798804898366
271,2187.7616199999998,0.17161901495092857
272,2196.2999999999997,0.17262690093210561
273,2206.44,0.1694922734103307
274,2216.62,0.15111197023758235
275,2226.85,0.1582186975011171
276,2237.13,0.1824428552009351
277,2247.46,0.1758635433370362
278,2252.64,0.1539074965359717
279,2263.04,0.14922142728286925
280,2273.48,0.1553539823787933
281,2283.98,0.18057867399825717
282,2294.52,0.15861718996674753
283,2305.11,0.17528343637152108
284,2315.75,0.15790461321257782
285,2326.44,0.13217732048991768
286,2337.1800000000003,0.1363439582035407
287,2342.56,0.11901843314760885
288,2353.38,0.15126841955928494
289,2364.24,0.12178583031998756
290,2375.15,0.13273107151697336
291,2386.12,0.11061264923749892
292,2397.13,0.12082295130705102
293,2402.66,0.11909971755996865
294,2413.75,0.12482806832757382
295,2424.8900000000003,0.16047764953146215
296,2436.08,0.16029256117163362
297,2447.32,0.18039500324808827
298,2452.97,0.1874591425480855
299,2464.29,0.1650301333225932
300,2475.6600000000003,0.15246465453338406
301,2487.09,0.1167174122677147
302,2492.82,0.12239720026576499
303,2504.3300000000004,0.1650916066981487
304,2511.88643,0.1286800315577077
305,2515.89,0.10938496327851242
306,2527.4999999999995,0.10458802804542774
307,2533.33,0.13356155453906393
308,2545.02,0.1355524004585506
309,2556.77,0.21569773224246575
310,2562.66,0.16938194460053044
311,2574.49,0.20798005753701693
312,2586.37,0.18817685869386053
313,2592.34,0.17433385220449657
314,2604.2999999999997,0.15737753451391148
315,2616.3199999999997,0.14671310268775492
316,2622.35,0.18107838206281945
317,2634.46,0.2942775290333056
318,2646.62,0.3775544642241489
319,2652.7200000000003,0.5426073271077134
320,2664.96,0.33509314345112795
321,2677.27,0.3762512433030425
322,2683.44,0.4426763896951068
323,2695.8199999999997,0.3167273730555213
324,2702.04,0.3955787076679428
325,2714.5099999999998,0.286974869825
326,2727.04,0.21701711784648567
327,2733.33,0.27793183596740706
328,2745.94,0.17692456514146407
329,2752.27,0.22865697383867112
330,2764.98,0.29263797945344233
331,2777.7400000000002,0.3066688732885706
332,2784.14,0.1975890654942776
333,2796.99,0.11375453812604865
334,2803.4399999999996,0.1292373185521127
335,2816.38,0.27030086998052655
336,2822.87,0.37956144098287625
337,2835.9,0.34889247120793276
338,2842.44,0.2396927304306396
339,2855.56,0.15015543945233892
340,2862.1400000000003,0.3352757892513314
341,2875.35,0.49151237706967343
342,2881.98,0.447968215089023
343,2884.0315,0.4681218773901094
344,2895.29,0.5787264774878563
345,2908.6499999999996,0.8011310130731382
346,2928.81,0.6866533158724858
347,2949.1099999999997,0.6190863179968288
348,2969.56,0.6407825193979526
349,2990.14,0.6496376201722865
350,3010.87,0.6333270202234014
351,3031.74,0.6958874195995116
352,3052.75,0.7218802183006173
353,3066.84,0.8179199503662328
354,3088.1,0.7845813478619733
355,3109.5099999999998,0.9538808446344946
356,3131.06,0.8618184407320114
357,3152.76,0.8715626361063092
358,3167.32,0.9717018659058378
359,3189.27,0.8211599600747704
360,3211.3799999999997,0.9062724534722691
361,3233.64,0.7484307461465487
362,3248.56,1.1073492742103517
363,3271.08,1.3124291656310512
364,3293.76,1.2849680562803172
365,3308.96,1.172555982994111
366,3311.31121,1.1629258651070917
367,3324.23,1.1100117809619081
368,3331.8999999999996,1.1269970740351891
369,3339.58,0.9739933661867924
370,3347.27,1.2796386574167185
371,3354.99,1.2522719458816114
372,3362.73,0.8305459325031491
373,3370.48,0.9815218182030094
374,3378.25,1.1788858020595143
375,3386.04,1.1351640840726644
376,3393.84,1.1847643651641366
377,3401.6600000000003,1.3842406444122535
378,3409.51,1.1503159208953377
379,3417.3700000000003,0.9559826964567444
380,3425.24,1.2160784710964734
381,3433.14,1.4077477429711696
382,3441.0499999999997,1.0818050139241884
383,3448.9900000000002,1.010994282112174
384,3456.94,1.1515995493784823
385,3464.91,0.9613970148014354
386,3472.8900000000003,1.274758079302711
387,3480.9,0.9908781410389536
388,3488.9199999999996,1.1523356018535185
389,3496.97,1.0475428599030507
390,3505.03,1.3573141170309053
391,3513.1099999999997,1.1729033723154048
392,3521.21,1.4086516257565491
393,3529.32,0.9298976782760159
394,3537.46,1.3241631280304496
395,3545.61,1.3350933768632058
396,3553.79,1.3900996229309293
397,3561.98,1.2348918680769752
398,3570.1899999999996,0.9511062113796659
399,3574.56,1.1559977086065547
400,3576.5099999999998,1.1202765288794228
401,3578.4700000000003,1.1057643482306134
402,3580.43,1.0232901675818036
403,3582.39,1.0034519869329943
404,3584.35,0.9527544062841846
405,3586.3,1.0073116265570528
406,3588.2599999999998,1.0627814459082432
407,3590.2200000000003,1.1259652652594339
408,3592.18,1.140015084610624
409,3594.1299999999997,1.1033759048834921
410,3596.09,1.2076127242346826
411,3598.0499999999997,1.246734543585873
412,3600.01,1.3480313629370635
413,3601.96,1.2997291832099316
414,3603.92,1.271349002561122
415,3605.88,1.2640918219123125
416,3607.84,1.204669641263503
417,3609.79,1.236543461536371
418,3611.7500000000005,1.2963292808875615
419,3613.71,1.3157051002387519
420,3615.67,1.3127649195899425
421,3617.62,1.4137017398628104
422,3619.58,1.4976415592140009
423,3621.54,1.5174773785651914
424,3623.5,1.4431761979163817
425,3625.4500000000003,1.41269201818925
426,3627.41,1.4030468375404404
427,3629.37,1.3465626568916307
428,3631.33,1.3321414762428212
429,3633.2799999999997,1.3856902965156894
430,3635.2400000000002,1.2660201158668798
431,3637.2,1.2751109352180703
432,3639.1600000000003,1.3041297545692607
433,3641.12,1.4440915739204512
434,3643.0699999999997,1.4759663941933192
435,3645.03,1.5174762135445097
436,3646.99,1.4469410328957002
437,3648.9500000000003,1.3693338522468907
438,3650.9,1.4045146725197586
439,3652.86,1.5763454918709492
440,3654.8199999999997,1.7582773112221397
441,3656.78,1.73944813057333
442,3658.73,1.8393769508461981
443,3660.6899999999996,1.9044897701973886
444,3662.65,2.028103589548579
445,3664.6099999999997,1.8466244088997694
446,3666.56,1.7929972291726375
447,3668.52,1.584059048523828
448,3670.48,1.6554158678750186
449,3672.44,1.670383687226209
450,3674.3900000000003,1.677278507499077
451,3676.35,1.6960113268502675
452,3678.3100000000004,1.6994071462014577
453,3680.27,1.7650699655526483
454,3682.22,1.6202447858255165
455,3684.1800000000003,1.4734826051767067
456,3686.14,1.4257234245278974
457,3688.1000000000004,1.562838243879088
458,3690.05,1.7587400641519557
459,3692.01,1.7988718835031463
460,3693.97,1.745693702854337
461,3695.93,1.6848935222055272
462,3697.89,1.6583493415567176
463,3699.8399999999997,1.7606661618295856
464,3701.8,1.618310981180776
465,3703.7599999999998,1.6669838005319668
466,3705.7200000000003,1.6067346198831571
467,3707.67,1.7191534401560251
468,3709.6299999999997,1.7477132595072158
469,3711.59,1.729802078858406
470,3713.5499999999997,1.7274118982095965
471,3715.5,1.6120677184824648
472,3717.46,1.605728537833655
473,3719.42,1.5753273571848456
474,3721.38,1.579733176536036
475,3723.3300000000004,1.577810996808904
476,3725.29,1.5305108161600947
477,3727.2499999999995,1.4937726355112848
478,3729.21,1.3813584548624753
479,3731.16,1.3659352751353435
480,3733.12,1.391464094486534
481,3735.08,1.3427869138377244
482,3737.04,1.259670733188915
483,3738.99,1.1902435534617828
484,3740.9500000000003,1.2935623728129735
485,3742.91,1.399177192164164
486,3744.8700000000003,1.4021140115153543
487,3746.83,1.3572018308665448
488,3748.7799999999997,1.2852966511394128
489,3750.7400000000002,1.3591334704906033
490,3752.7,1.4049602898417939
491,3754.6600000000003,1.3804371091929841
492,3756.61,1.3201029294658522
493,3758.57,1.3948587488170427
494,3760.53,1.487523568168233
495,3762.49,1.4788883875194236
496,3764.44,1.4691592077922917
497,3766.3999999999996,1.526649027143482
498,3768.36,1.7027958464946726
499,3770.3199999999997,1.7437546658458631
500,3772.27,1.7717724861187312
501,3774.23,1.7757193054699216
502,3776.1899999999996,1.8064831248211122
503,3778.15,1.9484649441723025
504,3780.1,1.9619727644451705
505,3782.06,2.044534583796361
506,3784.02,1.9300994031475516
507,3785.98,1.819521222498742
508,3787.93,1.62069504277161
509,3789.8900000000003,1.5217808621228004
510,3791.85,1.523706681473991
511,3793.8100000000004,1.5241645008251814
512,3795.76,1.5294963210980494
513,3797.72,1.49615714044924
514,3799.68,1.4879809598004303
515,3801.64,1.503499779151621
516,3801.8939600000003,1.5151137611732888
517,3803.6,1.5931336312660307
518,3805.5499999999997,1.646774488987187
519,3807.51,1.650629345978708
520,3809.47,1.598003202970229
521,3811.4300000000003,1.50000705996175
522,3813.38,1.4025709176829062
523,3815.3399999999997,1.3619757746744274
524,3817.3,1.3634436316659486
525,3819.2599999999998,1.3166944886574699
526,3821.21,1.2148493463786258
527,3823.17,1.132283203370147
528,3825.13,1.1463330603616684
529,3827.09,1.1018809173531894
530,3829.0400000000004,1.1322847750743457
531,3831.0,1.1023426320658667
532,3832.96,1.1554254890573878
533,3834.92,1.178659346048909
534,3836.87,1.1626832037700654
535,3838.83,1.2046520607615865
536,3840.79,1.2264169177531075
537,3842.75,1.2167717747446285
538,3844.7,1.2568186324657848
539,3846.66,1.3229424894573059
540,3848.62,1.376483346448827
541,3850.58,1.3301942034403482
542,3852.53,1.2862080611615043
543,3854.49,1.2529599181530255
544,3856.4500000000003,1.3581147751445468
545,3858.41,1.430115632136068
546,3860.3700000000003,1.508269489127589
547,3862.32,1.4006383468487453
548,3864.2799999999997,1.3243172038402664
549,3866.2400000000002,1.3358870608317874
550,3868.2,1.3687639178233084
551,3870.15,1.3432377755444647
552,3872.11,1.284274632535986
553,3874.07,1.322937489527507
554,3876.0299999999997,1.438286346519028
555,3877.9799999999996,1.5014782042401844
556,3879.94,1.4629030612317055
557,3881.8999999999996,1.4372779182232267
558,3883.86,1.4406737752147478
559,3885.81,1.455649632935904
560,3887.77,1.4909144899274251
561,3889.73,1.6800113469189464
562,3891.69,1.7969212039104674
563,3893.64,1.9185240616316237
564,3895.6000000000004,1.9502979186231446
565,3897.56,2.031941775614666
566,3899.52,2.042041632606187
567,3901.4700000000003,1.9817104903273433
568,3903.43,1.9991573473188644
569,3905.3900000000003,2.0439722043103856
570,3907.35,2.0762970613019065
571,3909.3,2.095132919023063
572,3911.2599999999998,2.0883337760145837
573,3913.2200000000003,2.125526633006105
574,3915.18,2.0989814899976262
575,3917.14,2.046446346989147
576,3919.09,1.9938292047103037
577,3921.0499999999997,1.8823330617018246
578,3923.01,1.7631229186933457
579,3924.97,1.597073775684867
580,3926.92,1.5362816334060232
581,3928.88,1.3871314903975442
582,3930.8399999999997,1.2408283473890656
583,3932.8,1.1076592043805866
584,3934.75,1.1337460621017428
585,3936.71,1.271320919093264
586,3938.67,1.3604957760847851
587,3940.63,1.4618856330763064
588,3942.58,1.5391284907974625
589,3944.5400000000004,1.7365823477889837
590,3946.5,1.8500022047805045
