,lambda (Angstroms),Total Flux (erg/s/cm^2/Angstrom)
0,100.08,0.0032447396612514862
1,101.94,0.0038991841369207096
2,104.07,0.004648608458291915
3,104.712855,0.004874805803403371
4,106.00999999999999,0.004494134405072826
5,107.98,0.003916047565918038
6,109.99,0.0033263896816722975
7,114.11,0.0021175728260034075
8,118.11999999999999,0.0009411672591096626
9,120.22644299999999,0.0003277434416021394
10,120.88,0.00032038334272603384
11,125.12,0.00026536257991458575
12,126.86,0.00024287587723724634
13,128.04,0.0002277054766859472
14,131.02,0.00018906003715808968
15,131.93,0.00017963385995327426
16,134.07,0.00015203842861447758
17,136.88,0.00011967207526773962
18,138.038426,0.00010501355726751002
19,140.07,0.0001059252348772374
20,143.0,0.0001591393815877553
21,147.01000000000002,0.0002974305688263821
22,151.13,0.00031699302972990897
23,155.0,0.00034123221412229944
24,158.489319,0.0003654630079397485
25,158.98,0.0003687441584256389
26,161.94,0.0003887795264232291
27,166.08999999999997,0.0004225947193928235
28,169.96,0.00045078118295724043
29,173.12,0.0004754286433871003
30,177.15,0.000506452680897333
31,180.03000000000003,0.0005310903119220152
32,181.970086,0.0005474680527756418
33,182.11,0.0005487854797436418
34,185.92999999999998,0.0005876818021929022
35,191.14,0.0006378713029679408
36,193.79,0.0006731449263947838
37,197.85,0.0007138173717204377
38,202.0,0.0007602342631247389
39,204.81,0.0007940081351358442
40,208.929613,0.00081121963336522
41,210.06,0.0008173023587779247
42,215.94,0.0009301074463982205
43,219.96,0.000989121705281484
44,223.01999999999998,0.0010169247396553112
45,227.16,0.0010809304391022543
46,229.8,0.0016351039315032033
47,234.07,0.0027459241748941324
48,239.88329199999998,0.0033752227500210776
49,240.07,0.003394943752702065
50,246.23,0.003254290955559116
51,251.97,0.003473230485494096
52,257.24,0.0029764196671591384
53,260.22,0.0034016319178919326
54,263.84000000000003,0.003577921813077408
55,268.75,0.0035882451322378174
56,273.74,0.0035908435319548125
57,275.42287,0.003594188029577025
58,278.83000000000004,0.0036093177887530723
59,284.01,0.003624136536143729
60,289.96000000000004,0.003479317678416781
61,296.03000000000003,0.0035583388302818948
62,300.84,0.0035484788814303617
63,307.85,0.0035974867750999577
64,316.227766,0.0036620034389338485
65,317.94000000000005,0.0036714315732502036
66,328.35,0.003661950580982774
67,338.33000000000004,0.003611655567262414
68,347.81,0.0035546254820851583
69,356.73,0.00351448399687618
70,363.078055,0.003497618364787565
71,365.88000000000005,0.003494802950124149
72,375.27,0.0034469197608217013
73,384.89000000000004,0.0033023351270528465
74,394.77,0.003354033773452401
75,404.89,0.003324246216930487
76,414.32,0.0032649749938077942
77,416.86938299999997,0.0032453186990563485
78,422.03,0.0032040343482121533
79,429.86999999999995,0.0031509847054028792
80,440.9,0.003100165067624015
81,451.16999999999996,0.0030234552217501317
82,459.55999999999995,0.002961272545325411
83,470.26,0.0029012055277158146
84,478.630092,0.002867169139777145
85,480.10999999999996,0.0028596651364754997
86,490.15999999999997,0.0027554589128335597
87,500.42999999999995,0.00271939036091289
88,506.22,0.0026570159484863394
89,512.0799999999999,0.0026949876588801933
90,520.4,0.0026490469712482584
91,530.08,0.002562895526984181
92,539.93,0.002457564238141085
93,549.5408739999999,0.0023956042287274692
94,549.97,0.0023930026063474956
95,560.2,0.002380541800962605
96,570.61,0.0023628306207029073
97,579.88,0.0022840208146503236
98,590.66,0.002256866030481299
99,600.26,0.002166937037158235
100,610.02,0.0019301383772797865
101,619.93,0.002120554905005665
102,630.0,0.0020585817661761593
103,630.957344,0.0020562803392899223
104,640.24,0.002038006270584124
105,650.64,0.0020005055392917767
106,658.17,0.00195449650980799
107,664.26,0.001955988581580067
108,675.06,0.0019245638221610907
109,684.45,0.0018443136618884809
110,695.5699999999999,0.0018796528799682015
111,705.25,0.0017939331993037854
112,716.71,0.0018322933934758717
113,724.43596,0.0018097546673021174
114,726.68,0.0018029664476487631
115,735.09,0.0017846843681920829
116,745.32,0.0017669110967483445
117,755.68,0.0017493923115912448
118,764.43,0.001626950580884235
119,775.07,0.001722145612344511
120,785.85,0.001686988552113475
121,794.9499999999999,0.0016919125921781846
122,804.16,0.001685954274485435
123,815.3399999999999,0.001673104095136364
124,824.78,0.0016852934839507443
125,831.763771,0.001573439517817246
126,834.3399999999999,0.001531012941457991
127,845.94,0.0016461598552871904
128,855.74,0.0016255797824877205
129,865.65,0.0016364986088711138
130,875.6700000000001,0.0016511083344373702
131,885.81,0.0016695228591122047
132,894.01,0.0016778417981983627
133,904.36,0.0016457852213132083
134,914.8299999999999,0.002094184443536632
135,925.42,0.007843419464868634
136,933.99,0.01580979570120624
137,944.8,0.028959504520903966
138,954.992586,0.04023153430898881
139,955.74,0.04105829812069381
140,964.59,0.04449629447604162
141,975.75,0.008068632642785295
142,984.78,0.03511748517824187
143,993.9000000000001,0.038588168303752834
144,1005.4000000000001,0.05849782481070197
145,1014.71,0.05729982862632774
146,1024.1,0.025401848522001853
147,1035.95,0.03867331787916248
148,1045.54,0.07655829797495745
149,1055.21,0.07481917415080076
150,1064.98,0.057033655426704494
151,1074.83,0.06918781278265658
152,1084.78,0.05274371523866909
153,1094.81,0.07277852377472993
154,1096.4782,0.07229223830975237
155,1104.94,0.06982471433873799
156,1115.17,0.06607306547373337
157,1125.49,0.05862412280639735
158,1135.8999999999999,0.0769032663367299
159,1143.78,0.06933913786593457
160,1154.36,0.07429009532519666
161,1165.04,0.07636908744853496
162,1175.8200000000002,0.05094242423594946
163,1183.97,0.07377494435815987
164,1194.92,0.0488739250745039
165,1205.98,0.034298908921331764
166,1214.34,0.025090616838102195
167,1225.58,0.05035296308026722
168,1234.07,0.0774218810603367
169,1245.49,0.0850790096978389
170,1254.12,0.08032148620761506
171,1258.92541,0.07537459165062756
172,1265.73,0.06837077348039693
173,1274.5,0.09011460914655986
174,1286.3,0.09479561786500028
175,1295.21,0.07241908505833115
176,1304.19,0.07142665301524598
177,1316.26,0.09178854467893886
178,1325.3799999999999,0.08745931416302163
179,1334.57,0.07600399441068838
180,1343.82,0.09285335531285564
181,1356.25,0.0894962509035518
182,1365.6499999999999,0.07903849344197045
183,1375.12,0.08333330674397305
184,1384.65,0.08410631070047622
185,1394.25,0.07175659542056334
186,1403.9099999999999,0.07427636079515101
187,1413.6499999999999,0.07723921704240608
188,1423.45,0.0797698539441617
189,1436.6200000000001,0.07940305760703122
190,1443.25,0.08391345992934139
191,1445.43977,0.08494103998429504
192,1446.5700000000002,0.08547141416365166
193,1456.6000000000001,0.08257076599090765
194,1463.32,0.07565858751425364
195,1473.47,0.07600539044014082
196,1483.68,0.07777594391534358
197,1493.97,0.07922094812296712
198,1504.3200000000002,0.07444848287990627
199,1511.26,0.06590251641740942
200,1518.2399999999998,0.07093659032112296
201,1525.25,0.0685305144994943
202,1535.82,0.058875711270590596
203,1546.47,0.06396089877410768
204,1553.6,0.0608034940511102
205,1564.37,0.06279604265325846
206,1575.22,0.0672804719878275
207,1586.14,0.07093660196326473
208,1593.4599999999998,0.07225557897976663
209,1604.5,0.07110387005383505
210,1615.63,0.07126607195187684
211,1626.82,0.06759172439923422
212,1634.33,0.07225614315523547
213,1645.6599999999999,0.07343046688432923
214,1653.26,0.06821639646430387
215,1659.58691,0.07165765300859933
216,1664.72,0.07444987758283464
217,1672.4,0.06590440106109406
218,1676.26,0.07548623913740674
219,1683.99,0.07867866595862356
220,1695.6699999999998,0.07394126687347645
221,1703.49,0.07110706971201664
222,1715.3,0.06728575931855878
223,1723.22,0.06697882884301382
224,1735.16,0.07192969714124525
225,1743.17,0.07045739268302363
226,1755.2599999999998,0.07531774101012734
227,1763.36,0.06933300256922906
228,1775.58,0.07062228958802204
229,1783.7800000000002,0.07243024783303861
230,1796.1399999999999,0.07760949421211236
231,1804.4299999999998,0.07707509847445229
232,1816.94,0.07094872488239828
233,1825.33,0.07276759583065305
234,1833.75,0.07013924878468225
235,1846.46,0.06441867856445793
236,1854.99,0.06531265887299346
237,1863.55,0.06776293118730345
238,1876.47,0.07310731500750027
239,1885.1299999999999,0.0674515540077251
240,1893.83,0.06546480568231584
241,1905.46072,0.06904138748818384
242,1906.96,0.06950220409112187
243,1915.76,0.06699018568788406
244,1924.6,0.0651651938373588
245,1933.48,0.06668174853954612
246,1946.89,0.07111627283643031
247,1955.8700000000001,0.06667964892039899
248,1964.9,0.07361047069525838
249,1973.9699999999998,0.07532203902283031
250,1983.0800000000002,0.07226635390311481
251,1996.83,0.07078299889805573
252,2006.05,0.07259784429829974
253,2015.3,0.07062133711307819
254,2024.6100000000001,0.07309947475692545
255,2033.9499999999998,0.07045695981530714
256,2043.34,0.07360382056457952
257,2052.77,0.06837813786656445
258,2067.0,0.06932841149405604
259,2071.77,0.07618595040502828
260,2076.54,0.07777874931600051
261,2086.13,0.08314648282883566
262,2095.76,0.07849711289438338
263,2105.4300000000003,0.07831743951264365
264,2115.15,0.0805074118217946
265,2124.9100000000003,0.07976973068365813
266,2134.72,0.07479143523641234
267,2144.57,0.0792193163418791
268,2154.47,0.08199918313823656
269,2164.42,0.07795053562548472
270,2174.41,0.07812893466544545
271,2184.44,0.08013207025811869
272,2187.7616199999998,0.08105882542090026
273,2194.53,0.08294829906536261
274,2204.65,0.08087547443497478
275,2214.83,0.07427244392733169
276,2225.05,0.07444493616818508
277,2235.32,0.08238039184465908
278,2245.6400000000003,0.07921951095675371
279,2256.0099999999998,0.07275314350446895
280,2266.42,0.07359642880068067
281,2276.88,0.076710217532513
282,2287.39,0.08219374969996596
283,2292.66,0.07565946181437862
284,2303.25,0.07959554947882455
285,2313.88,0.07433411989176697
286,2324.56,0.060055203740330014
287,2335.29,0.06588673102451366
288,2346.07,0.06125259174431793
289,2356.9,0.0715068758997428
290,2362.33,0.061737719008141435
291,2373.23,0.06558759797343516
292,2384.19,0.05783010106147364
293,2395.19,0.062433466898008605
294,2406.25,0.0609140868572883
295,2417.36,0.06382611025218862
296,2422.9300000000003,0.07363454298032496
297,2434.1099999999997,0.07234129118509414
298,2445.35,0.07810216351260804
299,2456.64,0.07887760927574256
300,2462.3,0.07552927818799601
301,2473.66,0.07201787876099938
302,2485.08,0.0669515934567475
303,2496.5499999999997,0.06325590158811624
304,2502.31,0.07855219737161091
305,2511.88643,0.06391169615701812
306,2513.86,0.06089430290705844
307,2519.65,0.06063341893062038
308,2525.46,0.06023884442231207
309,2537.12,0.06578663434195493
310,2542.97,0.06626463876990613
311,2554.7,0.0798919268280031
312,2566.5,0.0722524230245542
313,2572.41,0.07942686585689462
314,2584.2900000000004,0.07625629992596471
315,2596.2200000000003,0.07321411266535918
316,2602.2000000000003,0.06930795363615372
317,2614.21,0.06700516424806717
318,2626.2799999999997,0.07487987326436987
319,2632.33,0.09066820237361853
320,2644.48,0.10757874926244021
321,2656.69,0.12531292455565113
322,2662.81,0.09643259180335391
323,2675.1000000000004,0.10507733496908382
324,2687.4500000000003,0.11112460653920299
325,2693.65,0.09638588165942476
326,2706.08,0.1069789111020629
327,2712.3199999999997,0.09130439515854417
328,2724.84,0.08586736220776618
329,2737.42,0.09465000766137743
330,2743.7299999999996,0.07101900985631282
331,2756.3900000000003,0.07900570318244307
332,2762.7400000000002,0.08887620431363794
333,2775.5,0.09420861498041692
334,2781.8900000000003,0.0760882350478713
335,2794.74,0.055561203321234154
336,2807.6299999999997,0.06026402053085649
337,2814.11,0.08934989820489472
338,2827.1000000000004,0.10973989275516581
339,2833.6099999999997,0.10728541963139866
340,2846.69,0.09636004178825361
341,2853.25,0.07782639733481084
342,2866.43,0.11359354683231453
343,2873.0299999999997,0.12749547131513125
344,2884.0315,0.12074261402563702
345,2886.2900000000004,0.1193563775174311
346,2892.9500000000003,0.12852767389277786
347,2913.0,0.15648656298072117
348,2933.19,0.14288885199247056
349,2946.73,0.1375147446234308
350,2967.16,0.14549543350456207
351,2987.72,0.14668122231494185
352,3008.4300000000003,0.1506235110436853
353,3029.29,0.15396019969079242
354,3050.29,0.1580998882617056
355,3071.43,0.1646082767564249
356,3092.72,0.16595456516950785
357,3106.9999999999995,0.1763349573977288
358,3128.5299999999997,0.17017054568019366
359,3150.2200000000003,0.1699907338755797
360,3172.05,0.17863322199477186
361,3186.7000000000003,0.16081891402162318
362,3208.7900000000004,0.1749349019993124
363,3231.0299999999997,0.1536201898953652
364,3253.42,0.19097377770978172
365,3268.44,0.21248706953526342
366,3291.1000000000004,0.20840105720273452
367,3306.29,0.20430464893569508
368,3311.31121,0.20436245921716076
369,3321.5499999999997,0.20448023968046466
370,3329.21,0.22122325998724257
371,3336.8799999999997,0.21184988018998235
372,3344.57,0.20712060018464584
373,3352.28,0.196073819971233
374,3360.0099999999998,0.21807023954974386
375,3367.76,0.21418505892017844
376,3375.52,0.17378177818657486
377,3383.3,0.182048797244895
378,3391.1000000000004,0.21845241609513882
379,3398.92,0.2283222347373064
380,3406.75,0.21714235327543574
381,3414.61,0.2167394715014507
382,3422.48,0.2372025896234275
383,3430.37,0.22147490753732796
384,3438.28,0.22777822524315217
385,3446.2,0.1720853428449382
386,3454.15,0.2217708601346098
387,3462.11,0.19191737732024325
388,3470.09,0.21247149429780043
389,3478.0899999999997,0.18134861106728128
390,3486.11,0.20309482762868583
391,3494.14,0.19494044408605224
392,3502.2,0.2265053602313042
393,3510.27,0.222985876272518
394,3518.3599999999997,0.20868139210565553
395,3526.47,0.19755580773071674
396,3534.6,0.22483942314770164
397,3542.75,0.2483471383566103
398,3550.92,0.2439265533574426
399,3559.1,0.23521496825423677
400,3567.3100000000004,0.2252516828389165
401,3575.53,0.19493459731955806
402,3583.77,0.17909971159212335
403,3592.0400000000004,0.1759134255525742
404,3600.32,0.24629893940898687
405,3608.6200000000003,0.21070835305732324
406,3616.94,0.21921906649758333
407,3625.27,0.23608717983380526
408,3633.63,0.23029109285791277
409,3641.28,0.23191731326872883
410,3644.04,0.21407038455419972
411,3646.79,0.22206525594370877
412,3649.54,0.1787077273332178
413,3652.2900000000004,0.18805639872272686
414,3655.05,0.21617407000819777
415,3657.7999999999997,0.2503031413977068
416,3660.55,0.23537701278721584
417,3663.2999999999997,0.2463647841767249
418,3666.05,0.22770625556623392
419,3668.81,0.22890952685170482
420,3671.56,0.21590509824121384
421,3674.31,0.2455408696307229
422,3677.06,0.23244954102023196
423,3679.81,0.221418612409741
424,3682.57,0.21895488369521188
425,3685.32,0.22451135508472095
426,3688.07,0.20078042647422997
427,3690.82,0.24169999786373902
428,3693.5800000000004,0.2224585691492099
429,3696.33,0.22561744053871896
430,3699.08,0.220436511928228
431,3701.83,0.24624478331773705
432,3704.58,0.21467405470724607
433,3707.34,0.21243862599271698
434,3710.0899999999997,0.229458497382226
435,3712.84,0.23739896877173505
436,3715.5899999999997,0.2464404401612441
437,3718.3500000000004,0.225046011446715
438,3721.1,0.26128728283622404
439,3723.8500000000004,0.2739252542257331
440,3726.6,0.3248674256152421
441,3729.3500000000004,0.3225299970047512
442,3732.11,0.31921226829022203
443,3734.8599999999997,0.25834873967973115
444,3737.61,0.21469501106924016
445,3740.3599999999997,0.23011098245874922
446,3743.11,0.2651264538482583
447,3745.87,0.23881982513372915
448,3748.62,0.21427609652323817
449,3751.37,0.20443046791274722
450,3754.1200000000003,0.21744883930225628
451,3756.88,0.24351421058772715
452,3759.63,0.2367266819772362
453,3762.38,0.26849625336674526
454,3765.1299999999997,0.2473233247562543
455,3767.88,0.24595079614576335
456,3770.6400000000003,0.2435303674312342
457,3773.39,0.2619257388207433
458,3776.14,0.24757311021025233
459,3778.89,0.27944338159976134
460,3781.64,0.2957538529892704
461,3784.4,0.3130140242747413
462,3787.15,0.30782239566425035
463,3789.9,0.3057838670537594
464,3792.65,0.2615891384432684
465,3795.4100000000003,0.24460660972873932
466,3798.16,0.23774838111824836
467,3800.9100000000003,0.2358539525077574
468,3801.8939600000003,0.23944890274645675
469,3803.66,0.24590122772561507
470,3806.41,0.2606296050764606
471,3809.17,0.2967579823449456
472,3811.9199999999996,0.3303570596957911
473,3814.67,0.30833883704663667
474,3817.42,0.30379951439748215
475,3820.17,0.30287559174832773
476,3822.93,0.26921026901681266
477,3825.6800000000003,0.2696183463676582
478,3828.43,0.24828492371850375
479,3831.1800000000003,0.23669410106934927
480,3833.94,0.21265747833783424
481,3836.6899999999996,0.21400875568867977
482,3839.44,0.20512273303952533
483,3842.1899999999996,0.21149741039037087
484,3844.94,0.2527731877412164
485,3847.7,0.28800466500970134
486,3850.4500000000003,0.2952357423605469
487,3853.2,0.3074958197113924
488,3855.9500000000003,0.32054429706223797
489,3858.71,0.30075337433072297
490,3861.46,0.30784855168156844
491,3864.21,0.311844929032414
492,3866.96,0.33633760638325955
493,3869.71,0.3324234837341051
494,3872.4700000000003,0.33109016100259003
495,3875.22,0.3149434383534356
496,3877.9700000000003,0.29374071570428106
497,3880.72,0.29751949305512665
498,3883.47,0.27113547040597213
499,3886.23,0.26539044767445713
500,3888.98,0.2483330250253027
501,3891.73,0.2363698023761482
502,3894.48,0.26059877972699375
503,3897.2400000000002,0.2766142569954787
504,3899.99,0.29596913434632427
505,3902.7400000000002,0.31714541169716975
506,3905.49,0.32133198904801535
507,3908.2400000000002,0.33030296639886086
508,3911.0,0.3442738436673458
509,3913.7499999999995,0.3645803210181913
510,3916.5,0.3446822983690369
511,3919.2500000000005,0.34258947571988246
512,3922.0,0.33565805307072794
513,3924.7599999999998,0.315160330339213
514,3927.51,0.29526240769005846
515,3930.2599999999998,0.254014385040904
516,3933.01,0.21770826239174954
517,3935.77,0.20179143966023452
518,3938.52,0.22458771701108005
519,3941.27,0.2746572943619256
520,3944.0199999999995,0.2977907717127711
521,3946.77,0.30920814906361666
522,3949.53,0.3126048263321016
523,3952.28,0.34364870368294714
524,3955.0299999999997,0.3505808810337927
525,3957.78,0.3425620583846382
526,3960.5299999999997,0.31377503573548376
527,3963.29,0.2676515130039687
528,3966.04,0.22803999035481426
529,3968.79,0.18810756770565978
530,3971.54,0.18290214505650532
531,3974.3,0.2037048223249903
532,3977.0499999999997,0.24891389967583583
533,3979.8,0.3005084770266813
534,3982.55,0.3235876543775269
535,3985.2999999999997,0.3476182317283725
536,3988.06,0.3783613089968574
537,3990.8100000000004,0.37966658634770295
538,3993.56,0.38390756369854845
539,3996.31,0.38795834104939403
540,3999.07,0.39132751831787893
541,4001.8199999999997,0.3997275956687245
542,4004.57,0.40182117301957004
543,4007.3199999999997,0.3970372503704156
544,4010.07,0.4001366277212611
545,4012.83,0.41130740498974605
546,4015.5800000000004,0.41916378234059165
547,4018.33,0.4308803596914371
548,4021.0800000000004,0.4297934370422827
549,4023.83,0.4189205143931282
550,4026.5899999999997,0.4141344916616132
551,4029.34,0.4084263690124587
552,4032.0899999999997,0.40755694636330425
553,4034.84,0.41152612371414976
554,4037.6,0.41437880098263474
555,4040.35,0.41870137833348026
556,4043.1,0.4222628556843258
557,4045.85,0.41443443303517136
558,4048.6,0.4056546103860169
559,4051.36,0.4142700876545019
560,4054.11,0.4224527650053474
561,4056.86,0.40462084235619294
562,4059.61,0.40853561970703844
563,4062.3599999999997,0.405518697057884
564,4065.12,0.40062407432636893
565,4067.87,0.40383205167721453
566,4070.62,0.40067922902806
567,4073.37,0.40579020637890556
568,4076.13,0.3961928836473906
569,4078.8799999999997,0.38801106099823607
570,4081.63,0.39970033834908164
571,4084.38,0.40568111569992715
572,4087.13,0.4071222930507727
573,4089.89,0.4036139703192576
574,4092.6400000000003,0.3982864476701032
