,lambda (Angstroms),Total Flux (erg/s/cm^2/Angstrom)
0,100.07000000000001,0.003658959007694555
1,101.93,0.004397699842492541
2,104.06,0.005243677217875671
3,104.712855,0.005502973337432476
4,106.0,0.005076423374617211
5,107.97,0.004423580815410266
6,109.98,0.003757483491110898
7,114.1,0.002392149472871619
8,118.11,0.0010632702602872402
9,120.22644299999999,0.0003619313636112364
10,120.86,0.00035222677764991503
11,125.11,0.000287083473967807
12,127.15,0.00025581569077239507
13,128.03,0.00024233136929868802
14,131.01,0.00019666051371499828
15,131.92000000000002,0.00018273630587400537
16,134.06,0.0001499431659743088
17,136.87,0.00010692632337190323
18,138.038426,8.902791295996071e-05
19,140.06,8.796477660492155e-05
20,142.98999999999998,8.703014815888109e-05
21,146.99,8.671099280933781e-05
22,151.10999999999999,8.499368188930826e-05
23,154.99,8.352719211025127e-05
24,158.489319,8.2289524004908e-05
25,158.96,8.198630028565134e-05
26,161.92000000000002,8.013320754863895e-05
27,166.07,7.768133792748985e-05
28,169.94,7.546372180849056e-05
29,173.1,7.368901542708545e-05
30,177.13,7.154644159257198e-05
31,180.01,7.01255187133167e-05
32,181.970086,6.916505286105532e-05
33,182.1,6.924428158837644e-05
34,185.91,7.175980173321693e-05
35,191.12,7.521762857169957e-05
36,194.21999999999997,7.749701267905009e-05
37,197.82999999999998,8.034148901051311e-05
38,201.98000000000002,8.359633063809526e-05
39,204.79000000000002,8.603635171604848e-05
40,208.929613,8.858702165562429e-05
41,210.04,9.077948059034219e-05
42,215.92,0.00010531524234829207
43,219.94,0.0001148260242644415
44,223.0,0.00012167360303643584
45,227.14000000000001,0.00013180175784560468
46,229.77,0.00015788859041761287
47,234.04999999999998,0.0002107218702686376
48,239.88329199999998,0.00025133057038006124
49,240.04999999999998,0.00025199672068711745
50,246.21,0.0002446802622294841
51,251.94,0.0002541507984369129
52,257.21999999999997,0.00022993481975894155
53,260.2,0.0002499918427778137
54,263.82,0.0002590946714114772
55,268.72,0.0002595410112747234
56,273.72,0.00025969449889028085
57,275.42287,0.00025979597580222705
58,278.8,0.00026935069049979467
59,283.99,0.00028414894879104016
60,289.93,0.00029124040221107836
61,296.01,0.0003119156733884911
62,300.82,0.0003237907834811483
63,307.82,0.0003452104713498802
64,316.227766,0.000371936067811637
65,317.91,0.0003731153548930605
66,328.32,0.00037512538193542125
67,338.3,0.0003744641462853502
68,347.78000000000003,0.0003740753749464049
69,356.7,0.0003725861196359206
70,363.078055,0.0003729779434948086
71,365.85,0.000378318137061636
72,375.23,0.000392251186373851
73,384.86,0.0003980156239939609
74,394.73,0.0004218271743896498
75,404.86,0.0004382719886255494
76,414.29,0.0004497576155993433
77,416.86938299999997,0.00045238163863534444
78,421.99,0.00045591627635797817
79,429.83,0.00046207457275663296
80,440.86,0.0004729054359297403
81,451.13,0.00047872950200297804
82,459.52,0.00048441458577653846
83,470.22,0.0004912419765247025
84,478.630092,0.0004987790440516952
85,480.06,0.000498439472812596
86,490.12,0.0004887680997581358
87,500.38,0.00048777149702068423
88,506.17,0.0004816434676980873
89,512.04,0.000495922486502294
90,520.35,0.0004922720231740072
91,530.03,0.00048519614651723034
92,539.88,0.0004713469346299109
93,549.5408739999999,0.0004699428265839018
94,549.92,0.0004700521962971268
95,560.14,0.0004824571413515747
96,570.5600000000001,0.0004926698203601214
97,579.83,0.00048803092913260004
98,590.61,0.0004994261492585246
99,600.21,0.0004909819790552663
100,609.96,0.00046595980931758203
101,619.87,0.0005240380467431769
102,629.9399999999999,0.0005269465913320506
103,630.957344,0.0005284689173190441
104,640.1800000000001,0.0005468023382493418
105,650.58,0.0005624984509115399
106,658.1099999999999,0.0005656944509448428
107,665.7299999999999,0.000595653045799261
108,674.99,0.0006168998907273335
109,684.38,0.0006043577170636836
110,695.5,0.000675045488294803
111,705.18,0.0006460027423880796
112,716.6400000000001,0.0007400846496100787
113,724.43596,0.0007641972972960276
114,726.61,0.0007706571208767667
115,735.02,0.0007982047867780537
116,745.2499999999999,0.0008335285407816405
117,755.61,0.0008688916653639633
118,764.36,0.0008516295158557896
119,775.0,0.0009556863924538507
120,785.78,0.000965113445059781
121,794.88,0.0010391392855712805
122,804.0799999999999,0.0010969064803741154
123,815.27,0.0011467204555745197
124,824.71,0.0012209459806765588
125,831.763771,0.0011085921016101862
126,834.26,0.0010675572558717541
127,845.8599999999999,0.001300478859958914
128,855.6600000000001,0.0013354269478946183
129,865.56,0.0014276220367276254
130,875.59,0.0015047246267271266
131,885.73,0.0015901827177136614
132,895.98,0.0016633333096872295
133,904.27,0.0016892918840736566
134,914.74,0.0020276424780212915
135,925.34,0.00825094057313542
136,936.05,0.016776825169236585
137,944.71,0.03037793424694303
138,954.992586,0.0420241576064033
139,955.65,0.042768949066522365
140,964.4899999999999,0.04721082004519666
141,975.66,0.00908802113024099
142,984.69,0.038038312598275933
143,996.09,0.041603721959914734
144,1005.31,0.06277960191731032
145,1014.6099999999999,0.06220593744917355
146,1024.0,0.029544778002312873
147,1035.86,0.04436624191714061
148,1045.44,0.08484986195964059
149,1055.11,0.08349493702341663
150,1064.8799999999999,0.06512677655527727
151,1074.73,0.07864702166160552
152,1084.6699999999998,0.06191594178920987
153,1094.71,0.08407199638489878
154,1096.4782,0.08357417034291631
155,1104.84,0.08121897081639122
156,1115.06,0.07792158133643654
157,1125.3799999999999,0.06961278454258797
158,1135.79,0.09090206216623489
159,1146.3,0.08309834247598795
160,1154.25,0.08903563602142438
161,1164.93,0.09152460689755784
162,1175.71,0.0616199804597974
163,1183.8600000000001,0.08964734937744605
164,1194.81,0.062037743506066036
165,1205.87,0.04527082858940274
166,1214.23,0.03396297114787425
167,1225.46,0.06435808679759135
168,1233.96,0.09648712511661142
169,1245.37,0.10579385960131954
170,1254.0100000000002,0.10103066368088819
171,1258.92541,0.09542243155184467
172,1265.6100000000001,0.08779689495447815
173,1274.3799999999999,0.11413630295930491
174,1286.17,0.12006354815621567
175,1295.0900000000001,0.09385878800833138
176,1304.07,0.09342487859936263
177,1316.13,0.1186908171213935
178,1325.26,0.11360992955971372
179,1334.44,0.1003364426137969
180,1343.6899999999998,0.12089995652994827
181,1356.1200000000001,0.11733540960862518
182,1365.52,0.10482322537206548
183,1374.99,0.11026724199757397
184,1384.52,0.11154375936199802
185,1394.1200000000001,0.09429338758849025
186,1403.78,0.09738270655389805
187,1413.51,0.10385821638137403
188,1426.5900000000001,0.10676987746496969
189,1436.48,0.1072649992628872
190,1443.11,0.1133505809130584
191,1445.43977,0.11463967904171768
192,1446.44,0.11519311994322905
193,1456.46,0.1118000235106603
194,1466.5600000000002,0.10314532790497724
195,1473.33,0.1038593978801778
196,1483.5400000000002,0.10652740341146255
197,1493.82,0.10850570966627225
198,1504.18,0.10243761674796766
199,1511.12,0.09109640848030028
200,1518.1,0.09782894062607575
201,1525.1000000000001,0.09516877297857262
202,1535.68,0.08194585233420364
203,1546.32,0.0880024423099989
204,1553.46,0.08424231610954572
205,1564.23,0.08759875742903021
206,1575.0700000000002,0.09407538947203968
207,1585.99,0.09919086234193482
208,1593.31,0.10103403800197441
209,1604.35,0.09964888211219806
210,1615.47,0.09988118704930742
211,1626.67,0.09516931281330243
212,1634.18,0.10196886043719552
213,1645.51,0.10362217754487976
214,1653.1000000000001,0.09671355599565852
215,1659.58691,0.10144029360092892
216,1664.56,0.10506429842554565
217,1672.24,0.09364419813031015
218,1676.1000000000001,0.10677326949234023
219,1683.8400000000001,0.1110339537260482
220,1695.51,0.10458323460555362
221,1703.3300000000002,0.10080642487785288
222,1715.14,0.09539324632489307
223,1723.06,0.09495403414543145
224,1734.9999999999998,0.10174261540518251
225,1743.0100000000002,0.0996553000191361
226,1755.09,0.10629123184642193
227,1763.19,0.09806456325379073
228,1775.41,0.09965862564861132
229,1783.61,0.10221028460421924
230,1795.97,0.1090171175665746
231,1804.26,0.10851684331559774
232,1816.77,0.09989293760031177
233,1825.15,0.10245182014275012
234,1833.58,0.09874700645930802
235,1846.29,0.0908982658405003
236,1854.8100000000002,0.09174087895047342
237,1863.3700000000001,0.09474527507974219
238,1876.29,0.10221738031223662
239,1884.95,0.0940932939897445
240,1893.65,0.09069465068654803
241,1905.46072,0.09592159239076878
242,1906.78,0.0965052238251023
243,1915.5800000000002,0.09280599760585191
244,1924.42,0.09069372749469584
245,1933.3,0.0938786934916341
246,1946.7,0.0982964497032301
247,1955.6899999999998,0.09173957499742771
248,1969.2399999999998,0.10104747661437742
249,1973.78,0.10387343488308234
250,1982.8899999999999,0.09874577850156291
251,1996.64,0.09627725065898417
252,2005.86,0.09919964357472412
253,2015.11,0.09627642357153479
254,2024.41,0.10034640870346337
255,2033.76,0.09539469897050984
256,2043.1499999999999,0.09919697534565061
257,2057.31,0.09279230761103863
258,2066.81,0.0942985632834388
259,2076.35,0.10244065506393327
260,2085.93,0.10434462295252206
261,2095.56,0.09873363597622874
262,2105.23,0.09941674510802974
263,2114.95,0.10103279937494863
264,2124.71,0.10173424974996184
265,2134.52,0.09538466526009294
266,2144.37,0.09827732687831837
267,2154.27,0.1019625736316617
268,2164.21,0.09850105649309933
269,2174.2,0.09804875448965486
270,2184.2400000000002,0.09759552762132828
271,2187.7616199999998,0.09903902472031138
272,2194.3199999999997,0.10172842374024996
273,2204.45,0.0991841595717803
274,2214.62,0.0936367685062979
275,2224.8399999999997,0.09193485131954961
276,2235.1099999999997,0.09872877801153544
277,2245.43,0.09494459858225536
278,2255.8,0.0898427930317094
279,2266.21,0.09150945058415073
280,2276.67,0.09429388201532617
281,2287.18,0.09782910732523571
282,2292.45,0.09151207614381071
283,2303.03,0.093686126883948
284,2313.66,0.08891924150281941
285,2324.34,0.07167677000042492
286,2335.0699999999997,0.08159051237676454
287,2345.85,0.07851447863183827
288,2356.67,0.0863475279898993
289,2367.5499999999997,0.07826625200244124
290,2373.01,0.08104402556020585
291,2383.96,0.07448332500297554
292,2394.97,0.07931796910022616
293,2406.02,0.07668270630046409
294,2417.13,0.07906970815518292
295,2422.7000000000003,0.08612633024616258
296,2433.88,0.08345382753110916
297,2445.12,0.0886668294705367
298,2456.4,0.0883206545129515
299,2467.74,0.08657520420984724
300,2473.4300000000003,0.08309648560978876
301,2484.85,0.08201709151265907
302,2496.3199999999997,0.07607896129426349
303,2507.84,0.08902634495460202
304,2511.88643,0.07977948819055557
305,2513.62,0.07581776680738067
306,2519.4100000000003,0.07725207297163762
307,2525.2200000000003,0.07534750853542568
308,2536.88,0.07841078846206403
309,2542.7300000000005,0.07754389282491432
310,2554.46,0.08666350064991159
311,2566.25,0.08206693667350216
312,2572.1699999999996,0.08776719893471135
313,2584.0400000000004,0.08583194255642639
314,2595.9700000000003,0.08375021437673474
315,2607.95,0.0806002746958709
316,2613.96,0.07879946425497009
317,2626.0299999999997,0.08410343187199625
318,2632.08,0.09245953023015765
319,2644.23,0.10381248544530826
320,2656.44,0.11235071885905219
321,2662.56,0.0947964751155725
322,2674.85,0.10094886612744089
323,2687.2000000000003,0.10361589533790261
324,2693.39,0.09475894949278181
325,2705.8199999999997,0.10045353630136798
326,2712.06,0.09123638895507495
327,2724.58,0.08902638306155114
328,2737.1600000000003,0.09502546536662065
329,2743.4700000000003,0.07835556591868652
330,2756.13,0.08287263582188048
331,2762.48,0.08862231517300856
332,2775.23,0.09308385237409254
333,2788.04,0.08246262777376984
334,2794.47,0.06539588472302238
335,2807.3700000000003,0.06996117742058969
336,2813.84,0.09035408316890445
337,2826.8300000000004,0.10168860316436176
338,2833.35,0.09872794741150431
339,2846.42,0.09285620500508607
340,2852.9900000000002,0.0828022277510564
341,2866.15,0.10311622264252815
342,2872.7599999999998,0.1090184241875607
343,2884.0315,0.10573881031073565
344,2886.0200000000004,0.10516028455650012
345,2892.67,0.10890198047049703
346,2912.73,0.12489396814489973
347,2932.92,0.11725165573942568
348,2953.25,0.11419954324793051
349,2966.88,0.11858273487316026
350,2987.44,0.11901052224034467
351,3008.15,0.12165930951536362
352,3029.0,0.12294089670436144
353,3050.0,0.12481438380119378
354,3071.14,0.127592170812005
355,3092.43,0.12864775773065074
356,3106.7,0.1329760489626411
357,3128.24,0.12982603572767767
358,3149.92,0.12970432240669316
359,3171.76,0.1338232089873988
360,3186.39,0.12328919999819199
361,3208.48,0.13167548642528848
362,3230.7200000000003,0.11970597276021949
363,3253.12,0.13921355899684065
364,3268.13,0.15068944977414794
365,3290.7799999999997,0.14848623585715998
366,3311.31121,0.1468373385546107
367,3313.6,0.14665349635868483
368,3321.24,0.1473988066218423
369,3328.89,0.15584021676754312
370,3336.56,0.15844712667833077
371,3344.26,0.14726443623674862
372,3351.9700000000003,0.14200874567770988
373,3359.69,0.15649395500121455
374,3367.44,0.15125546397234937
375,3375.2,0.12910497282602762
376,3382.98,0.13370088144479267
377,3390.7799999999997,0.15535118982864451
378,3398.6,0.15686459797758315
379,3406.43,0.1523117060090652
380,3414.28,0.15308651380563407
381,3422.1600000000003,0.16486672124983312
382,3430.04,0.15608382869403215
383,3437.9500000000003,0.1565168357858614
384,3445.88,0.12641814264277743
385,3453.82,0.1621683493822369
386,3461.7799999999997,0.14197105588678313
387,3469.76,0.14907566215641618
388,3477.7599999999998,0.139516568191136
389,3485.78,0.14751237399094266
390,3493.81,0.1422451796732927
391,3501.8700000000003,0.14799468500327295
392,3509.9399999999996,0.1536221902157966
393,3518.0299999999997,0.14278209519340704
394,3526.14,0.14252539993610427
395,3534.27,0.15706450444388834
396,3542.42,0.17032790871675915
397,3550.58,0.1684606128721734
398,3558.77,0.16059231667521784
399,3566.97,0.16708132036080567
400,3575.1899999999996,0.14001622381148032
401,3583.44,0.13194652690978514
402,3591.7,0.1290102298906334
403,3599.98,0.16511513263656843
404,3605.93,0.047520302749891316
405,3608.6800000000003,0.23225753044932626
406,3611.42,0.18494679826621782
407,3614.17,0.08370706596565275
408,3616.91,0.0812779337825443
409,3619.6600000000003,0.24301890148197924
410,3622.4,0.18539856929887077
411,3625.1499999999996,0.08313327699830574
412,3627.89,0.3371300048151973
413,3630.64,-0.06585092748536776
414,3633.3900000000003,0.015450010214067176
415,3636.13,0.15128340803095874
416,3638.88,0.28548327573039367
417,3641.62,0.46486604354728517
418,3644.37,0.16040841124672017
419,3647.11,0.02686606906361171
420,3649.8599999999997,0.2771272467630466
421,3652.6,0.28416591457993823
422,3655.35,0.45018538227937316
423,3658.1000000000004,0.16068264997880807
424,3660.84,0.18541621779569964
425,3663.5899999999997,0.14726638549513457
426,3666.33,0.2610071533120262
427,3669.08,0.2643941210114611
428,3671.82,0.06047579882835262
429,3674.5699999999997,0.20430135652778758
430,3677.31,0.06582219434467912
431,3680.06,-0.03647889795588594
432,3682.8100000000004,0.114091459743549
433,3685.55,0.028176707560440554
434,3688.2999999999997,0.0922394652598755
435,3691.04,0.05170604307676705
436,3693.79,0.20319003077620199
437,3696.53,0.3130672985930935
438,3699.2799999999997,0.22852136629252848
439,3702.02,0.05080320410942003
440,3704.77,0.15545760180885498
441,3707.5200000000004,0.17690626950828994
442,3710.26,0.14586843732518148
443,3713.0099999999998,0.1375545050246164
444,3715.75,0.27788397284150795
445,3718.5,0.3378052405409429
446,3721.2400000000002,0.16213540835783447
447,3723.99,0.1940828760572694
448,3726.7400000000002,0.10407434375670434
449,3729.48,0.1185958115735959
450,3732.2300000000005,0.18058667927303082
451,3734.9700000000003,0.1857205470899224
452,3737.72,0.14985361478935735
453,3740.46,0.12227038260624888
454,3743.21,-0.0077753886943161725
455,3745.9500000000003,0.11990211812257538
456,3748.7,0.17238928582201032
457,3751.4500000000003,0.20707115352144526
458,3754.19,0.32614682133833683
459,3756.9399999999996,0.25509058903777176
460,3759.6800000000003,0.1814963568546633
461,3762.43,0.21135012455409824
462,3765.17,0.1714066923709898
463,3767.92,0.20878046007042472
464,3770.6600000000003,0.13465502788731631
465,3773.41,0.11864409558675124
466,3776.16,0.1866655632861862
467,3778.9,0.2891141311030777
468,3781.6499999999996,0.3153051988025127
469,3784.3900000000003,0.21888866661940423
470,3787.14,0.14927313431883918
471,3789.88,0.22563360213573072
472,3792.63,0.22334406983516567
473,3795.3700000000003,0.2225755376520572
474,3798.12,0.22347840535149213
475,3800.87,0.28616477305092713
476,3801.8939600000003,0.29619045054793214
477,3803.61,0.31299234506756596
478,3806.3599999999997,0.3219643194972083
479,3809.1000000000004,0.2220807940198337
480,3811.85,0.281550568449476
481,3814.59,0.29792204297210145
482,3817.34,0.29242781740174373
483,3820.08,0.1367053919243692
484,3822.83,0.09322079635401152
485,3825.58,0.13196804078365384
486,3828.32,0.14250991530627927
487,3831.0699999999997,0.09667536973592157
488,3833.8100000000004,0.09205496425854702
489,3836.56,0.17817463868818934
490,3839.2999999999997,0.22294131321081476
491,3842.05,0.07554366764045709
492,3844.79,0.17979886216308252
493,3847.54,0.23060123659272483
494,3850.29,0.24036691102236715
495,3853.03,0.23920178554499258
496,3855.7799999999997,0.1952286599746349
497,3858.5199999999995,0.08602407449726034
498,3861.27,0.2695620089269027
499,3864.0099999999998,0.2463251834495281
500,3866.76,0.2468678578791704
501,3869.5,0.17402433240179585
502,3872.25,0.15416180683143815
503,3875.0,0.1269319812610805
504,3877.7400000000002,0.20101545578370592
505,3880.49,0.11301503021334823
506,3883.2299999999996,0.1998497047359737
507,3885.98,0.18963127916561598
508,3888.72,0.11487705368824142
509,3891.4700000000003,0.07913232811788373
510,3894.21,0.24724070264050918
511,3896.96,0.18604837707015148
512,3899.71,0.29007665149979384
513,3902.4500000000003,0.22313582602241924
514,3905.2,0.14007950045206155
515,3907.9399999999996,0.21407157497468698
516,3910.69,0.20249194940432932
517,3913.43,0.15125012392695475
518,3916.1800000000003,0.21557269835659706
519,3918.92,0.3085482728792225
520,3921.67,0.30175994730886485
521,3924.42,0.12663852173850712
522,3927.1600000000003,0.21183119626113256
523,3929.91,0.21562117069077488
524,3932.6499999999996,0.15275754521340032
525,3935.4,0.17918091964304264
526,3938.14,0.2626585941656681
527,3940.8900000000003,0.1606006685953104
528,3943.63,0.17371234311793582
529,3946.38,0.13589211754757813
530,3949.13,0.23610559197722047
531,3951.87,0.2194363664998459
532,3954.62,0.2665640409294882
533,3957.3599999999997,0.19346431545211362
534,3960.11,0.20861368988175596
535,3962.85,0.26153526440438135
536,3965.6000000000004,0.1588669388340237
537,3968.35,0.15514931326366604
538,3971.0899999999997,0.11449768778629146
539,3973.84,0.18655996221593377
540,3976.58,0.20933413673855922
541,3979.33,0.17856391116820153
542,3982.0699999999997,0.19448348569082696
543,3984.82,0.2697624601204693
544,3987.56,0.2717835346430947
545,3990.3100000000004,0.263731809072737
546,3993.06,0.2857418835023794
547,3995.7999999999997,0.3125205580250048
548,3998.55,0.2908448324546471
549,4001.29,0.33484880697727254
550,4004.04,0.2795222814069149
551,4006.7799999999997,0.2278838559295403
552,4009.53,0.1863829303591826
553,4012.27,0.11043840488180805
554,4015.0200000000004,0.13831467931145036
555,4017.77,0.2102121537410927
556,4020.5099999999998,0.1992012282637181
557,4023.26,0.16900480269336043
558,4026.0,0.20683727721598588
559,4028.75,0.28276925164562816
560,4031.49,0.30424972616825363
561,4034.2400000000002,0.23649570059789593
562,4036.98,0.19879247512052137
563,4039.7300000000005,0.2320277495501637
564,4042.48,0.257565923979806
565,4045.22,0.27961999850243147
566,4047.9700000000003,0.21708497293207377
567,4050.71,0.20200274745469918
568,4053.46,0.25502072188434155
569,4056.2,0.33367039640696694
570,4058.9500000000003,0.28112117083660926
