,lambda (Angstroms),Total Flux (erg/s/cm^2/Angstrom)
0,100.09,0.0002520101226478686
1,101.94999999999999,0.0003026520935623807
2,104.08000000000001,0.0003603591165128715
3,104.712855,0.0003775557242954095
4,106.02000000000001,0.0003483184580397718
5,107.99,0.000304345924959493
6,110.0,0.0002605641467049948
7,114.12,0.00016863188176045153
8,118.13000000000001,7.898854779501005e-05
9,120.22644299999999,4.072170807695322e-05
10,120.89000000000001,4.28702126376227e-05
11,125.13,4.0714771627035586e-05
12,126.87,3.990300163684179e-05
13,128.05,3.934369819521612e-05
14,131.03,3.753928441890725e-05
15,131.94,3.923193252748407e-05
16,134.07999999999998,3.788252357402737e-05
17,136.89,3.8984464107105237e-05
18,138.038426,3.84078516592546e-05
19,140.07999999999998,3.9436311567926135e-05
20,143.01,6.443384507337147e-05
21,147.02,0.00010292400785727446
22,151.14000000000001,0.00010782480991953888
23,155.02,0.00011423502991992382
24,158.489319,0.00012021301241708365
25,158.99,0.00012106584446057335
26,161.95000000000002,0.000126072866769678
27,166.1,0.00013360335852061862
28,169.97000000000003,0.00013977079275583312
29,173.13,0.00014530509900474213
30,177.16,0.00015206028039180011
31,180.04,0.00015708552912498304
32,181.970086,0.00016059620518861994
33,182.13,0.00016089903591734502
34,185.94,0.00016799540661148831
35,191.15,0.00017661336784941133
36,193.81,0.00018312969988259275
37,197.87,0.00018991102245955388
38,202.01,0.00019740460163901672
39,204.82,0.0002033356648018888
40,208.929613,0.0002048353388513232
41,210.07999999999998,0.0002053613897574154
42,215.96,0.00022387254523040077
43,219.98,0.0002319880392782581
44,223.04000000000002,0.0002360145854937913
45,227.17999999999998,0.00024511374802068915
46,229.81,0.0003613642488529938
47,234.09,0.0005876302912721056
48,239.88329199999998,0.0007141935646318185
49,240.09,0.0007186677316549371
50,246.25,0.0006798569560622745
51,251.98999999999998,0.0007014035356236573
52,257.26,0.0005800840245240904
53,260.24,0.0006694189950977699
54,263.86,0.0006923642721033805
55,268.77000000000004,0.0006840027511358524
56,273.76,0.0006727727434723157
57,275.42287,0.0006691154696535131
58,278.85,0.0006622233527925589
59,284.03999999999996,0.0006552431519434541
60,289.99,0.0006180157569430352
61,296.06,0.0006186119312871458
62,300.87,0.0005928786775136981
63,307.88,0.0005922233617232886
64,316.227766,0.0005897304810669376
65,317.96,0.0005889213511558495
66,327.62,0.0005711117794746686
67,338.35999999999996,0.0005499541805247843
68,347.84000000000003,0.0005284330300550541
69,356.76,0.0005124144677987257
70,363.078055,0.0005047899599202563
71,365.90999999999997,0.0005017315708157234
72,375.3,0.00048538857296498314
73,384.91999999999996,0.0004549819611093792
74,394.8,0.0004534585029874075
75,404.93,0.00044184514268623605
76,414.36,0.00042762236848682385
77,416.86938299999997,0.00042282232711398016
78,422.06,0.00041277809681210893
79,429.91,0.00039930942671759673
80,440.94,0.0003881452227504031
81,451.21000000000004,0.00037310706964586293
82,459.6,0.00036022891078051804
83,470.3,0.00034791039995105556
84,478.630092,0.00034039770407371175
85,480.15000000000003,0.00033890977390371713
86,490.2,0.0003229636647498578
87,500.47,0.000316792934500093
88,506.26,0.00031724842474876503
89,512.13,0.00038273501641710784
90,520.45,0.0003738551640628681
91,530.12,0.0003626687731655725
92,539.98,0.0003416241731399951
93,549.5408739999999,0.00036083755713561415
94,550.02,0.00036181453475752734
95,560.24,0.0003818214647354513
96,569.35,0.0003921740942950294
97,579.9300000000001,0.0003738475000843088
98,589.35,0.0003954714171481096
99,600.3100000000001,0.00038297441407159755
100,610.06,0.00038984313396247416
101,619.98,0.00043352523409760196
102,630.0500000000001,0.00043933429915412784
103,630.957344,0.0004394980858487556
104,640.2900000000001,0.00044149464414321274
105,650.69,0.00046221418261748034
106,658.23,0.0004665599480113243
107,664.32,0.0004872293931371214
108,675.11,0.000493029614304174
109,684.5,0.00047455347452276755
110,695.63,0.0005514866190630173
111,705.3,0.0005165377514713028
112,716.76,0.0005975395275208322
113,724.43596,0.0006082815510607923
114,726.73,0.000611472944290747
115,735.15,0.0006270320608778878
116,745.3799999999999,0.0006668628362563261
117,755.75,0.0006917011399390636
118,764.5,0.000699736358957767
119,775.13,0.0007578767009199175
120,784.1099999999999,0.0007896745307242553
121,795.02,0.0008209621292950042
122,804.2199999999999,0.0008496305607203837
123,815.41,0.0008713226158997313
124,824.85,0.000930982567275338
125,831.763771,0.0008395846519054776
126,834.4,0.0008046430031701997
127,844.0699999999999,0.0009697589727430721
128,855.8100000000001,0.0009941727796495378
129,865.7199999999999,0.0010523239376089139
130,875.74,0.0011063414777454372
131,885.88,0.0011711961620752124
132,894.08,0.0012174300152807504
133,904.43,0.0012283707019487165
134,914.9,0.0016580705328099342
135,925.4999999999999,0.008893815269880508
136,934.0600000000001,0.0186600015556658
137,944.88,0.03482021405709067
138,954.992586,0.04635044748024622
139,955.82,0.047293870281475
140,964.66,0.05543819702942246
141,975.83,0.011349895012971458
142,984.86,0.051976391046225486
143,993.98,0.05185665674094051
144,1005.49,0.06835780344556441
145,1014.79,0.06306806846320144
146,1024.18,0.02684396314229949
147,1036.04,0.046645118530382855
148,1045.6200000000001,0.08161935249478745
149,1055.3,0.08012890608303762
150,1065.06,0.06619160937036422
151,1074.92,0.0759940022815364
152,1084.87,0.06277644485416957
153,1094.9,0.07758892712587918
154,1096.4782,0.07707106282455296
155,1105.03,0.07426484050947023
156,1115.26,0.07223955007216092
157,1125.5800000000002,0.06528304857528583
158,1135.99,0.07794668601884495
159,1143.8700000000001,0.07108356324797521
160,1154.45,0.07409222869013235
161,1165.13,0.07582122295499417
162,1175.92,0.05543634592483116
163,1184.07,0.0719094399752641
164,1195.02,0.052819701061428616
165,1206.0800000000002,0.040160420852568296
166,1214.44,0.023704522430681108
167,1225.68,0.04783879010268924
168,1234.17,0.06851478015031816
169,1245.59,0.07460671570319476
170,1254.23,0.07223799398488073
171,1258.92541,0.06876104426978075
172,1265.83,0.06364828448796005
173,1274.61,0.07758589184035361
174,1286.4,0.07994030171332858
175,1295.3200000000002,0.06695229918295849
176,1304.3,0.06572962670283256
177,1316.3600000000001,0.07758711680190618
178,1325.49,0.0744341744473906
179,1334.68,0.0677309721431192
180,1343.93,0.07634452988909192
181,1356.3600000000001,0.07392393029800444
182,1365.76,0.06757394816958753
183,1375.23,0.0696268060997888
184,1384.76,0.06994737408023421
185,1394.3600000000001,0.061204092119297795
186,1404.03,0.06277470021697955
187,1413.76,0.06498034836490546
188,1423.5600000000002,0.06528171657144953
189,1433.43,0.06498051483661177
190,1443.36,0.06742103315201817
191,1445.43977,0.06771003548584491
192,1446.6899999999998,0.06788376577231343
193,1453.37,0.06618871046717299
194,1463.44,0.06191087754460348
195,1473.59,0.06134705467825984
196,1483.8000000000002,0.061629211854085604
197,1494.09,0.06205379908613722
198,1504.44,0.059127186360358235
199,1511.3899999999999,0.053921791244980075
200,1518.36,0.05659646614365839
201,1525.3700000000001,0.05518308107044963
202,1535.95,0.04906541850632
203,1546.59,0.05173554598435977
204,1553.73,0.04918094100251804
205,1564.5,0.05009260857192483
206,1575.3500000000001,0.05281871619755749
207,1586.27,0.05429922387238779
208,1593.59,0.055182549017054244
209,1604.6299999999999,0.053430436776223326
210,1615.76,0.05318653459864651
211,1623.21,0.05079013983467999
212,1634.47,0.0530626077484702
213,1645.8,0.053305725711458044
214,1653.39,0.04997820104588679
215,1659.58691,0.05184511376124561
216,1664.85,0.0534307224144861
217,1672.5400000000002,0.04872680188407917
218,1676.39,0.05343036164453864
219,1684.13,0.054676581370761056
220,1695.8100000000002,0.051734881319375765
221,1703.6299999999999,0.04986370145620513
222,1715.44,0.04783938207205613
223,1723.36,0.04729260272214419
224,1735.31,0.04951975405655735
225,1743.32,0.04828301516857822
226,1755.4,0.050441477170227685
227,1763.5,0.046859368744181375
228,1775.73,0.04772997151571886
229,1783.9199999999998,0.048059443551605366
230,1796.2900000000002,0.05009318704170502
231,1804.5800000000002,0.04963473959085022
232,1817.0900000000001,0.046536963799512034
233,1825.4799999999998,0.04696712686191592
234,1833.8999999999999,0.04547780007829741
235,1846.61,0.0421507753134766
236,1855.14,0.04224719909444265
237,1863.7,0.0431323830293863
238,1876.62,0.04537336934240874
239,1885.28,0.04224765379061107
240,1893.98,0.040626468444116895
241,1905.46072,0.04221481896558373
242,1907.11,0.04244297645833656
243,1915.91,0.04109719823787459
244,1924.76,0.040068979686614534
245,1933.64,0.04081369093687563
246,1947.04,0.04244282228299036
247,1956.03,0.03988473280549568
248,1965.06,0.04254076306336255
249,1974.13,0.04333130305659094
250,1983.24,0.04128643278518088
251,1996.9899999999998,0.04016097181570904
252,2006.21,0.04081303081654321
253,2015.47,0.0397928495527389
254,2024.77,0.04081304802429613
255,2034.1200000000001,0.03915596616505529
256,2043.51,0.039976004041175975
257,2052.94,0.037739721652658195
258,2067.17,0.0381769875075248
259,2071.93,0.04053205601554764
260,2076.71,0.039156014391251256
261,2086.3,0.04016045094417963
262,2095.93,0.038176757232469535
263,2105.6,0.03844143325612098
264,2115.32,0.038618378948974345
265,2125.08,0.038797104377189244
266,2134.8900000000003,0.03671121947460607
267,2144.75,0.03722145424122482
268,2154.65,0.0380883587432051
269,2164.59,0.03679544298054691
270,2174.58,0.036542016887090654
271,2184.62,0.0361235204628363
272,2187.7616199999998,0.03649248419367365
273,2194.7,0.03730743627695916
274,2204.83,0.036291079711257335
275,2215.01,0.034737693409298345
276,2225.24,0.03386856737108219
277,2235.51,0.035628501543860304
278,2245.83,0.03433966598038125
279,2256.19,0.03302183062789646
280,2266.61,0.033327035591903066
281,2277.0699999999997,0.03394702076690395
282,2287.58,0.034498716205647664
283,2292.85,0.03271968400414237
284,2303.43,0.03295957981212605
285,2314.07,0.03186097593660114
286,2324.75,0.026825572272070483
287,2335.48,0.029979558871282667
288,2346.26,0.028913715734237688
289,2357.09,0.030788032860935538
290,2362.52,0.028676651503407313
291,2373.43,0.0292958790520937
292,2384.38,0.027358866811774355
293,2395.39,0.02866710488794641
294,2406.44,0.027776493175112733
295,2417.55,0.028116381778770454
296,2423.13,0.02951862121247073
297,2434.31,0.028470200185368423
298,2445.5499999999997,0.029626109474757516
299,2456.83,0.029239738975140872
300,2462.5,0.02891487888357825
301,2473.86,0.027952398805950147
302,2485.28,0.02810056904481344
303,2496.76,0.02642496960016813
304,2502.51,0.029117609930594045
305,2511.88643,0.026904326704524615
306,2514.0600000000004,0.02639124495255703
307,2519.8599999999997,0.02676732311180824
308,2525.67,0.02598713125064436
309,2537.32,0.026245487467071355
310,2543.17,0.02595424552424714
311,2554.9100000000003,0.02751091155693838
312,2566.71,0.02677969746713911
313,2572.62,0.027922345401824387
314,2584.5,0.027558331148704446
315,2596.4300000000003,0.027137216793509087
316,2602.41,0.02622523458528878
317,2614.42,0.025824170066772744
318,2626.4900000000002,0.026750535425766202
319,2632.55,0.027700063054225222
320,2644.7,0.02970220824989801
321,2656.8999999999996,0.030555993343495375
322,2663.03,0.027942220829048806
323,2675.3199999999997,0.028811755738910413
324,2687.6699999999996,0.02903238052628152
325,2693.87,0.02741825786892936
326,2706.2999999999997,0.02814215249297979
327,2712.54,0.026639019753967295
328,2725.0600000000004,0.026232694194281973
329,2737.64,0.027299228512106137
330,2743.95,0.02422850563018806
331,2756.6099999999997,0.024868049784691554
332,2762.9700000000003,0.02575121680069805
333,2775.72,0.026614530771465788
334,2782.1200000000003,0.024962417705811948
335,2794.96,0.02087510149284393
336,2807.8599999999997,0.021976185157385406
337,2814.34,0.026007451928410894
338,2827.33,0.027190665409216615
339,2833.84,0.026338542118996847
340,2846.92,0.02534678541606681
341,2853.4900000000002,0.02404831200335654
342,2866.66,0.026571355116690742
343,2873.27,0.027013501622320135
344,2884.0315,0.02677904776047049
345,2886.5299999999997,0.0267246195482402
346,2893.1800000000003,0.02692039927040367
347,2913.2400000000002,0.029011828432298277
348,2926.68,0.027727867870776024
349,2946.97,0.02712862702306125
350,2967.4,0.027348766169497284
351,2987.97,0.027255665310084127
352,3008.6800000000003,0.027350684444821784
353,3029.54,0.027383443573292452
354,3050.53,0.027416572696331725
355,3071.68,0.027513021812686212
356,3092.97,0.02742037092319151
357,3107.2499999999995,0.027696350326574113
358,3128.79,0.027036919426634425
359,3150.4700000000003,0.02694634852084555
360,3172.31,0.027229297608371884
361,3186.9500000000003,0.025787426996713714
362,3209.05,0.026603736073377265
363,3231.29,0.02526402514419163
364,3253.69,0.027229834208321205
365,3268.71,0.02834091358078666
366,3291.3599999999997,0.027988182634471254
367,3306.56,0.027563961999416322
368,3311.31121,0.027434069448361954
369,3321.8199999999997,0.027146763407841997
370,3329.48,0.028372767290019744
371,3337.1499999999996,0.027611791164210777
372,3344.85,0.02693277501444167
373,3352.56,0.02657510885668585
374,3360.2799999999997,0.027394632690943315
375,3368.03,0.027217766501240647
376,3375.79,0.024268910303551258
377,3383.58,0.025074744081901735
378,3391.38,0.027442117852265496
379,3399.19,0.028223421614642547
380,3407.0299999999997,0.026534035353059454
381,3414.88,0.027101749083489654
382,3422.76,0.02845635278995971
383,3430.65,0.027757286488443056
384,3438.55,0.02796226017893969
385,3446.48,0.024477973845476175
386,3454.43,0.027349897496039242
387,3462.3900000000003,0.025127791138615595
388,3470.37,0.026445154765218522
389,3478.37,0.02429641837584802
390,3486.39,0.026045911970504095
391,3494.43,0.02540557554918674
392,3502.48,0.027109849119882675
393,3510.56,0.02656581266661847
394,3518.6499999999996,0.025557466205367554
395,3526.7599999999998,0.025218419728143204
396,3534.89,0.026909663234945435
397,3543.04,0.02838601672577424
398,3551.21,0.028009250200629613
399,3559.39,0.02738434366749828
400,3567.6000000000004,0.0268351871104068
401,3575.82,0.02448543054532861
402,3584.0699999999997,0.023556203956290288
403,3592.3300000000004,0.023730457359265242
404,3600.61,0.027510370746266777
405,3606.07,0.025995316385521407
406,3608.8199999999997,0.0245389141891753
407,3611.57,0.027132101992829193
408,3614.31,0.024604359804469796
409,3617.0600000000004,0.026099797608123684
410,3619.8,0.025109565419764286
411,3622.5499999999997,0.02978891322341818
412,3625.3,0.02995167102707207
413,3628.04,0.028565138838712673
414,3630.79,0.025353476642366566
415,3633.5299999999997,0.025864474454007167
416,3636.28,0.022611272257661057
417,3639.0299999999997,0.02929464006131495
418,3641.7699999999995,0.024812527872955552
419,3644.52,0.024954765676609442
420,3647.2700000000004,0.02568287348026333
421,3650.01,0.027993061291903938
422,3652.7599999999998,0.028130989095557828
423,3655.5,0.02643742690719843
424,3658.25,0.02532242471085232
425,3661.0,0.026147942514506212
426,3663.74,0.026963580326146815
427,3666.4900000000002,0.024072798129800704
428,3669.23,0.02767411594144131
429,3671.98,0.0282881037450952
430,3674.73,0.02553962154874909
431,3677.47,0.024909409360389694
432,3680.2200000000003,0.024772797164043587
433,3682.96,0.02619579497568419
434,3685.71,0.027709382779338078
435,3688.46,0.02363825058299197
436,3691.2,0.027213778394632574
437,3693.95,0.026846526198286466
438,3696.69,0.02840561400992707
439,3699.44,0.02699409181358096
440,3702.19,0.025742059617234848
441,3704.9300000000003,0.024453387428875453
442,3707.68,0.026173735232529343
443,3710.4199999999996,0.029211613044169946
444,3713.17,0.031015030847823838
445,3715.9199999999996,0.030015578651477727
446,3718.66,0.03658499646311833
447,3721.41,0.06024882426677222
448,3724.15,0.09823824207841282
449,3726.9,0.1310989398820667
450,3729.65,0.11351273768572061
451,3732.39,0.0736616754973612
452,3735.1400000000003,0.0427760433010151
453,3737.88,0.0288367711126557
454,3740.6299999999997,0.029360038916309596
455,3743.38,0.027902676719963486
456,3746.12,0.02574832453160409
457,3748.8700000000003,0.02567521233525798
458,3751.62,0.02651840013891187
459,3754.36,0.029413507950552472
460,3757.11,0.030080975754206363
461,3759.8500000000004,0.03016653356584697
462,3762.6,0.03005808136950086
463,3765.35,0.030029369173154748
464,3768.09,0.028308586984795353
465,3770.8399999999997,0.030495424788449244
466,3773.5800000000004,0.03227465260008985
467,3776.33,0.03359293040374373
468,3779.0800000000004,0.03504251820739763
469,3781.82,0.03518444601903823
470,3784.5699999999997,0.03469207382269212
471,3787.31,0.03399743163433273
472,3790.06,0.031005409437986617
473,3792.81,0.029348457241640508
474,3795.5499999999997,0.02901764505328111
475,3798.3,0.029021882856935
476,3801.04,0.028546390668575606
477,3801.8939600000003,0.02925498115206971
478,3803.7900000000004,0.030828258787754588
479,3806.54,0.034526347049043345
480,3809.2799999999997,0.03740046531665469
481,3812.03,0.035373923577943445
482,3814.77,0.03497007184555479
483,3817.52,0.03372471010684355
484,3820.27,0.03395908836813231
485,3823.01,0.03295168663574365
486,3825.76,0.03176361489703241
487,3828.5000000000005,0.02975061316464375
488,3831.25,0.027280971425932506
489,3834.0,0.027756019687221262
490,3836.7400000000002,0.027834887954832604
491,3839.49,0.028219686216121365
492,3842.23,0.029394884483732703
493,3844.98,0.03203008274502146
494,3847.7299999999996,0.03576207100631022
495,3850.47,0.035577879273921566
496,3853.22,0.03607724753521032
497,3855.9700000000003,0.03759559579649908
498,3858.71,0.036269244064110424
499,3861.46,0.03845559232539918
500,3864.2,0.04118313059301052
501,3866.9500000000003,0.040166478854299276
502,3869.7,0.038428807115588035
503,3872.4399999999996,0.038509625383199374
504,3875.19,0.035944943644488137
505,3877.93,0.03375863191209948
506,3880.6800000000003,0.03339805017338824
507,3883.43,0.03174920843467699
508,3886.17,0.03336560670228834
509,3888.92,0.032362344963577094
510,3891.6600000000003,0.030863593231188438
511,3894.41,0.03338849149247719
512,3897.16,0.03386447975376595
513,3899.9,0.03450633802137729
514,3902.6499999999996,0.035546236282666045
515,3905.3900000000003,0.03695446455027739
516,3908.14,0.03758229281156615
517,3910.8900000000003,0.03792839107285491
518,3913.63,0.037491119340466256
519,3916.3799999999997,0.037506327601755006
520,3919.12,0.03591782586936635
521,3921.87,0.035445994130655106
522,3924.62,0.033578932391943865
523,3927.3599999999997,0.03011579065955521
524,3930.11,0.028930608920843967
525,3932.85,0.028455107188455307
526,3935.6000000000004,0.030607575449744066
527,3938.35,0.03226392371103282
528,3941.0899999999997,0.03472930197864417
529,3943.84,0.03466525023993292
530,3946.58,0.03599182850754427
531,3949.33,0.03574632676883303
532,3952.08,0.03681295503012178
533,3954.82,0.03520918329773312
534,3957.57,0.03262875155902188
535,3960.32,0.029217029820310637
536,3963.06,0.02658184808792198
537,3965.81,0.02607612634921074
538,3968.55,0.02714196461682208
539,3971.2999999999997,0.027341022878110837
540,3974.05,0.029090491139399596
541,3976.79,0.03137154940701094
542,3979.54,0.03428082766829969
543,3982.28,0.03724376593591104
544,3985.0299999999997,0.0371992841971998
545,3987.78,0.03829981245848855
546,3990.52,0.03937428072609989
547,3993.27,0.03850421898738865
548,3996.0099999999998,0.039375277254999994
549,3998.76,0.04013297551628875
550,4001.5099999999998,0.04009135377757751
551,4004.2499999999995,0.03925252204518886
552,4007.0,0.04037741030647761
553,4009.74,0.04218052857408895
554,4012.4900000000002,0.04225445683537771
555,4015.24,0.04157204509666647
556,4017.98,0.04213704336427781
557,4020.73,0.041086481625566565
558,4023.4700000000003,0.04004088989317791
559,4026.22,0.04124694815446667
560,4028.9700000000003,0.03954987641575543
561,4031.71,0.03976629468336677
562,4034.4600000000005,0.04134240294465553
