,lambda (Angstroms),Total Flux (erg/s/cm^2/Angstrom)
0,100.00999999999999,1.662182516069265
1,102.11,1.6569622970622793
2,104.0,1.652264099131775
3,104.712855,1.6504920710854407
4,105.94,1.6344684425647766
5,107.91,1.6087448753415723
6,109.91000000000001,1.5826295891670394
7,114.03999999999999,1.528701506070574
8,118.05,1.4763403413270098
9,120.22644299999999,1.4479212058861681
10,121.07,1.4386864291686077
11,125.03999999999999,1.3952250322869955
12,127.07,1.3730017001101766
13,127.95,1.3633679447579052
14,130.93,1.330744535437873
15,132.14,1.3174981440939753
16,133.98,1.297354839250099
17,137.1,1.2631988375361827
18,138.038426,1.2529254745008234
19,139.97,1.2378108239454748
20,142.91,1.2148055035078704
21,146.91,1.1835057689426607
22,151.03,1.1512667528563443
23,154.9,1.1209840548259162
24,158.489319,1.0928977112351916
25,158.86999999999998,1.0906456769529165
26,161.82999999999998,1.0731349319089976
27,165.98000000000002,1.0485844202856411
28,169.84,1.0257495502003078
29,173.0,1.007055731606408
30,177.03,0.9832152603864406
31,179.91,0.966177954850114
32,181.970086,0.9539910488674213
33,181.99,0.953901175109936
34,185.79999999999998,0.9367063587500043
35,191.01,0.9131932312733577
36,194.11,0.8992027671349171
37,198.17999999999998,0.8808346983845099
38,201.85999999999999,0.8642268859663162
39,205.14000000000001,0.8494241646594693
40,208.929613,0.832321481506723
41,209.92000000000002,0.828961183257964
42,215.79999999999998,0.8090116699587836
43,219.81,0.7954065376710603
44,222.87,0.7850244828632216
45,227.01,0.7709783824061456
46,230.17,0.7602653154272665
47,233.91,0.7475940579743526
48,239.88329199999998,0.7273396353017422
49,239.91,0.7272698613180084
50,246.06,0.7111904875108588
51,251.8,0.696187569115519
52,257.07,0.6823991041320104
53,260.05,0.6746183123776355
54,264.27,0.6635891201494939
55,269.18,0.6507533617261109
56,274.19,0.6376558627093598
57,275.42287,0.6344327690797023
58,279.28999999999996,0.6266743476809088
59,283.82,0.6175867964646726
60,289.77,0.6056461603420891
61,295.83000000000004,0.5934900360917601
62,301.33,0.582452418824498
63,308.35,0.5683700476074834
64,316.227766,0.5525669870719583
65,317.72,0.5503314202237737
66,328.13,0.5347326293335887
67,338.1,0.5197924835893865
68,348.38,0.5043872882241508
69,357.31,0.49100559027954443
70,363.078055,0.48236264672536017
71,365.64,0.47948801498319443
72,375.02,0.46896120450145873
73,384.64,0.45816173177370845
74,395.41,0.446077777833805
75,404.62,0.43574216119299625
76,414.04999999999995,0.42515817759334096
77,416.86938299999997,0.4219937374880302
78,421.74,0.41781909889483637
79,429.59,0.4110902030865349
80,440.6,0.40165437030228
81,450.87,0.3928513927054322
82,460.31,0.38475927912283764
83,469.95000000000005,0.376496328013917
84,478.630092,0.36905641383068
85,479.79,0.3682918103993693
86,489.83,0.3616720268244014
87,500.09,0.3549092788079502
88,505.88,0.3510989206252744
89,511.73999999999995,0.34727653173849043
90,520.0500000000001,0.3417985481079143
91,529.72,0.3354239837118048
92,539.5699999999999,0.32892510129084535
93,549.5408739999999,0.32236788568991936
94,549.6,0.3223382461475598
95,559.8199999999999,0.31721433248370373
96,570.23,0.31198915942756467
97,579.49,0.3073268448299808
98,590.27,0.3019219850941326
99,599.86,0.2970980344362677
100,609.61,0.29220578950069076
101,619.51,0.2872539378922587
102,629.58,0.28219824000125765
103,630.957344,0.28150623856245527
104,639.81,0.27798124666559715
105,650.1999999999999,0.27385536894591755
106,657.73,0.2708601433207791
107,665.35,0.2678363412877706
108,674.6,0.26415588243444665
109,685.57,0.25977724935293695
110,695.1,0.2560263476973502
111,704.77,0.252156331240632
112,716.22,0.24764419858381476
113,724.43596,0.24437796485094734
114,726.19,0.243860864814451
115,734.6,0.2413836366377628
116,744.82,0.23839063442923084
117,755.1800000000001,0.23534406633702037
118,765.68,0.2322523489611314
119,774.55,0.2296613526094995
120,785.32,0.2265052554222305
121,794.42,0.22383181798312674
122,805.4699999999999,0.2205819710285007
123,814.8,0.21783762990192504
124,824.23,0.215089310515579
125,831.763771,0.21281560180641373
126,835.7,0.21192179858682805
127,845.37,0.20988409140041936
128,855.16,0.20774108689422063
129,865.07,0.20558945126823197
130,875.08,0.203416103909085
131,885.22,0.20122206428683226
132,895.47,0.19899239738810534
133,905.8299999999999,0.1967150798129043
134,914.22,0.19527264457092197
135,924.8000000000001,0.19943417274277261
136,935.51,0.20606861835151746
137,944.17,0.22035056884000775
138,954.992586,0.23028560045941396
139,955.1,0.23038471874075273
140,963.9399999999999,0.23855796168600857
141,975.1,0.19352560599246274
142,984.12,0.23747766223298394
143,995.52,0.2344745442664587
144,1004.73,0.24673516954087116
145,1014.03,0.2369825164629163
146,1025.77,0.1953702236096701
147,1035.26,0.21788426956560647
148,1044.84,0.2519285771691756
149,1054.51,0.2500335664203774
150,1064.26,0.235886651580586
151,1074.1100000000001,0.24401567412705316
152,1084.05,0.22990095832115306
153,1094.0800000000002,0.24187157416288563
154,1096.4782,0.24069794377899195
155,1104.2,0.2372219540175987
156,1114.42,0.2344471379289207
157,1124.73,0.22634801390991188
158,1135.14,0.23611816996831325
159,1145.64,0.2275824280963838
160,1156.24,0.22898090630186457
161,1164.26,0.2301439485101623
162,1175.03,0.20858690284724035
163,1185.9,0.22216681726172863
164,1194.1200000000001,0.20065421962484672
165,1205.17,0.18411633817867337
166,1216.32,0.1580150568099102
167,1224.75,0.18637895733558973
168,1236.09,0.20822569811390595
169,1244.6599999999999,0.2148953407479597
170,1256.17,0.2116641876578732
171,1258.92541,0.20839685181895629
172,1264.8799999999999,0.20163891316732735
173,1273.65,0.21543811590829198
174,1285.4299999999998,0.21695881829011227
175,1294.34,0.20398799589809344
176,1306.32,0.20114642380422304
177,1315.37,0.21231021627922075
178,1324.49,0.20817535618772676
179,1333.67,0.20094712675352555
180,1346.01,0.20800510860341198
181,1355.34,0.2049102508124428
182,1364.74,0.19761006045498186
183,1374.1999999999998,0.19860953075481375
184,1383.72,0.19862315171193845
185,1396.53,0.1886324620439518
186,1406.21,0.18985566142052396
187,1415.95,0.1901678714543889
188,1425.77,0.18911869569797762
189,1435.65,0.1874808805988591
190,1442.28,0.1898062032297138
191,1445.43977,0.18998302634162317
192,1445.6,0.1899981053659469
193,1455.62,0.1875085867592213
194,1465.71,0.18254110593668021
195,1475.87,0.18089026289832377
196,1486.1,0.1801753176441518
197,1496.4099999999999,0.17983331842904793
198,1503.31,0.176431374298668
199,1513.73,0.1698599358872827
200,1517.22,0.1726783768416268
201,1524.23,0.17048070351496544
202,1534.79,0.16291208067194923
203,1545.43,0.16621911386800112
204,1556.14,0.16166680484823748
205,1563.32,0.1616764018545958
206,1574.16,0.1641887301483178
207,1585.0700000000002,0.16511680622622438
208,1596.06,0.16572639834319902
209,1603.43,0.16246389219234392
210,1614.54,0.16131350336792066
211,1625.73,0.1576403205825654
212,1633.24,0.15966456000007945
213,1644.56,0.15900856452820983
214,1655.96,0.15350764509540823
215,1659.58691,0.15565023113149848
216,1663.6000000000001,0.15812697147824017
217,1671.28,0.15182309499045676
218,1675.1299999999999,0.1572378241860341
219,1686.74,0.15827153640958025
220,1694.53,0.15433205675595618
221,1706.28,0.15143898313206883
222,1714.15,0.149015542994197
223,1726.03,0.14764522108340705
224,1734.0,0.15022484534022557
225,1746.02,0.14768968758200204
226,1754.0800000000002,0.15031724379404182
227,1766.24,0.14437455018838477
228,1774.39,0.14609808835564586
229,1786.69,0.1456598889025552
230,1794.9399999999998,0.14795986146450668
231,1803.22,0.14677960134486517
232,1815.72,0.14290334068115518
233,1824.1,0.14270175495620402
234,1836.75,0.14001979088452948
235,1845.22,0.13511375711479962
236,1853.74,0.1350259155424149
237,1866.59,0.13557598026012105
238,1875.21,0.1379608830824266
239,1883.86,0.13361035322313936
240,1896.92,0.13076456916969514
241,1905.46072,0.13251706151627385
242,1905.6799999999998,0.13256567430291316
243,1914.47,0.13069662513331964
244,1923.31,0.12914043316981488
245,1936.64,0.128970782313082
246,1945.5800000000002,0.13165937476175482
247,1954.56,0.12815919697529865
248,1968.1100000000001,0.13124464982535639
249,1977.19,0.1317550564510777
250,1981.75,0.12882418964637393
251,1995.49,0.12674046387956903
252,2004.7,0.1269017272411212
253,2013.9499999999998,0.1254720803675444
254,2023.25,0.12621207070005636
255,2037.27,0.12412759328734857
256,2046.6799999999998,0.12500175547325584
257,2056.12,0.12213966998281636
258,2065.61,0.12213300169846567
259,2075.15,0.12474686062020376
260,2079.9300000000003,0.12335293752229054
261,2084.73,0.12431323930681284
262,2094.35,0.12111585775829298
263,2104.02,0.12110637341586186
264,2113.73,0.12095592883830175
265,2123.48,0.1209487340256127
266,2133.29,0.11712127386023015
267,2143.13,0.11820193601850087
268,2153.0299999999997,0.11874345282407814
269,2162.96,0.11646394195330864
270,2172.95,0.1154604157298457
271,2182.98,0.11514554927125376
272,2187.7616199999998,0.11585959818056553
273,2193.05,0.1167267342948872
274,2203.1800000000003,0.11486954597558766
275,2213.34,0.11198425912227244
276,2223.56,0.11075056520092583
277,2233.82,0.11379774656755828
278,2244.14,0.11130797086615937
279,2254.4900000000002,0.10889372663074474
280,2264.9,0.10883664532729873
281,2275.35,0.1098230693118318
282,2285.86,0.11083392622833346
283,2296.4100000000003,0.10773274843281422
284,2307.0099999999998,0.10798661974726881
285,2317.66,0.10605459017169724
286,2323.0,0.0980173411169036
287,2333.72,0.10240236829529542
288,2344.49,0.09945770458366107
289,2355.31,0.10318503998200057
290,2366.19,0.09867415831230868
291,2377.11,0.09999990193059585
292,2382.59,0.09577368638372899
293,2393.5899999999997,0.09779776057797432
294,2404.63,0.09617628006019871
295,2415.73,0.09643949247439174
296,2426.8799999999997,0.0991307139985586
297,2432.48,0.09729985431562893
298,2443.71,0.09911078641575394
299,2454.99,0.0982255576258528
300,2466.3199999999997,0.09711035794592549
301,2477.7,0.09498453737597201
302,2483.41,0.09477842973498482
303,2494.8799999999997,0.09249688356298427
304,2506.39,0.09670777267896277
305,2511.88643,0.09150382228097591
306,2512.17,0.09123755503919415
307,2517.96,0.09096940858532818
308,2523.77,0.08945419587428134
309,2535.42,0.09005962606641632
310,2547.12,0.08962800561559908
311,2552.99,0.0928081741330096
312,2564.77,0.09093646865346883
313,2576.6099999999997,0.09292441440238541
314,2582.55,0.0921930460196628
315,2594.47,0.09107875673985585
316,2606.4500000000003,0.08912077868850624
317,2612.4599999999996,0.08811162340565057
318,2624.52,0.09000977032557742
319,2636.6299999999997,0.09201116660255207
320,2642.7099999999996,0.0963738744195633
321,2654.91,0.09817743753922395
322,2667.1600000000003,0.09264280001593239
323,2673.31,0.09437790093281054
324,2685.65,0.094880680252205
325,2698.04,0.09094442892864726
326,2704.26,0.0926404929453923
327,2716.75,0.08882685033593016
328,2723.01,0.08787709183831341
329,2735.5800000000004,0.08986974420012772
330,2741.8799999999997,0.08327314318814923
331,2754.54,0.08464692239264954
332,2767.25,0.08662334095419766
333,2773.63,0.08821404491349562
334,2786.44,0.08395795218913932
335,2792.8599999999997,0.07485784363407552
336,2805.75,0.07681889588099566
337,2812.2200000000003,0.08622233668297966
338,2825.2,0.08891838577258585
339,2838.2400000000002,0.08704514609064937
340,2844.78,0.08453403999250025
341,2857.9100000000003,0.08083401715324978
342,2864.5,0.08674805041214848
343,2877.72,0.08787297441558406
344,2884.0315,0.08702620933283498
345,2884.36,0.08698433847437209
346,2897.67,0.08738869628920456
347,2911.05,0.09199636630892347
348,2931.22,0.08903385020262528
349,2951.5400000000004,0.08749179739251225
350,2972.0,0.08775487899217208
351,2992.6000000000004,0.08741423500160475
352,3013.3500000000004,0.08731150430722262
353,3027.2599999999998,0.08748560530679586
354,3048.24,0.08750314899989768
355,3069.3700000000003,0.08739568598918468
356,3090.64,0.08691447738824457
357,3112.07,0.08729638096990194
358,3126.43,0.08573788185803075
359,3148.1,0.08512707871358444
360,3169.9300000000003,0.08573235775173567
361,3191.8999999999996,0.08247713119965974
362,3206.6299999999997,0.08404731088504534
363,3228.86,0.0808437453796904
364,3251.2400000000002,0.08512393317052065
365,3266.25,0.08772958167545195
366,3288.89,0.08667971051300322
367,3311.31121,0.08540218571298361
368,3311.6800000000003,0.08538290574046939
369,3319.32,0.08373285841701184
370,3326.9700000000003,0.08434117697402095
371,3334.64,0.08704245729196344
372,3342.33,0.08318655937083927
373,3350.0299999999997,0.0853201273301818
374,3357.76,0.08466431293092434
375,3365.5,0.07749749441213358
376,3373.25,0.07725099177380948
377,3381.0299999999997,0.08163195677688542
378,3388.82,0.08396735766042805
379,3396.6400000000003,0.0806299361853707
380,3404.47,0.08482702059078005
381,3412.31,0.08094693087665608
382,3420.18,0.08301536880393212
383,3428.0699999999997,0.08362628849214154
384,3435.97,0.08360580406081762
385,3443.89,0.07814952139042707
386,3451.8300000000004,0.08433995048096987
387,3459.78,0.08241368545197936
388,3467.7599999999998,0.08177106806438887
389,3475.7500000000005,0.08249891655726507
390,3483.77,0.0822251526915413
391,3491.7999999999997,0.08308635470628421
392,3499.85,0.07795990848196048
393,3507.92,0.0830414040185701
394,3516.0000000000005,0.0790774954356464
395,3524.1099999999997,0.08013123449412274
396,3532.23,0.08246443943306576
397,3540.37,0.08372581613294214
398,3548.54,0.08582690047421855
399,3556.72,0.08316437069596164
400,3564.91,0.08378854679817141
401,3573.13,0.0756307905417812
402,3581.37,0.07754670604632438
403,3589.62,0.07126017743133421
404,3597.9,0.07951581645774408
405,3606.19,0.07863871136462064
406,3614.51,0.07800933391289723
407,3619.71,0.0656486217555701
408,3622.45,0.06509288300344004
409,3625.1899999999996,0.07612181425130998
410,3627.94,0.08486745137964659
411,3630.68,0.07427829262751652
412,3633.4300000000003,0.06585762975585313
413,3636.17,0.07435476100372307
414,3638.9100000000003,0.073259492251593
415,3641.66,0.08113534937992961
416,3644.3999999999996,0.07738093062779955
417,3647.15,0.08443406775613616
418,3649.89,0.07954810900400609
419,3652.63,0.07666722025187603
420,3655.3799999999997,0.08337138738021266
421,3658.1200000000003,0.09899125862808257
422,3660.87,0.0849197957564192
423,3663.61,0.07796934700428913
424,3666.35,0.09652621825215907
425,3669.1000000000004,0.08626043538049567
426,3671.84,0.0763949466283656
427,3674.5899999999997,0.07766140375670222
428,3677.33,0.08961900500457216
429,3680.0699999999997,0.08752712625244209
430,3682.82,0.0903966433807787
431,3685.56,0.08560169462864864
432,3688.3100000000004,0.07724684175698525
433,3691.05,0.0877442530048552
434,3693.79,0.09532453425272512
435,3696.54,0.08729614138106173
436,3699.2799999999997,0.08049395262893168
437,3702.03,0.0888927297572683
438,3704.77,0.08736822100513822
439,3707.5099999999998,0.08924261225300816
440,3710.26,0.08325357938134477
441,3713.0,0.0753808706292147
442,3715.7400000000002,0.08472750187708462
443,3718.49,0.09350630900542126
444,3721.23,0.09065971025329118
445,3723.98,0.09421435738162781
446,3726.7200000000003,0.08612755862949772
447,3729.46,0.08893330987736767
448,3732.21,0.07604904700570428
449,3734.9500000000003,0.08285424825357421
450,3737.7,0.06701538538191082
451,3740.44,0.08327326662978077
452,3743.18,0.08392190787765069
453,3745.9300000000003,0.08241836500598732
454,3748.67,0.08754714625385725
455,3751.4199999999996,0.08715158338219386
456,3754.1600000000003,0.08791798463006378
457,3756.9,0.08027542587793372
458,3759.65,0.09395188300627035
459,3762.39,0.09003476425414028
460,3765.1400000000003,0.09327896138247688
461,3767.88,0.08679258263034682
462,3770.62,0.09338263387821676
463,3773.37,0.09573829100655337
464,3776.1099999999997,0.09442254225442331
465,3778.86,0.10250547938275992
466,3781.6,0.10047786063062986
467,3784.34,0.09890519187849979
468,3787.09,0.1060192990068364
469,3789.83,0.10238053025470634
470,3792.58,0.09508007738304296
471,3795.3199999999997,0.09334146863091289
472,3798.06,0.08787744987878282
473,3800.81,0.08924289700711943
474,3801.8939600000003,0.09167208350925188
475,3803.55,0.09538879942681107
476,3806.3,0.09488991852279925
477,3809.0400000000004,0.10054698864025657
478,3811.78,0.10242511875771387
479,3814.5299999999997,0.10376749785370207
480,3817.27,0.10560817797115937
481,3820.02,0.10253466706714756
482,3822.76,0.09499221718460488
483,3825.5,0.09501834730206218
484,3828.2500000000005,0.08806421639805037
485,3830.9900000000002,0.08923042651550768
486,3833.74,0.08252255561149587
487,3836.48,0.08607066572895318
488,3839.22,0.0828477258464105
489,3841.9700000000003,0.08982111494239867
490,3844.71,0.09985661505985599
491,3847.4599999999996,0.09845311415584418
492,3850.2,0.09907873427330148
493,3852.94,0.1014225543907588
494,3855.69,0.10379264348674697
495,3858.43,0.1034762136042043
496,3861.1800000000003,0.10609787270019247
497,3863.92,0.10647193281764977
498,3866.6600000000003,0.1111013329351071
499,3869.41,0.11008854203109528
500,3872.1499999999996,0.1050297121485526
501,3874.9,0.10281261124454077
502,3877.64,0.10341684136199808
503,3880.38,0.1015802614794554
504,3883.13,0.09962009057544358
505,3885.8700000000003,0.09277882069290089
506,3888.62,0.08745189978888908
507,3891.3599999999997,0.0907430899063464
508,3894.1,0.0974118000238037
509,3896.85,0.1007025491197919
510,3899.59,0.1016225692372492
511,3902.34,0.10455467833323738
512,3905.0800000000004,0.10565133845069469
513,3907.82,0.10534027856815201
514,3910.5699999999997,0.10915020766414019
515,3913.31,0.10907999778159749
516,3916.06,0.10888617687758569
517,3918.8,0.10958674699504299
518,3921.54,0.10920074711250032
519,3924.2899999999995,0.10300130620848849
520,3927.03,0.09492357632594581
521,3929.7799999999997,0.087022065421934
522,3932.52,0.0815242755393913
523,3935.2599999999998,0.08050661565684862
524,3938.01,0.0830694647528368
525,3940.75,0.09012353487029412
526,3943.5,0.09480598396628229
527,3946.24,0.10083772408373962
528,3948.9800000000005,0.10498001420119693
529,3951.73,0.1023240132971851
530,3954.47,0.10341530341464242
531,3957.2200000000003,0.1035747725106306
532,3959.96,0.09699579262808791
533,3962.7000000000003,0.09212427274554523
534,3965.45,0.0835643818415334
535,3968.1899999999996,0.07740822195899072
536,3970.94,0.0747105410549789
537,3973.68,0.07673207117243622
538,3976.42,0.08408588128989353
539,3979.17,0.09441000038588171
540,3981.9100000000003,0.10320904050333903
541,3984.66,0.11264989959932721
542,3987.3999999999996,0.11748269971678452
543,3990.14,0.11996036983424184
544,3992.89,0.11840158893023002
545,3995.63,0.11911823904768733
546,3998.38,0.1184587181436755
547,4001.1200000000003,0.12350026826113282
548,4003.86,0.12172794837859013
549,4006.6099999999997,0.12339678747457831
550,4009.35,0.12285558759203563
551,4012.1,0.12654770668802381
552,4014.84,0.12738210680548112
553,4017.58,0.12678740692293844
554,4020.33,0.12847762601892662
555,4023.07,0.12782942613638393
556,4025.82,0.12552124523237213
557,4028.56,0.12729234534982942
558,4031.2999999999997,0.12770394546728675
559,4034.05,0.1259899645632749
560,4036.79,0.12468866468073224
561,4039.54,0.12900708377672043
562,4042.2799999999997,0.12646398389417773
563,4045.0199999999995,0.12543568401163505
564,4047.77,0.12538100310762323
565,4050.5099999999998,0.12730200322508056
566,4053.26,0.12891192232106874
567,4056.0,0.12179773243852604
568,4058.7400000000002,0.12216652255598334
569,4061.49,0.12433314165197154
570,4064.2299999999996,0.12506044176942885
571,4066.98,0.12575516086541702
572,4069.72,0.12407386098287435
573,4072.46,0.12701186110033166
574,4075.21,0.12792058019631983
575,4077.9500000000003,0.12136842031377715
576,4080.7,0.12008263940976532
577,4083.44,0.12061193952722266
578,4086.18,0.12714149964467997
579,4088.9300000000003,0.12994511874066814
580,4091.67,0.12671691885812547
581,4094.4199999999996,0.12297433795411364
582,4097.16,0.11742302807157096
583,4099.900000000001,0.11172191818902825
584,4102.65,0.10738516728501646
