,lambda (Angstroms),Total Flux (erg/s/cm^2/Angstrom)
0,100.02000000000001,0.00025501504736095786
1,102.12,0.0003134631709728848
2,104.01,0.0003660664358824193
3,104.712855,0.00038562863418526805
4,105.95,0.00035689905284554254
5,107.92,0.00031115087204900565
6,109.92,0.0002647070548436891
7,114.05,0.00016879909477401036
8,118.06,7.567807001045043e-05
9,120.22644299999999,2.5378730018988358e-05
10,121.09,2.4455300994337916e-05
11,125.05000000000001,2.020800379852116e-05
12,127.08000000000001,1.803122425000904e-05
13,127.97,1.7077569347262362e-05
14,130.95000000000002,1.3883108507279031e-05
15,131.85,1.2922589066411612e-05
16,134.0,1.0618687280450493e-05
17,137.12,7.282445536776686e-06
18,138.038426,6.3000094748868385e-06
19,139.98999999999998,6.235421753865495e-06
20,142.92,6.189647339028208e-06
21,146.92000000000002,6.147053988738394e-06
22,151.04,6.047935464939888e-06
23,154.91,5.970688494284494e-06
24,158.489319,5.9079957884642075e-06
25,158.89000000000001,5.892820067267664e-06
26,161.84,5.790850257309384e-06
27,165.98999999999998,5.655705539910447e-06
28,169.86,5.548990170914327e-06
29,173.02,5.464498524653931e-06
30,177.04999999999998,5.37674222799906e-06
31,179.92999999999998,5.330083930141484e-06
32,181.970086,5.301942356566539e-06
33,182.01,5.304468117246061e-06
34,185.82000000000002,5.564702733541577e-06
35,191.02999999999997,5.925940235090035e-06
36,194.13,6.167629266721558e-06
37,198.20000000000002,6.50076957599262e-06
38,201.88000000000002,6.856452845800362e-06
39,205.16,7.144214434107261e-06
40,208.929613,7.473826787591823e-06
41,209.94,7.65835004998361e-06
42,215.82,8.969141212850192e-06
43,219.82999999999998,9.84738459773029e-06
44,222.89,1.0493733325344533e-05
45,227.04,1.1449339880769078e-05
46,230.19000000000003,1.4464001218019035e-05
47,233.93,2.0544677773991996e-05
48,239.88329199999998,2.564376892352101e-05
49,239.93,2.567406824103296e-05
50,246.09,2.5880528464341694e-05
51,251.82,2.758330212985453e-05
52,257.09,2.4765465291678732e-05
53,260.07,2.8231667250357304e-05
54,264.3,2.979120362123327e-05
55,269.21,3.063615943234462e-05
56,274.21999999999997,3.1415768396431766e-05
57,275.42287,3.159873449120337e-05
58,279.31,3.2944435932586987e-05
59,283.85,3.4708624144305446e-05
60,289.8,3.5640879267592855e-05
61,295.86,3.8355678334335996e-05
62,300.67,3.9129055316354895e-05
63,307.68,4.210555116748846e-05
64,316.227766,4.5824451881450736e-05
65,317.76,4.622505211666429e-05
66,328.17,4.786573848855663e-05
67,338.14,4.9208033803423745e-05
68,347.61,5.059110246258037e-05
69,357.35,5.184434131582066e-05
70,363.078055,5.291722002835145e-05
71,365.67,5.374145867241972e-05
72,375.04999999999995,5.5971077474907556e-05
73,384.67,5.675442609750169e-05
74,395.45,6.046091218394293e-05
75,404.66,6.298397153052215e-05
76,414.09000000000003,6.481074487886545e-05
77,416.86938299999997,6.525184742160564e-05
78,421.79,6.592000902156571e-05
79,429.63,6.685888030983118e-05
80,440.65,6.899744056451043e-05
81,450.90999999999997,7.017677666369457e-05
82,460.36,7.10632699129431e-05
83,470.0,7.224109420106543e-05
84,478.630092,7.354892067739215e-05
85,479.84,7.363615430147242e-05
86,489.88,7.318515839843415e-05
87,500.14000000000004,7.404092724652452e-05
88,505.93,7.527986592395565e-05
89,511.79,8.583088974947314e-05
90,520.11,8.598909306488367e-05
91,529.78,8.60846328076745e-05
92,539.63,8.439629007411605e-05
93,549.5408739999999,8.880178205323474e-05
94,549.66,8.885835632716922e-05
95,559.88,9.413155874123196e-05
96,570.2900000000001,9.786266403774792e-05
97,579.55,9.668944872994176e-05
98,590.33,0.00010206538648176137
99,599.92,0.00010170681039084764
100,609.67,0.00010288236725357874
101,619.5699999999999,0.00011449542376035185
102,629.6400000000001,0.00011737620653037257
103,630.957344,0.00011768995276516791
104,639.87,0.00012011961223177192
105,650.27,0.00012623105134515686
106,657.8000000000001,0.00012888754197244425
107,665.4200000000001,0.00013449401216898208
108,674.67,0.00013765621234194462
109,685.64,0.00013637122206058242
110,695.17,0.00015466665867121303
111,704.84,0.0001498651635006777
112,716.3,0.00017002676198523458
113,724.43596,0.00017421305566861153
114,726.26,0.0001751360550992052
115,734.6700000000001,0.00018069546941879559
116,744.89,0.00019315004662999818
117,755.25,0.0002015388988714912
118,765.7600000000001,0.00020660613864543828
119,774.63,0.0002233280280645544
120,785.4,0.00023564659289475518
121,794.5000000000001,0.0002453435698636342
122,805.5500000000001,0.0002554822847544159
123,814.88,0.0002642414492730578
124,824.32,0.0002832268513154993
125,831.763771,0.00026505841689428866
126,835.78,0.00025511209333522604
127,845.4599999999999,0.00030055638169835446
128,855.25,0.000311255772201973
129,865.15,0.0003311686648460817
130,875.17,0.000350826514370725
131,885.31,0.000373391220775903
132,895.56,0.00039213282932157095
133,905.9300000000001,0.00039992089474777365
134,914.31,0.0005654757669051101
135,924.9,0.003189633436612293
136,935.61,0.006921309763200011
137,944.26,0.01345861261333855
138,954.992586,0.01856201777243553
139,955.1999999999999,0.018660648581931616
140,964.0400000000001,0.022589314313239187
141,975.1999999999999,0.004845523050953273
142,984.2199999999999,0.02300902608448204
143,995.62,0.023008981891824386
144,1004.83,0.029776406188808863
145,1014.13,0.02728230013690393
146,1025.87,0.011143764626219644
147,1035.3600000000001,0.02088913783777042
148,1044.94,0.0368008407004318
149,1054.61,0.03671591321420376
150,1064.3700000000001,0.03125142537908634
151,1074.22,0.0359634771950795
152,1084.16,0.030469578662183267
153,1094.19,0.037398729780397634
154,1096.4782,0.03713076659122351
155,1104.32,0.036212375766332065
156,1114.53,0.03571571188946067
157,1124.85,0.032950256677970684
158,1135.25,0.038980520495848985
159,1145.76,0.0360450129791087
160,1153.7,0.03765743664391194
161,1164.38,0.03906975706457928
162,1175.1499999999999,0.029638296393285954
163,1186.02,0.03765689450870299
164,1194.24,0.02830473477629527
165,1205.29,0.02177111070779097
166,1213.65,0.011910829276777762
167,1224.88,0.025459853024352126
168,1236.21,0.03679882555863686
169,1244.78,0.040628701579715425
170,1256.3,0.03997907180874985
171,1258.92541,0.038668505213475875
172,1265.01,0.03563124520595406
173,1273.78,0.04333330277450781
174,1285.56,0.04496018294070658
175,1294.47,0.03862168063008102
176,1306.45,0.038267480968880795
177,1315.51,0.04485637878770599
178,1324.6299999999999,0.04343303665831148
179,1333.81,0.040163124580697276
180,1346.15,0.04506295523017884
181,1355.48,0.044139243282015385
182,1364.8799999999999,0.04090939139426227
183,1374.34,0.04234716955828947
184,1383.8600000000001,0.042936297774096965
185,1393.46,0.03844441605894485
186,1406.3500000000001,0.03979506718307915
187,1416.1000000000001,0.04100419559737779
188,1425.9099999999999,0.04138415406345673
189,1435.8000000000002,0.04138395259857607
190,1442.43,0.04303525832029915
191,1445.43977,0.043396378924311925
192,1445.75,0.04343360114244874
193,1455.7700000000002,0.04273945840004726
194,1465.86,0.040441745708347555
195,1476.0200000000002,0.04025632306734964
196,1486.26,0.04062802048429663
197,1496.5600000000002,0.04109851794470228
198,1503.46,0.03961283294244977
199,1510.4,0.0365458779691697
200,1517.38,0.03835574302486208
201,1524.3799999999999,0.037569388095040686
202,1534.9499999999998,0.03394994575101037
203,1545.59,0.03604393345768185
204,1556.3,0.034422101215055116
205,1563.4799999999998,0.035142616415609736
206,1574.32,0.03705411426714345
207,1585.23,0.038179872169378966
208,1596.22,0.03906942012955937
209,1603.59,0.03800446546773314
210,1614.71,0.038004053522074
211,1625.9,0.03662975162711665
212,1633.4,0.03826777705945087
213,1644.72,0.03862184525865398
214,1656.13,0.0363776935230451
215,1659.58691,0.037595492118952606
216,1663.77,0.03906912815341728
217,1671.4499999999998,0.03604391877684867
218,1675.3000000000002,0.03924943914145945
219,1686.92,0.04025618060555747
220,1694.7,0.03844502175793978
221,1706.4499999999998,0.03731120390967401
222,1714.33,0.03612728559100726
223,1726.21,0.03587855843037769
224,1734.1799999999998,0.03765661058776678
225,1746.2,0.03688385416766851
226,1754.26,0.03871130680111343
227,1766.4199999999998,0.03604451112154647
228,1774.57,0.03705472423104723
229,1786.8700000000001,0.03748358929201156
230,1795.1200000000001,0.03916006293046325
231,1803.4,0.038979976727600216
232,1815.91,0.0369696128993615
233,1824.2900000000002,0.0373972672254494
234,1836.93,0.036462844084846895
235,1845.41,0.034029388939885725
236,1853.93,0.03426518400650492
237,1866.7800000000002,0.03514360197669937
238,1875.4,0.0369698575722695
239,1884.05,0.0348218333265249
240,1897.11,0.0337175224075163
241,1905.46072,0.03515510108247165
242,1905.8700000000001,0.0352255537881596
243,1914.67,0.03434387378767987
244,1923.5,0.033717573582653045
245,1936.84,0.034107602627380364
246,1945.78,0.035879401672347544
247,1954.7600000000002,0.034107520444585274
248,1968.3100000000002,0.03637883805748296
249,1977.3899999999999,0.03714045614789705
250,1981.95,0.03563266505673937
251,1995.69,0.03482130137417216
252,2004.9,0.035387028578215525
253,2014.16,0.03474130544134708
254,2023.45,0.03555064209993154
255,2032.79,0.03458180841760419
256,2046.88,0.035468372348654256
257,2056.33,0.033872347916320905
258,2065.8199999999997,0.03426428321125811
259,2075.36,0.03637807816528349
260,2080.14,0.035714265574113814
261,2084.94,0.03662990284657942
262,2094.56,0.03506242725514589
263,2104.23,0.035305001322800546
264,2113.94,0.03563173511772575
265,2123.7,0.03587809857173914
266,2133.5,0.03402822175302307
267,2143.35,0.03490066459339519
268,2153.24,0.03571369716103786
269,2163.1800000000003,0.03458078938776871
270,2173.17,0.034421501273587736
271,2183.2,0.03450089288667732
272,2187.7616199999998,0.0350495187757241
273,2193.2799999999997,0.03571328178309866
274,2203.4,0.03481995679672234
275,2213.57,0.033253052082152464
276,2223.79,0.03279683763938902
277,2234.0499999999997,0.03490064341407074
278,2244.36,0.033638339460558886
279,2254.7200000000003,0.03234750577885349
280,2265.13,0.03257195236895452
281,2275.59,0.03340697923086199
282,2286.09,0.034422016310214625
283,2296.64,0.0326747836613737
284,2307.2400000000002,0.03325078128433921
285,2312.56,0.03221819020454454
286,2323.2400000000002,0.027396698262400362
287,2333.96,0.030289436537701334
288,2344.73,0.028899455084808744
289,2355.56,0.03158448395808389
290,2366.43,0.02904605304880418
291,2377.35,0.030177242411330917
292,2382.83,0.027732782201316863
293,2393.83,0.029281311998733902
294,2404.88,0.028589072067957386
295,2415.98,0.029161492408987306
296,2427.13,0.031362383021823675
297,2432.73,0.030389223464145076
298,2443.96,0.031939584511871746
299,2455.24,0.03176480583140486
300,2466.5699999999997,0.031373357422744406
301,2472.26,0.030260108354317406
302,2483.67,0.030095340380547266
303,2495.13,0.028781852678583564
304,2506.65,0.0322652953027876
305,2511.88643,0.028807350280823565
306,2512.43,0.02844839262506514
307,2518.22,0.028469120443339522
308,2524.02,0.027840948240574655
309,2535.67,0.028662463729848667
310,2547.38,0.028637969092887187
311,2553.2500000000005,0.031063436742847568
312,2565.04,0.029983331937572088
313,2576.8799999999997,0.031660057027100355
314,2582.82,0.03124907452978599
315,2594.74,0.030723369451000262
316,2606.71,0.029656504267018286
317,2612.7200000000003,0.02913691162242917
318,2624.7799999999997,0.030766386249093947
319,2636.8999999999996,0.032863920749523226
320,2642.9799999999996,0.03614375795765935
321,2655.18,0.03816633228977464
322,2667.4300000000003,0.034146036516693665
323,2673.58,0.035616853577555056
324,2685.92,0.036417367615120835
325,2692.1099999999997,0.03370129459182523
326,2704.5400000000004,0.03526121844003775
327,2717.02,0.03273089218305404
328,2723.29,0.03208397899144443
329,2735.86,0.033958272545107464
330,2742.1600000000003,0.029193659290380113
331,2754.82,0.0306161926546899
332,2767.54,0.03247962589276419
333,2773.92,0.033801882469722835
334,2786.72,0.030663365539483126
335,2793.14,0.024658802032284773
336,2806.0400000000004,0.026219794891652565
337,2812.5,0.03326283130029721
338,2825.49,0.03602709397031176
339,2832.0,0.034911230273760155
340,2845.07,0.0330862127754607
341,2858.2000000000003,0.03029245515092575
342,2864.79,0.035535761286060154
343,2878.02,0.037012503451132696
344,2884.0315,0.03650195759222632
345,2884.65,0.03644943077675676
346,2897.9700000000003,0.03735736020323354
347,2911.34,0.04159665962755746
348,2931.5200000000004,0.03972819875866117
349,2951.84,0.038827907883736856
350,2972.2999999999997,0.039645127002784525
351,2992.91,0.03992476611537359
352,3006.72,0.040359145520752295
353,3027.5600000000004,0.04083232462343819
354,3048.5499999999997,0.04159763371966549
355,3069.6800000000003,0.04228038280986477
356,3090.96,0.04228735189360545
357,3112.38,0.043579870971318116
358,3126.75,0.04246281035258473
359,3148.42,0.042569359419533055
360,3170.25,0.04387186847959223
361,3192.2200000000003,0.04133176753362337
362,3206.96,0.04335271689895879
363,3229.19,0.040749585941795036
364,3251.5699999999997,0.045838154978172695
365,3266.58,0.048861444331882636
366,3289.22,0.048538123357065394
367,3311.31121,0.04790623628686002
368,3312.02,0.04788596182247982
369,3319.66,0.0466209055340746
370,3327.31,0.04731013923743849
371,3334.98,0.05062104292434058
372,3342.6699999999996,0.04717499659478088
373,3350.37,0.04955463025699027
374,3358.1,0.04982625389450698
375,3365.84,0.0420576075237928
376,3373.6,0.04209443113661682
377,3381.3700000000003,0.047054404741209935
378,3389.17,0.049314828321110366
379,3396.98,0.0462768318927799
380,3404.81,0.05078530544798764
381,3412.6600000000003,0.047002858986733585
382,3420.5299999999997,0.048809312509017745
383,3428.41,0.049532206023071
384,3436.3199999999997,0.04946145951243156
385,3444.2400000000002,0.04223335299356123
386,3452.1800000000003,0.051645986458229105
387,3460.14,0.048019629906435185
388,3468.1099999999997,0.048507383346410374
389,3476.11,0.04722735676169287
390,3484.12,0.04926973016874446
391,3492.15,0.04796990355933426
392,3500.2,0.04595735693346227
393,3508.27,0.050320000291128486
394,3516.36,0.04625216363233291
395,3524.4700000000003,0.04858693695707554
396,3532.5899999999997,0.05127492027358727
397,3540.7300000000005,0.0527590935736372
398,3548.8999999999996,0.05491300684899445
399,3557.0800000000004,0.0517701901161208
400,3565.28,0.05400936336678536
401,3573.5,0.04506778660098812
402,3581.73,0.04712587982695998
403,3589.9900000000002,0.04051917302823916
404,3598.27,0.051291196213056535
405,3606.56,0.04902748938964302
406,3614.87,0.04828799254976771
407,3619.08,0.05306187908456012
408,3621.81,0.034139326837525276
409,3624.55,0.05022699458225953
410,3627.2900000000004,0.04777309232699378
411,3630.03,0.058453440071728036
412,3632.77,0.06366080781646229
413,3635.5,0.05731874556942744
414,3638.24,0.056379263314161696
415,3640.9799999999996,0.057074261058895945
416,3643.72,0.0394574088036302
417,3646.46,0.05691665654836446
418,3649.19,0.046399904301329606
419,3651.93,0.04064775204606386
420,3654.67,0.04455844979079812
421,3657.41,0.052378247535532364
422,3660.1499999999996,0.05008018528026662
423,3662.88,0.047662923033231774
424,3665.62,0.053899850777966024
425,3668.36,0.049450928522700284
426,3671.1,0.046985076267434533
427,3673.8399999999997,0.05498350401216879
428,3676.57,0.06338408176513394
429,3679.31,0.051880389509868195
430,3682.05,0.05297014725460245
431,3684.79,0.0624336049993367
432,3687.5200000000004,0.057264422752301855
433,3690.26,0.051331440497036106
434,3693.0,0.03994721824177036
435,3695.7400000000002,0.047229445986504616
436,3698.48,0.05940904373123887
437,3701.2099999999996,0.05037688148420402
438,3703.95,0.04741579922893827
439,3706.69,0.04540226697367253
440,3709.4300000000003,0.04314873471840679
441,3712.17,0.056503942463141034
442,3714.9,0.04617723021610619
443,3717.64,0.05238267796084044
444,3720.3799999999997,0.055526635705574694
445,3723.12,0.08042345345030895
446,3725.8599999999997,0.1107448611950432
447,3728.59,0.13497435894800835
448,3731.33,0.1251512566927426
449,3734.0699999999997,0.08111314443747686
450,3736.81,0.05414133218221112
451,3739.5499999999997,0.05675910992694537
452,3742.28,0.05563531767991052
453,3745.02,0.04061619542464477
454,3747.7599999999998,0.04870587316937903
455,3750.5,0.05321332091411328
456,3753.24,0.048524938658847536
457,3755.9700000000003,0.053860756411812684
458,3758.71,0.056227124156546945
459,3761.4500000000003,0.057410821901281196
460,3764.19,0.05300859964601545
461,3766.93,0.0495892173907497
462,3769.6600000000003,0.04468117514371485
463,3772.4,0.0545763628884491
464,3775.1400000000003,0.06268884063318336
465,3777.88,0.06423090837791762
466,3780.62,0.05940350612265187
467,3783.35,0.06218938387561702
468,3786.0899999999997,0.05951229162035127
469,3788.8300000000004,0.05942533936508553
470,3791.57,0.05393763710981979
471,3794.3100000000004,0.05013436485455403
472,3797.04,0.050864912607519186
473,3799.7799999999997,0.050464120352253436
474,3801.8939600000003,0.05305186796847964
475,3802.52,0.053818218204353896
476,3805.2599999999998,0.05748672641899962
477,3807.99,0.05717201464016124
478,3810.73,0.06437224285480697
479,3813.47,0.06454050106945271
480,3816.21,0.05734015928409843
481,3818.95,0.05442957749874416
482,3821.6800000000003,0.057307745719905774
483,3824.42,0.0543917339345515
484,3827.16,0.05122594214919723
485,3829.9,0.05335501036384296
486,3832.64,0.05153370857848869
487,3835.3700000000003,0.04208174679965031
488,3838.11,0.041338875014296034
489,3840.85,0.046091233228941764
490,3843.59,0.05425855144358749
491,3846.33,0.05416346965823322
492,3849.0600000000004,0.05719368787939484
493,3851.8,0.06319386609404055
494,3854.54,0.0651377643086863
495,3857.28,0.06298195252333202
496,3860.02,0.06610960073797774
497,3862.75,0.06978604895913938
498,3865.49,0.06801032717378509
499,3868.2299999999996,0.06305802538843083
500,3870.9700000000003,0.06520826360307656
501,3873.71,0.06260720181772228
502,3876.44,0.057790960038883905
503,3879.18,0.057980958253529634
504,3881.9199999999996,0.05750847646817536
505,3884.66,0.05635180468282109
506,3887.3999999999996,0.05577073289746681
507,3890.13,0.05504875111862844
508,3892.87,0.05001879933327417
509,3895.61,0.05144794754791989
510,3898.35,0.05700882576256563
511,3901.0899999999997,0.06139625397721135
512,3903.82,0.06478488219837297
513,3906.56,0.061336710413018705
514,3909.3,0.06135293862766443
515,3912.04,0.06652229684231015
516,3914.77,0.07049738506347177
517,3917.51,0.0637911632781175
518,3920.25,0.06310147149276324
519,3922.9900000000002,0.062297749707408964
520,3925.73,0.06031027792205469
521,3928.4599999999996,0.05614564614321631
522,3931.2000000000003,0.04837295435786204
523,3933.94,0.041141122572507766
524,3936.6800000000003,0.04196319078715349
525,3939.42,0.046226299001799226
526,3942.1499999999996,0.05317753722296084
527,3944.89,0.05659083543760657
528,3947.6299999999997,0.0612280636522523
529,3950.3700000000003,0.06529511186689803
530,3953.11,0.06484436008154376
531,3955.8399999999997,0.05995209830270538
532,3958.58,0.0622381065173511
533,3961.3199999999997,0.05684053473199683
534,3964.06,0.049723822946642564
535,3966.7999999999997,0.04684420116128829
536,3969.53,0.04515019938244991
537,3972.27,0.04768383759709564
538,3975.0099999999998,0.05258497581174136
539,3977.75,0.054027144026387086
540,3980.49,0.05884409224103282
541,3983.2200000000003,0.06551248046219445
542,3985.96,0.07026372867684016
543,3988.7,0.0758620768914859
544,3991.44,0.07953272510613163
545,3994.18,0.07530261332077735
546,3996.9100000000003,0.07161588154193897
547,3999.65,0.0739724697565847
548,4002.3900000000003,0.07054057797123044
549,4005.13,0.07203377618587616
550,4007.87,0.07155584440052189
551,4010.6000000000004,0.0727073026216835
552,4013.34,0.07268008083632924
553,4016.0800000000004,0.07862051905097497
554,4018.82,0.07811000726562069
555,4021.56,0.07841943548026642
556,4024.29,0.07470556370142804
557,4027.0299999999997,0.08739559191607377
558,4029.7699999999995,0.07897345013071949
559,4032.51,0.07522118834536522
560,4035.24,0.07493911656652684
