,lambda (Angstroms),Total Flux (erg/s/cm^2/Angstrom)
0,100.09,0.0023199152945596988
1,101.96000000000001,0.00278982465145742
2,104.09,0.0033250598190751436
3,104.712855,0.0034815800662319025
4,106.03,0.0032054840018705586
5,108.0,0.002792561704191633
6,110.0,0.0023734348031846006
7,113.86999999999999,0.0015623683480589959
8,117.87,0.0007241149039449287
9,120.22644299999999,0.00023264660844578403
10,120.9,0.0002268435625242639
11,125.14000000000001,0.00018708561832272644
12,126.88,0.00017085625409379385
13,128.06,0.00015987064457072443
14,131.04,0.0001319889877073799
15,131.95,0.00012474725718535182
16,134.09,0.00010481331888080218
17,136.9,8.075696249959462e-05
18,138.038426,7.032898934956085e-05
19,140.09,7.073557877751816e-05
20,143.02,9.957153451335929e-05
21,147.03,0.0001736952725682135
22,151.15,0.00018545652363704127
23,155.03,0.00020010300085719946
24,158.489319,0.00021485062881710187
25,159.0,0.00021693387949367834
26,161.95999999999998,0.00022863370542997233
27,166.11999999999998,0.0002490203391782774
28,169.98,0.00026721369597357974
29,173.14,0.0002826756398785422
30,177.18,0.0003019900428456462
31,180.06,0.0003179529815944728
32,181.970086,0.0003284776168657144
33,182.14000000000001,0.0003295320761345679
34,185.96,0.0003547265791656994
35,191.17,0.0003878378463887873
36,193.82,0.00041158415294179746
37,197.88,0.00043891371166074886
38,202.03,0.0004701366162626327
39,204.83999999999997,0.0004940191266075227
40,208.929613,0.0005071345101789549
41,210.09,0.000511853019772669
42,215.98,0.0005873998045708509
43,219.99,0.0006274441881091716
44,223.04999999999998,0.0006494626837768179
45,227.20000000000002,0.0006946524886855538
46,229.83,0.0010410654330012105
47,234.1,0.0017594271847988737
48,239.88329199999998,0.002182320194527824
49,240.11,0.0021984724791896887
50,246.26999999999998,0.0021209663604288475
51,252.01000000000002,0.0022833221588562454
52,257.28000000000003,0.0019614562455657204
53,260.26,0.002261194928372976
54,263.88,0.002388736261179105
55,268.79,0.0024114764197642135
56,273.78,0.002423892784599181
57,275.42287,0.002429562016742316
58,278.87,0.002447497340114193
59,284.06,0.0024744669453777655
60,290.01,0.002386646153724251
61,296.08,0.0024574839309785645
62,300.89,0.0024563627347006815
63,307.90000000000003,0.00251280196839965
64,316.227766,0.0025814600954275554
65,317.99,0.0025932266102032405
66,327.65000000000003,0.00260435994893209
67,338.38,0.002591369200956993
68,347.85999999999996,0.0025735698252995903
69,356.79,0.0025559149334619742
70,363.078055,0.0025558134412541986
71,365.94,0.0025591440753642415
72,375.33,0.0025409486637601453
73,384.95,0.0024505732101252784
74,394.83,0.0025057282307164963
75,404.96,0.0024996965534481797
76,414.39,0.0024712058301865586
77,416.86938299999997,0.0024584468305774935
78,422.09000000000003,0.0024305012458139172
79,429.94,0.002400664251264271
80,440.96999999999997,0.002377466071661391
81,451.23999999999995,0.0023284810494926173
82,459.63,0.0022901746272924214
83,470.34,0.0022532941455565333
84,478.630092,0.002235048068647816
85,480.19,0.002230496032620708
86,490.24,0.002158718940153264
87,500.51,0.0021402933352138967
88,506.3,0.0020958195297028017
89,512.16,0.002149800242950641
90,520.49,0.002113268975263695
91,530.16,0.002053941495247757
92,540.02,0.001973927709006066
93,549.5408739999999,0.0019372002512527847
94,550.06,0.0019353401575101998
95,560.2900000000001,0.0019382454134693307
96,569.39,0.0019370243136871304
97,579.97,0.0018762662196546381
98,589.4,0.0018624774184517647
99,600.36,0.0017839480015712247
100,610.11,0.0015952608232331531
101,620.03,0.0017734091320420072
102,630.0999999999999,0.0017292425765687374
103,630.957344,0.0017278427725731143
104,640.3399999999999,0.0017154408981971678
105,650.7400000000001,0.0016870933584436222
106,658.28,0.0016476642921223015
107,664.37,0.001663425392401235
108,675.1600000000001,0.0016434344699069313
109,684.5600000000001,0.0015705314243604574
110,695.6800000000001,0.0016147294087778203
111,705.36,0.0015298613448533663
112,716.8199999999999,0.0015832120212403247
113,724.43596,0.001568778900674401
114,726.79,0.0015641366004930833
115,735.21,0.0015512797713599703
116,745.43,0.0015388047578516072
117,755.8,0.0015264169789786402
118,764.56,0.0014180976816857574
119,775.19,0.0015118163095141433
120,784.17,0.0014833323563531746
121,795.0799999999999,0.0014909094221676323
122,804.28,0.0014885988131385776
123,815.4699999999999,0.0014768003169391079
124,824.92,0.0014906670989690463
125,831.763771,0.0013837537359638187
126,834.4699999999999,0.001340602982286809
127,844.13,0.0014565981156677932
128,855.87,0.0014382747063399215
129,865.78,0.0014486474860299376
130,875.8100000000001,0.0014623216959482887
131,885.9499999999999,0.0014793865502426141
132,894.15,0.0014872939491788533
133,904.5,0.001455972306372765
134,914.9699999999999,0.0018745180937950125
135,925.57,0.007500756097297956
136,934.13,0.0152825377869192
137,944.9499999999999,0.02814225207917409
138,954.992586,0.03894283091881044
139,955.89,0.039908147095974726
140,964.74,0.043053947376531135
141,975.91,0.007493531465097811
142,984.9399999999999,0.033663640446275706
143,994.05,0.037247331627729814
144,1005.5600000000001,0.05699640881747041
145,1014.8699999999999,0.05582988299961506
146,1024.26,0.024626504382035924
147,1036.12,0.037416799322984966
148,1045.71,0.07477342370609637
149,1055.38,0.073076225289484
150,1065.15,0.05544473337321689
151,1075.0,0.06741842865722598
152,1084.95,0.05115526044158038
153,1094.99,0.0710831890762455
154,1096.4782,0.07063642430889516
155,1105.12,0.06804147043333657
156,1115.35,0.06438484991220517
157,1125.67,0.056989649533116596
158,1136.08,0.07528719929607086
159,1143.96,0.06756873617715439
160,1154.54,0.0727293273195229
161,1165.22,0.07459589750860567
162,1176.01,0.049524665649074116
163,1184.1599999999999,0.07206046295628614
164,1195.1100000000001,0.046862803571497406
165,1206.17,0.03220933213809435
166,1214.53,0.023451246443406324
167,1225.77,0.04828185529408893
168,1234.27,0.07562566426480087
169,1245.69,0.08329485339956914
170,1254.32,0.0784553781310096
171,1258.92541,0.07352097220795586
172,1265.93,0.06601681826005756
173,1274.7,0.08823042658713273
174,1283.54,0.09281036545957795
175,1295.4199999999998,0.07008951801666498
176,1304.4,0.06880895797985027
177,1316.46,0.08966388193931742
178,1325.5900000000001,0.08523445307115281
179,1334.7800000000002,0.07339024467044823
180,1344.03,0.0907009167372037
181,1356.4699999999998,0.08721991365725104
182,1365.87,0.0764981968926566
183,1375.34,0.08102730067343221
184,1384.87,0.08177839492166784
185,1394.4699999999998,0.07057591971527351
186,1404.14,0.07322109505424922
187,1413.8700000000001,0.07441099086068498
188,1423.6699999999998,0.07720383721249077
189,1433.5400000000002,0.07632362410966659
190,1443.48,0.08121366155221246
191,1445.43977,0.08221624084590216
192,1446.8,0.08291210571519894
193,1453.48,0.08010325939509655
194,1463.5600000000002,0.07288865530727738
195,1473.7,0.07272013161179261
196,1483.92,0.0745868184394204
197,1494.2,0.0763248056593826
198,1504.5600000000002,0.07172174340245735
199,1511.5,0.06261795878247074
200,1518.48,0.06771147442404041
201,1525.49,0.06601938026177728
202,1536.06,0.05671779937802245
203,1546.71,0.06511711901738018
204,1553.85,0.06049190570517493
205,1564.62,0.06091465612920148
206,1575.47,0.06663385707634056
207,1586.39,0.07090425848120314
208,1593.71,0.07339180634600112
209,1604.76,0.07139465860092158
210,1615.88,0.07106801131356552
211,1623.3400000000001,0.06572080009381046
212,1634.59,0.07106853365651228
213,1645.9199999999998,0.07373047774232665
214,1653.52,0.06526402743801854
215,1659.58691,0.0699285679811767
216,1664.98,0.07407526464203511
217,1672.67,0.062043481858085815
218,1676.52,0.07882465570487322
219,1684.26,0.08348969530854454
220,1695.94,0.07562682305672037
221,1703.76,0.0727231264805847
222,1715.57,0.07090776043657412
223,1723.49,0.07090806863567967
224,1735.44,0.07756396927700683
225,1743.45,0.07510499177382947
226,1755.53,0.08273191862297025
227,1763.6399999999999,0.07189669589503413
228,1775.86,0.0768556194295126
229,1784.0600000000002,0.0772112509992936
230,1796.43,0.08682836169663392
231,1804.72,0.08407607756413203
232,1813.05,0.07865103534172661
233,1825.6200000000001,0.07883152558954941
234,1834.0400000000002,0.0740832976648611
235,1846.75,0.06694876459802163
236,1855.28,0.06945836192609868
237,1863.84,0.0735713706867481
238,1876.76,0.07793235764791522
239,1885.4299999999998,0.07290044166132999
240,1894.1299999999999,0.07239947710731713
241,1902.8700000000001,0.07425549446340077
242,1905.46072,0.07405512119687915
243,1916.06,0.07323418575490669
244,1924.9099999999999,0.07140594100739839
245,1933.79,0.06772196441328836
246,1947.19,0.07756966959785205
247,1956.1799999999998,0.07391386623286904
248,1965.21,0.0821660904057504
249,1974.28,0.08273502211649614
250,1983.3999999999999,0.07919199074957232
251,1997.14,0.07685604500598317
252,2006.3600000000001,0.07685527748372027
253,2015.62,0.07408010749932176
254,2024.93,0.0754549044372537
255,2034.27,0.07493592952858391
256,2043.6599999999999,0.0797360215422446
257,2053.1,0.07545327047823575
258,2067.33,0.07458944457348511
259,2072.09,0.08272873157934506
260,2076.87,0.08368196735413717
261,2086.46,0.0862250470571197
262,2096.0899999999997,0.0810292342979666
263,2105.76,0.07864320907667786
264,2115.48,0.08010329077771959
265,2125.25,0.08121360940109178
266,2135.06,0.07205253556232834
267,2144.91,0.07845442926142927
268,2154.81,0.08083949988286067
269,2164.76,0.0761400674266225
270,2174.75,0.07562098250824874
271,2184.79,0.07719944451220541
272,2187.7616199999998,0.07843656398034683
273,2194.87,0.0813966504501874
274,2205.0,0.0782727075906548
275,2215.18,0.07106427718492508
276,2225.41,0.06976719923299828
277,2235.68,0.07918152324411379
278,2246.0,0.0742406497090322
279,2256.37,0.0680256386277535
280,2266.7799999999997,0.06913145950951713
281,2277.2400000000002,0.07255614284508366
282,2282.4900000000002,0.07755978049438808
283,2293.03,0.07123127775603924
284,2303.61,0.07359555698073272
285,2314.25,0.06856945914998969
286,2324.93,0.050293853282288976
287,2335.66,0.05925858986839116
288,2346.44,0.05371253890829624
289,2357.27,0.06581401040200423
290,2362.7000000000003,0.05426365688499909
291,2373.6099999999997,0.05926036230479171
292,2384.57,0.049902460178387224
293,2395.5699999999997,0.05551161001502506
294,2406.6299999999997,0.05341917279622638
295,2417.74,0.056230738031230604
296,2423.31,0.06608236138487358
297,2434.5,0.06388282054596243
298,2445.73,0.06944522167009361
299,2457.02,0.06933886573878825
300,2462.69,0.06731375400003704
301,2474.06,0.06330359199481633
302,2485.47,0.061765021952637944
303,2496.95,0.05916500534578362
304,2502.7,0.07196948753311702
305,2511.88643,0.059315869444050685
306,2514.2599999999998,0.05604629328394893
307,2520.0499999999997,0.05517029331027237
308,2525.8599999999997,0.05307311295672128
309,2537.52,0.05664367148987003
310,2543.37,0.05679595037656988
311,2555.1099999999997,0.06816164739022051
312,2566.8999999999996,0.06249848345418482
313,2572.82,0.06966148101132381
314,2584.7,0.06750059536585273
315,2596.6299999999997,0.06481003877069533
316,2602.61,0.061070325188210726
317,2614.6200000000003,0.0586335370735552
318,2626.69,0.06689692781927607
319,2632.75,0.07754011271729336
320,2644.9,0.09243115194351612
321,2657.1099999999997,0.10498062003011528
322,2663.2299999999996,0.08190583378850896
323,2675.5299999999997,0.08945787016567275
324,2687.88,0.09309602559315021
325,2694.07,0.08149334802198305
326,2706.5099999999998,0.08982942174002512
327,2712.75,0.0777304232191716
328,2725.27,0.07412040541771556
329,2737.85,0.0822703464766359
330,2744.16,0.06102240662622156
331,2756.83,0.06741866597570653
332,2763.1800000000003,0.07497696536554312
333,2775.94,0.0803912230055927
334,2782.33,0.06583345163568023
335,2795.18,0.04324248756629442
336,2808.08,0.04843951254722229
337,2814.55,0.07730552965781169
338,2827.54,0.09236571292930416
339,2834.06,0.08885722909020725
340,2847.1400000000003,0.07999579065226435
341,2853.71,0.0690637858634811
342,2866.88,0.0921560557161028
343,2873.4900000000002,0.10178441016757049
344,2884.0315,0.09873956876005908
345,2886.75,0.0979543988884918
346,2893.3999999999996,0.10403500630356435
347,2906.7599999999998,0.1274999011103868
348,2926.91,0.11668629327786231
349,2947.2,0.11208378539091829
350,2967.63,0.11723947744955474
351,2988.2,0.11873996945377166
352,3008.9100000000003,0.12053386140356906
353,3029.77,0.12406415329505982
354,3050.77,0.12623584513213104
355,3071.92,0.13326403691089564
356,3093.21,0.1337323286352407
357,3107.49,0.14308442308444916
358,3129.0299999999997,0.1371336147116165
359,3150.7200000000003,0.13889920628047722
360,3172.56,0.14562749779103132
361,3187.2,0.13050609210030384
362,3209.2900000000004,0.1413076835136802
363,3231.54,0.1258186748648628
364,3246.46,0.1552727690652963
365,3268.96,0.1728439603193012
366,3291.62,0.17069485151111236
367,3306.81,0.16580434560659388
368,3311.31121,0.16495442337894287
369,3322.0699999999997,0.16292286391206887
370,3329.73,0.17586120699325233
371,3337.4100000000003,0.1672479499258227
372,3345.1,0.1677113927840865
373,3352.81,0.15731003549373723
374,3360.5400000000004,0.17216157805477483
375,3368.29,0.17184462046719934
376,3376.0499999999997,0.14499076280531734
377,3383.84,0.14539020492051566
378,3391.6400000000003,0.1748675469614074
379,3399.46,0.17901888885368608
380,3407.29,0.16986513067165823
381,3415.15,0.1679970722667107
382,3423.02,0.19075751378745662
383,3430.91,0.17851745515958944
384,3438.82,0.18108369638310923
385,3446.75,0.13649503745801583
386,3454.69,0.17712377845861593
387,3462.6600000000003,0.15187651923629636
388,3470.64,0.16930565993967026
389,3478.64,0.14384410049443105
390,3486.66,0.16295974090057874
391,3494.6899999999996,0.1528582812324199
392,3502.75,0.1813317213413414
393,3510.83,0.1797511613016498
394,3518.9199999999996,0.16591010118765165
395,3527.0299999999997,0.1556272409250404
396,3535.16,0.17875898051381606
397,3543.31,0.1974515199539786
398,3551.48,0.19438295924552806
399,3559.6699999999996,0.18615319838846445
400,3567.8700000000003,0.17582613745709427
401,3576.1,0.15606057630280443
402,3584.3399999999997,0.13381491507420806
403,3592.6000000000004,0.15055595369699856
404,3600.89,0.19764309209686942
405,3609.19,0.16986323042243376
406,3617.5099999999998,0.182932168599385
407,3625.85,0.1894524066277231
408,3633.65,0.16897814866861488
409,3636.4,0.16985202823431392
410,3639.15,0.18255980780001294
411,3641.89,0.18967318744001851
412,3644.6400000000003,0.19133676700571756
413,3647.39,0.19412274657141654
414,3650.1299999999997,0.18682452621142212
415,3652.88,0.20198030577712114
416,3655.62,0.19504298541712672
417,3658.3700000000003,0.21047516498282573
418,3661.12,0.20179394454852476
419,3663.8599999999997,0.21576622418853034
420,3666.61,0.21956190375422935
421,3669.3599999999997,0.21079598331992838
422,3672.1,0.21216176295993397
423,3674.85,0.21177204252563298
424,3677.59,0.19922252216563854
425,3680.3399999999997,0.19427530173133759
426,3683.09,0.2010660812970366
427,3685.83,0.20320456093704217
428,3688.5800000000004,0.1850358405027412
429,3691.33,0.20090232006844022
430,3694.0699999999997,0.20920589970844577
431,3696.82,0.21357127927414482
432,3699.56,0.2144688589141504
433,3702.31,0.2208309384798494
434,3705.06,0.21744611804554842
435,3707.8,0.187467197685554
436,3710.55,0.18676177725125304
437,3713.2999999999997,0.19655335681695205
438,3716.04,0.22366813645695763
439,3718.79,0.20719731602265665
440,3721.54,0.21235229558835567
441,3724.2799999999997,0.21984927522836123
442,3727.03,0.23279955479406025
443,3729.77,0.2661529344340658
444,3732.5199999999995,0.26400901399976484
445,3735.27,0.22910479356546387
446,3738.0099999999998,0.19949817320546945
447,3740.76,0.17207345277116845
448,3743.5099999999998,0.18974483233686748
449,3746.25,0.18140311197687306
450,3749.0,0.1736017915425721
451,3751.7400000000002,0.17007137118257765
452,3754.49,0.18948585074827667
453,3757.2400000000002,0.20226123031397572
454,3759.98,0.20714670995398127
455,3762.73,0.2123298895196803
456,3765.48,0.2132262690853793
457,3768.22,0.2118394487253849
458,3770.9700000000003,0.2085336282910839
459,3773.71,0.2201087079310895
460,3776.46,0.24021118749678852
461,3779.21,0.24741936706248754
462,3781.95,0.26038214670249316
463,3784.7,0.2616113262681921
464,3787.45,0.2581361058338911
465,3790.19,0.2511482854738967
466,3792.94,0.22393776503959575
467,3795.6800000000003,0.21049704467960134
468,3798.43,0.19912522424530033
469,3801.1800000000003,0.20010070381099937
470,3801.8939600000003,0.19917343644157529
471,3803.92,0.19654208658785263
472,3806.6699999999996,0.2237065704112816
473,3809.42,0.23539895423471058
474,3812.16,0.24712083811696342
475,3814.9100000000003,0.2432227219403924
476,3817.65,0.23088190582264526
477,3820.4,0.21580988964607423
478,3823.15,0.2006307734695032
479,3825.8900000000003,0.19596665735175609
480,3828.64,0.190957441175185
481,3831.39,0.173821124998614
482,3834.13,0.16800060888086685
483,3836.8799999999997,0.16273759270429583
484,3839.6200000000003,0.1659024765865487
485,3842.37,0.17290766040997765
486,3845.1200000000003,0.19229954423340664
487,3847.86,0.21347482811565946
488,3850.6099999999997,0.22452991193908844
489,3853.36,0.22678559576251742
490,3856.1,0.22332307964477027
491,3858.85,0.22384716346819925
492,3861.5899999999997,0.21551114735045213
493,3864.34,0.22700053117388108
494,3867.09,0.23035621499731004
495,3869.8300000000004,0.2399289988795629
496,3872.58,0.24053198270299186
497,3875.3300000000004,0.22939146652642084
498,3878.07,0.2223019504086737
499,3880.8199999999997,0.22578173423210268
500,3883.56,0.21956091811435555
501,3886.31,0.20761380193778448
502,3889.06,0.20563918576121346
503,3891.8,0.21129166964346632
504,3894.55,0.2196956534668953
505,3897.3,0.23226803729032428
506,3900.04,0.2530373211725771
507,3902.79,0.2557443049960061
508,3905.5299999999997,0.25471288887825894
509,3908.28,0.2659088727016879
510,3911.0299999999997,0.26509045652511687
511,3913.7699999999995,0.28469224040736973
512,3916.52,0.28043312423079875
513,3919.2700000000004,0.27795070805422767
514,3922.01,0.25975509193648055
515,3924.7599999999998,0.2499907757599095
516,3927.5,0.22702315964216235
517,3930.25,0.20283034346559134
518,3933.0,0.1742662272890203
519,3935.74,0.16083661117127318
520,3938.4900000000002,0.17339779499470215
521,3941.24,0.1911425788181311
522,3943.9800000000005,0.21120106270038394
523,3946.73,0.23669024652381293
524,3949.47,0.25357883040606577
525,3952.2200000000003,0.26620191422949474
526,3954.97,0.26666389805292373
527,3957.71,0.2698855819351766
528,3960.46,0.25571026575860556
529,3963.2099999999996,0.22631694958203452
530,3965.95,0.1906241334642874
531,3968.7,0.16711391728771635
532,3971.44,0.1574014011699692
533,3974.19,0.17059438499339818
534,3976.94,0.20430756881682716
535,3979.68,0.24062215269908002
536,3982.4300000000003,0.268965536522509
537,3985.18,0.2874885203459379
538,3987.9199999999996,0.3028825042281908
539,3990.67,0.30764258805161976
540,3993.4199999999996,0.3147772718750487
541,3996.1600000000003,0.3202890557573016
542,3998.91,0.3270740395807306
543,4001.65,0.32838932346298344
544,4004.4,0.3326190072864124
545,4007.15,0.3377230911098414
546,4009.89,0.3421745749920942
547,4012.64,0.34431165881552317
548,4015.39,0.35228114263895216
549,4018.1299999999997,0.355006626521205
550,4020.88,0.353607110344634
551,4023.62,0.35170719422688684
552,4026.3700000000003,0.3493769780503158
553,4029.12,0.3483159618737448
554,4031.8599999999997,0.33903824575599767
555,4034.61,0.3341980295794266
556,4037.3599999999997,0.3385350134028556
557,4040.1,0.3432909972851085
558,4042.85,0.34860938110853745
559,4045.59,0.3443743649907903
560,4048.34,0.3293867488142192
561,4051.09,0.3306609326376482
562,4053.83,0.33380371651990104
563,4056.5800000000004,0.33840580034333
564,4059.33,0.335911984166759
565,4062.0699999999997,0.32643686804901184
566,4064.82,0.32819045187244084
567,4067.56,0.3244856357546937
568,4070.31,0.32845031957812265
569,4073.06,0.33046900340155166
