,lambda (Angstroms),Total Flux (erg/s/cm^2/Angstrom)
0,100.09,0.0008757994286745781
1,101.94999999999999,0.0010533348350524616
2,104.09,0.001255056172928094
3,104.712855,0.0013144509106558034
4,106.02000000000001,0.0012178092076268216
5,107.99,0.0010739364636574878
6,110.0,0.0009380191603689782
7,114.13,0.0006397508631642305
8,117.87,0.0003718508418214314
9,120.22644299999999,0.0003679582838815326
10,120.89000000000001,0.0004155942247000807
11,125.14000000000001,0.0004624403161726025
12,126.88,0.000482590249387235
13,128.06,0.0004972277098431352
14,131.04,0.0005236985184521035
15,131.95,0.0005912751116850434
16,134.09,0.0006109017111559132
17,136.9,0.0007205510441059805
18,138.038426,0.0007348837778025746
19,140.09,0.0007677647666172959
20,143.02,0.0017165158560719944
21,147.03,0.0035232292385680153
22,151.15,0.0037386557786886153
23,155.02,0.004005073778753353
24,158.489319,0.004270156038454997
25,159.0,0.004309141460413259
26,161.95999999999998,0.004520770145334899
27,166.11,0.0048645427441270615
28,169.98,0.005151056480832044
29,173.14,0.005392162495815956
30,177.17,0.005684520296570756
31,180.05,0.005909613449467487
32,181.970086,0.006060849068412352
33,182.14000000000001,0.006074275773468821
34,185.95000000000002,0.006375526831276595
35,191.16,0.006767893996940242
36,193.82,0.007037500501866404
37,197.88,0.00733542711464844
38,202.02,0.00768077070502224
39,204.83,0.00793189454293296
40,208.929613,0.007989102285973415
41,210.09,0.008005661071341055
42,215.97000000000003,0.008799049822658968
43,219.99,0.009171914775090604
44,223.04999999999998,0.009322041992613194
45,227.19,0.00971780628690846
46,229.83,0.014595973807908339
47,234.1,0.024320267222555873
48,239.88329199999998,0.030253999123285878
49,240.1,0.03047619498102103
50,246.26,0.028769457638955564
51,252.0,0.0303298010247582
52,257.27,0.024885120701270372
53,260.25,0.02916632315592052
54,263.87,0.03060864640620023
55,268.78,0.030326698135170773
56,273.78,0.03004488185102673
57,275.42287,0.029911440042787573
58,278.87,0.029633666012368446
59,284.05,0.0295689573782853
60,290.0,0.02798122462291952
61,296.07,0.028048121744756453
62,300.88,0.02703625015596496
63,307.89,0.027162909649223094
64,316.227766,0.02726932814144749
65,317.98,0.027290683864722585
66,327.64,0.026729282543803197
67,338.37,0.025939970776363758
68,347.85,0.025058503268877656
69,356.78000000000003,0.024597249635771017
70,363.078055,0.024479667232149442
71,365.93,0.024427658422901382
72,375.32000000000005,0.023708972240789963
73,384.94,0.022182169751768472
74,394.82000000000005,0.02238783665493559
75,404.95000000000005,0.02208300105059175
76,414.38000000000005,0.021434602467278577
77,416.86938299999997,0.021184818025564517
78,422.08000000000004,0.020661589280239426
79,429.93,0.02005336402151556
80,440.96000000000004,0.01964444121849337
81,451.23,0.018936031790838078
82,459.62,0.01825328808119563
83,470.32,0.01767675766484591
84,478.630092,0.01737245028005438
85,480.16999999999996,0.017315654716446405
86,490.22999999999996,0.01649768130425598
87,500.49,0.016270998003155217
88,506.29,0.015791001224755172
89,512.15,0.016381685479682027
90,520.47,0.015898352101011617
91,530.15,0.015216845477750852
92,540.0,0.014333573448916299
93,549.5408739999999,0.01381026941176828
94,550.04,0.013782943339383399
95,560.27,0.01387764574385799
96,569.37,0.0137502931124522
97,579.96,0.013192258006233816
98,589.38,0.012922069809767603
99,600.3399999999999,0.012171766706448104
100,610.09,0.01067682245851333
101,620.01,0.011866279941640205
102,630.0799999999999,0.01135911012864501
103,630.957344,0.011352405979700097
104,640.32,0.011281931315704673
105,650.72,0.010875193190866229
106,658.26,0.010459247550358357
107,664.3499999999999,0.010507286840717384
108,675.1500000000001,0.010316484941846693
109,684.54,0.009674838596439675
110,695.6600000000001,0.009742306678343185
111,705.34,0.009073626346762788
112,716.8,0.009263725720738887
113,724.43596,0.009103256199214803
114,726.7700000000001,0.009054140441795156
115,735.19,0.008869207544816822
116,745.41,0.008549799795752861
117,755.7800000000001,0.008318100642348432
118,764.53,0.007485028055821067
119,775.1700000000001,0.007909375974603792
120,784.15,0.007503190968087708
121,795.06,0.0074691479590575875
122,804.26,0.007367537159508815
123,815.45,0.00720058459570982
124,824.8900000000001,0.007054198749216298
125,831.763771,0.006598890419881571
126,834.44,0.00642130352591171
127,844.11,0.006691081110045033
128,855.8499999999999,0.006493441350761186
129,865.76,0.006403912416817156
130,875.7800000000001,0.0062871105370876715
131,885.9300000000001,0.0061295250850662885
132,894.12,0.00600388203067662
133,904.48,0.005839729500337554
134,914.95,0.006269537024213033
135,925.54,0.009944385789049836
136,934.1099999999999,0.013717116831037691
137,944.9200000000001,0.017064837704303587
138,954.992586,0.018936562878298417
139,955.87,0.01909966726956219
140,964.71,0.020276633638600647
141,975.88,0.011126650057396974
142,984.91,0.017622173984141006
143,994.0200000000001,0.01702442688255055
144,1005.5400000000001,0.019723888802383467
145,1014.84,0.019633559258498582
146,1024.23,0.012771428557737398
147,1036.0900000000001,0.017260536107148717
148,1045.6799999999998,0.0222298328355513
149,1055.3500000000001,0.02152567853561938
150,1065.12,0.01879337295026935
151,1074.97,0.02018229633658482
152,1084.92,0.01690609843748218
153,1094.96,0.020321469381503234
154,1096.4782,0.0201912203788224
155,1105.09,0.01945216340272054
156,1115.31,0.018922522239243376
157,1125.6299999999999,0.017100387052640213
158,1136.05,0.019406477842911045
159,1143.9199999999998,0.018406091222894872
160,1154.51,0.018490185173851505
161,1165.19,0.018278545503994742
162,1175.97,0.01386922181101198
163,1184.1200000000001,0.017415703926243007
164,1195.08,0.014996482991633446
165,1206.14,0.012883768033897883
166,1214.5,0.009488762700564311
167,1225.74,0.014453189501201948
168,1234.23,0.016861637937804576
169,1245.6499999999999,0.017293418496815417
170,1254.2900000000002,0.016783530898729044
171,1258.92541,0.016437598768947598
172,1265.89,0.01591814434037675
173,1274.67,0.017492759465428803
174,1286.46,0.01765496320396681
175,1295.3799999999999,0.015307808729646117
176,1304.36,0.015272574427022817
177,1316.43,0.01705573896681533
178,1325.55,0.016364045064819286
179,1334.74,0.015167741363136868
180,1343.99,0.016439727833151844
181,1356.43,0.01599190343174496
182,1365.8300000000002,0.014856920331003422
183,1375.3000000000002,0.01489135743057551
184,1384.83,0.014788814701844994
185,1394.43,0.012218352173428104
186,1404.1000000000001,0.01213418984532484
187,1413.8300000000002,0.013771057688918972
188,1423.6299999999999,0.01351962573282673
189,1433.5,0.013707763977048116
190,1443.43,0.013898342392966894
191,1445.43977,0.013898348144171435
192,1446.76,0.013898351315008772
193,1453.44,0.013488647358571946
194,1463.5200000000002,0.012764331568020567
195,1473.66,0.01273507592157305
196,1483.87,0.012764510443246701
197,1494.1599999999999,0.012618525157058837
198,1504.52,0.01205097003899214
199,1511.46,0.011119236707005379
200,1518.44,0.011483143471087856
201,1525.4499999999998,0.011325700307222264
202,1536.02,0.010072005693519083
203,1546.67,0.009775656271954382
204,1553.81,0.009531526420313822
205,1564.5800000000002,0.010049154286956843
206,1575.4199999999998,0.010497800321721035
207,1586.34,0.010692936548623709
208,1593.67,0.01074237415331204
209,1604.71,0.010450080668422436
210,1615.8400000000001,0.010330217399688622
211,1623.29,0.010003181292584675
212,1634.55,0.010378072336075893
213,1645.88,0.010378119547688282
214,1653.47,0.00995743977682668
215,1659.58691,0.010194699836496516
216,1664.93,0.010402026182548754
217,1672.62,0.009553634060472684
218,1676.48,0.010941858762525528
219,1684.2099999999998,0.011018224342025134
220,1695.8899999999999,0.010402499202122857
221,1703.72,0.010189636535561658
222,1715.5300000000002,0.010050403675780332
223,1723.44,0.010050572412370486
224,1735.39,0.01069436200810403
225,1743.3999999999999,0.010427512498633378
226,1755.49,0.011121184549881792
227,1763.59,0.010167386618956413
228,1775.81,0.010475980950325777
229,1784.01,0.01067065477333959
230,1796.3799999999999,0.011698771735617746
231,1804.6699999999998,0.011328587137176832
232,1813.0,0.010794713240311596
233,1825.56,0.010894763535074218
234,1833.99,0.010525251392148173
235,1846.7,0.009404211317819584
236,1855.23,0.010075753928832733
237,1863.79,0.01092025406602764
238,1876.71,0.011097560674971356
239,1885.3700000000001,0.010648012566105456
240,1894.08,0.010971055334209152
241,1902.8200000000002,0.011098058628494606
242,1905.46072,0.011093029717520997
243,1916.01,0.01107251644202313
244,1924.85,0.010286796583136488
245,1933.74,0.008961738593826282
246,1947.1399999999999,0.011726782640310332
247,1956.13,0.011460049390152991
248,1965.1599999999999,0.012885615235656796
249,1974.2299999999998,0.012477400176821748
250,1983.3400000000001,0.012826334213647846
251,1997.09,0.012767113347166929
252,2006.31,0.012419394897061179
253,2015.57,0.012447745542616576
254,2024.87,0.01161752528383312
255,2034.22,0.012943413894626096
256,2043.61,0.01396412160108022
257,2053.04,0.013122858403195487
258,2067.27,0.012824506684648327
259,2072.04,0.01455350884224004
260,2076.81,0.02036361099983175
261,2086.4,0.023324464184591606
262,2096.03,0.021668256465012605
263,2105.7000000000003,0.020693687841094755
264,2115.42,0.022636168086753335
265,2125.19,0.02083621720198835
266,2135.0,0.01931246541288451
267,2144.85,0.02364737271944182
268,2154.75,0.023647158895575556
269,2164.7,0.020979713941285727
270,2174.69,0.021173708082657047
271,2184.73,0.0253949210936048
272,2187.7616199999998,0.02546562945158472
273,2194.81,0.025630309604343225
274,2204.94,0.024760742203317358
275,2215.12,0.019898275703569744
276,2225.34,0.022324829924844733
277,2235.62,0.028822925227653624
278,2245.94,0.027336971251485116
279,2256.3,0.021518517996339213
280,2266.7200000000003,0.020362305822727217
281,2277.18,0.02237726437013782
282,2282.43,0.028890229004354423
283,2292.96,0.02419560881355458
284,2303.55,0.028880619704288645
285,2314.1800000000003,0.02492040131604531
286,2324.86,0.019657783829080226
287,2335.5899999999997,0.018258647243393402
288,2346.3700000000003,0.013167731558984826
289,2357.2000000000003,0.023132286775854504
290,2362.64,0.01436600483492847
291,2373.54,0.0182037513135877
292,2384.5,0.011621458873780842
293,2395.5099999999998,0.014225957335252233
294,2406.56,0.014222926517746226
295,2417.67,0.016399606781774125
296,2423.25,0.0268301473644272
297,2434.43,0.026948178890244652
298,2445.67,0.03194474149759601
299,2456.95,0.03375150482596997
300,2462.62,0.029327647030923897
301,2473.9900000000002,0.025894801981598714
302,2485.4100000000003,0.017189627833551782
303,2496.88,0.020049674586783105
304,2502.63,0.03075606823378224
305,2511.88643,0.017839527604554567
306,2514.19,0.014625039015610864
307,2519.98,0.011753778622438633
308,2525.79,0.01291414808973904
309,2537.45,0.02012575674528512
310,2543.3,0.021413415933530792
311,2555.04,0.03814457403096742
312,2566.83,0.02840495177958562
313,2572.7499999999995,0.036415040479485516
314,2584.6200000000003,0.03230045766999426
315,2596.55,0.028982134441920913
316,2602.54,0.02506760265347503
317,2614.5499999999997,0.022544768867292217
318,2626.62,0.031106124662527313
319,2632.68,0.05366755238573565
320,2644.8300000000004,0.07270545762286129
321,2657.04,0.10125484244140481
322,2663.16,0.06373874974603107
323,2675.45,0.07282878400646514
324,2687.8,0.08436755784831712
325,2693.9999999999995,0.06111316459483391
326,2706.4300000000003,0.07603397787857642
327,2712.6699999999996,0.05470186434603848
328,2725.19,0.043542787001907855
329,2737.77,0.055560339239195136
330,2744.08,0.030890315218311412
331,2756.75,0.04232815682772555
332,2763.1,0.05578905252778709
333,2775.86,0.059902183509328084
334,2782.2599999999998,0.03560031886057121
335,2795.1,0.015580739284002748
336,2808.0,0.019028079288852185
337,2814.4700000000003,0.05285695415174954
338,2827.4700000000003,0.07779506345896214
339,2833.98,0.07326910804280477
340,2847.06,0.05306949679190792
341,2853.6299999999997,0.03117846095716845
342,2866.7999999999997,0.07355472907839847
343,2873.4100000000003,0.09989579296460424
344,2884.0315,0.09233300260040293
345,2886.67,0.09045433848840234
346,2893.33,0.1110095575375345
347,2906.68,0.15108545563151565
348,2926.8300000000004,0.13123745275464074
349,2947.12,0.1210272498577776
350,2967.54,0.126973146942354
351,2988.11,0.12927994400551443
352,3008.83,0.12982244104725896
353,3029.6800000000003,0.13872453807044297
354,3050.68,0.14520183507221104
355,3071.83,0.1584136320525632
356,3093.12,0.15474182901292713
357,3107.4,0.17966772697412942
358,3128.94,0.1656875238988001
359,3150.6299999999997,0.16599412080205483
360,3172.47,0.18318811768389362
361,3187.11,0.15804521559369766
362,3209.2,0.17562341243984325
363,3231.4500000000003,0.14770360926314513
364,3246.3599999999997,0.20809060713440047
365,3268.87,0.2438071039205814
366,3291.5299999999997,0.2386991006853464
367,3306.7200000000003,0.2237265985166253
368,3311.31121,0.2197959083351748
369,3321.98,0.21066196874312915
370,3329.64,0.2363290478369302
371,3337.3199999999997,0.2190031268761459
372,3345.0099999999998,0.2235547058880689
373,3352.7200000000003,0.2033829848454065
374,3360.45,0.23133556374815878
375,3368.2000000000003,0.22865234259632564
376,3375.96,0.17993682141719985
377,3383.7400000000002,0.18325330018348865
378,3391.54,0.23225997889519207
379,3399.36,0.23982765755231014
380,3407.2000000000003,0.23058703615484283
381,3415.05,0.21966981473008282
382,3422.92,0.25863809325073744
383,3430.82,0.240228471689514
384,3438.7200000000003,0.24522145012829055
385,3446.65,0.16199482848518906
386,3454.6,0.23956150678750215
387,3462.56,0.1960429850625226
388,3470.54,0.22556546328295765
389,3478.54,0.17750804144880733
390,3486.5600000000004,0.21634121956007163
391,3494.6,0.19367099761675055
392,3502.65,0.24830927564613678
393,3510.73,0.24769465359364498
394,3518.8199999999997,0.21669633151386045
395,3526.93,0.19668920937949055
396,3535.06,0.2453030871905353
397,3543.21,0.2764611649469947
398,3551.38,0.2695018426488687
399,3559.57,0.25263342029615726
400,3567.77,0.23142949791615317
401,3575.9999999999995,0.19922777545427103
402,3584.2400000000002,0.1532115529650962
403,3592.5,0.192846030421336
404,3600.79,0.2799765077956977
405,3609.0899999999997,0.22235908514276675
406,3610.5,0.23054938129449778
407,3613.23,0.21654107384359397
408,3615.9599999999996,0.2213419663926902
409,3618.7000000000003,0.2445950589144937
410,3621.43,0.2239585514635899
411,3624.17,0.2545472439853934
412,3626.9,0.2491952365344896
413,3629.6299999999997,0.2522256290835858
414,3632.37,0.26056622160538934
415,3635.1,0.27616201415448555
416,3637.8300000000004,0.27146840670358174
417,3640.57,0.26985229922538523
418,3643.2999999999997,0.24868839177448146
419,3646.03,0.2802352843235777
420,3648.77,0.28854707684538117
421,3651.4999999999995,0.2988191693944774
422,3654.23,0.30271656194357355
423,3656.97,0.3234587544653771
424,3659.7000000000003,0.3288772470144733
425,3662.44,0.3301232395362768
426,3665.1699999999996,0.327028532085373
427,3667.9,0.3133925246344692
428,3670.64,0.3119316171562727
429,3673.3700000000003,0.30764280970536895
430,3676.1,0.2820260022544651
431,3678.8399999999997,0.27774389477626865
432,3681.57,0.2661685873253648
433,3684.2999999999997,0.27545107987446105
434,3687.04,0.29171597239626457
435,3689.77,0.30773716494536074
436,3692.5,0.31609965749445695
437,3695.2400000000002,0.3261819500162605
438,3697.97,0.3073283425653567
439,3700.71,0.29461053508716023
440,3703.44,0.2752253276362564
441,3706.1699999999996,0.28771772018535263
442,3708.9100000000003,0.2996973127071561
443,3711.64,0.29477890525625233
444,3714.3700000000003,0.3030186978053485
445,3717.11,0.276778790327152
446,3719.8399999999997,0.27403158287624824
447,3722.57,0.2703437754253445
448,3725.31,0.26013276794714796
449,3728.0400000000004,0.2529611604962442
450,3730.77,0.24683635304534038
451,3733.5099999999998,0.22740884556714389
452,3736.2400000000002,0.2366299381162401
453,3738.97,0.2546382306653363
454,3741.7099999999996,0.23516162318713982
455,3744.44,0.232213815736236
456,3747.18,0.24544900825803953
457,3749.9100000000003,0.26943940080713574
458,3752.64,0.2750336933562319
459,3755.3799999999997,0.3029643858780355
460,3758.11,0.30380317842713167
461,3760.8399999999997,0.2875868709762278
462,3763.5800000000004,0.2813951634980314
463,3766.31,0.30552475604712753
464,3769.04,0.30128504859622374
465,3771.78,0.3281157411180273
466,3774.5099999999998,0.32681203366712347
467,3777.2400000000002,0.3410668262162197
468,3779.98,0.3600752187380232
469,3782.71,0.3289711112871194
470,3785.4500000000003,0.31492440380892295
471,3788.18,0.3137677963580191
472,3790.9100000000003,0.28674848890711535
473,3793.65,0.2679587814289188
474,3796.3799999999997,0.283889873978015
475,3799.11,0.30186136652711126
476,3801.85,0.29220625904891473
477,3801.8939600000003,0.2925535896263753
478,3804.5800000000004,0.3137761531254965
479,3807.31,0.31722784722707725
480,3810.0499999999997,0.2944471413070521
481,3812.78,0.2629953354086328
482,3815.5099999999998,0.25292872951021356
483,3818.2500000000005,0.22969442359018835
484,3820.98,0.21962371769176905
485,3823.72,0.20439981177174388
486,3826.4500000000003,0.20788800587332462
487,3829.18,0.19339299997490533
488,3831.9199999999996,0.17725729405488014
489,3834.65,0.19789468815646089
490,3837.38,0.22295638225804162
491,3840.1200000000003,0.24551847633801643
492,3842.85,0.24674147043959718
493,3845.58,0.2736883645411779
494,3848.32,0.2796818586211527
495,3851.0499999999997,0.24995965272273343
496,3853.78,0.2552021468243142
497,3856.52,0.24846264090428896
498,3859.25,0.2678039350058697
499,3861.9900000000002,0.2691729290858445
500,3864.72,0.2743745231874252
501,3867.4500000000003,0.271058917289006
502,3870.19,0.2734786113689808
503,3872.92,0.27449320547056155
504,3875.65,0.2792981995721423
505,3878.39,0.25768719365211706
506,3881.1200000000003,0.2682657877536978
507,3883.85,0.28514148185527854
508,3886.5899999999997,0.29258647593525333
509,3889.32,0.3162948700368341
510,3892.05,0.31816006413841486
511,3894.7900000000004,0.33762655821838966
512,3897.52,0.3323728523199703
513,3900.2599999999998,0.3326988463999451
514,3902.9900000000002,0.3444593405015259
515,3905.72,0.3562443346031066
516,3908.4600000000005,0.35758432868308143
517,3911.19,0.3608848227846622
518,3913.92,0.3424646168862429
519,3916.6600000000003,0.3275756109662177
520,3919.39,0.3056920050677984
521,3922.12,0.26318759916937917
522,3924.86,0.230160193249354
523,3927.59,0.18139558735093472
524,3930.3199999999997,0.16975458145251546
525,3933.06,0.17163087553249026
526,3935.79,0.207041669634071
527,3938.53,0.2485561637140458
528,3941.2599999999998,0.28733225781562655
529,3943.99,0.3080925519172073
530,3946.73,0.3417109459971821
531,3949.46,0.3509321400987628
532,3952.19,0.35139483420034356
533,3954.93,0.32277092828031834
534,3957.66,0.2817142223818991
535,3960.39,0.23092561648347984
536,3963.13,0.20605981056345463
537,3965.86,0.19996350466503537
538,3968.59,0.22311159876661613
539,3971.33,0.2766639928465909
540,3974.06,0.34090628694817166
541,3976.7999999999997,0.38237948102814645
542,3979.53,0.4073432751297272
543,3982.26,0.43741026923130794
544,3985.0,0.44247916331128273
545,3987.73,0.4477956574128634
546,3990.46,0.4697133515144442
547,3993.2000000000003,0.465009545594419
548,3995.93,0.47449673969599976
549,3998.66,0.4758469337975805
550,4001.4,0.5020557278775553
551,4004.13,0.48377892197913597
552,4006.8599999999997,0.5029160160807168
553,4009.6,0.5075759101606916
554,4012.33,0.5151413042622722
555,4015.07,0.5173885983422472
556,4017.8,0.5142000924438278
557,4020.5299999999997,0.5151414865454086
558,4023.27,0.49817068062538333
559,4026.0,0.4937963747269641
560,4028.73,0.47870896882854486
561,4031.47,0.48426836290851966
562,4034.2,0.5054909570101004
563,4036.9300000000003,0.5031611511116811
564,4039.67,0.4883166451916559
565,4042.4,0.46889493929323667
566,4045.13,0.4722487333948174
567,4047.87,0.5005427274747922
