,lambda (Angstroms),Total Flux (erg/s/cm^2/Angstrom)
0,102.06,0.00565785022290308
1,103.96000000000001,0.006617448115543488
2,104.712855,0.0069976787064411836
3,105.89,0.006501624134228752
4,108.11,0.005566105522233117
5,110.11999999999999,0.0047190822786631545
6,113.98,0.0030924607007154848
7,117.99000000000001,0.0014026291917216284
8,120.22644299999999,0.0004601946196879808
9,121.02,0.0004447257986799352
10,124.98,0.00036752247331052
11,127.01,0.00032794669634276434
12,127.89,0.00031079256819511656
13,130.87,0.00025269937441944564
14,132.07999999999998,0.0002291207856476803
15,133.92,0.00019325559009350756
16,137.04,0.0001324599283073017
17,138.038426,0.0001130028673880069
18,139.91,0.00011173520501842924
19,142.84,0.00011008772956617825
20,146.84,0.00010844582286105746
21,150.96,0.000106011426681783
22,154.83,0.00010386582286532863
23,158.489319,0.00010188198403124072
24,159.17000000000002,0.00010126148674126363
25,162.12,9.868400869649386e-05
26,165.9,9.559041635438204e-05
27,170.16,9.205031163549416e-05
28,172.92,8.999370571903158e-05
29,176.95,8.696965457651555e-05
30,179.82000000000002,8.497713242787509e-05
31,181.91,8.356675501649585e-05
32,181.970086,8.352697891713665e-05
33,186.14,8.659864208659335e-05
34,190.92000000000002,9.06257021126809e-05
35,194.01999999999998,9.345341212959957e-05
36,198.07999999999998,9.71618421517576e-05
37,202.23000000000002,0.00010134548717440683
38,205.04000000000002,0.0001045424821897428
39,208.929613,0.00010817265476896461
40,209.82,0.00011054160675712145
41,216.20000000000002,0.0001304343925182237
42,220.22,0.00014310736922036013
43,222.77,0.00015127101794932732
44,226.91,0.00016506956917988576
45,230.05999999999997,0.00019943697055096283
46,233.8,0.00026579255668678146
47,239.8,0.0003248137831078807
48,239.88329199999998,0.0003250880046766437
49,245.95,0.00032218291890868174
50,252.26,0.00034136721040604304
51,256.95,0.00031443464687555566
52,259.92,0.0003474685644266116
53,264.15000000000003,0.0003652624469993276
54,269.06,0.0003741827440281778
55,274.06,0.000382736238558575
56,275.42287,0.00038525732316391524
57,279.16,0.0004053323309278837
58,283.69,0.0004320674767853496
59,290.3,0.0004509995591513209
60,295.7,0.0004891399654714789
61,301.19,0.0005154969435636396
62,308.21000000000004,0.0005593667417798452
63,316.227766,0.0006122608252178041
64,318.31,0.0006194371993993547
65,327.98,0.0006464393139274094
66,337.95,0.00067024231153286
67,348.21999999999997,0.0006923886922157064
68,357.15,0.0007145418284861851
69,363.078055,0.0007309621934990703
70,366.30999999999995,0.0007475796050395885
71,374.84000000000003,0.0007868673254921746
72,385.34,0.000810360888534631
73,395.23,0.0008767078861050971
74,405.36999999999995,0.0009259417875575263
75,413.84999999999997,0.0009604734272337196
76,416.86938299999997,0.0009702420878594316
77,421.54999999999995,0.0009834388937716978
78,430.38,0.0010101620708521672
79,441.42,0.0010528666515960384
80,450.66,0.0010792600691751479
81,460.1,0.0011019242382170086
82,469.73,0.0011294048211484833
83,478.630092,0.0011608394865866697
84,479.57,0.0011628042250220595
85,489.60999999999996,0.0011612832194782489
86,499.86,0.0011849599677029442
87,505.65,0.001180214678748894
88,511.5,0.0012328053194429886
89,519.81,0.0012433360757110098
90,529.48,0.0012429265706703078
91,540.56,0.001226381912361003
92,549.5408739999999,0.0012416035698460256
93,550.61,0.0012440054129360736
94,559.56,0.0012885480292694138
95,569.96,0.001326457672829943
96,580.5600000000001,0.0013208420787666367
97,589.99,0.0013631639248027705
98,599.5799999999999,0.0013520731807398357
99,609.32,0.0012726685084590238
100,620.65,0.001440604597068716
101,629.29,0.0014535747317190018
102,630.957344,0.0014577105536186298
103,639.51,0.0014842706465109602
104,649.9000000000001,0.0015263386380162923
105,657.43,0.001542080445141908
106,665.04,0.0015912839567256978
107,674.2900000000001,0.001615003909702052
108,685.25,0.0015951484204718726
109,694.78,0.0017507878390518353
110,704.4499999999999,0.0017030554904336023
111,715.89,0.0018619932279524665
112,724.43596,0.001902885736682011
113,725.85,0.0019094332425960438
114,734.2600000000001,0.0019562881380616073
115,744.47,0.002056712502235615
116,754.8299999999999,0.002130345488801993
117,765.33,0.0021053780562679167
118,774.19,0.0023201488189105914
119,784.9599999999999,0.0023880365066827813
120,795.8800000000001,0.0025007338168473417
121,805.1,0.0026015440732317053
122,814.42,0.0026891547445443155
123,825.75,0.0028720157559146884
124,831.763771,0.0026503112106237457
125,835.31,0.0025172731962065605
126,844.98,0.0030210705149152483
127,854.77,0.0031034814270308685
128,864.66,0.003302518833652267
129,874.6800000000001,0.003507704383131176
130,884.8100000000001,0.0037516479765664404
131,895.0500000000001,0.00395193061395806
132,905.42,0.00397360839420719
133,915.9000000000001,0.005628140218412676
134,924.37,0.032050694603052036
135,935.0799999999999,0.0696419980646208
136,945.91,0.13411700811959654
137,954.66,0.19649831388885203
138,954.992586,0.19696480058186333
139,965.71,0.2120011119550264
140,974.65,0.03330944307214884
141,985.93,0.16383488958234355
142,995.06,0.1885212473339462
143,1004.26,0.30148700016141
144,1015.89,0.30148848205091044
145,1025.29,0.13534892080940603
146,1034.78,0.20199285323686594
147,1044.35,0.4209449800367386
148,1054.02,0.41705959980212715
149,1066.22,0.31495724159506827
150,1076.09,0.3910422472914886
151,1086.04,0.2959814473603218
152,1096.09,0.42384224039467083
153,1096.4782,0.42332792649172957
154,1106.24,0.41039336386432107
155,1113.9,0.3910443773880344
156,1124.21,0.34852030747021245
157,1134.6100000000001,0.47225921773739493
158,1145.1100000000001,0.4267689059879157
159,1155.71,0.4668688722217748
160,1163.72,0.4832814086871722
161,1174.49,0.3185804374927063
162,1185.35,0.475520846483245
163,1196.32,0.3063534312554558
164,1204.61,0.2109970060742003
165,1215.76,0.16267495121642003
166,1224.19,0.33357959521183816
167,1235.51,0.531092802925733
168,1244.0800000000002,0.5904340160978248
169,1255.5900000000001,0.5586842819800624
170,1258.92541,0.5259581149120581
171,1264.2900000000002,0.4733234316452558
172,1275.99,0.6443961148708551
173,1284.84,0.6857357534645777
174,1293.7399999999998,0.5154226928413158
175,1305.71,0.5107153802951981
176,1314.76,0.6763254220209823
177,1323.88,0.647368364842988
178,1336.13,0.5586855566817565
179,1345.3899999999999,0.7016985016962053
180,1354.71,0.6809954476502724
181,1364.1000000000001,0.5986478947005611
182,1373.56,0.6399519428470715
183,1386.27,0.6503438418895815
184,1395.8799999999999,0.5599650923851379
185,1405.5500000000002,0.5836600438203128
186,1415.3,0.6041749965083123
187,1425.11,0.6311741501359301
188,1434.9899999999998,0.6297426048597696
189,1441.6100000000001,0.6732020085310062
190,1445.43977,0.682247927655856
191,1448.26,0.6889093055741756
192,1454.95,0.6670262935044278
193,1465.03,0.6111883259912653
194,1475.19,0.6154019595295855
195,1485.41,0.635551193856518
196,1495.71,0.6533566292349333
197,1506.08,0.615401665533396
198,1513.03,0.5397145568809675
199,1516.52,0.5877180027519062
200,1523.52,0.5664430947566544
201,1534.08,0.4832688335523889
202,1544.71,0.542198873268171
203,1555.42,0.5142567140354357
204,1566.2,0.528645455722748
205,1573.43,0.5690853507505095
206,1584.34,0.6083559941464813
207,1595.3200000000002,0.6225171384625007
208,1606.38,0.6154020838300028
209,1613.79,0.6210913812236006
210,1624.98,0.5863661282997624
211,1636.24,0.6326516762959717
212,1643.79,0.6473768755296645
213,1655.19,0.5958927253659688
214,1659.58691,0.6202460677926563
215,1666.66,0.6594226620658895
216,1670.51,0.5756360316072873
217,1678.22,0.6685702716499309
218,1685.96,0.7065731145721178
219,1693.74,0.6609342613336958
220,1705.48,0.6355572881949972
221,1713.36,0.5986468445550532
222,1725.23,0.598655183894376
223,1733.2,0.6473724488930619
224,1745.21,0.6341252016702538
225,1753.2700000000002,0.6857477753075698
226,1765.42,0.6239612415226305
227,1773.57,0.6414674237985767
228,1785.86,0.6594336034515066
229,1794.1,0.7131328943660827
230,1806.5400000000002,0.7098523884167294
231,1814.88,0.6503584889297835
232,1823.26,0.6701287932822287
233,1835.89,0.6429495055699832
234,1844.37,0.5890957195209063
235,1852.88,0.5931687363513728
236,1865.7299999999998,0.6168466697557787
237,1874.34,0.6763475961847231
238,1882.99,0.6196748264530585
239,1896.04,0.5986668790544201
240,1904.7900000000002,0.6385106189212334
241,1905.46072,0.6366420192710536
242,1913.59,0.6139923775013373
243,1926.85,0.6042008369019016
244,1935.74,0.6239708369826723
245,1944.68,0.6578923308771705
246,1953.65,0.6154236210599052
247,1967.2,0.6841721445800898
248,1976.28,0.7049569211530253
249,1985.3999999999999,0.6685808927769429
250,1994.56,0.6503605594518427
251,2003.77,0.67321541994047
252,2013.02,0.6503560754800793
253,2026.9699999999998,0.6841695495100849
254,2036.3300000000002,0.648882991439895
255,2045.73,0.6809992284206873
256,2055.17,0.6414634604524617
257,2064.6600000000003,0.6473709862979636
258,2074.19,0.7065664071944477
259,2078.97,0.6809988157868081
260,2083.76,0.7147387231419139
261,2093.38,0.6763243329031078
262,2103.04,0.6794499377152836
263,2112.75,0.6920640363411871
264,2127.3900000000003,0.7000837250006339
265,2137.21,0.650339610016738
266,2147.08,0.67477618884657
267,2156.9900000000002,0.703316962727384
268,2166.94,0.67944733165918
269,2176.95,0.6763188931674492
270,2186.9900000000002,0.671652350963955
271,2187.7616199999998,0.6741951635840326
272,2197.0899999999997,0.7049381756964573
273,2207.23,0.6857319759605479
274,2217.42,0.647359181156907
275,2222.53,0.6311717852347672
276,2232.79,0.6841500973363027
277,2243.1,0.6548571143701067
278,2253.45,0.6196517353497257
279,2263.85,0.6355440612616136
280,2274.2999999999997,0.6579129921057699
281,2284.7999999999997,0.684229427882195
282,2295.3399999999997,0.640103967604435
283,2305.94,0.6505726132453975
284,2316.58,0.6156283628321749
285,2327.27,0.48127791735122105
286,2332.64,0.5641554470768785
287,2343.41,0.5437833094875545
288,2354.22,0.6018140758440456
289,2365.09,0.5426183481192589
290,2376.01,0.5643485253267411
291,2386.97,0.517093606480038
292,2392.48,0.5566662500160477
293,2403.52,0.5353554390609748
294,2414.61,0.5542226330381704
295,2425.76,0.6021597329340884
296,2436.96,0.5817468377622752
297,2442.57,0.6205371911628225
298,2453.85,0.617751403882639
299,2465.17,0.6065354205482707
300,2476.5499999999997,0.5833017431326247
301,2482.26,0.5846572063977092
302,2493.7200000000003,0.5444406368736933
303,2505.23,0.6323652722819458
304,2511.01,0.5420295424522065
305,2511.88643,0.5439428846958604
306,2516.79,0.5546472416977264
307,2522.6,0.5358557198814733
308,2534.24,0.5560026754853999
309,2545.94,0.5484305287986251
310,2557.69,0.6111649802029325
311,2563.58,0.5823609553324108
312,2575.42,0.6240411033006662
313,2587.3,0.6113179497417871
314,2593.2699999999995,0.598813721816997
315,2605.24,0.5758807648220658
316,2617.27,0.5641311055364333
317,2623.3,0.6031014753209418
318,2635.4100000000003,0.6552572129810407
319,2647.57,0.7318836487322218
320,2653.68,0.7860712154624616
321,2665.92,0.6676093481593742
322,2672.0699999999997,0.7120761133624797
323,2684.4,0.7254079426233402
324,2696.79,0.6693023695934992
325,2703.01,0.7089866321241198
326,2715.49,0.6496798556582267
327,2728.02,0.6363875772834159
328,2734.31,0.6788251371415515
329,2746.9300000000003,0.5620929553306884
330,2753.26,0.5899574136616897
331,2765.97,0.6293063284147746
332,2772.35,0.6620279848368581
333,2785.14,0.5969246965356744
334,2798.0,0.46987310556200573
335,2804.45,0.5058331593116042
336,2817.4,0.6486952649018836
337,2823.89,0.7195283171243477
338,2836.92,0.6967858196603584
339,2843.46,0.6608606699739048
340,2856.59,0.6027922686920798
341,2863.17,0.7297689174784919
342,2876.39,0.7642238127606148
343,2883.02,0.7434353596381091
344,2884.0315,0.7448918886202505
345,2896.33,0.7626018114115305
346,2909.7000000000003,0.871613900965166
347,2929.87,0.8211191852057667
348,2950.1699999999996,0.8007156693447947
349,2970.62,0.8308766533666232
350,2991.22,0.8348605372712524
351,3011.95,0.852485521074309
352,3032.8300000000004,0.8624655047601663
353,3046.83,0.8705614938215648
354,3067.95,0.8930410773199031
355,3089.21,0.9014421607088555
356,3110.6299999999997,0.9290027439727953
357,3132.19,0.905915527127349
358,3146.64,0.9101784158371496
359,3168.46,0.9337064987885579
360,3190.42,0.8635582816305802
361,3212.53,0.9191027643554033
362,3227.36,0.842208952768299
363,3249.73,0.9648914352899765
364,3272.26,1.0388399176866412
365,3287.3599999999997,1.0247219058885784
366,3310.15,1.0154988880820979
367,3311.31121,1.0155070946800469
368,3325.43,1.015606676296642
369,3333.1,1.0610945617375644
370,3340.7799999999997,0.9722659470291268
371,3348.4799999999996,1.1138123320219695
372,3356.2,1.0637312167160924
373,3363.94,0.8707089011114951
374,3371.69,0.911790585357538
375,3379.46,1.068856869304861
376,3387.25,1.0542457529534641
377,3395.06,1.0022426363033474
378,3402.89,1.1481185193545107
379,3410.73,1.002353402256314
380,3418.6,0.9932388847100376
381,3426.48,1.0473101670144012
382,3434.38,1.1300370490200449
383,3442.29,0.9865746308763288
384,3450.23,1.0331148122845328
385,3458.1800000000003,1.0523976935433768
386,3466.15,1.0214435745035009
387,3474.14,1.084519455164905
388,3482.15,1.0381633355275894
389,3490.18,1.0871492155915539
390,3498.2200000000003,0.9802111955061584
391,3506.2900000000004,1.117725974972683
392,3514.37,1.0218198542898478
393,3522.47,1.1153207333082926
394,3530.59,1.0079236120280175
395,3538.73,1.1231894904490227
396,3546.89,1.1520673685713079
397,3555.07,1.1574542463948732
398,3563.2599999999998,1.1156581240690786
399,3571.48,0.9967003012952039
400,3579.71,1.0199728783719695
401,3587.96,0.8904766551500152
402,3596.2300000000005,1.058383631629341
403,3604.52,1.1367835078099469
404,3612.8300000000004,0.9833320836918328
405,3617.7799999999997,1.0844043097586604
406,3620.5,0.9932731691327553
407,3623.21,0.9681201286562103
408,3625.92,1.0638031881796652
409,3628.63,1.0973551477031203
410,3631.34,1.0966401072265752
411,3634.0499999999997,1.0897120667500302
412,3636.76,1.2000060262734853
413,3639.48,1.1408059856475803
414,3642.19,1.0705799451710354
415,3644.8999999999996,1.0520539046944903
416,3647.61,1.1853168642179452
417,3650.32,1.1895358237414004
418,3653.0299999999997,1.1080497832648553
419,3655.7400000000002,1.1330167427883102
420,3658.45,1.1838147023117653
421,3661.17,1.1281536616858605
422,3663.88,1.2143476212093154
423,3666.59,1.2034285807327705
424,3669.2999999999997,1.2249305402562254
425,3672.01,1.1093664997796804
426,3674.7200000000003,0.9917319593031354
427,3677.43,1.0288234188265903
428,3680.1499999999996,1.0955813782006856
429,3682.86,1.1006653377241407
430,3685.57,0.8979295972475956
431,3688.2799999999997,0.9353220567710505
432,3690.9900000000002,1.2266632162945055
433,3693.7,1.1909661758179606
434,3696.41,0.9934642353414156
435,3699.1200000000003,1.0923480948648705
436,3701.84,1.1040910542389657
437,3704.5499999999997,1.1604250137624206
438,3707.26,1.1894199732858757
439,3709.9700000000003,1.2178509328093308
440,3712.68,1.2051618923327856
441,3715.39,1.3499108518562406
442,3718.1,1.1928878113796957
443,3720.82,1.3715567707537906
444,3723.5299999999997,1.5153637302772456
445,3726.2400000000002,1.8051226898007005
446,3728.95,2.0871256493241557
447,3731.66,1.7552316088476105
448,3734.3700000000003,1.5729425683710656
449,3737.08,1.3459185278945205
450,3739.79,1.3116904874179758
451,3742.51,1.0888404467920707
452,3745.2200000000003,1.1855024063155257
453,3747.93,0.9819759658389806
454,3750.64,1.0560443253624356
455,3753.35,1.0247532848858907
456,3756.06,1.2854062444093457
457,3758.77,1.2086642039328006
458,3761.48,1.2685751634562557
459,3764.2,1.1845981228303508
460,3766.91,1.2992970823538057
461,3769.6200000000003,1.2798300418772608
462,3772.33,1.2619070014007157
463,3775.04,1.3599629609241708
464,3777.7500000000005,1.4731559204476257
465,3780.46,1.4178788799710806
466,3783.18,1.5768158393451759
467,3785.89,1.4350817988686309
468,3788.6,1.4798927583920858
469,3791.31,1.3430917179155408
470,3794.02,1.2612666774389958
471,3796.73,1.183509636962451
472,3799.44,1.1702555964859058
473,3801.8939600000003,1.3250940971915222
474,3802.15,1.341249556806181
475,3804.8700000000003,1.382174524645167
476,3807.58,1.4641514926023922
477,3810.29,1.6153764605596175
478,3812.9999999999995,1.5337034285168425
479,3815.71,1.4530083964740677
480,3818.42,1.4703683644312928
481,3821.1299999999997,1.4631023323885182
482,3823.85,1.271279300227504
483,3826.56,1.2845342681847294
484,3829.27,1.1730002361419545
485,3831.98,1.1223922040991796
486,3834.69,1.0405681720564048
487,3837.4,1.0462921400136298
488,3840.11,1.129662107970855
489,3842.82,1.2688750759280802
490,3845.54,1.3963330437670662
491,3848.2499999999995,1.5084710117242917
492,3850.96,1.5274509796815168
493,3853.67,1.532610947638742
494,3856.3799999999997,1.550685915595967
495,3859.09,1.562247883553192
496,3861.8,1.5842768515104173
497,3864.5099999999998,1.6338708194676423
498,3867.23,1.7037517873066286
499,3869.94,1.5834817552638538
500,3872.65,1.558968723221079
501,3875.36,1.447320691178304
502,3878.07,1.3882406591355292
503,3880.7799999999997,1.3583056270927543
504,3883.49,1.2887185950499795
505,3886.21,1.3243355628889657
506,3888.92,1.3375905308461906
507,3891.6299999999997,1.291990498803416
508,3894.34,1.4279274667606412
509,3897.05,1.4067664347178663
510,3899.7599999999998,1.4095534026750913
511,3902.4700000000003,1.5712853706323167
512,3905.18,1.5322753385895416
513,3907.9,1.6284023064285278
514,3910.61,1.6363112743857529
515,3913.32,1.711246242342978
516,3916.0299999999997,1.7454382103002033
517,3918.74,1.7763171782574285
518,3921.4500000000003,1.6328131462146536
519,3924.16,1.4857701141718789
520,3926.8799999999997,1.374642082010865
521,3929.59,1.33811704996809
522,3932.3,1.1992070179253151
523,3935.0099999999998,1.1692339858825402
524,3937.7200000000003,1.2432659538397657
525,3940.43,1.3092009217969907
526,3943.14,1.4611418897542159
527,3945.8500000000004,1.540482857711441
528,3948.57,1.5614508255504271
529,3951.2799999999997,1.5730867935076522
530,3953.99,1.6069397614648775
531,3956.7000000000003,1.5781727294221024
532,3959.41,1.572073697379328
533,3962.12,1.477445665336553
534,3964.83,1.262546633293778
535,3967.54,1.1148626012510032
536,3970.2599999999998,1.0768635690899893
537,3972.9700000000003,1.1296945370472145
538,3975.68,1.2411935050044396
539,3978.39,1.5069664729616647
540,3981.1000000000004,1.6905754409188898
541,3983.81,1.7399424088761153
542,3986.52,1.8291123768333404
543,3989.24,1.8518483446723264
544,3991.9500000000003,1.9129643126295517
545,3994.66,1.8427752805867768
546,3997.37,1.9122882485440018
547,4000.08,1.971032216501227
548,4002.79,1.916809184458452
549,4005.5,1.9648591524156773
550,4008.21,1.9695301203729025
551,4010.93,2.0287530882118885
552,4013.64,2.030374056169114
553,4016.3500000000004,2.105723024126339
554,4019.06,2.108736992083564
555,4021.77,2.1060269600407895
556,4024.4799999999996,2.0407719279980143
557,4027.19,1.9471988959552398
558,4029.91,2.0331208637942257
559,4032.62,2.0456608317514506
560,4035.33,2.130461799708676
561,4038.04,2.025668767665901
562,4040.75,2.0181007356231264
563,4043.46,2.0300387035803515
564,4046.17,1.9445626715375766
565,4048.88,1.985231639494802
566,4051.6000000000004,2.005744607333788
567,4054.31,2.025439575291013
568,4057.02,2.0228435432482383
569,4059.7299999999996,1.9548385112054634
570,4062.44,1.9238494791626886
571,4065.15,1.9183904471199136
572,4067.8599999999997,1.9760044150771388
573,4070.58,1.9442153829161248
574,4073.29,1.89368335087335
575,4076.0,1.8820113188305754
576,4078.71,1.8610382867878006
577,4081.42,1.9440692547450256
578,4084.13,1.9950192227022507
579,4086.8399999999997,1.9990491906594758
580,4089.55,1.996866158616701
581,4092.27,1.9148821264556872
582,4094.9799999999996,1.8129120944129122
583,4097.69,1.6938850623701376
584,4100.400000000001,1.6423360303273626
585,4103.11,1.680857998284588
586,4105.82,1.7546259662418129
587,4108.530000000001,1.760689934199038
588,4111.24,1.7687869021562632
