,lambda (Angstroms),Total Flux (erg/s/cm^2/Angstrom)
0,100.03,69.37398124490969
1,101.89,69.18100067307049
2,104.02,68.96000679241595
3,104.712855,68.88812101064102
4,105.96,68.20842784118435
5,107.92,67.14022918574774
6,109.92999999999999,66.0447805646128
7,114.05999999999999,63.793933397804366
8,118.07,61.60848614868122
9,120.22644299999999,60.43322619307612
10,121.09,60.03864566199866
11,125.06,58.22465456654815
12,127.09,57.29709740691944
13,127.97,56.89500366285837
14,130.95000000000002,55.53336802954716
15,131.85999999999999,55.117566544286255
16,134.01,54.13517841961543
17,137.13,52.70957332726237
18,138.038426,52.29449104148475
19,140.0,51.65383643841548
20,142.93,50.69689166761027
21,146.93,49.39048242911733
22,151.05,48.044880908993555
23,154.93,46.77766394542671
24,158.489319,45.61518213917368
25,158.9,45.51377788136784
26,161.85000000000002,44.78537174637938
27,166.01000000000002,43.75819563991268
28,169.86999999999998,42.8050947366924
29,173.03,42.02483596821578
30,177.06,41.02975912506638
31,179.94,40.318637216315906
32,181.970086,39.817373803316315
33,182.01999999999998,39.80797128616134
34,185.82999999999998,39.09026503174991
35,191.04,38.10883469957728
36,194.14000000000001,37.524874242125584
37,198.20999999999998,36.75819067791731
38,201.89,36.06497312526831
39,205.17000000000002,35.44710530415815
40,208.929613,34.738890703859035
41,209.95,34.594380925600454
42,215.83,33.76164059013037
43,219.85000000000002,33.192318121418836
44,222.91,32.75895325400894
45,227.04999999999998,32.17263611916695
46,230.21,31.725109663310604
47,233.95,31.195442828364968
48,239.88329199999998,30.35515648130471
49,239.95,30.347876282220984
50,246.11,29.67560158460876
51,251.84,29.050255973924322
52,257.11,28.475111091612717
53,260.09000000000003,28.14988856950229
54,263.71,27.7548189276517
55,269.23,27.15239152757864
56,274.23,26.606714665766532
57,275.42287,26.476530397818156
58,278.69,26.202887201351867
59,283.87,25.76902880668197
60,289.82,25.270677389886952
61,295.88,24.76311362466263
62,300.69,24.360245013161293
63,307.7,23.773112968303906
64,316.227766,23.05885861679988
65,317.78000000000003,22.96175446972172
66,328.19,22.310528853843692
67,338.15999999999997,21.686828688545877
68,347.63,21.094407756241008
69,357.37,20.485096341873753
70,363.078055,20.12801477663163
71,365.7,20.005179835248935
72,375.08,19.56573690934786
73,384.7,19.115049006906737
74,394.57,18.652652893880983
75,404.69,18.178543391440588
76,414.11999999999995,17.736758529006593
77,416.86938299999997,17.60795286710826
78,421.81000000000006,17.431194065895877
79,429.65999999999997,17.15034781994055
80,440.68,16.7560911661329
81,450.94,16.389023332401297
82,460.39,16.050933587662715
83,470.03000000000003,15.706048057547626
84,478.630092,15.398367597918899
85,479.87,15.364251285521304
86,489.92,15.087720243437735
87,500.17,14.805690651055738
88,505.97,14.646105283171291
89,511.83,14.484916328776317
90,520.14,14.256269762668083
91,529.8100000000001,13.99020313125453
92,539.66,13.719172881909392
93,549.5408739999999,13.447343427168471
94,549.6899999999999,13.44421397932812
95,559.91,13.229736712807892
96,570.32,13.011267806215077
97,579.5899999999999,12.816687184857788
98,590.37,12.590483267644668
99,599.96,12.38920901909144
100,609.7099999999999,12.184620611540247
101,619.61,11.976912065715954
102,629.68,11.765603375768825
103,630.957344,11.73879505152448
104,639.9100000000001,11.589848829993532
105,650.3100000000001,11.41690630447659
106,657.8399999999999,11.291678667938843
107,665.4599999999999,11.164951085517774
108,674.72,11.01090475442288
109,685.6800000000001,10.828546495731949
110,695.22,10.670119410500062
111,704.89,10.509183693736714
112,716.34,10.318960695081039
113,724.43596,10.184333501321769
114,726.3100000000001,10.161206562868749
115,734.7199999999999,10.057437969477173
116,744.94,9.931491626193946
117,755.3,9.803730685427391
118,765.81,9.674101906785836
119,774.68,9.564846410377598
120,785.46,9.431993281161045
121,794.55,9.319922386136144
122,805.6,9.183663944344595
123,814.93,9.068631784919695
124,824.37,8.952497613186459
125,831.763771,8.860736030003874
126,835.84,8.822861616299244
127,845.52,8.734582560402457
128,855.31,8.644446844313661
129,865.21,8.553539519032858
130,875.23,8.461547178451678
131,885.36,8.368679063678492
132,895.62,8.274469545496565
133,905.99,8.178858752122633
134,914.37,8.105831955313224
135,924.9599999999999,8.081094216555273
136,935.67,8.089613064496948
137,944.33,8.194591054653333
138,954.992586,8.261179795429838
139,955.26,8.26290314910171
140,964.0999999999999,8.263943547588234
141,975.26,7.634392001016916
142,984.2900000000001,8.000667065511632
143,995.6800000000001,7.9422517577923415
144,1004.9,8.154039048295253
145,1014.1999999999999,8.049878084485824
146,1025.94,7.450107764150049
147,1035.43,7.608166396348815
148,1045.01,8.1258079424462
149,1054.68,8.0328391024422
150,1064.44,7.697202876336822
151,1074.29,7.8144884641300605
152,1084.23,7.485617965821919
153,1094.26,7.729607881412394
154,1096.4782,7.701375187501067
155,1104.3899999999999,7.613629374251265
156,1114.6100000000001,7.504503981610536
157,1124.9199999999998,7.317880955375126
158,1135.33,7.563946336256731
159,1145.8300000000002,7.368147083543653
160,1153.78,7.4113264493466104
161,1164.45,7.394763888732465
162,1175.23,6.870895775947039
163,1186.1,7.221291029566931
164,1194.32,6.7089686945858364
165,1205.3700000000001,6.347447581016358
166,1213.73,6.050686615999091
167,1224.96,6.498453235240246
168,1236.29,6.974796361598423
169,1244.86,7.094638251526893
170,1256.38,6.946085151407402
171,1258.92541,6.859686589063482
172,1265.0900000000001,6.663533082909223
173,1273.86,7.080749831915838
174,1285.65,7.136971828584937
175,1294.56,6.667146436754713
176,1303.53,6.612422698851558
177,1315.5900000000001,6.9885201381924675
178,1324.71,6.871067535106986
179,1333.89,6.603432585948574
180,1346.24,6.903904019270318
181,1355.5700000000002,6.806266204929578
182,1364.97,6.54376632017042
183,1374.43,6.6134040893383315
184,1383.9499999999998,6.600149512433312
185,1393.55,6.301056140764384
186,1406.4399999999998,6.320847459429752
187,1416.19,6.325930222578496
188,1426.01,6.345933915308821
189,1435.8899999999999,6.293866261966217
190,1442.52,6.386514020907363
191,1445.43977,6.409825528552545
192,1445.85,6.413753987391349
193,1455.87,6.327838167292491
194,1465.96,6.136319731683958
195,1476.12,6.1079186805657555
196,1486.35,6.125403013937879
197,1496.6499999999999,6.139274731800329
198,1503.56,6.01594640077407
199,1510.5,5.775845663100809
200,1517.48,5.884638716564878
201,1524.48,5.8115301655976115
202,1535.05,5.53812422363704
203,1545.69,5.683171666166794
204,1556.4,5.551125493186877
205,1563.59,5.568356700121928
206,1574.42,5.662076900553999
207,1585.3400000000001,5.7286438810450635
208,1596.33,5.748570246026457
209,1603.7,5.688812013079491
210,1614.8100000000002,5.6712027514728724
211,1626.0,5.524929072140914
212,1633.51,5.640279608174604
213,1644.83,5.647093500038968
214,1656.23,5.44959697417799
215,1659.58691,5.524964783857166
216,1663.88,5.626085062459456
217,1671.56,5.374917326384355
218,1675.4099999999999,5.626671682648791
219,1683.1499999999999,5.710272292385602
220,1694.81,5.551455828500748
221,1706.56,5.442405383333762
222,1714.44,5.327882133298372
223,1726.3200000000002,5.297270604057198
224,1734.29,5.424673372739679
225,1746.3100000000002,5.354602983726304
226,1754.3700000000001,5.4899757711266535
227,1766.53,5.273568522341075
228,1774.6899999999998,5.320511552761281
229,1786.99,5.3390584442035
230,1795.2399999999998,5.480374493341576
231,1803.5200000000002,5.448311215385606
232,1816.0200000000002,5.248981592867537
233,1824.4099999999999,5.283438782233411
234,1837.0500000000002,5.169775299943138
235,1845.53,4.980810508026881
236,1854.05,4.981917613318565
237,1866.8999999999999,5.019548841369991
238,1875.52,5.177693189681531
239,1884.18,4.989446435201012
240,1892.8700000000001,4.891040353626451
241,1905.46072,4.983315633293069
242,1905.99,4.987559144043042
243,1914.7900000000002,4.902522941409304
244,1923.63,4.857297183309049
245,1936.97,4.894610435225632
246,1945.9099999999999,4.987751788459084
247,1954.8899999999999,4.841235586226021
248,1968.4399999999998,5.0235821719433895
249,1977.5200000000002,5.076604081044032
250,1982.08,4.945261757861095
251,1995.8200000000002,4.868091455112508
252,2005.03,4.922811808946971
253,2014.29,4.8382857184482875
254,2023.5900000000001,4.930158072483087
255,2032.93,4.803064871051369
256,2047.02,4.869873457970759
257,2056.47,4.74842947900612
258,2065.96,4.755913944574964
259,2075.5,4.907920965810661
260,2080.2799999999997,4.785942087561881
261,2085.07,4.862503320446471
262,2094.7,4.727439341882506
263,2104.3700000000003,4.735156807852022
264,2114.08,4.743209718355023
265,2123.8399999999997,4.773053184524877
266,2133.64,4.5976120952282145
267,2143.4900000000002,4.640352561598404
268,2153.38,4.711785472502078
269,2163.32,4.629095939072606
270,2173.31,4.599663961309988
271,2183.34,4.549653428080852
272,2187.7616199999998,4.58998799949266
273,2193.42,4.645061511665251
274,2203.54,4.578603924780828
275,2213.71,4.467303441716146
276,2223.9300000000003,4.394241062471204
277,2234.2000000000003,4.528466787046003
278,2244.51,4.4220603946765955
279,2254.87,4.33378110612693
280,2265.28,4.374421921397004
281,2275.74,4.42142484048682
282,2286.24,4.464699642632429
283,2296.79,4.332780548597777
284,2307.39,4.328625558382868
285,2312.71,4.237981004803309
286,2323.39,3.812056780699985
287,2334.11,4.087909439652453
288,2344.89,4.019924423188611
289,2355.71,4.157222289780561
290,2366.58,3.995751260192254
291,2377.5099999999998,4.039858555187635
292,2382.9900000000002,3.900316533831247
293,2393.99,4.008823374174265
294,2405.04,3.9230583183370245
295,2416.14,3.9526663663195247
296,2427.29,4.048364518121765
297,2432.89,3.966745145932757
298,2444.12,4.059484063846584
299,2455.4,4.020646085580151
300,2466.73,3.9962032111334596
301,2472.42,3.923649825819985
302,2483.83,3.9688707174848794
303,2495.29,3.8216747129695143
304,2506.81,4.025109033037839
305,2511.88643,3.8419514400097596
306,2512.59,3.8167958310396104
307,2518.38,3.865088815916522
308,2524.19,3.7831687575633017
309,2535.8399999999997,3.793713076011664
310,2547.54,3.755637786384696
311,2553.42,3.8670870767260155
312,2565.2000000000003,3.823244614178522
313,2577.04,3.914566021940634
314,2582.9800000000005,3.8942641825915576
315,2594.9100000000003,3.863349895818078
316,2606.8799999999997,3.7954895225843353
317,2612.89,3.766698031929799
318,2624.95,3.8382719641604637
319,2637.07,3.8693307667007333
320,2643.15,4.013442624740737
321,2655.3500000000004,4.032499254360481
322,2667.61,3.8484577542898295
323,2673.76,3.9317199610243723
324,2686.1000000000004,3.914301288033195
325,2692.29,3.8239784083074753
326,2704.72,3.860605040780706
327,2717.2000000000003,3.765475065178607
328,2723.4599999999996,3.764019534147427
329,2736.04,3.844272342394671
330,2742.3399999999997,3.602003724903227
331,2755.0,3.6208263602299446
332,2767.7200000000003,3.6726178658662674
333,2774.1,3.7521460754542977
334,2786.9,3.6535834081700944
335,2793.33,3.305911009682795
336,2806.22,3.405485647863
337,2812.69,3.7136391629154373
338,2825.67,3.7749711065600504
339,2832.19,3.689399013537159
340,2845.26,3.642566262646179
341,2851.8199999999997,3.588826083163026
342,2864.9799999999996,3.7156436377364543
343,2878.21,3.687607541004422
344,2884.0315,3.690478927137767
345,2884.84,3.6911038531210676
346,2898.1600000000003,3.6616227557286076
347,2911.5299999999997,3.7945250355981885
348,2931.71,3.7127408985576604
349,2952.0400000000004,3.677752893303252
350,2972.5,3.69351246893015
351,2993.1000000000004,3.68397590089076
352,3006.92,3.694408576118703
353,3027.7599999999998,3.6794226189371075
354,3048.75,3.6643277935416316
355,3069.8799999999997,3.65442482447987
356,3091.16,3.654574987204228
357,3112.59,3.6288202817147073
358,3126.9599999999996,3.5978461068250946
359,3148.63,3.5975500121933672
360,3170.46,3.5818943248001696
361,3192.43,3.4799664937406845
362,3207.1699999999996,3.5247635105901693
363,3229.4,3.4435608412932943
364,3251.78,3.5129553037825394
365,3266.79,3.5487797578470426
366,3289.44,3.5220106575513053
367,3311.31121,3.5063650985001127
368,3312.2400000000002,3.5058828651198746
369,3319.88,3.5280438467444486
370,3327.53,3.5345650652559653
371,3335.2,3.5948197575413685
372,3342.89,3.458652923600658
373,3350.59,3.5597373265468906
374,3358.32,3.4712364401539526
375,3366.06,3.4311977906479583
376,3373.82,3.3471766149158495
377,3381.6000000000004,3.4282849129576274
378,3389.39,3.518000447886349
379,3397.21,3.461308693475899
380,3405.0399999999995,3.4468241759523934
381,3412.89,3.401660132202773
382,3420.75,3.474923325340096
383,3428.64,3.465685229138249
384,3436.54,3.471893369823345
385,3444.4700000000003,3.32505022116927
386,3452.4100000000003,3.5276483094021382
387,3460.36,3.38179563452195
388,3468.3399999999997,3.3879516703025914
389,3476.34,3.3583431798571186
390,3484.35,3.3744629262985892
391,3492.38,3.385502146513946
392,3500.43,3.3156098405031895
393,3508.5,3.3516320082663187
394,3516.59,3.2922716498033346
395,3524.7000000000003,3.363451765114237
396,3532.8199999999997,3.400437117312082
397,3540.97,3.427623180170757
398,3549.1299999999997,3.465944479916375
399,3557.3100000000004,3.408504253435879
400,3563.81,3.6074852299489324
401,3566.47,3.662116241875813
402,3569.1299999999997,3.4925862538026937
403,3571.8,3.6689545026165167
404,3574.46,3.6489305145433972
405,3577.12,3.513991526470278
406,3579.79,3.2478997752841012
407,3582.45,3.1928937872109815
408,3585.11,3.465823799137862
409,3587.7799999999997,3.2009040479516857
410,3590.4399999999996,3.320615059878566
411,3593.1000000000004,3.5208440718054463
412,3595.77,3.52425432061927
413,3598.4300000000003,3.2689283325461505
414,3601.1,3.4646445813599733
415,3603.7599999999998,3.701420593286854
416,3606.42,3.1457136052137344
417,3609.0899999999997,3.332049854027558
418,3611.7500000000005,3.443356865954438
419,3614.4100000000003,3.1981928778813185
420,3617.08,3.4036821266951423
421,3619.7400000000002,3.4864551386220226
422,3622.4,3.270216150548903
423,3625.07,3.2405983993627263
424,3627.73,3.3823934112896072
425,3630.39,3.452073423216487
426,3633.0600000000004,3.394898672030311
427,3635.7200000000003,3.372138683957191
428,3638.38,3.3720486958840716
429,3641.05,3.179048944697895
430,3643.71,3.3894409566247754
431,3646.37,3.3174309685516556
432,3649.04,3.3540652173654792
433,3651.7,3.4518872292923595
434,3654.37,3.4025304781061836
435,3657.03,3.2277234900330636
436,3659.69,3.536222501959944
437,3662.36,3.3000317507737673
438,3665.02,3.374011762700648
439,3667.68,3.330925774627528
440,3670.35,3.569051023441352
441,3673.0099999999998,3.360044035368232
442,3675.6699999999996,3.4682240472951125
443,3678.34,3.3576962961089363
444,3681.0,3.4400793080358163
445,3683.6600000000003,3.2898963199626965
446,3686.33,3.2645785687765203
447,3688.99,3.415949580703401
448,3691.65,3.269870592630281
449,3694.3199999999997,3.4345138414441045
450,3696.9800000000005,3.344719853370985
451,3699.65,3.2283301021848083
452,3702.31,3.456115114111689
453,3704.9700000000003,3.3186351260385694
454,3707.64,3.4164403748523924
455,3710.3,3.1984423867792726
456,3712.96,3.4774313987061536
457,3715.6299999999997,3.476346647519977
458,3718.2900000000004,3.899955659446857
459,3720.9500000000003,4.918270671373738
460,3723.6200000000003,6.688779920187561
461,3726.28,8.584985932114442
462,3728.94,8.928868944041321
463,3731.61,7.329709192855145
464,3734.27,5.574636204782026
465,3736.93,4.241301216708906
466,3739.6000000000004,3.9425694655227295
467,3742.26,3.81271247744961
468,3744.92,3.9533354893764905
469,3747.59,3.6731707381903136
470,3750.25,3.594516750117194
471,3752.92,3.575451998931018
472,3755.58,3.881802010857898
473,3758.24,3.866469022784779
474,3760.9100000000003,3.923230271598602
475,3763.57,3.897931283525482
476,3766.23,3.757911295452363
477,3768.9,3.8373445442661867
478,3771.56,3.651397556193067
479,3774.22,3.657366568119947
480,3776.89,3.8147778169337707
481,3779.5499999999997,4.0507718288606505
482,3782.2099999999996,4.415557840787532
483,3784.88,4.417792089601355
484,3787.54,4.253931101528235
485,3790.2000000000003,4.079711113455115
486,3792.87,3.927945362268939
487,3795.5299999999997,3.7124883741958197
488,3798.2,3.4700446230096427
489,3800.8599999999997,3.5590716349365232
490,3801.8939600000003,3.678075771091421
491,3803.5200000000004,3.8654502752934334
492,3806.19,4.037496369835639
493,3808.85,4.140767846046227
494,3811.51,4.409377322256814
495,3814.18,4.46885141679902
496,3816.84,4.433756893009607
497,3819.5,4.213587369220195
498,3822.1699999999996,4.238666463762401
499,3824.8300000000004,4.279594939972989
500,3827.4900000000002,3.998841416183576
501,3830.1600000000003,3.694420510725782
502,3832.82,3.54362898693637
503,3835.48,3.3328384631469574
504,3838.15,3.338376557689163
505,3840.81,3.5915450338997505
506,3843.47,3.9103795101103382
507,3846.1400000000003,4.091219604652544
508,3848.8,4.411618080863132
509,3851.4700000000003,4.374157175405338
510,3854.13,4.303690651615925
511,3856.79,4.414975127826513
512,3859.46,4.395495222368719
513,3862.12,4.559351698579307
514,3864.7799999999997,4.6059491747898935
515,3867.4500000000003,4.7574722693321
516,3870.11,4.926019745542687
517,3872.77,4.5772552217532745
518,3875.44,4.464357316295481
519,3878.1,4.453887792506069
520,3880.7599999999998,4.319318268716656
521,3883.43,4.036981363258862
522,3886.0899999999997,3.959085839469449
523,3888.7500000000005,3.9202783156800365
524,3891.42,3.962165410222243
525,3894.08,4.13461988643283
526,3896.7400000000002,4.192161362643418
527,3899.41,4.353456457185624
528,3902.07,4.514381933396211
529,3904.74,4.664342027938417
530,3907.3999999999996,4.681819504149004
531,3910.0600000000004,4.894339980359592
532,3912.73,4.880916074901799
533,3915.3900000000003,4.9146155511123855
534,3918.05,4.959650027322973
535,3920.72,4.96772312186518
536,3923.38,4.898234598075766
537,3926.04,4.845747074286354
538,3928.71,4.41781016882856
539,3931.3700000000003,4.1044196450391475
540,3934.03,4.022030121249735
541,3936.7000000000003,4.207169215791941
542,3939.36,4.536752692002528
543,3942.02,4.6148151682131155
544,3944.69,4.609405262755322
545,3947.35,4.653265738965909
546,3950.02,4.609551833508116
547,3952.6800000000003,4.683705309718703
548,3955.34,4.586267785929291
549,3958.01,4.407313880471496
550,3960.67,4.066953356682084
551,3963.33,3.929059832892672
552,3966.0,3.7633979274348777
553,3968.66,3.537559403645465
554,3971.3199999999997,3.561483879856052
555,3973.9900000000002,3.657115974398258
556,3976.65,3.818626450608846
557,3979.31,3.889065926819433
558,3981.98,4.2276200213616395
559,3984.64,4.475122497572227
560,3987.2999999999997,4.532467973782814
561,3989.97,4.64803106832502
562,3992.6299999999997,4.723748544535608
563,3995.2900000000004,4.691977020746195
564,3997.96,4.629891115288402
565,4000.62,4.535189591498988
566,4003.29,4.591341686041195
567,4005.95,4.601002162251782
568,4008.61,4.76388163846237
569,4011.2799999999997,4.764334733004576
570,4013.9399999999996,4.696018209215163
571,4016.6000000000004,4.661314685425751
572,4019.27,4.728214779967957
573,4021.9300000000003,4.794160256178544
574,4024.59,4.720174732389132
575,4027.2599999999998,4.752092826931338
576,4029.92,4.764685303141925
577,4032.58,4.9068497793525125
578,4035.25,5.009512873894718
579,4037.9100000000003,5.029923350105307
580,4040.57,4.873855826315894
581,4043.2400000000002,4.7840189208581
582,4045.9,4.7766773970686875
583,4048.56,4.844966873279274
584,4051.23,4.869262967821481
585,4053.89,4.934036444032069
586,4056.56,4.941132538574275
587,4059.2200000000003,4.857377014784861
588,4061.88,4.8365504909954495
589,4064.55,4.955825585537655
590,4067.21,4.837087061748242
591,4069.87,4.87332653795883
592,4072.54,4.857557632501036
593,4075.2,4.922917108711623
594,4077.8599999999997,4.806327584922211
595,4080.53,4.715708679464417
596,4083.19,4.740417155675004
597,4085.85,4.639853631885591
598,4088.52,4.672161726427798
599,4091.18,4.610099202638386
600,4093.84,4.242571678848973
