,lambda (Angstroms),Total Flux (erg/s/cm^2/Angstrom)
0,102.00000000000001,0.2651960033078615
1,103.89,0.2644442329862623
2,104.712855,0.26411693698657096
3,106.07000000000001,0.2612811939115445
4,108.03999999999999,0.25716492450670897
5,110.05,0.2529651944759458
6,113.91,0.24489986368342997
7,117.92,0.2365211072892855
8,120.22644299999999,0.2317038573229002
9,120.94000000000001,0.23045447015915957
10,124.89999999999999,0.22351787902436823
11,126.92999999999999,0.2199619109140938
12,128.10999999999999,0.217894955464757
13,131.09,0.21267485287678772
14,132.0,0.21108153271059577
15,134.15,0.20731535353081254
16,136.96,0.2023940875272308
17,138.038426,0.20050503543046366
18,140.15,0.19786130225026446
19,143.07999999999998,0.1942045320745318
20,147.09,0.18920845181196927
21,150.86,0.18448998106270229
22,155.09,0.17919607685211889
23,158.489319,0.17494228553800964
24,159.07000000000002,0.1743930460053125
25,162.02,0.17160264903884143
26,166.18,0.167668383836428
27,170.04999999999998,0.16400774991576933
28,172.81,0.1613974606032065
29,176.83999999999997,0.15758530601399354
30,180.13000000000002,0.1544729987868444
31,181.79000000000002,0.15290334959059287
32,181.970086,0.15273299020760953
33,186.03,0.1498036173232984
34,190.8,0.14636256793964975
35,193.9,0.1441264873571947
36,197.96,0.14119716698501156
37,202.10999999999999,0.13820335912785395
38,204.92,0.13617619876698336
39,208.929613,0.1332803545642776
40,210.17000000000002,0.13260685014901114
41,216.06,0.12941708756701537
42,220.07999999999998,0.12723782415084844
43,223.14000000000001,0.12557750497585574
44,226.76999999999998,0.12361042095454089
45,229.92,0.12195550580381309
46,234.2,0.11973673875774483
47,239.88329199999998,0.11670388627702119
48,240.2,0.11657432456145034
49,245.8,0.11421011217623894
50,252.1,0.11158620280537618
51,256.79,0.10957052205151163
52,259.76,0.1083654408623906
53,263.99,0.10660676059909702
54,268.89,0.10455221109953707
55,273.89,0.10245516230202692
56,275.42287,0.10181231798873006
57,278.98,0.10066667119194883
58,284.17,0.09899660946832806
59,290.12,0.09706943923758747
60,296.2,0.09511765598062902
61,301.01,0.09356483951056815
62,308.02,0.09131439261989731
63,316.227766,0.08867920009364634
64,318.11,0.08822786786124548
65,327.78000000000003,0.085905436931003
66,337.74,0.08351104026055675
67,348.0,0.08104601447955491
68,356.93,0.07891451615534958
69,363.078055,0.07746015190342205
70,366.08000000000004,0.07693081961540386
71,374.61,0.07540564897238607
72,385.10999999999996,0.07350516371943333
73,394.97999999999996,0.07179791246965775
74,405.12,0.07004104151852053
75,413.6,0.06854597777575488
76,416.86938299999997,0.06796030396189454
77,422.26,0.0672234715711303
78,430.11,0.06616266911860605
79,441.14,0.06474615100454967
80,451.42,0.0633936040502886
81,459.81,0.062235606930711715
82,470.52,0.06082762200083467
83,478.630092,0.059815900885827104
84,480.37000000000006,0.05965395900725983
85,490.43,0.05856016291990429
86,499.55,0.05780363896397164
87,506.5,0.05701596748483437
88,512.37,0.05689462521626807
89,519.49,0.0561732687910224
90,530.37,0.055038758040085185
91,540.23,0.05387013976579834
92,549.5408739999999,0.052952097349078124
93,550.27,0.0528984478334428
94,560.51,0.052554431348188865
95,569.61,0.0521360448661761
96,580.2,0.051360871362383216
97,589.63,0.050792689405748
98,600.59,0.049699154339499646
99,610.35,0.04894504190824199
100,620.27,0.04884558312565225
101,630.3499999999999,0.048027359991730405
102,630.957344,0.04800231105609329
103,640.59,0.0477656964181687
104,649.4999999999999,0.04724416589733548
105,658.54,0.04653605568989076
106,664.63,0.04660919237093742
107,675.4300000000001,0.04623514040629108
108,684.82,0.04526114804258468
109,694.35,0.04533936501637361
110,705.63,0.0440196362088541
111,715.4499999999999,0.0444600938817405
112,724.43596,0.044061595894470826
113,725.4,0.04403469376138781
114,735.49,0.043722033944590816
115,745.73,0.043261001656781
116,754.36,0.042974216291175656
117,764.86,0.04211969832027691
118,775.4999999999999,0.042290129443099525
119,784.48,0.04162226531179755
120,795.39,0.04158803518679705
121,804.6,0.04141616606660873
122,815.79,0.04104451312905093
123,825.24,0.04084971045524206
124,831.763771,0.039775679614813465
125,834.79,0.039313650941632805
126,844.4599999999999,0.04022930160943217
127,854.24,0.03991415352371117
128,864.13,0.03991483468446979
129,874.1400000000001,0.03972595111411527
130,884.26,0.039519935790240365
131,894.5,0.03931277773525232
132,904.86,0.03892860094915113
133,915.33,0.03869863140952957
134,925.93,0.0515387511612021
135,934.5,0.06666548236420528
136,945.32,0.08584154860883704
137,954.07,0.1001685782151705
138,954.992586,0.10080910711210689
139,965.12,0.10784806660354063
140,974.0500000000001,0.052563692674283014
141,985.3199999999999,0.09468203720029275
142,994.44,0.09467126297466796
143,1005.96,0.11602481921598402
144,1015.2700000000001,0.11429112469399204
145,1024.66,0.0755385395208981
146,1034.14,0.09563119736531446
147,1046.12,0.13544217236279418
148,1055.8,0.1321359235794556
149,1065.56,0.11295087414501505
150,1075.42,0.12461021139669701
151,1085.37,0.10795930166588927
152,1095.42,0.12692995862120404
153,1096.4782,0.12646011952437466
154,1105.55,0.12248920046695974
155,1115.78,0.11908811925680383
156,1126.1100000000001,0.10866388245319576
157,1133.91,0.12630439616392733
158,1144.4,0.11849404241079582
159,1154.99,0.12108689306421214
160,1165.68,0.1214614181241763
161,1173.76,0.09175862217324182
162,1184.62,0.11669756672433733
163,1195.58,0.09490578568198066
164,1203.87,0.08018879498479664
165,1215.01,0.06423321987422609
166,1226.25,0.09123359917020336
167,1234.75,0.11441172372676983
168,1246.18,0.12009187539518801
169,1254.8100000000002,0.11624543368026664
170,1258.92541,0.11299221058972383
171,1266.43,0.10712094604657349
172,1275.2,0.12361878511220188
173,1284.04,0.12659618916467108
174,1295.92,0.10835266121708442
175,1304.9099999999999,0.10735430309849824
176,1313.95,0.12307537425622692
177,1326.1100000000001,0.11814261625600354
178,1335.3000000000002,0.10942124524267682
179,1344.56,0.12055490921619094
180,1353.88,0.11712500032128291
181,1366.41,0.10816500296578957
182,1375.8799999999999,0.11007453189982615
183,1385.41,0.10967064796544056
184,1395.02,0.09362377687315877
185,1404.69,0.09395697291245483
186,1414.42,0.10254059608332873
187,1424.23,0.10194741209630642
188,1434.1000000000001,0.10253708524086196
189,1440.72,0.10521973542495087
190,1445.43977,0.10556122941503522
191,1447.3700000000001,0.10571267232637577
192,1454.05,0.1027815579183797
193,1464.1299999999999,0.09704808970990655
194,1474.28,0.09671777380554125
195,1484.5,0.09732013020528378
196,1494.79,0.09736377890913413
197,1505.15,0.0931802999170923
198,1512.1000000000001,0.08591911582494069
199,1515.58,0.0893660332291583
200,1526.09,0.08753099774591896
201,1536.67,0.07819144456678744
202,1543.7600000000002,0.07867639508285149
203,1554.46,0.07621863871076195
204,1565.24,0.07925909354336708
205,1576.08,0.0829375517794932
206,1583.3600000000001,0.08491423140670704
207,1594.33,0.08557659535046198
208,1605.3899999999999,0.08347566939949841
209,1616.51,0.08268189685205585
210,1623.9799999999998,0.08008870559041951
211,1635.23,0.08305480875060574
212,1646.57,0.08321350201607348
213,1654.17,0.07951027646206596
214,1659.58691,0.081210032897736
215,1665.6299999999999,0.08313182405063615
216,1673.3200000000002,0.07661237852622121
217,1677.18,0.08398917252827043
218,1684.92,0.08506484288471106
219,1696.6000000000001,0.08107804665256976
220,1704.43,0.0786874775945504
221,1716.25,0.07531855782880467
222,1724.1699999999998,0.07438102935632532
223,1736.12,0.07747028488080407
224,1744.13,0.07591319699386471
225,1756.22,0.07832677898473903
226,1764.3300000000002,0.07398405285951078
227,1776.5600000000002,0.07414827131678065
228,1784.76,0.07492985577709244
229,1792.9999999999998,0.07720704494208865
230,1805.43,0.07663513692278076
231,1813.76,0.07209136667331699
232,1826.33,0.07280523512040467
233,1834.76,0.07064662663265202
234,1843.2299999999998,0.0663665428495838
235,1856.01,0.06624012599626483
236,1864.5700000000002,0.06717485279873664
237,1873.18,0.070130355482064
238,1886.16,0.06556450215216726
239,1894.87,0.06326478659720575
240,1903.6200000000001,0.06589472574692867
241,1905.46072,0.06558197658529319
242,1916.81,0.06368363382228903
243,1925.6599999999999,0.06206016232577508
244,1934.55,0.06367785115018085
245,1943.48,0.06522343029550633
246,1956.95,0.06136160086521901
247,1965.98,0.06506084581284377
248,1975.06,0.06626659866161816
249,1984.17,0.06331836425108234
250,1993.3300000000002,0.06180662774169616
251,2007.15,0.0627853336194563
252,2016.4099999999999,0.0614030829123694
253,2025.72,0.06289508010643213
254,2035.07,0.059983557621414586
255,2044.4599999999998,0.06108153545731674
256,2053.9,0.05693776119436853
257,2063.38,0.05796807725234004
258,2072.91,0.06158807121146118
259,2077.6800000000003,0.05910195698113672
260,2087.2799999999997,0.06041742400186736
261,2096.91,0.05783644376328778
262,2106.59,0.05810124142585784
263,2116.31,0.05836859940934762
264,2126.08,0.05852297529398703
265,2135.89,0.055912131499546144
266,2145.75,0.056055865606254904
267,2155.66,0.05718849761411331
268,2165.61,0.055696579942891414
269,2175.6,0.05530239259258924
270,2185.65,0.05427872072366662
271,2187.7616199999998,0.05457524011712303
272,2195.73,0.05571284694936469
273,2205.87,0.054489465519255514
274,2216.05,0.052582498107173525
275,2226.2799999999997,0.051434645717625516
276,2236.56,0.05298918835061148
277,2246.88,0.051530535001624626
278,2257.25,0.049924406675171756
279,2262.45,0.05047492901870551
280,2272.9,0.050911068728307
281,2283.39,0.05125331245593567
282,2293.9300000000003,0.04889513120609833
283,2304.52,0.04903871497879496
284,2315.15,0.04751859276951878
285,2325.84,0.041312376587283366
286,2336.57,0.04531393442307513
287,2347.36,0.04433720828590768
288,2352.77,0.04593721172408415
289,2363.63,0.043687222618464264
290,2374.54,0.04405439853537836
291,2385.5,0.041985229474826434
292,2396.51,0.04329954543680848
293,2407.57,0.04212647642132451
294,2413.12,0.04242006392259612
295,2424.26,0.04359261294316651
296,2435.4500000000003,0.04232482698627089
297,2446.69,0.043414486051909236
298,2452.33,0.04281671259374201
299,2463.65,0.04236334969543472
300,2475.02,0.04128566181966142
301,2486.4500000000003,0.041550469970928885
302,2492.18,0.038302315553322815
303,2503.68,0.04195222073613786
304,2511.88643,0.039905207140177416
305,2515.2400000000002,0.039072880452279274
306,2526.85,0.03889085721931603
307,2532.68,0.039019024338336206
308,2544.3700000000003,0.03840192905897872
309,2556.1099999999997,0.039689051250624836
310,2567.91,0.03898318440747528
311,2573.83,0.04001213297430194
312,2585.71,0.039598174084758145
313,2597.64,0.039038642666217954
314,2603.63,0.03814582569244966
315,2615.65,0.03760876572171596
316,2627.7200000000003,0.03836011322198586
317,2633.78,0.03885400070762261
318,2645.94,0.040404699655699
319,2652.04,0.04069719111813863
320,2664.28,0.038246608019820785
321,2676.58,0.03901824588670726
322,2682.75,0.03892468180855194
323,2695.13,0.037573757629044184
324,2707.57,0.037965934414740755
325,2713.81,0.036670224795990476
326,2726.3399999999997,0.03649189302949353
327,2732.62,0.03724297738754614
328,2745.24,0.034427227068855676
329,2757.9100000000003,0.034647504221168815
330,2764.26,0.03522035303862647
331,2777.02,0.0359890916387461
332,2783.4300000000003,0.03469682142140808
333,2796.27,0.03081278797513347
334,2802.7200000000003,0.03189395173459833
335,2815.66,0.03512376323033094
336,2822.15,0.03584841096659868
337,2835.17,0.03473052041593705
338,2848.26,0.03410109432468046
339,2854.83,0.03318902001455397
340,2868.0,0.03482596187690315
341,2874.61,0.03473907154357954
342,2884.0315,0.03456800550606964
343,2887.88,0.034502255454430225
344,2894.54,0.0342911847330098
345,2907.9,0.035673770162712976
346,2928.06,0.0345511539248998
347,2948.3500000000004,0.0339187525228547
348,2968.79,0.033940234392849676
349,2989.37,0.03363757531674873
350,3010.09,0.033530035294551855
351,3030.9599999999996,0.03322965854439506
352,3051.97,0.032994300848142345
353,3073.12,0.0328230722057937
354,3087.3,0.03260411352264932
355,3108.71,0.032434704551836814
356,3130.25,0.031831960416792385
357,3151.95,0.031602093771924036
358,3166.5,0.031450421159811844
359,3188.45,0.030219379968343636
360,3210.5499999999997,0.030580022048915502
361,3232.8,0.02955203740152745
362,3247.7299999999996,0.03044137507858347
363,3270.24,0.030808070102731556
364,3292.91,0.03046319261705573
365,3308.11,0.030137334183783893
366,3311.31121,0.030167331868132283
367,3323.38,0.0302895011583965
368,3331.04,0.03027844266632188
369,3338.72,0.029457687650769254
370,3346.4100000000003,0.030080894373477624
371,3354.13,0.029153006310968992
372,3361.8599999999997,0.029311279986721367
373,3369.61,0.02896221713899573
374,3377.3799999999997,0.028289397767792098
375,3385.16,0.028940940134849463
376,3392.9700000000003,0.029724847716689824
377,3400.7900000000004,0.030477517036791187
378,3408.63,0.028739749833414548
379,3416.49,0.028896506106559906
380,3424.36,0.029855784117966265
381,3432.25,0.030374555605894624
382,3440.17,0.029429182308605976
383,3448.1,0.028080390749578327
384,3456.05,0.028068792667072677
385,3464.01,0.02725747632282803
386,3472.0,0.028649715193366378
387,3479.9999999999995,0.027077145802165727
388,3488.02,0.02813163988748707
389,3496.07,0.027957199187591417
390,3504.12,0.02821765848769576
391,3512.2,0.0277724730025831
392,3520.3,0.02836055099399244
393,3528.4100000000003,0.026903230723662776
394,3536.55,0.028172605668116114
395,3544.7000000000003,0.02860394235083045
396,3552.8700000000003,0.02876011251006678
397,3561.06,0.028357476145825112
398,3569.27,0.026741613258105444
399,3577.5,0.026320363846907772
400,3585.7499999999995,0.0254128879122321
401,3594.01,0.026093583715817426
402,3602.2999999999997,0.02791433473418575
403,3610.6,0.026630557490815075
404,3618.92,0.027298193723966392
405,3623.13,0.02624987553184705
406,3625.87,0.029293921815360828
407,3628.6099999999997,0.029639598098874603
408,3631.35,0.02609520438238838
409,3634.0899999999997,0.027060950665902157
410,3636.84,0.02766162868767693
411,3639.58,0.02693821497119071
412,3642.32,0.026435741254704485
413,3645.06,0.02801441753821826
414,3647.7999999999997,0.027564693821732038
415,3650.54,0.025029530105245813
416,3653.2799999999997,0.025343836388759595
417,3656.02,0.026765722672273368
418,3658.7599999999998,0.027741448955787146
419,3661.4999999999995,0.02891102523930092
420,3664.25,0.026632293261075697
421,3666.99,0.027305819544589473
422,3669.73,0.02816749582810325
423,3672.47,0.027399892111617027
424,3675.21,0.027605868395130802
425,3677.95,0.027251644678644577
426,3680.6899999999996,0.026913100962158355
427,3683.43,0.028917997245672133
428,3686.1699999999996,0.027722753529185906
429,3688.92,0.026419031550960682
430,3691.66,0.026626427834474463
431,3694.4,0.027808834117988235
432,3697.14,0.027129610401502014
433,3699.8799999999997,0.02734271668501579
434,3702.62,0.026562272968529567
435,3705.3599999999997,0.024366369252043343
436,3708.1,0.02597070553555712
437,3710.84,0.027143141819070894
438,3713.5800000000004,0.02938751810258467
439,3716.33,0.030451456124359448
440,3719.0699999999997,0.036630062407873226
441,3721.81,0.060494198691387
442,3724.5499999999997,0.09869837497490079
443,3727.29,0.12583967125841455
444,3730.0299999999997,0.11339916754192833
445,3732.7700000000004,0.0769924338254421
446,3735.51,0.046264700108955885
447,3738.25,0.032879006392469656
448,3740.9900000000002,0.030336712675983438
449,3743.74,0.027462130697758214
450,3746.48,0.027518436981271988
451,3749.22,0.024763763264785764
452,3751.9599999999996,0.028395089548299543
453,3754.7000000000003,0.026897645831813317
454,3757.44,0.026951102115327093
455,3760.1800000000003,0.02737089839884087
456,3762.92,0.02856613468235465
457,3765.6600000000003,0.028241840965868424
458,3768.4,0.027762177249382198
459,3771.1499999999996,0.027594545271156977
460,3773.89,0.029897351554670756
461,3776.63,0.03049246783818453
462,3779.3700000000003,0.031830254121698306
463,3782.11,0.031347740405212085
464,3784.8500000000004,0.030601516688725856
465,3787.59,0.030452562972239635
466,3790.33,0.02871991925575341
467,3793.07,0.030111875539267186
468,3795.81,0.029679251822780965
469,3798.5600000000004,0.028064769844555738
470,3801.3,0.031346866128069514
471,3801.8939600000003,0.03135567283878333
472,3804.0400000000004,0.031388629050576836
473,3806.78,0.030699446560928097
474,3809.52,0.02984349407127936
475,3812.26,0.030048071581630618
476,3815.0,0.03124048909198188
477,3817.7400000000002,0.03071665660233314
478,3820.48,0.029703894112684398
479,3823.23,0.03016633865774497
480,3825.9700000000003,0.027961906168096233
481,3828.71,0.02735825367844749
482,3831.4500000000003,0.027441661188798754
483,3834.19,0.026443158699150014
484,3836.93,0.026167356209501277
485,3839.67,0.028243553719852536
486,3842.41,0.028572141230203796
487,3845.15,0.03181578874055505
488,3847.89,0.03023997625090632
489,3850.6400000000003,0.031420830795966886
490,3853.38,0.032255448306318144
491,3856.12,0.031714515816669404
492,3858.86,0.03208160332702067
493,3861.6,0.033741560837371926
494,3864.34,0.03394186834772319
495,3867.08,0.03513142585807445
496,3869.8199999999997,0.03517778336842571
497,3872.56,0.03422917087877697
498,3875.2999999999997,0.03166409838912823
499,3878.05,0.0317730129341888
500,3880.79,0.030603460444540063
501,3883.53,0.030230727954891325
502,3886.27,0.034365265465242587
503,3889.0099999999998,0.03299758297559384
504,3891.75,0.032904240485945105
505,3894.49,0.03175463799629637
506,3897.23,0.028439775506647624
507,3899.97,0.03239472301699889
508,3902.7099999999996,0.03169984052735014
509,3905.46,0.03352641507241072
510,3908.2,0.03144742258276198
511,3910.94,0.03273677009311324
512,3913.68,0.0332136076034645
513,3916.42,0.03200271511381576
514,3919.16,0.031682732624167015
515,3921.8999999999996,0.03165923013451828
516,3924.64,0.02900150764486954
517,3927.3799999999997,0.0287727451552208
518,3930.12,0.02593682266557206
519,3932.87,0.02599587721063263
520,3935.61,0.02736932472098389
521,3938.35,0.028443422231335155
522,3941.0899999999997,0.029538899741686414
523,3943.83,0.030963667252037672
524,3946.5699999999997,0.030908804762388935
525,3949.31,0.03123882227274019
526,3952.0499999999997,0.029667289783091452
527,3954.7900000000004,0.030530427293442717
528,3957.54,0.030040661838503284
529,3960.2799999999997,0.028325159348854545
530,3963.02,0.027167006859205808
531,3965.7599999999998,0.02693112436955707
532,3968.5,0.031166871879908326
533,3971.24,0.03066869939025959
534,3973.9799999999996,0.02918554690061085
535,3976.7200000000003,0.028845594410962107
536,3979.46,0.030237571921313367
537,3982.2000000000003,0.03153831943166463
538,3984.95,0.0326536139767252
539,3987.69,0.03222671148707646
540,3990.43,0.03415750899742772
541,3993.1699999999996,0.033402756507778984
542,3995.91,0.03381260401813024
543,3998.65,0.0329366915284815
544,4001.3900000000003,0.03437285903883276
545,4004.13,0.03534718654918402
546,4006.8700000000003,0.03439144405953529
547,4009.61,0.03399875156988654
548,4012.3599999999997,0.03549034611494711
549,4015.1,0.03480117362529838
550,4017.8399999999997,0.03439566113564964
551,4020.5800000000004,0.034908128646000895
552,4023.32,0.03443419615635216
553,4026.0600000000004,0.03397451366670342
554,4028.8,0.03233029117705468
555,4031.54,0.03315493868740594
556,4034.28,0.0342504261977572
557,4037.02,0.03542003370810846
558,4039.7699999999995,0.03429877825316903
559,4042.51,0.03366376576352029
560,4045.2500000000005,0.03367448327387155
561,4047.9900000000002,0.033354500784222814
562,4050.73,0.033951078294574076
563,4053.4700000000003,0.03559963580492534
564,4056.21,0.03434883331527659
565,4058.9500000000003,0.03334177082562786
566,4061.69,0.03188284833597911
567,4064.43,0.03271747584633038
568,4067.1800000000003,0.033919710391390946
569,4069.92,0.03391617790174221
570,4072.6600000000003,0.032934785412093465
571,4075.4,0.033408762922444726
572,4078.14,0.03275950043279599
