,lambda (Angstroms),Total Flux (erg/s/cm^2/Angstrom)
0,102.06,4.857547998811572
1,103.95,4.843775794776087
2,104.712855,4.838216961603549
3,105.89,4.793159479584177
4,108.10000000000001,4.708567491989882
5,110.11,4.631630887985374
6,113.98,4.483499217625117
7,117.99000000000001,4.3300087790124895
8,120.22644299999999,4.244404638363885
9,121.02,4.218938461556006
10,124.98,4.091857404308522
11,127.01,4.026712317017628
12,127.89,3.998472082613452
13,130.87,3.902840378897256
14,132.07999999999998,3.8640100586935255
15,133.92,3.80496229636073
16,137.04,3.704837834652541
17,138.038426,3.6727971720015216
18,139.91,3.6298665474709444
19,142.84,3.5626575687177193
20,146.84,3.4709048415518122
21,150.95000000000002,3.3766287338312573
22,154.83,3.287628450952339
23,158.489319,3.2036902089473673
24,159.16,3.1920594589951934
25,162.12,3.1407280461591993
26,165.9,3.0751764923333393
27,170.14999999999998,3.0014743348845716
28,172.92,2.9534379243102
29,176.95,2.8835510091623413
30,179.82000000000002,2.8337804645830103
31,181.9,2.797709829583858
32,181.970086,2.7964944228658455
33,186.14,2.7413264586787465
34,190.92000000000002,2.6780871718493438
35,194.01999999999998,2.6370742862652503
36,198.07999999999998,2.583360646801837
37,202.23000000000002,2.528456376709049
38,205.04000000000002,2.4912803222252706
39,208.929613,2.4398208953628227
40,209.82,2.43096471268077
41,216.19,2.3676065339917356
42,220.20999999999998,2.3276222598681167
43,222.76000000000002,2.3022591306115814
44,226.89999999999998,2.26108144848769
45,230.05999999999997,2.229656571336188
46,233.8,2.1924686900815367
47,239.8,2.1327993942179253
48,239.88329199999998,2.131970942808431
49,245.95,2.085471477023
50,252.26,2.0371123202561394
51,256.95,2.0011595837155887
52,259.92,1.9784030865256872
53,264.14,1.9460625257865352
54,269.06,1.908354856417002
55,274.06,1.8700338116899968
56,275.42287,1.8595884893526737
57,279.15,1.8376663468773191
58,283.69,1.8109638353654123
59,290.3,1.7720819482093535
60,295.69,1.7403812394672875
61,301.19,1.7080305185627311
62,308.21000000000004,1.666741873666478
63,316.227766,1.6195852548046668
64,318.29999999999995,1.6104826111140034
65,327.98,1.5679603379646767
66,337.94,1.524206962233717
67,348.21,1.479091240919163
68,357.14000000000004,1.4398631385788543
69,363.078055,1.413778927167293
70,366.3,1.403180496101116
71,374.84000000000003,1.3750867720998896
72,385.34,1.340539541060677
73,395.22,1.3080426467365418
74,405.36,1.2746866998512447
75,413.84999999999997,1.246756407046396
76,416.86938299999997,1.2368227532117204
77,421.53999999999996,1.2250886534131369
78,430.37,1.2029048163699598
79,441.41,1.1751720754917403
80,450.65000000000003,1.1519582726719264
81,460.09000000000003,1.1282411153122895
82,469.71999999999997,1.104047931609821
83,478.630092,1.081664586119504
84,479.56,1.0798680743534896
85,489.59999999999997,1.0604660392873575
86,499.85,1.0406647280533081
87,505.64,1.0294749516378794
88,511.49,1.0181834470316171
89,519.81,1.002107414902711
90,529.47,0.9834403024785239
91,540.56,0.9620050886728062
92,549.5408739999999,0.9446534796584093
93,550.61,0.9430778407180366
94,559.55,0.9299088942487459
95,569.96,0.9145705030046389
96,580.5500000000001,0.8989573861799425
97,589.99,0.8850486633090137
98,599.57,0.8709227684976263
99,609.31,0.8565457777257146
100,620.64,0.8398773958585936
101,629.28,0.8271413442902859
102,630.957344,0.824669479553484
103,639.5000000000001,0.8146905245401463
104,649.8900000000001,0.8025536468340755
105,657.42,0.7937547817354508
106,665.0300000000001,0.7848695979778761
107,674.28,0.7740613228118365
108,685.24,0.7612467402357502
109,694.77,0.7501336223633871
110,704.44,0.738822123287862
111,715.88,0.7254765635580787
112,724.43596,0.715481890158717
113,725.8399999999999,0.7142646199406714
114,734.25,0.706974230771416
115,744.46,0.6981302550357328
116,754.8199999999999,0.6891509655111807
117,765.32,0.6800342152903506
118,774.1800000000001,0.6723787405544882
119,784.9499999999999,0.6630436102336943
120,795.87,0.6535830216240311
121,805.0799999999999,0.6456044248474746
122,814.41,0.6375191336598227
123,825.7399999999999,0.6277118733539175
124,831.763771,0.6224547299093535
125,835.3,0.6201432125684979
126,844.97,0.6139361430697071
127,854.75,0.6076017581716543
128,864.65,0.6012037550380424
129,874.66,0.594736598705168
130,884.7900000000001,0.5881964506367349
131,895.04,0.5815698732327428
132,905.4,0.5748521035294881
133,915.89,0.5682875504543783
134,924.36,0.5664858612111769
135,935.0600000000001,0.5649340003738388
136,945.8900000000001,0.5671041961646451
137,954.64,0.5698555519051397
138,954.992586,0.5697406392838581
139,965.7,0.56640092145211
140,974.63,0.5346302479329959
141,985.92,0.5487686788500395
142,995.04,0.5450557552134974
143,1004.25,0.5534599631529104
144,1015.88,0.5448261679124514
145,1025.28,0.5151746447344364
146,1034.76,0.5202503574017149
147,1044.34,0.5424839073756105
148,1054.0,0.5355732431947993
149,1066.21,0.515645740332718
150,1076.07,0.5186711207651407
151,1086.03,0.5007992585041802
152,1096.08,0.5095275678191747
153,1096.4782,0.5091892034910461
154,1106.22,0.5020314578338172
155,1113.89,0.4959459183172037
156,1124.19,0.48530984684117773
157,1134.6000000000001,0.49410534718433985
158,1145.09,0.4829861124869116
159,1155.69,0.4817508396086712
160,1163.7,0.47984632116954806
161,1174.47,0.45453385383005296
162,1185.34,0.4673249226898198
163,1196.3,0.44184185212892224
164,1204.6,0.42533035666765867
165,1215.74,0.4101149172654324
166,1224.17,0.42765094486320926
167,1235.5,0.44489192223958063
168,1244.06,0.447510532896398
169,1255.57,0.4383022014314408
170,1258.92541,0.4326747967827491
171,1264.2700000000002,0.4245083991709977
172,1275.9699999999998,0.4389678842779704
173,1284.8200000000002,0.4398931907050393
174,1293.7199999999998,0.4186584321966681
175,1305.6899999999998,0.4136432266522631
176,1314.74,0.4276971833375709
177,1323.8600000000001,0.4210548991132623
178,1336.1100000000001,0.40719276993039166
179,1345.37,0.4182252038868504
180,1354.69,0.41216553992078064
181,1364.08,0.3998667050450946
182,1373.54,0.400558849259792
183,1386.25,0.3970703326708708
184,1395.86,0.38367673207924746
185,1405.5300000000002,0.3830654835650956
186,1415.28,0.3809067111542396
187,1425.09,0.37976155082085494
188,1434.96,0.375771712564942
189,1441.5900000000001,0.37781615212555986
190,1445.43977,0.37722432587567656
191,1448.24,0.37710698377817875
192,1454.93,0.37322731027209277
193,1465.01,0.36451784373377494
194,1475.17,0.3618910593657878
195,1485.39,0.36089581662554887
196,1495.69,0.3599168060556407
197,1506.06,0.35309843238477207
198,1513.01,0.3432789459322612
199,1516.5,0.34725672561294285
200,1523.5000000000002,0.34333273551688864
201,1534.06,0.3320112220005557
202,1544.69,0.33566324538326214
203,1555.4,0.32940525093629935
204,1566.18,0.3277133033883761
205,1573.41,0.33013466453202306
206,1584.31,0.330970390239596
207,1595.3,0.32987146338879114
208,1606.35,0.3257444881657343
209,1613.77,0.32429959946391695
210,1624.95,0.3175585527676477
211,1636.2199999999998,0.3192948035130007
212,1643.77,0.31863866333797086
213,1655.1599999999999,0.31005050733882006
214,1659.58691,0.31146357910954225
215,1666.64,0.3142611377202128
216,1670.48,0.3054463211051276
217,1678.19,0.31384600696390164
218,1685.9399999999998,0.3160909916079353
219,1693.72,0.3095237653409136
220,1705.46,0.30463110881458516
221,1713.3300000000002,0.30054384981439736
222,1725.21,0.29839306903647733
223,1733.17,0.3023825173031235
224,1745.18,0.2982439225772969
225,1753.24,0.3028472178070919
226,1765.39,0.2931460588296736
227,1773.5400000000002,0.2945781013263026
228,1785.83,0.2936860780972927
229,1794.0800000000002,0.29922923755707037
230,1806.51,0.2955201900764689
231,1814.8500000000001,0.28860015680308054
232,1823.23,0.2884418423149518
233,1835.87,0.28280167845696275
234,1844.34,0.27486096123566794
235,1857.12,0.27436107312608726
236,1865.7,0.2764252125642561
237,1874.31,0.27988430109136964
238,1882.9599999999998,0.27313989840374264
239,1896.01,0.2693419820946638
240,1904.76,0.2711545063701857
241,1905.46072,0.27088431134654384
242,1913.56,0.2681530071956595
243,1926.82,0.2641686876163689
244,1935.71,0.2615969814580059
245,1944.65,0.2686998921941403
246,1953.6200000000001,0.2638151430669732
247,1967.17,0.26996446147576747
248,1976.25,0.26985977951649465
249,1985.37,0.2655717510728197
250,1994.53,0.2626021861447426
251,2003.74,0.26225280811116297
252,2012.99,0.2587779635931813
253,2026.94,0.25882488715795476
254,2036.3,0.2567151398078673
255,2045.7,0.25954652597337774
256,2055.14,0.2549090656544862
257,2064.62,0.25295843885119246
258,2074.15,0.2591199289423961
259,2078.94,0.2602085074352467
260,2083.73,0.2633376059280972
261,2093.35,0.2569513764293962
262,2103.0099999999998,0.25415948044629316
263,2112.72,0.25495594135768745
264,2127.36,0.253206628066525
265,2137.18,0.24437525614581362
266,2147.04,0.2488816177407001
267,2156.96,0.2504419196089835
268,2166.91,0.2447521016139653
269,2176.91,0.24342573051344454
270,2186.96,0.2437746963074211
271,2187.7616199999998,0.24402248202489968
272,2197.06,0.24729566012716944
273,2207.2,0.24325595116360157
274,2217.38,0.23518245210550281
275,2222.5,0.23350424000555536
276,2232.75,0.24231845828202767
277,2243.06,0.23702247141670374
278,2253.42,0.22935975693321625
279,2263.82,0.2297949823551979
280,2274.27,0.23275346015901605
281,2284.76,0.2372618178683033
282,2295.31,0.22961204043579433
283,2305.9,0.23181918290875447
284,2316.55,0.22587214023991842
285,2327.24,0.2065206774765515
286,2332.6,0.214115504809419
287,2343.37,0.20729220185699038
288,2354.19,0.2192662712863982
289,2365.0499999999997,0.20612492062127527
290,2375.97,0.210565174814356
291,2386.94,0.19943640138927318
292,2392.44,0.20490229339128269
293,2403.48,0.20172638730077094
294,2414.58,0.20415516606846296
295,2425.7200000000003,0.21455075474162402
296,2436.92,0.21124306827298892
297,2442.54,0.21716986999140597
298,2453.81,0.21639899085734185
299,2465.1400000000003,0.21329538658148145
300,2476.52,0.20771314468745755
301,2482.22,0.20559017621681297
302,2493.68,0.20191141413372732
303,2505.19,0.21539677443247818
304,2510.9700000000003,0.1954743157727718
305,2511.88643,0.19512466430208153
306,2516.76,0.19337672315700977
307,2522.56,0.19189577903000632
308,2534.2,0.1956125358509857
309,2545.8999999999996,0.19532747028444433
310,2557.65,0.20633498106163567
311,2563.55,0.19985475962209773
312,2575.38,0.2064909705492614
313,2587.27,0.20344965908890444
314,2593.2300000000005,0.20050067526184573
315,2605.2,0.19548898395146114
316,2617.2200000000003,0.1919297789848092
317,2623.26,0.20069955530772288
318,2635.3700000000003,0.21076297175978986
319,2647.53,0.22657536455558963
320,2653.63,0.2366793384909826
321,2665.88,0.21424408270550127
322,2672.03,0.22228637298462695
323,2684.36,0.22435862734911793
324,2696.75,0.21236616932608826
325,2702.9700000000003,0.22019041848643978
326,2715.45,0.207481281882129
327,2727.98,0.2048982316215509
328,2734.27,0.21267371966312826
329,2746.8900000000003,0.18714709082126907
330,2753.2200000000003,0.19389701393783257
331,2765.93,0.20138291651469237
332,2772.31,0.20777088597498858
333,2785.1,0.19050946870182073
334,2797.96,0.16452112030987864
335,2804.41,0.16982605865140074
336,2817.35,0.20187761040943103
337,2823.85,0.21890629509468584
338,2836.88,0.21495853827143507
339,2843.4199999999996,0.20828369803167607
340,2856.5499999999997,0.19386638389589075
341,2863.1299999999997,0.21930551873111787
342,2876.35,0.2237233560140515
343,2882.98,0.22017258719301136
344,2884.0315,0.22033824883855274
345,2896.2799999999997,0.22250859192639505
346,2909.6499999999996,0.24408184699812058
347,2929.82,0.23322154832921285
348,2950.13,0.2292262376715274
349,2970.58,0.2349170150250642
350,2991.17,0.23564658038982322
351,3011.9,0.2392114337658046
352,3032.7799999999997,0.23936400286809548
353,3046.78,0.24173800399032114
354,3067.9,0.24592013825470732
355,3089.1600000000003,0.24819826053031574
356,3110.58,0.25196522624732104
357,3132.14,0.24692687997554863
358,3146.6,0.2488388559917903
359,3168.41,0.25270010259720044
360,3190.3700000000003,0.23792096492892012
361,3212.4799999999996,0.24815854298694945
362,3227.31,0.23288424446142136
363,3249.68,0.25642184311172056
364,3272.21,0.27038168520341654
365,3287.31,0.26818253498524575
366,3310.1000000000004,0.26654089766921163
367,3311.31121,0.2662381703667566
368,3325.38,0.2629156542625687
369,3333.04,0.2727421061588789
370,3340.73,0.25463925447253755
371,3348.43,0.28208316825864577
372,3356.15,0.2735277129896529
373,3363.89,0.235453888665559
374,3371.6400000000003,0.24487712981391463
375,3379.41,0.2743288019071693
376,3387.2000000000003,0.2698529049453228
377,3395.0099999999998,0.25853553892837544
378,3402.8399999999997,0.292097803856327
379,3410.68,0.26019573425672804
380,3418.54,0.25880549560202804
381,3426.42,0.2681414878922271
382,3434.32,0.28718911112732504
383,3442.24,0.25867896530732204
384,3450.18,0.26805285043221805
385,3458.1299999999997,0.2708852010295635
386,3466.1,0.2647416825718079
387,3474.09,0.2780736950589513
388,3482.1000000000004,0.2677854384909937
389,3490.13,0.2777316128679351
390,3498.17,0.25380305271732595
391,3506.24,0.2819613889840653
392,3514.32,0.2632517907232541
393,3522.42,0.28116452340734194
394,3530.54,0.2595602870363287
395,3538.6800000000003,0.2822200816102145
396,3546.84,0.2881928071289993
397,3555.01,0.28803329812023354
398,3563.21,0.2798513855288163
399,3571.42,0.2557723384098485
400,3579.66,0.2609731877082292
401,3587.9100000000003,0.23686220247905937
402,3596.18,0.26877984819478856
403,3604.4700000000003,0.2846247248554167
404,3611.73,0.24641415785374726
405,3614.5899999999997,0.24695458297430173
406,3617.45,0.2791041080948562
407,3620.32,0.2760944986878601
408,3623.18,0.2892909238084146
409,3626.04,0.2753601489289691
410,3628.9,0.2799722740495235
411,3631.7700000000004,0.2800394646425275
412,3634.6299999999997,0.276590389763082
413,3637.49,0.28014601488363644
414,3640.35,0.28784524000419087
415,3643.22,0.29298913059719484
416,3646.08,0.2841761557177493
417,3648.94,0.27459388083830377
418,3651.8,0.2750216059588582
419,3654.6600000000003,0.3106171310794127
420,3657.5299999999997,0.29746422167241665
421,3660.39,0.2989893467929711
422,3663.25,0.2805048719135256
423,3666.11,0.30012159703408003
424,3668.98,0.311859987627084
425,3671.84,0.29647291274763843
426,3674.7000000000003,0.3045721378681929
427,3677.5600000000004,0.28539026298874737
428,3680.4300000000003,0.2740631535817513
429,3683.29,0.27063447870230584
430,3686.15,0.28163610382286025
431,3689.0099999999998,0.2898172289434147
432,3691.88,0.2968380195364187
433,3694.7400000000002,0.28857884465697314
434,3697.6,0.3039904697775276
435,3700.46,0.2977004948980821
436,3703.32,0.28662092001863654
437,3706.1899999999996,0.2817345106116405
438,3709.0499999999997,0.28265443573219495
439,3711.91,0.2974917608527494
440,3714.77,0.3019397859733039
441,3717.64,0.3165396765663078
442,3720.5,0.29933730168686234
443,3723.36,0.3418966268074167
444,3726.2200000000003,0.36430305192797124
445,3729.0899999999997,0.3607085425209752
446,3731.95,0.3363270676415297
447,3734.81,0.3071558927620841
448,3737.67,0.2868459178826386
449,3740.54,0.29642040847564255
450,3743.4,0.290356033596197
451,3746.26,0.28279425871675146
452,3749.1200000000003,0.2923394838373059
453,3751.9799999999996,0.3002335089578604
454,3754.85,0.30209549955086434
455,3757.71,0.30485132467141884
456,3760.5699999999997,0.30971984979197326
457,3763.43,0.3166908749125278
458,3766.3,0.3041738655055317
459,3769.16,0.2974120906260862
460,3772.02,0.3101264157466406
461,3774.88,0.3238971408671951
462,3777.7500000000005,0.33745083146019905
463,3780.6099999999997,0.33764265658075354
464,3783.47,0.352326281701308
465,3786.33,0.36460990682186245
466,3789.2,0.3397547974148664
467,3792.06,0.31636812253542085
468,3794.92,0.2977914476559753
469,3797.78,0.2951935727765298
470,3800.6400000000003,0.31024629789708424
471,3801.8939600000003,0.3164191412699089
472,3803.5099999999998,0.32439006778769836
473,3806.37,0.3326195414733657
474,3809.23,0.32705471515903306
475,3812.09,0.3348226888447004
476,3814.96,0.3348047250257722
477,3817.82,0.31290219871143954
478,3820.6800000000003,0.3055835723971069
479,3823.5400000000004,0.2987161460827742
480,3826.4100000000003,0.291908882263846
481,3829.27,0.2853184559495134
482,3832.13,0.27289232963518073
483,3834.99,0.2685068033208481
484,3837.86,0.2738017395019198
485,3840.7200000000003,0.2850567131875872
486,3843.58,0.3053163868732545
487,3846.44,0.3243967605589219
488,3849.2999999999997,0.34220543424458927
489,3852.1699999999996,0.3570893704256611
490,3855.0299999999997,0.3391558441113284
491,3857.89,0.3366883177969957
492,3860.75,0.34582049148266314
493,3863.62,0.34877662766373485
494,3866.48,0.3587907013494022
495,3869.34,0.36294857503506955
496,3872.2000000000003,0.3577222487207369
497,3875.0699999999997,0.3467302849018087
498,3877.93,0.3264379585874761
499,3880.79,0.31614513227314345
500,3883.65,0.3053086059588107
501,3886.52,0.29868594213988253
502,3889.38,0.3097153158255499
503,3892.2400000000002,0.32145238951121724
504,3895.1000000000004,0.3319586631968846
505,3897.9599999999996,0.342967536882552
506,3900.83,0.3616769730636238
507,3903.69,0.3627068467492911
508,3906.5499999999997,0.36693652043495845
509,3909.41,0.36683819412062574
510,3912.28,0.36397923030169754
511,3915.14,0.3751420039873649
512,3918.0,0.36241857767303226
513,3920.86,0.3491719513586996
514,3923.7300000000005,0.33028298753977137
515,3926.5899999999997,0.3057958612254388
516,3929.45,0.2726423349111061
517,3932.31,0.2609751085967734
518,3935.18,0.2703724447778452
519,3938.04,0.29555501846351256
520,3940.9,0.32952709214917997
521,3943.76,0.3435204658348473
522,3946.6200000000003,0.35139093952051464
523,3949.49,0.3597623757015864
524,3952.35,0.3691713493872538
525,3955.21,0.36221182307292116
526,3958.07,0.33644259675858845
527,3960.94,0.31331793293966026
528,3963.8,0.2764826066253276
529,3966.6600000000003,0.24886728031099495
530,3969.5200000000004,0.24982515399666227
531,3972.39,0.2751603901777341
532,3975.25,0.3251213638634014
533,3978.11,0.3599446375490688
534,3980.97,0.3765226112347361
535,3983.84,0.3910987474158079
536,3986.7000000000003,0.39457982110147527
537,3989.56,0.3968505947871426
538,3992.42,0.40727506847281
539,3995.2799999999997,0.4199864421584773
540,3998.1499999999996,0.4133326783395491
541,4001.0099999999998,0.42569535202521647
542,4003.87,0.42443822571088385
543,4006.73,0.44261609939655117
544,4009.6,0.4436029355776229
545,4012.46,0.4389304092632903
546,4015.32,0.4591595829489576
547,4018.1800000000003,0.440754356634625
548,4021.0499999999997,0.4439461928156968
549,4023.91,0.4353662665013641
550,4026.77,0.4416062401870315
551,4029.63,0.43537481387269883
552,4032.5,0.4250595500537706
553,4035.36,0.433996723739438
554,4038.2200000000003,0.4422058974251053
555,4041.0800000000004,0.43628227111077267
556,4043.9399999999996,0.42174354479644
557,4046.81,0.4304223809775118
558,4049.67,0.42555505466317917
559,4052.5299999999997,0.43917932834884654
560,4055.39,0.44036310203451384
561,4058.26,0.42438643821558564
562,4061.12,0.420483111901253
563,4063.98,0.4414815855869203
564,4066.8399999999997,0.4341014592725877
565,4069.7100000000005,0.42861679545365944
566,4072.5699999999997,0.42343156913932684
567,4075.43,0.42787664282499416
568,4078.29,0.4285270165106615
569,4081.16,0.43528805269173326
570,4084.02,0.44122022637740066
571,4086.88,0.432435200063068
572,4089.7400000000002,0.41524007374873534
573,4092.6,0.4151520474344027
574,4095.47,0.39361688361547453
575,4098.33,0.39474925730114185
576,4101.1900000000005,0.3752876309868092
577,4104.05,0.3850248046724765
578,4106.92,0.4016008408535483
579,4109.78,0.41230211453921567
580,4112.64,0.413598588224883
581,4115.5,0.44103776191055033
582,4118.37,0.4304967980916221
583,4121.2300000000005,0.4289012717772895
584,4124.09,0.4244030454629569
585,4126.95,0.42942251914862417
586,4129.82,0.429978655329696
587,4132.68,0.4405261290153633
588,4135.54,0.4453301027010307
589,4138.4,0.44110907638669805
590,4141.26,0.4366417500723654
591,4144.13,0.43248008625343715
