,lambda (Angstroms),Total Flux (erg/s/cm^2/Angstrom)
0,100.02000000000001,0.00298213414569632
1,102.12,0.003665623011231146
2,104.01,0.004280762990626974
3,104.712855,0.004509521832375518
4,105.95,0.0041735547343121565
5,107.92,0.0036385687935025592
6,109.92,0.0030954358646268208
7,114.05,0.00197386636418621
8,118.06,0.0008848848488391311
9,120.22644299999999,0.00029655165870363785
10,121.09,0.00028570040075854826
11,125.05000000000001,0.00023593990508735836
12,127.08000000000001,0.00021043138300050045
13,127.96,0.00019937351313589183
14,130.95000000000002,0.000161801883593024
15,131.85,0.00015049274313879023
16,134.0,0.00012347638450508106
17,137.12,8.427134955824964e-05
18,138.038426,7.273068556144968e-05
19,139.98999999999998,7.186480409622739e-05
20,142.92,7.056536211801515e-05
21,146.92000000000002,6.879158637518616e-05
22,151.04,6.696446825851233e-05
23,154.91,6.52487089365153e-05
24,158.489319,6.366222057005438e-05
25,158.89000000000001,6.338922762117942e-05
26,161.84,6.137971568475387e-05
27,165.98999999999998,5.855324089895185e-05
28,169.86,5.5918443875637617e-05
29,173.02,5.3767367841846184e-05
30,177.04999999999998,5.102516500568181e-05
31,179.92000000000002,4.907333830268133e-05
32,181.970086,4.767920592605066e-05
33,182.01,4.768803780055067e-05
34,185.82000000000002,4.853275055150317e-05
35,191.02999999999997,4.968909500191324e-05
36,194.13,5.037879580499796e-05
37,198.19,5.1283835129425016e-05
38,201.88000000000002,5.210993178270971e-05
39,205.16,5.28437591222961e-05
40,208.929613,5.368989491853192e-05
41,209.94,5.5041368648225265e-05
42,215.82,6.291782453991651e-05
43,219.82999999999998,6.829102421775354e-05
44,222.89,7.23928693858786e-05
45,227.03,7.794644315451836e-05
46,230.19000000000003,8.254511860787629e-05
47,233.93,8.788212643558464e-05
48,239.88329199999998,9.613406198266404e-05
49,239.93,9.608529262779516e-05
50,246.09,8.947563198700227e-05
51,251.82,8.342521090230369e-05
52,257.09,7.759739634272926e-05
53,260.07,7.46199704190989e-05
54,264.3,7.018700278589208e-05
55,269.21,6.49970818546757e-05
56,274.21000000000004,5.972068601636971e-05
57,275.42287,5.8439588336791944e-05
58,279.31,6.315620248757729e-05
59,283.85,6.870526485402525e-05
60,289.79,7.585404539955408e-05
61,295.86,8.331145399742612e-05
62,300.67,8.909932193412539e-05
63,307.67,9.771828782952973e-05
64,316.227766,0.00010829547800096915
65,317.75,0.0001070862311566971
66,328.15999999999997,9.873271792482154e-05
67,338.14,9.079198771597251e-05
68,347.61,8.333205602280613e-05
69,357.35,7.568059729192539e-05
70,363.078055,7.135627567312719e-05
71,365.67,7.336099514041512e-05
72,375.04999999999995,8.043863596043631e-05
73,384.67,8.7823192334488e-05
74,395.45,9.659934605301987e-05
75,404.66,0.00010432464356393629
76,414.09000000000003,0.0001123721324160472
77,416.86938299999997,0.00011480483612011213
78,421.78000000000003,0.00011778693372066151
79,429.63,0.00012289768762314214
80,440.65,0.00013093461214611492
81,450.90999999999997,0.0001388362504950896
82,460.35,0.00014637355455106633
83,469.99,0.00015604567233704254
84,478.630092,0.0001656953832478687
85,479.83,0.00016592077766540225
86,489.88,0.0001685946949746091
87,500.14000000000004,0.00017433193366042622
88,505.93,0.00034442277590125285
89,511.79,0.0010026500152676163
90,520.1,0.0010318978040277664
91,529.77,0.0010818855169412024
92,539.62,0.001054256662463161
93,549.5408739999999,0.0013457951888424828
94,549.66,0.001349338219612408
95,559.87,0.0016276677970421243
96,570.28,0.0018341700664880932
97,579.55,0.0018165008914414202
98,590.32,0.0021464534065166446
99,599.92,0.0022173646232967895
100,609.66,0.002583927824488311
101,619.5699999999999,0.0030004608638936475
102,629.6400000000001,0.0032443614569119864
103,630.957344,0.0032673408227594848
104,639.87,0.0034264003139838238
105,650.27,0.003811858060134382
106,657.8000000000001,0.004025842188837623
107,665.4100000000001,0.004349165815588175
108,674.67,0.004635460964564537
109,685.63,0.004690655197046279
110,695.17,0.005636884089188232
111,704.84,0.005563052040657069
112,716.29,0.006657749573678597
113,724.43596,0.006964197254628712
114,726.26,0.00703263509908982
115,734.6700000000001,0.007461867520028315
116,744.89,0.00817408606485488
117,755.25,0.00871337002810373
118,765.7600000000001,0.00928811172537645
119,774.62,0.010037724348386564
120,785.4,0.010897857566902258
121,794.49,0.011512693448748976
122,805.5500000000001,0.012134238504109234
123,814.87,0.01276082464479256
124,824.3100000000001,0.013823876572694984
125,831.763771,0.013229900699960048
126,835.78,0.01290817530830599
127,845.4599999999999,0.015109689013901355
128,855.25,0.01592281117069667
129,865.15,0.01701247177869193
130,875.17,0.018136207969814407
131,885.3,0.01937881261213683
132,895.55,0.020471812837586468
133,905.9200000000001,0.021185108646163322
134,914.3,0.03051073520121386
135,924.89,0.1763769479121906
136,935.6,0.37096347620629455
137,944.26,0.7366713924553087
138,954.992586,0.9823803149044817
139,955.19,0.9868999053223316
140,964.03,1.2253559045838491
141,975.1899999999999,0.3675568986741816
142,984.2199999999999,1.328184989322542
143,995.61,1.3069544729864204
144,1004.83,1.5390380550216234
145,1014.12,1.4199076338835577
146,1025.87,0.6127569012277695
147,1035.3600000000001,1.2085466710232224
148,1044.94,1.8165672367387584
149,1054.61,1.804068798374378
150,1064.3700000000001,1.6153093559300806
151,1074.21,1.795799909859191
152,1084.1499999999999,1.6078884592550604
153,1094.18,1.8588810045710131
154,1096.4782,1.8417578357286468
155,1104.31,1.7834047891948357
156,1114.53,1.7875253391584585
157,1124.84,1.6567458763526806
158,1135.25,1.85885339935868
159,1145.75,1.7589429095952789
160,1153.69,1.824958783050383
161,1164.37,1.8631582677481806
162,1175.1399999999999,1.4902117396765777
163,1186.02,1.8375751959979294
164,1194.24,1.6078420297260096
165,1205.29,1.3129674619273828
166,1213.64,0.6780503772107732
167,1224.87,1.426449683873345
168,1236.21,1.8040330749288718
169,1244.77,1.8847378604169942
170,1256.29,1.8674342259337198
171,1258.92541,1.8457430056232225
172,1265.0,1.7957459133205782
173,1273.77,1.9375150018273326
174,1285.56,1.9554321208118974
175,1294.47,1.7711022107315306
176,1306.44,1.7957713315326538
177,1315.5,1.9554314229660852
178,1324.62,1.893420515005036
179,1333.8,1.8123496076495065
180,1346.14,1.915322732184666
181,1355.47,1.910931826342935
182,1364.87,1.837558921207643
183,1374.33,1.8460530166778708
184,1383.8600000000001,1.8631301128545377
185,1393.45,1.668190209636724
186,1406.3400000000001,1.7188793397224782
187,1416.0900000000001,1.8123624381193828
188,1425.9099999999999,1.795749537222727
189,1435.7900000000002,1.8207176369315907
190,1442.42,1.850299703841486
191,1445.43977,1.8425856772778189
192,1445.74,1.8418187368599546
193,1455.7600000000002,1.8207248217303946
194,1465.85,1.7670489071937423
195,1476.0200000000002,1.7670119933346982
196,1486.25,1.7629610799838602
197,1496.5500000000002,1.7589071672259295
198,1503.46,1.703118225754347
199,1510.4,1.6115682845368673
200,1517.3700000000001,1.6529073435734911
201,1524.37,1.6605394028642178
202,1534.9399999999998,1.5390234923932153
203,1545.58,1.56044858251512
204,1556.29,1.5179096732299318
205,1563.47,1.5676527340452773
206,1574.31,1.6264718258612025
207,1585.22,1.6377599182700353
208,1596.21,1.6567310113564764
209,1603.58,1.6190070737811413
210,1614.7,1.6115581679686959
211,1625.89,1.5967902627491577
212,1633.39,1.6377453262749364
213,1644.72,1.6264524222412127
214,1656.1200000000001,1.6004525188003962
215,1659.58691,1.624252159261033
216,1663.76,1.652899806294396
217,1671.4399999999998,1.5931022813452687
218,1675.2900000000002,1.6605495194892608
219,1686.91,1.6605262382511279
220,1694.69,1.6190177194875588
221,1706.4399999999998,1.5857944462906517
222,1714.32,1.5425579337126407
223,1726.2,1.5354986685569594
224,1734.1699999999998,1.5784981615459508
225,1746.19,1.5497159050500509
226,1754.25,1.5821464036060449
227,1766.4099999999999,1.5214171557699265
228,1774.56,1.5284336598929227
229,1786.8600000000001,1.5425724207165858
230,1795.1100000000001,1.5676549310251404
231,1803.39,1.5676654431893626
232,1815.89,1.5040182163841422
233,1824.28,1.5249467353524782
234,1836.9199999999998,1.5005555172070395
235,1845.4,1.423147041742378
236,1853.92,1.4133535687519398
237,1866.7700000000002,1.4363273635961733
238,1875.39,1.4833918967912934
239,1884.04,1.3939694318420808
240,1897.1,1.3404802396759867
241,1905.46072,1.4100484372898117
242,1905.8600000000001,1.413370724997585
243,1914.66,1.365366023351287
244,1923.49,1.3373723193130127
245,1936.83,1.3811862556810108
246,1945.77,1.410108542872158
247,1954.75,1.3312228268740036
248,1968.3,1.3971837464981696
249,1977.3799999999999,1.4330260225267617
250,1981.94,1.3748336589464072
251,1995.68,1.3497415634213916
252,2004.89,1.3748308290847546
253,2014.15,1.3685120907614907
254,2023.44,1.3971973500462511
255,2032.78,1.3435486053443846
256,2046.8700000000001,1.3497354819129823
257,2056.32,1.3009157284405368
258,2065.81,1.3220759717787904
259,2075.35,1.378003211130417
260,2080.13,1.3190138300089052
261,2084.9300000000003,1.3435404472927424
262,2094.55,1.3009076802657664
263,2104.22,1.325096909252164
264,2113.93,1.32509613504926
265,2123.69,1.3404553568597293
266,2133.4900000000002,1.3129595754808971
267,2143.34,1.2949297901154384
268,2153.23,1.3159730015606783
269,2163.17,1.3009022090192914
270,2173.1600000000003,1.291945412491278
271,2183.19,1.2830726127739631
272,2187.7616199999998,1.2898152742710884
273,2193.2599999999998,1.2979255977999733
274,2203.39,1.2801132417656211
275,2213.56,1.262545888274075
276,2223.77,1.242371537325335
277,2234.04,1.2567581901908043
278,2244.35,1.2480918455990797
279,2254.71,1.2253235041858626
280,2265.12,1.2309761659511531
281,2275.57,1.2337658302592498
282,2286.08,1.2361404983815558
283,2296.63,1.1992561690466677
284,2307.23,1.2071318428902873
285,2312.5499999999997,1.1903521810835003
286,2323.22,1.0654118593770305
287,2333.95,1.15972754148477
288,2344.7200000000003,1.1433622261353158
289,2355.54,1.1588529139643688
290,2366.41,1.1346686049719297
291,2377.34,1.1368322997936997
292,2382.82,1.1107416481581371
293,2393.82,1.1257563474298178
294,2404.87,1.109902049880006
295,2415.9700000000003,1.1069217555087023
296,2427.12,1.116733464315906
297,2432.71,1.09362581967306
298,2443.94,1.105849533565876
299,2455.22,1.1003242506371995
300,2466.56,1.0873129715227323
301,2472.24,1.0771183326012
302,2483.65,1.0816690579366433
303,2495.12,1.034942787086296
304,2506.63,1.0758475187787546
305,2511.88643,1.0446130181937878
306,2512.41,1.0415018400492513
307,2518.2,1.058211697596012
308,2524.0099999999998,1.0410845546507064
309,2535.6600000000003,1.0334752680219956
310,2547.36,1.0235989801631187
311,2553.23,1.0400138357416138
312,2565.02,1.0300555456684377
313,2576.86,1.0391502543650957
314,2582.8,1.0341621082213581
315,2594.72,1.0266078149497502
316,2606.7000000000003,1.0144215202019429
317,2612.7099999999996,1.007231372335973
318,2624.77,1.0091410756198995
319,2636.8799999999997,1.0063787776736604
320,2642.9599999999996,1.0248706280854576
321,2655.16,1.0220753279249193
322,2667.4199999999996,1.0006980262881813
323,2673.56,1.0050838752237794
324,2685.9100000000003,1.0046595713727426
325,2692.1,0.9860946190781744
326,2704.5200000000004,0.987935213504905
327,2717.01,0.9739599062094031
328,2723.27,0.9648180521926022
329,2735.84,0.9733032429288345
330,2742.15,0.9400614876818675
331,2754.8,0.9396494764498338
332,2767.52,0.9435594634955676
333,2773.9,0.9542710065263681
334,2786.7,0.9429243916038361
335,2793.1299999999997,0.8940764334044704
336,2806.02,0.9102949162676393
337,2812.4900000000002,0.9377362570841407
338,2825.47,0.9308399377330104
339,2831.98,0.9136483775653789
340,2845.06,0.9132267557539165
341,2858.19,0.9065249327122878
342,2864.78,0.9146913705763906
343,2878.0,0.907970545320463
344,2884.0315,0.9058814783282364
345,2884.63,0.9056741966241691
346,2897.9500000000003,0.901093089917382
347,2911.33,0.9048095831803842
348,2931.5099999999998,0.889718573019501
349,2951.83,0.8768765627881261
350,2972.2900000000004,0.8742149524862594
351,2992.8900000000003,0.865578342113901
352,3006.71,0.8591958351553576
353,3027.55,0.8526369246621561
354,3048.5299999999997,0.8442047140984629
355,3069.6600000000003,0.8339071034592428
356,3090.9399999999996,0.8256386927444959
357,3112.37,0.817442681954222
358,3126.7299999999996,0.8076868747237818
359,3148.41,0.8014952638076298
360,3170.23,0.793522352820986
361,3192.2099999999996,0.7766404417537803
362,3206.9399999999996,0.7762305343370405
363,3229.17,0.7649779231439566
364,3251.55,0.7643690118753458
365,3266.56,0.7621917043176225
366,3289.2,0.7545859929180985
367,3311.31121,0.7472801664596515
368,3312.0,0.7470525751550714
369,3319.64,0.7572493016183885
370,3327.29,0.7605281279854537
371,3334.96,0.7585681541600143
372,3342.6499999999996,0.7159359801420705
373,3350.3500000000004,0.7581542060278745
374,3358.08,0.7089870316249219
375,3365.8199999999997,0.7236145571257172
376,3373.58,0.7134889824340079
377,3381.3500000000004,0.7051244076460466
378,3389.15,0.7347700325693286
379,3396.96,0.7362625573963585
380,3404.79,0.7143468820308838
381,3412.6400000000003,0.7108494064729048
382,3420.5099999999998,0.7288721307224214
383,3428.39,0.7269931548756857
384,3436.2999999999997,0.7335195787401936
385,3444.2200000000003,0.7067853025084491
386,3452.1600000000003,0.7381665260842003
387,3460.12,0.703140249467447
388,3468.0899999999997,0.7029237727544416
389,3476.09,0.7011092957526796
390,3484.1,0.6896900186546654
391,3492.13,0.7120947413641467
392,3500.18,0.7037287638811236
393,3508.25,0.6843558862055962
394,3516.34,0.6794387083375643
395,3524.4500000000003,0.693453230277028
396,3532.5699999999997,0.6980789521202395
397,3540.71,0.7043150737709467
398,3548.8799999999997,0.7155408951328971
399,3557.0600000000004,0.7153438163985953
400,3565.26,0.7134875374717893
401,3573.48,0.6890510583524788
402,3581.71,0.6685316791369161
403,3589.9700000000003,0.6546370996325969
404,3598.25,0.672760119935773
405,3606.54,0.6772137401426971
406,3614.85,0.6848715601571168
407,3623.19,0.6909809798827798
408,3631.54,0.7216549995121907
409,3633.6099999999997,0.6823752795879848
410,3636.33,0.6612662534073858
411,3639.0499999999997,0.7222193272267866
412,3641.7699999999995,0.6936012010461876
413,3644.4900000000002,0.6277066748655884
414,3647.21,0.6451704486849893
415,3649.9300000000003,0.6921570225043903
416,3652.65,0.6961190963237912
417,3655.37,0.689465670143192
418,3658.0800000000004,0.7374833440588451
419,3660.8,0.6083604178782461
420,3663.52,0.658893791697647
421,3666.2400000000002,0.6558848655170478
422,3668.96,0.6733976393364488
423,3671.68,0.6183875131558497
424,3674.4,0.6934782869752506
425,3677.12,0.7041177607946515
426,3679.8399999999997,0.6296134346140524
427,3682.56,0.6211501084334533
428,3685.28,0.6310804822528543
429,3687.99,0.6622940561685073
430,3690.71,0.6484006299879082
431,3693.43,0.6631250038073091
432,3696.15,0.65246017762671
433,3698.8700000000003,0.7208000514461109
434,3701.59,0.6688229252655118
435,3704.31,0.6975870990849128
436,3707.03,0.6579132729043137
437,3709.75,0.6525074467237145
438,3712.47,0.6532653205431155
439,3715.19,0.7695945943625163
440,3717.9,0.9978563682781695
441,3720.62,1.8794075420975702
442,3723.34,3.353712515916971
443,3726.06,4.441676489736372
444,3728.7799999999997,4.259939463555773
445,3731.5,2.872097437375174
446,3734.22,1.613746411194575
447,3736.94,1.0114033850139756
448,3739.6600000000003,0.8801037588333767
449,3742.38,0.7811642326527776
450,3745.1,0.6830075064721784
451,3747.81,0.7131206803878316
452,3750.53,0.6581349542072326
453,3753.25,0.7812401280266333
454,3755.9700000000003,0.7864986018460344
455,3758.69,0.7789645756654352
456,3761.41,0.7957679494848361
457,3764.13,0.752302823304237
458,3766.85,0.7108921971236379
459,3769.5699999999997,0.7283804709430388
460,3772.29,0.7605933447624397
461,3775.0099999999998,0.7612289185818406
462,3777.72,0.7912200924974937
463,3780.44,0.8541789663168946
464,3783.16,0.8790784401362955
465,3785.8799999999997,0.8898158139556964
466,3788.6,0.8142839877750974
467,3791.32,0.7478511615944983
468,3794.04,0.7413690354138992
469,3796.76,0.7280870092333
470,3799.48,0.722632183052701
471,3801.8939600000003,0.7681308683913429
472,3802.2,0.773899157485874
473,3804.92,0.8055005367603145
474,3807.63,0.864305516110952
475,3810.35,0.9113898953853924
476,3813.07,0.8882505746598329
477,3815.79,0.8927261539342733
478,3818.5099999999998,0.8747234332087139
479,3821.23,0.9070342124831544
480,3823.95,0.8384000917575948
481,3826.6699999999996,0.8039605710320353
482,3829.39,0.7350329503064759
483,3832.11,0.6836185295809163
484,3834.8300000000004,0.6945516088553568
485,3837.54,0.7073961882059941
486,3840.2599999999998,0.7798209674804347
487,3842.9799999999996,0.8547161467548752
488,3845.7000000000003,0.8613198260293157
489,3848.42,0.9342336053037562
490,3851.1400000000003,0.9103115845781966
491,3853.86,0.9083542638526371
492,3856.58,0.9511092431270777
493,3859.2999999999997,0.9857191224015182
494,3862.02,1.0170513016759586
495,3864.74,1.097449280950399
496,3867.4500000000003,1.0971852603010366
497,3870.17,1.082974239575477
498,3872.89,0.9435045188499175
499,3875.6099999999997,0.900503898124358
500,3878.33,0.8541279773987984
501,3881.0499999999997,0.8048414566732389
502,3883.7699999999995,0.8469360359476794
503,3886.4900000000002,0.8308657152221199
504,3889.21,0.8423367944965604
505,3891.9300000000003,0.8129604737710009
506,3894.65,0.7940527530454413
507,3897.36,0.8109825323960788
508,3900.0800000000004,0.8578712116705193
509,3902.8,0.8869288909449597
510,3905.52,0.8843602702194002
511,3908.2400000000002,0.9245225494938407
512,3910.96,0.9345017287682812
513,3913.68,0.9310034080427217
514,3916.4,0.8948273873171623
515,3919.12,0.9007459665916027
516,3921.8399999999997,0.8881244458660432
517,3924.5600000000004,0.8826450251404837
518,3927.27,0.8618829044911211
519,3929.99,0.8227958837655616
520,3932.71,0.830989563040002
521,3935.43,0.8319185423144425
522,3938.15,0.868094021588883
523,3940.8700000000003,0.8891777008633236
524,3943.59,0.937338280137764
525,3946.31,0.9014555594122045
526,3949.03,0.888662838686645
527,3951.75,0.8960736179610855
528,3954.47,0.887634597235526
529,3957.1800000000003,0.8795669765861633
530,3959.9,0.8020539558606038
531,3962.62,0.7937616351350444
532,3965.34,0.8302305144094848
533,3968.06,0.8146982936839253
534,3970.7799999999997,0.7779595729583658
535,3973.5,0.7997526522328062
536,3976.22,0.7970862315072468
537,3978.94,0.8134494107816873
538,3981.6600000000003,0.8631751900561278
539,3984.38,0.8835251693305683
540,3987.0899999999997,0.9262112486812056
541,3989.81,0.9270670279556461
542,3992.53,0.9093333072300867
543,3995.25,0.9388067865045272
544,3997.9700000000003,0.9693074657789675
545,4000.69,0.9493723450534081
546,4003.41,1.0047242243278487
547,4006.13,1.021625203602289
548,4008.85,0.9922976828767296
549,4011.5699999999997,0.95480056215117
550,4014.29,0.9839315414256106
551,4017.0,0.978408020776248
552,4019.72,0.9792637000506885
553,4022.44,0.9710448793251288
554,4025.16,0.9684271585995694
555,4027.8799999999997,0.9407873378740099
556,4030.6,0.9842026171484504
557,4033.32,0.9827101964228909
558,4036.04,0.9736596756973315
559,4038.76,0.9807525549717718
560,4041.48,1.0025459342462124
561,4044.2,0.9833932135206528
562,4046.9100000000003,1.00279389287129
563,4049.63,0.9802908721457306
564,4052.35,0.9788471514201712
565,4055.07,0.9820997306946117
566,4057.79,1.0046998099690523
567,4060.5099999999998,0.9957229892434927
568,4063.23,0.9477081685179333
569,4065.95,0.9903164477923736
570,4068.6699999999996,0.9949633270668141
571,4071.39,0.9739521063412546
572,4074.11,0.9512775856156952
573,4076.8199999999997,0.9089175649663325
574,4079.54,0.938757944240773
575,4082.2599999999998,0.8794428235152135
576,4084.9800000000005,0.889960102789654
577,4087.7000000000003,0.8664784820640945
578,4090.42,0.8412845613385349
579,4093.1400000000003,0.8463229406129754
580,4095.86,0.8508964198874159
581,4098.58,0.9500306991618565
582,4101.3,0.9637521784362969
