,lambda (Angstroms),Total Flux (erg/s/cm^2/Angstrom)
0,101.99,17.91627551617691
1,103.89,17.865215579068042
2,104.712855,17.84310246088883
3,106.06,17.65293494681623
4,108.03,17.374843128432822
5,110.03999999999999,17.091104775770674
6,113.91,16.544802574332167
7,117.91,15.980149136257623
8,120.22644299999999,15.653152263396255
9,120.94000000000001,15.568702324463645
10,124.89999999999999,15.100033723766588
11,126.92999999999999,14.859781890588474
12,128.1,14.72131162232868
13,131.09,14.367443158927381
14,132.0,14.259744063345087
15,134.14000000000001,14.00647365839753
16,136.95000000000002,13.67390831740196
17,138.038426,13.545092386177199
18,140.14000000000001,13.367309494650728
19,143.07999999999998,13.118599905991589
20,147.08,12.780219548672049
21,150.86,12.460450047765805
22,155.07999999999998,12.103458702638038
23,158.489319,11.815047009981715
24,159.06,11.778548851899542
25,162.02,11.589240733066957
26,166.17,11.323825641571243
27,170.04999999999998,11.07567852474723
28,172.81,10.899161513664245
29,176.83,10.64206064621134
30,180.12,10.431647248231343
31,181.970086,10.313324188391482
32,182.21,10.301618331320663
33,186.02,10.115721250079439
34,190.79,9.882983968934157
35,193.89,9.731729141030202
36,197.95,9.533634104742992
37,202.1,9.331147812326423
38,204.91,9.194042649080233
39,208.929613,8.997918146439703
40,210.17000000000002,8.95241773183585
41,216.04999999999998,8.7367251821898
42,220.07,8.589261884906348
43,223.13,8.477013677876718
44,226.76000000000002,8.343856567397099
45,229.91,8.228307889285896
46,234.19,8.071308994542553
47,239.88329199999998,7.862466692923431
48,240.19,7.853796812815044
49,245.79,7.69549707430244
50,252.08999999999997,7.517410718383884
51,256.78,7.384833728228215
52,259.75,7.30087965673285
53,263.98,7.181307535373578
54,268.88,7.042795654494925
55,273.88,6.901456919537706
56,275.42287,6.857843463416131
57,278.97,6.78089126192299
58,284.16,6.668298368713229
59,290.11,6.539217340237008
60,296.19,6.407316684195342
61,301.0,6.3029672623138095
62,308.01,6.150891045667794
63,316.227766,5.972613298167722
64,318.09999999999997,5.942276735863602
65,327.77,5.785589593993707
66,337.72999999999996,5.624203270173074
67,347.98999999999995,5.457955813186156
68,356.91,5.313421273591973
69,363.078055,5.213477838080987
70,366.07,5.177171792352206
71,374.6,5.0736631886508645
72,385.09000000000003,4.946369929668456
73,394.96999999999997,4.82648052552939
74,405.09999999999997,4.703556998603706
75,413.58,4.600655117949691
76,416.86938299999997,4.560739475146233
77,422.23999999999995,4.5109710468913224
78,430.09,4.438226844596927
79,441.13,4.335922366126427
80,451.4,4.240752751443263
81,459.78999999999996,4.163004446191125
82,470.5,4.063757912790911
83,478.630092,3.9884191742841875
84,480.36,3.9760903488488144
85,490.42,3.9043932345239507
86,499.53,3.8394685216237514
87,506.47999999999996,3.789959087763841
88,512.35,3.7483188590040744
89,519.47,3.6975946507023822
90,530.35,3.6200778055683354
91,540.21,3.54979785162498
92,549.5408739999999,3.4834592647075286
93,550.26,3.4795620362308965
94,560.48,3.424114578325732
95,569.59,3.3746894086116375
96,580.18,3.3170853410427834
97,589.61,3.2660268082357677
98,600.5699999999999,3.2064988136032233
99,610.3299999999999,3.153667305069133
100,620.25,3.0999240441885814
101,630.32,3.0453362202957233
102,630.957344,3.041872600660438
103,640.57,3.000464902538822
104,649.48,2.9623438025076654
105,658.5100000000001,2.923595077348143
106,664.61,2.897446153156219
107,675.4,2.850980660780666
108,684.8,2.8104714890586826
109,694.3299999999999,2.7701491340309703
110,705.61,2.7214198219645906
111,715.42,2.679786615970692
112,724.43596,2.641098099071128
113,725.3800000000001,2.6380956830168714
114,735.47,2.6060044592456486
115,745.6999999999999,2.5738752313239823
116,754.33,2.5466378866930945
117,764.8299999999999,2.5134133064098596
118,775.47,2.4799121789761807
119,784.45,2.4517201914691857
120,795.3599999999999,2.417125705673939
121,804.57,2.3880174565626433
122,815.76,2.3525267394665104
123,825.2099999999999,2.3231019168115985
124,831.763771,2.3011325845489385
125,834.76,2.2935093884551065
126,844.4300000000001,2.2723803310934385
127,854.2099999999999,2.2493349277400667
128,864.1,2.226454723394989
129,874.11,2.203330237149871
130,884.23,2.180169871913048
131,894.47,2.156422129776184
132,904.82,2.131728334647615
133,915.3,2.114157128710668
134,925.9000000000001,2.2166801958736797
135,934.47,2.3806716764290576
136,945.29,2.668862327608661
137,954.03,2.929363471722314
138,954.992586,2.9375527031542097
139,965.0799999999999,3.0238927784123066
140,974.01,2.114273246298475
141,985.2900000000001,2.814439137312582
142,994.41,2.8564650555793074
143,1005.92,3.2908230075804052
144,1015.23,3.2211280762276866
145,1024.62,2.413780766087835
146,1034.1,2.759224279812457
147,1046.0800000000002,3.6414602564391414
148,1055.76,3.584966623195929
149,1065.53,3.1709354138171912
150,1075.3799999999999,3.4411750256513187
151,1085.3400000000001,3.0445992666531363
152,1095.3799999999999,3.492296328867821
153,1096.4782,3.4808401933310114
154,1105.51,3.390452961229916
155,1115.74,3.296414744875717
156,1126.07,3.102380962379248
157,1133.8700000000001,3.521571803282204
158,1144.36,3.320028514958104
159,1154.95,3.420142660491733
160,1165.64,3.4651262398830927
161,1173.72,2.836829695587694
162,1184.58,3.3849516125371952
163,1195.54,2.768019963344426
164,1203.83,2.3713281301502604
165,1214.97,2.0472417619014065
166,1226.21,2.697428627510282
167,1234.71,3.36868750541735
168,1246.13,3.5364246519701403
169,1254.77,3.4134423372780303
170,1258.92541,3.3021200024973885
171,1266.38,3.106513668951979
172,1275.1599999999999,3.6016873221844916
173,1283.9999999999998,3.685519036828616
174,1295.88,3.1406611963277324
175,1304.86,3.1326287209322845
176,1313.9,3.5909583069484476
177,1326.06,3.4552320863684196
178,1335.25,3.1866888259136124
179,1344.5099999999998,3.5491159704390185
180,1353.83,3.4631381763760363
181,1366.3600000000001,3.19833966783428
182,1375.8300000000002,3.283866027300327
183,1385.36,3.2950344481779856
184,1394.97,2.9843586176044603
185,1404.64,3.0522448484425464
186,1414.3700000000001,3.092013140692244
187,1424.1799999999998,3.128525181490758
188,1434.05,3.115066283700883
189,1440.67,3.2098117261153742
190,1445.43977,3.2207387836875543
191,1447.32,3.2258216213251805
192,1454.0,3.1567740112864486
193,1464.0800000000002,2.987511402126207
194,1474.23,2.9778260665134635
195,1484.4399999999998,2.994546536798576
196,1494.73,3.011594748280829
197,1505.0900000000001,2.87957323331058
198,1512.04,2.666008249812199
199,1515.53,2.7790364595374726
200,1526.03,2.7293444916622205
201,1536.61,2.49259026498411
202,1543.7,2.6135108285807256
203,1554.3999999999999,2.520535213698326
204,1565.1799999999998,2.552870340013067
205,1576.03,2.639047739875307
206,1583.3,2.7064357211654895
207,1594.28,2.724140200473083
208,1605.3300000000002,2.689415953328175
209,1616.46,2.690870447380408
210,1623.92,2.5972643140138003
211,1635.1699999999998,2.693306419861745
212,1646.51,2.698870734556473
213,1654.1100000000001,2.576172148284862
214,1659.58691,2.636048694581959
215,1665.5700000000002,2.7031678696905375
216,1673.26,2.5426607876412035
217,1677.12,2.691249732152202
218,1684.86,2.7538492685550833
219,1696.54,2.6372193389925065
220,1704.3700000000001,2.560419788609375
221,1716.1799999999998,2.446873067022558
222,1724.1100000000001,2.434286753543856
223,1736.0600000000002,2.523716563623241
224,1744.0700000000002,2.4764438396680832
225,1756.1599999999999,2.5652491814136695
226,1764.27,2.4368336943629423
227,1776.49,2.4435782440842875
228,1784.6999999999998,2.4758669939379905
229,1797.0700000000002,2.5579773990159804
230,1805.3600000000001,2.552446738393227
231,1813.69,2.3890873725322455
232,1826.2700000000002,2.432889575109539
233,1834.7,2.3604434461529875
234,1843.16,2.229183288267765
235,1855.94,2.2040129646539186
236,1864.51,2.2385423673635687
237,1873.1100000000001,2.3753297411445486
238,1886.1,2.213958215030005
239,1894.8000000000002,2.1293058257154143
240,1903.55,2.236474054853039
241,1905.46072,2.2239881656808236
242,1916.74,2.1522939973664217
243,1925.5900000000001,2.115550123939
244,1934.48,2.18347368046219
245,1943.41,2.2166286669359905
246,1956.88,2.0970234528040854
247,1965.9099999999999,2.230031514154412
248,1974.99,2.2755741129430014
249,1984.1000000000001,2.172734034194549
250,1993.26,2.1279884928843598
251,2007.08,2.178604040820297
252,2016.3400000000001,2.1200365743866336
253,2025.6499999999999,2.197309645391234
254,2034.9999999999998,2.084631146346445
255,2044.39,2.126318077252266
256,2053.83,2.0624405455963504
257,2063.31,2.0707744438910454
258,2072.83,2.1533267721363507
259,2077.61,2.0443821512343088
260,2087.2,2.102036231893183
261,2096.83,2.015831742502667
262,2106.51,2.0398877905504142
263,2116.23,2.0448902685487726
264,2126.0,2.0597512839853938
265,2135.82,1.9778728368602783
266,2145.6800000000003,1.9761768196857732
267,2155.58,2.0256372324618788
268,2165.5299999999997,1.9885551826762473
269,2175.52,1.9710275628412264
270,2185.57,1.9257205879321213
271,2187.7616199999998,1.9368796619981885
272,2195.65,1.978293263752886
273,2205.79,1.9433999011187388
274,2215.97,1.891070298395305
275,2226.2000000000003,1.8405021455602628
276,2236.48,1.8963514426136125
277,2246.7999999999997,1.8511734995776759
278,2257.17,1.8044630064301304
279,2267.5899999999997,1.8296929631709773
280,2272.81,1.8484661315190785
281,2283.3,1.8628129181036739
282,2293.84,1.795262154576661
283,2304.4300000000003,1.7866788409380394
284,2315.0699999999997,1.73377697718781
285,2325.76,1.5010948633259722
286,2336.49,1.6669409093748477
287,2347.27,1.6485317053121151
288,2352.69,1.691142673213784
289,2363.55,1.6312539889724782
290,2374.46,1.6408647546195643
291,2385.41,1.5903992801773639
292,2396.43,1.6397716355789118
293,2407.49,1.5890177508911731
294,2413.04,1.6047916885026607
295,2424.17,1.6294176336586705
296,2435.36,1.5811407186807505
297,2446.6099999999997,1.6256869435689008
298,2452.25,1.6037300909794934
299,2463.56,1.5955144557337135
300,2474.94,1.5600996503316824
301,2486.36,1.5915916048403644
302,2497.84,1.517627699215117
303,2503.6000000000004,1.5968601263578495
304,2511.88643,1.5415677019744662
305,2515.15,1.520066422410089
306,2526.76,1.5129741091133577
307,2532.58,1.514182753093808
308,2544.2799999999997,1.48603424356997
309,2556.02,1.5238508690563073
310,2567.82,1.5094726970579069
311,2573.74,1.547137678563794
312,2585.6200000000003,1.5349347765857435
313,2597.55,1.5276415433704116
314,2603.54,1.495173261144105
315,2615.56,1.4857018317016666
316,2627.63,1.4974890710219468
317,2633.69,1.5010775250634463
318,2645.8399999999997,1.5377840344040765
319,2658.06,1.5303692800125126
320,2664.18,1.4759139365692744
321,2676.48,1.4997154521980605
322,2682.6499999999996,1.488846777517541
323,2695.0299999999997,1.4579335631666768
324,2707.4700000000003,1.4624695513310748
325,2713.7099999999996,1.4356331129183617
326,2726.24,1.4331112048556534
327,2732.52,1.4597876014531148
328,2745.14,1.3799687971633001
329,2757.81,1.3795674616362041
330,2764.17,1.3915009282540154
331,2776.92,1.4159774627472692
332,2783.33,1.403285398127799
333,2796.17,1.2898659363939464
334,2802.62,1.3317103067846514
335,2815.55,1.3990086488236921
336,2822.04,1.395414254224572
337,2835.07,1.3528293337890502
338,2848.1600000000003,1.3393500158687908
339,2854.7200000000003,1.3379813575374766
340,2867.9,1.3592530433901109
341,2874.51,1.3425734538215153
342,2884.0315,1.3421785229714371
343,2887.7799999999997,1.3422946163836145
344,2894.4399999999996,1.3305590021157034
345,2907.7999999999997,1.3528006065272213
346,2927.9500000000003,1.3282664537496829
347,2948.25,1.3105320745246691
348,2968.6800000000003,1.3056798523785098
349,2989.26,1.294444003784875
350,3009.98,1.2895751705069298
351,3030.85,1.2804500107815093
352,3051.86,1.2671867663717782
353,3073.0099999999998,1.2540324372777367
354,3087.19,1.243959017109722
355,3108.59,1.2289245439365546
356,3130.1400000000003,1.2160194443159118
357,3151.84,1.2071142182477934
358,3166.39,1.1933506528426727
359,3188.34,1.1672436826954287
360,3210.44,1.167988586100709
361,3232.6899999999996,1.1516710630585143
362,3247.61,1.1477305524162873
363,3270.1200000000003,1.1427094435318013
364,3292.79,1.130263066436675
365,3307.9900000000002,1.1225674864258273
366,3311.31121,1.125341496660436
367,3323.26,1.1359286631124519
368,3330.92,1.1240862329069172
369,3338.6,1.1087027352595924
370,3346.29,1.1080408038913727
371,3354.01,1.0893533713604682
372,3361.74,1.0993782051086687
373,3369.49,1.0773565714150792
374,3377.26,1.0696441702797
375,3385.0400000000004,1.0954882354234257
376,3392.85,1.0965961994044666
377,3400.67,1.1123082296646123
378,3408.5,1.0738050262038634
379,3416.36,1.0837368215804295
380,3424.2400000000002,1.0919942495152055
381,3432.13,1.0948863437290868
382,3440.04,1.0851678705011782
383,3447.9700000000003,1.0632413298314796
384,3455.92,1.0503863217199911
385,3463.89,1.0394360461667127
386,3471.8700000000003,1.0437808368925394
387,3479.88,1.039658226455681
388,3487.9,1.0423305822979279
389,3495.94,1.0484574706983847
390,3504.0,1.0323307916570519
391,3512.0800000000004,1.0282442451739289
392,3520.17,1.032534864969911
393,3528.29,1.0318147836032083
394,3536.42,1.0395978685156106
395,3544.57,1.037129585986223
396,3552.75,1.0415266022941507
397,3560.93,1.0390587186020783
398,3569.14,1.0162433337473211
399,3577.3700000000003,0.9892404814507737
400,3585.62,0.9804517617124366
401,3593.8799999999997,0.9828946082532046
402,3602.17,0.9982999536312877
403,3610.4700000000003,0.9942672652884756
404,3618.79,0.9984069095038739
405,3627.14,1.0244197525565872
406,3635.5,1.0084631618884057
407,3643.88,1.012717403778434
408,3652.2799999999997,0.9985820782266728
409,3660.7000000000003,1.0094605852331213
410,3669.1400000000003,1.00032662479778
411,3677.59,0.9929442306415439
412,3678.15,0.9631403422714264
413,3680.89,0.9409218027462091
414,3683.63,0.9511178632209916
415,3686.37,0.9757111236957742
416,3689.1099999999997,0.9589018841705568
417,3691.85,0.9588488446453394
418,3694.5899999999997,0.9794159051201219
419,3697.33,0.9801763655949045
420,3700.08,0.9615317923487922
421,3702.82,0.9379305528235748
422,3705.56,0.9556506132983573
423,3708.2999999999997,0.97068647377314
424,3711.04,0.9708774342479225
425,3713.7799999999997,1.0408593947227052
426,3716.52,1.2527820551974878
427,3719.2599999999998,1.84237361567227
428,3721.9999999999995,3.0640285761470527
429,3724.7400000000002,4.356127536621836
430,3727.48,4.583547497096618
431,3730.23,3.5327482238505055
432,3732.97,2.215660184325288
433,3735.71,1.3914181448000709
434,3738.45,1.1150487052748532
435,3741.1899999999996,1.058504265749636
436,3743.93,1.0329100262244184
437,3746.6699999999996,0.9891360866992012
438,3749.4100000000003,0.9842026471739836
439,3752.15,0.9973676076487663
440,3754.8900000000003,1.0498612681235486
441,3757.63,1.0944241285983314
442,3760.3799999999997,1.100466155352219
443,3763.12,1.0831281158270016
444,3765.8599999999997,1.0220691763017844
445,3768.6,0.9703645367765668
446,3771.34,1.0058169972513493
447,3774.0800000000004,1.069291657726132
448,3776.82,1.1049476182009146
449,3779.56,1.1552043786756971
450,3782.3,1.1573883391504796
451,3785.04,1.1410671996252624
452,3787.78,1.136255760100045
453,3790.5299999999997,1.0936148868539326
454,3793.2700000000004,1.042805047328715
455,3796.01,1.0146893078034978
456,3798.75,0.9873056682782803
457,3801.4900000000002,1.0387010287530627
458,3801.8939600000003,1.0495581703360566
459,3804.23,1.1124269764325672
460,3806.9700000000003,1.145781378439574
461,3809.71,1.174214780446581
462,3812.45,1.192968382453588
463,3815.19,1.197649984460595
464,3817.94,1.1577102105625179
465,3820.6800000000003,1.126276312569525
466,3823.42,1.122173014576532
467,3826.1600000000003,1.105787216583539
468,3828.9,1.035553418590546
469,3831.64,0.999686320597553
470,3834.38,0.9960303226045599
471,3837.12,1.014824424611567
472,3839.86,1.0527339266185738
473,3842.6,1.080557228625581
474,3845.3399999999997,1.1345317306325877
475,3848.09,1.1481553567345109
476,3850.83,1.187366258741518
477,3853.57,1.2009545607485248
478,3856.31,1.2225147627555317
479,3859.05,1.2256914647625388
480,3861.79,1.275558566769546
481,3864.5299999999997,1.3647945687765528
482,3867.27,1.4110815707835598
483,3870.0099999999998,1.3428005727905667
484,3872.75,1.2441377747975737
485,3875.49,1.1791909768045805
486,3878.2400000000002,1.1500290029065037
487,3880.98,1.1190019049135107
488,3883.72,1.1095707069205176
489,3886.46,1.1630977089275247
490,3889.2,1.1368696109345315
491,3891.94,1.0827414129415387
492,3894.68,1.1088157149485456
493,3897.4199999999996,1.1134159169555526
494,3900.16,1.1298107189625595
495,3902.9,1.1496624209695665
496,3905.6400000000003,1.1661386229765736
497,3908.39,1.1783792490784966
498,3911.13,1.1932692510855034
499,3913.87,1.2093385530925107
500,3916.6099999999997,1.1623684550995175
501,3919.35,1.1531811571065245
502,3922.0899999999997,1.1600997591135314
503,3924.8300000000004,1.1268355611205385
504,3927.57,1.0933273631275455
505,3930.3100000000004,1.0882072651345522
506,3933.05,1.1067575671415595
507,3935.79,1.1225015691485665
508,3938.54,1.1486518952504894
509,3941.2799999999997,1.1569937972574964
510,3944.0199999999995,1.1557373992645035
511,3946.76,1.1447201012715102
512,3949.5000000000005,1.1469615032785172
513,3952.2400000000002,1.1625835052855242
514,3954.98,1.1316782072925313
515,3957.7200000000003,1.0952824092995384
516,3960.46,1.0583578113065453
517,3963.2000000000003,1.0708888133135521
518,3965.94,1.0871208153205592
519,3968.69,1.1283600414224824
520,3971.4300000000003,1.043566343429489
521,3974.17,1.0397069454364962
522,3976.9100000000003,1.026859447443503
523,3979.65,1.07961374945051
524,3982.39,1.112683451457517
525,3985.13,1.123912953464524
526,3987.87,1.1492958554715311
527,3990.61,1.1381971574785381
528,3993.35,1.182695459485545
529,3996.1000000000004,1.181148785587468
530,3998.84,1.1685046875944751
531,4001.58,1.159968389601482
532,4004.32,1.1472021916084891
533,4007.06,1.158675793615496
534,4009.8,1.1663262956225031
535,4012.54,1.15713929762951
536,4015.2799999999997,1.175852199636517
537,4018.02,1.148037801643524
538,4020.7599999999998,1.159755503650531
539,4023.5,1.1564250056575378
540,4026.25,1.180053631759461
541,4028.9900000000002,1.145732033766468
542,4031.73,1.1424421357734749
543,4034.47,1.160585637780482
544,4037.21,1.1435898397874888
545,4039.95,1.162912741794496
546,4042.69,1.1612091438015029
547,4045.43,1.16434514580851
548,4048.1699999999996,1.1535719478155169
549,4050.91,1.1492652498225238
550,4053.6499999999996,1.1437792518295307
551,4056.4,1.175257377931454
552,4059.14,1.1415864799384607
553,4061.88,1.1760389819454677
554,4064.62,1.1753518839524748
555,4067.3599999999997,1.1895096859594818
556,4070.1,1.1529105879664887
557,4072.8399999999997,1.1259503899734957
558,4075.58,1.1528380919805028
559,4078.3199999999997,1.1426748939875095
560,4081.0600000000004,1.1292986959945166
561,4083.8,1.1301571980015235
562,4086.5499999999997,1.0929428241034467
563,4089.29,1.0871720261104536
564,4092.0299999999997,1.0556973281174606
565,4094.77,1.0747356301244677
566,4097.51,1.1465238321314746
567,4100.25,1.2115605341384814
568,4102.990000000001,1.1893993361454884
569,4105.7300000000005,1.0866697381524955
570,4108.47,1.0264406401595025
571,4111.21,1.0629268421665095
572,4113.95,1.0592301441735164
573,4116.7,1.0879837702754396
574,4119.44,1.1003520722824465
575,4122.179999999999,1.0823800742894534
576,4124.92,1.0754705762964605
577,4127.66,1.0906856783034673
578,4130.400000000001,1.0826372803104742
579,4133.14,1.0996419823174812
580,4135.88,1.1146946843244883
581,4138.62,1.0968851863314952
582,4141.36,1.0628889883385022
583,4144.1,1.0783887903455092
584,4146.85,1.0857090164474323
585,4149.59,1.0877064184544394
586,4152.33,1.0779498204614464
587,4155.07,1.0912129224684533
588,4157.81,1.0989039244754601
589,4160.55,1.0935806264824672
590,4163.29,1.0974893284894742
591,4166.03,1.0951349304964813
592,4168.7699999999995,1.0629687325034882
593,4171.51,1.0600856345104952
