,lambda (Angstroms),Total Flux (erg/s/cm^2/Angstrom)
0,102.00000000000001,0.042560261104196424
1,103.9,0.04981769079107669
2,104.712855,0.05292259326162828
3,106.08,0.04856609010887052
4,108.05,0.042288861133314384
5,110.06,0.03588504270845252
6,113.91999999999999,0.0235864686029517
7,117.92999999999999,0.010810400051804404
8,120.22644299999999,0.00351727523946788
9,120.95,0.0034185637892530504
10,124.92,0.0028458989846000577
11,126.95,0.0025520000159235897
12,128.12,0.0023836983708243453
13,131.1,0.0019528742358707143
14,132.01,0.0018332553830157465
15,133.85,0.0015686434255947118
16,136.97,0.0011369723586633915
17,138.038426,0.0009839190755240176
18,140.16,0.0009818026154363513
19,143.09,0.0012273146839616405
20,147.10000000000002,0.0018661956156293576
21,150.87,0.001940916466598757
22,155.1,0.002039092638906598
23,158.489319,0.0021399607919552924
24,159.07999999999998,0.002155889470820133
25,162.04,0.002229806674925572
26,165.80999999999997,0.0023687792929922968
27,170.07000000000002,0.002471570951603503
28,172.82999999999998,0.0025707785473234393
29,176.85,0.0026919196758720424
30,180.14,0.002779377233813561
31,181.81,0.002848906963832508
32,181.970086,0.0028538337417058496
33,186.04,0.0030221361079421326
34,190.82,0.0032465917453783954
35,193.92,0.003406090334510699
36,197.98,0.003583437951245265
37,202.12,0.0037860095702800193
38,204.93999999999997,0.003935210151361664
39,208.929613,0.004004608824281152
40,210.19,0.004042996984280404
41,216.07999999999998,0.004576189621102401
42,220.1,0.004866476891055615
43,223.16,0.0050094030368408975
44,226.79000000000002,0.0053130346313508894
45,229.94,0.007764640163776915
46,234.21999999999997,0.012270574217358944
47,239.88329199999998,0.01495721707760815
48,240.22000000000003,0.015107347322023908
49,245.82,0.014375760050822011
50,252.13,0.01525019680416416
51,256.81,0.01303560065608829
52,259.78999999999996,0.014892833322484424
53,264.01,0.015568922735971564
54,268.92,0.015541043807114185
55,273.92,0.015478775529255352
56,275.42287,0.015470051316685697
57,279.01,0.015544769737143251
58,284.2,0.015617857608502428
59,290.15,0.015033237730773545
60,296.21999999999997,0.015382548208451812
61,301.03000000000003,0.015284939954355021
62,308.05,0.015582025745673213
63,316.227766,0.015915026471331657
64,318.14000000000004,0.015947331040588767
65,327.81,0.015785198684003455
66,337.77000000000004,0.01548671496408725
67,348.03000000000003,0.015155029144173568
68,356.96,0.014903871300915365
69,363.078055,0.014822695710243038
70,366.10999999999996,0.014836847462576203
71,374.64,0.014649811044875784
72,385.14,0.014083002933990157
73,395.02000000000004,0.014377030330604442
74,405.15000000000003,0.01439846324838812
75,413.63,0.01416459372645382
76,416.86938299999997,0.014068968139441506
77,422.29999999999995,0.013891579119376721
78,430.15,0.013670398825645781
79,441.17999999999995,0.013554749100823837
80,451.46,0.013244041505976186
81,459.84999999999997,0.012960808478663755
82,469.47999999999996,0.012744804729793825
83,478.630092,0.012659957892839366
84,480.42,0.01262384677102506
85,490.47,0.012085898497547258
86,499.59000000000003,0.012006862183704716
87,506.53999999999996,0.011650367109011113
88,512.41,0.01233119172937781
89,519.54,0.012111303372174155
90,530.42,0.011725151629344455
91,540.28,0.01114299848740504
92,549.5408739999999,0.011195560012628444
93,550.3199999999999,0.011203232465342772
94,560.55,0.011446329008174654
95,569.6600000000001,0.011648800162152998
96,580.25,0.011220362008544952
97,589.68,0.011564058987910021
98,600.64,0.011207406007405375
99,610.4,0.010614099681700505
100,620.3199999999999,0.011882719268689
101,630.4,0.011889997768370858
102,630.957344,0.011884882962196917
103,640.64,0.011841789363771383
104,649.56,0.012200873477247501
105,658.59,0.012384986071943617
106,664.69,0.012669688212325269
107,675.49,0.0125140236411977
108,684.8799999999999,0.012099153083522898
109,694.4100000000001,0.013830582411037184
110,705.69,0.013176020303415057
111,715.51,0.014497286535963879
112,724.43596,0.014691001481815675
113,725.47,0.014712233252709232
114,735.56,0.014919810975942058
115,745.7900000000001,0.01599379484201459
116,754.43,0.016567293942979067
117,764.9200000000001,0.016622749217182473
118,775.56,0.017977146072999845
119,784.54,0.018665500092289317
120,795.46,0.019216859233786094
121,804.67,0.019738328344883645
122,815.86,0.020149084333285563
123,825.31,0.021564683974965467
124,831.763771,0.01896116758681315
125,834.87,0.01769283309471441
126,844.53,0.021965640194285815
127,854.3100000000001,0.022225923406895373
128,864.1999999999999,0.023545616389789907
129,874.21,0.024897515485722596
130,884.34,0.026744430694693438
131,894.5699999999999,0.027926289331196074
132,904.9300000000001,0.027225170423490045
133,915.41,0.04348722762882217
134,926.01,0.32263490094719244
135,934.58,0.6999751566866673
136,945.4,1.3548636395456075
137,954.15,2.0038381894546395
138,954.992586,2.0049300290730026
139,965.1999999999999,2.018185923378211
140,974.13,0.2705359727759622
141,985.4100000000001,1.3716311720152263
142,994.53,1.6720653203363338
143,1006.04,2.839819197219661
144,1015.35,2.853392244464125
145,1024.75,1.2782312438301782
146,1034.23,1.7563062006376449
147,1043.8,3.8867511095667013
148,1055.89,3.8081086779002744
149,1065.6599999999999,2.702925480432864
150,1075.52,3.418909235087044
151,1085.47,2.4435809418628134
152,1095.51,3.6566076007601724
153,1096.4782,3.640202015655428
154,1105.6499999999999,3.484780814570834
155,1115.88,3.2155777815349027
156,1126.2,2.7949615986482157
157,1134.01,3.9301995949326125
158,1144.5,3.479448128994498
159,1155.09,3.8159514965555426
160,1165.78,3.905656697615748
161,1173.8600000000001,2.4311362443478766
162,1184.72,3.7658351623566535
163,1195.6799999999998,2.2387469138645906
164,1203.97,1.4098121109449553
165,1215.11,1.2003005627513805
166,1226.36,2.5192118314068814
167,1234.86,4.162003678835482
168,1246.28,4.596282664439555
169,1254.9199999999998,4.24114127876698
170,1258.92541,3.8907169421521144
171,1263.6200000000001,3.4800061657104844
172,1275.31,4.871503550168405
173,1284.15,5.185007597098088
174,1296.03,3.64650800405789
175,1305.02,3.572394068752218
176,1314.06,4.9206521393680935
177,1326.2199999999998,4.635885579488565
178,1335.4199999999998,3.8390036690533944
179,1344.67,5.003853764539771
180,1353.99,4.8016408683163165
181,1366.52,4.087935352256242
182,1375.99,4.401380473797431
183,1385.5300000000002,4.432768603628787
184,1395.14,3.78238674175031
185,1404.81,3.9251568869776903
186,1414.55,3.9622840404952386
187,1424.3500000000001,4.169063201118645
188,1434.22,4.084364370032216
189,1440.84,4.38721415404517
190,1445.43977,4.465450907095085
191,1447.4899999999998,4.50032290258888
192,1454.1699999999998,4.308288566566778
193,1464.25,3.849545568497498
194,1474.3999999999999,3.8592015773860706
195,1484.6200000000001,3.9957525932324955
196,1494.92,4.089589617030752
197,1505.28,3.7824206467928807
198,1512.23,3.227415337608209
199,1515.71,3.563503683512862
200,1526.22,3.380463728184675
201,1533.26,2.812225427945813
202,1543.8899999999999,3.2519334845453725
203,1554.5900000000001,3.035676548102784
204,1565.3700000000001,3.057358619612027
205,1576.22,3.2918596980791217
206,1583.49,3.527820420701774
207,1594.47,3.5941015120905946
208,1605.52,3.5374646104372673
209,1616.65,3.5628907167357706
210,1624.11,3.2951594582440222
211,1635.37,3.5806745774642517
212,1646.71,3.639663704636312
213,1654.31,3.282041460060268
214,1659.58691,3.4549659112182725
215,1665.78,3.6579174800399947
216,1673.47,3.113993062089285
217,1677.32,3.6588898567433508
218,1685.07,3.9120704823456913
219,1696.75,3.6101709606728316
220,1704.58,3.424515644345906
221,1716.39,3.167573217037989
222,1724.32,3.15350297329948
223,1736.27,3.426736647615347
224,1744.28,3.3262524619475724
225,1756.37,3.631302237887224
226,1764.48,3.2297051248078663
227,1776.71,3.320978002371302
228,1784.91,3.39885395462152
229,1793.15,3.7188869359071055
230,1805.58,3.6771979586473758
231,1813.9099999999999,3.300735005262536
232,1826.49,3.3940371368854323
233,1834.9199999999998,3.21209825608901
234,1843.39,2.8966264043279555
235,1856.17,2.877414681127686
236,1864.73,2.9996308946962067
237,1873.34,3.343066144558936
238,1886.33,3.0149235737943423
239,1895.03,2.886354888986647
240,1903.78,3.0862272404731605
241,1905.46072,3.0660628763357525
242,1916.98,2.927841682204522
243,1925.82,2.88169041085719
244,1934.71,2.969663092726219
245,1943.64,3.1174207371683367
246,1957.12,2.8900421242993275
247,1966.15,3.250802675174168
248,1975.23,3.3423751792653698
249,1984.34,3.127065655286388
250,1993.5,3.0215650845237674
251,2002.7,3.128292476334236
252,2016.5900000000001,2.967845479839389
253,2025.8899999999999,3.1515177780825803
254,2035.2500000000002,2.941773020185405
255,2044.64,3.1093642342180456
256,2054.08,2.9428624014670484
257,2063.56,2.92989153128914
258,2073.08,3.19109062368432
259,2077.86,3.026790151168455
260,2082.65,3.184381669295862
261,2097.09,2.9726131581809887
262,2106.77,2.9663631008685254
263,2116.4900000000002,3.0013290061291507
264,2126.26,3.0437528646061374
265,2136.08,2.7638146762994857
266,2145.94,2.8813084505659226
267,2155.84,3.0106581874054483
268,2165.79,2.8891068774613355
269,2175.79,2.8566185207335844
270,2185.83,2.7985651265789215
271,2187.7616199999998,2.8278104198588747
272,2195.92,2.951344405406164
273,2206.06,2.85177096989589
274,2216.24,2.6620595642258125
275,2226.4700000000003,2.55457219585598
276,2236.75,2.7884518647863925
277,2247.0699999999997,2.631363563557002
278,2257.44,2.465666299627856
279,2262.65,2.5455351863134053
280,2273.09,2.6271639746046027
281,2283.58,2.7176618001960455
282,2294.12,2.5404296630877328
283,2304.71,2.532779563279666
284,2315.35,2.362093500771844
285,2326.04,1.7141074755642676
286,2336.77,2.116986480196887
287,2347.56,2.038975529589801
288,2352.9700000000003,2.2607055654763313
289,2363.83,2.0088726670895882
290,2374.74,2.0876838060030907
291,2385.71,1.8982589896768869
292,2396.72,2.0560162031908797
293,2402.24,1.9492963211379493
294,2413.33,2.0210765943323343
295,2424.47,2.1941369048269643
296,2435.66,2.09381125262184
297,2446.9,2.24190163771696
298,2452.54,2.2052328451846184
299,2463.86,2.1734142899601316
300,2475.24,2.0693357794959386
301,2486.66,2.1208502988719418
302,2492.39,1.9877505734800414
303,2503.9,2.264709159996486
304,2511.88643,2.033918344794785
305,2515.46,1.9306460861386547
306,2527.07,1.88961273405837
307,2532.89,1.9373590536873742
308,2544.5800000000004,1.8874286785092063
309,2556.33,2.082152286007626
310,2562.2200000000003,1.9877515854259826
311,2574.0499999999997,2.1380021698265192
312,2585.9300000000003,2.0877507397908786
313,2597.87,2.038605292431826
314,2603.85,1.946087565865064
315,2615.8700000000003,1.909108095408128
316,2627.95,2.02985860762778
317,2634.0099999999998,2.1393818579631354
318,2646.1600000000003,2.3764033499721395
319,2652.26,2.470182588758553
320,2664.5099999999998,2.135001051895203
321,2676.81,2.2701265005956763
322,2682.98,2.2587367191714423
323,2695.36,2.1257981447740324
324,2707.8,2.21379655305321
325,2714.04,2.0557347514183286
326,2726.5699999999997,2.039968133712388
327,2732.8599999999997,2.164788317641329
328,2745.47,1.7826736768375053
329,2758.14,1.8396260187102693
330,2764.4999999999995,1.9343291824285629
331,2777.2599999999998,2.042456498316208
332,2783.66,1.8834656504855602
333,2796.5099999999998,1.457618940388087
334,2802.96,1.579190078121262
335,2815.9,1.9907883420386705
336,2822.3900000000003,2.156806468222904
337,2835.41,2.0675717090424293
338,2841.95,1.996562820790486
339,2855.07,1.8789120327376576
340,2868.25,2.1602302273614167
341,2874.86,2.1791063188988256
342,2884.0315,2.1503167721142953
343,2888.1299999999997,2.1374526466537045
344,2894.79,2.121845607301148
345,2908.15,2.373061528359683
346,2928.31,2.2424584092384308
347,2948.6099999999997,2.188460289289947
348,2969.04,2.251822168573321
349,2989.62,2.2487080469703753
350,3010.35,2.2872339244811113
351,3031.2099999999996,2.2735128012237045
352,3052.23,2.265075677020891
353,3073.38,2.277569552049934
354,3087.57,2.3015834682041714
355,3108.97,2.2930173417560167
356,3130.52,2.2479202144215424
357,3152.22,2.2496390862007503
358,3166.77,2.2474540002278225
359,3188.72,2.099216870529832
360,3210.83,2.1947077398864345
361,3233.08,2.0452386084158056
362,3248.0,2.219523520256625
363,3270.52,2.3098633871906227
364,3293.1899999999996,2.2745932532383013
365,3308.39,2.272253163424659
366,3311.31121,2.262880022053816
367,3323.66,2.223255751326677
368,3331.3199999999997,2.2635218861040403
369,3338.9999999999995,2.1162250186223375
370,3346.7000000000003,2.2767761488815674
371,3354.42,2.17816027688173
372,3362.1499999999996,2.0694014037523596
373,3369.9,2.0875075283639224
374,3377.6699999999996,2.1202676507164178
375,3385.45,2.16349277193938
376,3393.26,2.2745778897737416
377,3401.0800000000004,2.43030000647857
378,3408.9199999999996,2.190017120924331
379,3416.7799999999997,2.1837652331110258
380,3424.65,2.3224913441681867
381,3432.5499999999997,2.3972184518367476
382,3440.46,2.2881535583757744
383,3448.39,2.0952996626557345
384,3456.34,2.1378947646766275
385,3464.31,2.026643864438454
386,3472.2999999999997,2.2413399619412133
387,3480.3,2.0572210583144392
388,3488.3199999999997,2.1628621524285983
389,3496.36,2.12712724428369
390,3504.4199999999996,2.226214333879715
391,3512.5,2.149441421216673
392,3520.6,2.2597495062945643
393,3528.7200000000003,2.022264589113389
394,3536.8500000000004,2.2160586708026795
395,3545.0,2.3138947502329033
396,3553.1800000000003,2.3338578262745266
397,3561.37,2.2742439011866167
398,3569.58,2.06828697383964
399,3577.81,2.0386420442335957
400,3586.05,1.9103961134980185
401,3594.3199999999997,2.0837361793738407
402,3602.61,2.288759242990596
403,3610.91,2.095748305477818
404,3619.2400000000002,2.203407364576439
405,3627.5800000000004,2.3059174225455275
406,3635.9399999999996,2.063454478255548
407,3643.5099999999998,2.4276306231987133
408,3646.19,2.3084133204837443
409,3648.8599999999997,2.4769300188983077
410,3651.53,2.5920837173128723
411,3654.21,1.9674834145979028
412,3656.88,2.242725113012467
413,3659.5499999999997,2.4901928114270313
414,3662.22,2.431684509841595
415,3664.8999999999996,2.184834207126626
416,3667.57,2.33852690554119
417,3670.2400000000002,2.1569106039557537
418,3672.91,2.036301302370318
419,3675.59,2.4268369996553485
420,3678.2599999999998,2.327604698069913
421,3680.93,2.0793623964844774
422,3683.61,2.1609580937695076
423,3686.28,2.367856792184072
424,3688.95,2.3539734905986363
425,3691.62,2.2080871890132
426,3694.2999999999997,2.139736886298231
427,3696.97,2.311061584712795
428,3699.6400000000003,2.447904283127359
429,3702.31,2.150511981541923
430,3704.9900000000002,2.219624678826954
431,3707.66,2.091838377241518
432,3710.33,2.085444075656082
433,3713.0,2.2934357740706464
434,3715.6800000000003,2.301540471355677
435,3718.3500000000004,2.092150169770241
436,3721.02,3.081388868184805
437,3723.7,3.857784565469836
438,3726.37,5.0420612638844
439,3729.04,5.883697962298965
440,3731.7099999999996,4.830341660713528
441,3734.3900000000003,3.7969323579985588
442,3737.06,3.168290056413123
443,3739.73,2.4399427548276873
444,3742.4,2.307943453242251
445,3745.08,2.478319150527282
446,3747.7500000000005,2.2530138489418463
447,3750.42,2.07701454735641
448,3753.1,1.915826244641441
449,3755.77,2.457098943056005
450,3758.44,2.403739641470569
451,3761.1099999999997,2.3879833398851336
452,3763.79,2.6384030371701637
453,3766.4599999999996,2.294046735584728
454,3769.13,2.5252874339992926
455,3771.8,2.240378132413856
456,3774.48,2.3945268296988873
457,3777.15,2.6415275281134516
458,3779.8199999999997,2.6959852265280153
459,3782.4999999999995,3.065297923813046
460,3785.17,3.16812662222761
461,3787.84,2.811912320642174
462,3790.51,2.7147090190567384
463,3793.19,2.481744716341769
464,3795.8599999999997,2.4638044147563334
465,3798.5299999999997,2.1444121131708975
466,3801.2000000000003,2.5026628115854614
467,3801.8939600000003,2.461287957603336
468,3803.88,2.3428775556122905
469,3806.55,2.4973513168657715
470,3809.22,2.7331170781192524
471,3811.89,3.002117839372734
472,3814.5699999999997,2.740910599732033
473,3817.2400000000002,2.834533360985514
474,3819.9100000000003,2.9191061222389956
475,3822.59,2.5486778825982945
476,3825.2599999999998,2.2528476438517755
477,3827.93,2.276255405105257
478,3830.6,2.231477166358738
479,3833.28,2.370179926718037
480,3835.9500000000003,2.180449687971518
481,3838.62,2.2622124492249993
482,3841.29,2.31511021047848
483,3843.97,2.501869970837779
484,3846.64,2.4274457320912606
485,3849.3100000000004,2.9537414933447415
486,3851.9900000000002,2.7660252537040404
487,3854.66,3.260802014957522
488,3857.33,3.191996776211003
489,3860.0,3.109616537464484
490,3862.68,3.770081297823783
491,3865.3500000000004,3.6579000590772646
492,3868.02,3.9133278203307453
493,3870.69,4.051420581584226
494,3873.37,3.746209341943526
495,3876.04,3.370180103197007
496,3878.71,3.2225798644504877
497,3881.3799999999997,2.7875696257039686
498,3884.06,2.786778386063268
499,3886.73,2.2842071473167493
500,3889.4,2.61624390857023
501,3892.08,2.7599376689295294
502,3894.75,2.6148324301830104
503,3897.4199999999996,2.8456061914364916
504,3900.09,2.7959909526899724
505,3902.77,3.089005713049272
506,3905.44,3.367056474302753
507,3908.11,3.343187235556234
508,3910.7799999999997,3.424796996809715
509,3913.4600000000005,3.714531757169014
510,3916.13,3.7537005184224954
511,3918.8,3.2838962796759765
512,3921.48,3.324296040035276
513,3924.15,3.157503801288757
514,3926.8199999999997,3.0890105625422377
515,3929.49,2.9145713237957187
516,3932.1699999999996,3.091031084155018
517,3934.84,2.775072845408499
518,3937.51,2.92034060666198
519,3940.18,2.773988367915461
520,3942.86,2.9428021282747605
521,3945.5299999999997,3.2696908895282415
522,3948.2,3.3851576507817223
523,3950.8700000000003,3.3007484120352033
524,3953.55,3.373915172394503
525,3956.22,3.255335933647984
526,3958.89,3.082145694901465
527,3961.5699999999997,2.742768455260764
528,3964.24,2.7811552165142452
529,3966.9100000000003,2.687695977767726
530,3969.58,2.7850627390212073
531,3972.26,2.5893904993805066
532,3974.93,2.6137342606339877
533,3977.6,2.7209310218874685
534,3980.27,2.7054867831409495
535,3982.9500000000003,3.004744543500249
536,3985.6200000000003,3.21632530475373
537,3988.29,3.248940066007211
538,3990.97,3.48609382636651
539,3993.64,3.4542685876199912
540,3996.31,3.3289793488734722
541,3998.9799999999996,3.4084041101269533
542,4001.6600000000003,3.4263348704862526
543,4004.33,3.4611336317397337
544,4007.0,3.3987253929932146
545,4009.67,3.5092001542466957
546,4012.35,3.202898914605995
547,4015.0200000000004,3.3882676758594763
548,4017.69,3.436329437112957
549,4020.36,3.596734198366438
550,4023.04,3.7396449587257377
551,4025.71,3.6677187199792187
552,4028.3799999999997,3.4254074812326993
553,4031.0600000000004,3.418685241591999
554,4033.73,3.48047800284548
555,4036.4,3.536029764098961
556,4039.07,3.393421525352442
557,4041.75,3.2777902857117414
558,4044.42,3.4430310469652223
559,4047.0899999999997,3.4004388082187034
560,4049.76,3.431493569472184
561,4052.44,3.4598783298314837
562,4055.11,3.7363690910849647
563,4057.78,3.5931378523384456
564,4060.46,3.527591612697745
565,4063.1299999999997,3.744322373951226
566,4065.8,3.760710135204707
567,4068.4700000000003,3.764615896458188
568,4071.15,3.5260326568174873
569,4073.82,3.6305764180709685
570,4076.49,3.6287091793244497
571,4079.16,3.660075940577931
572,4081.8399999999997,3.7312117009372296
573,4084.51,3.580647462190711
574,4087.1800000000003,3.644936223444192
575,4089.85,3.773666984697673
576,4092.5299999999997,3.6341617450569723
577,4095.2,3.3653255063104535
578,4097.87,3.405273267563935
579,4100.55,3.1662230279232335
580,4103.22,3.174183789176715
581,4105.889999999999,3.189478550430196
582,4108.56,3.327882311683677
583,4111.24,3.332707072042976
584,4113.91,3.2899588332964576
585,4116.58,3.3141475945499383
586,4119.25,3.3857703558034196
587,4121.929999999999,3.800331116162719
588,4124.6,3.6720788774161996
589,4127.27,3.5283786386696807
