,lambda (Angstroms),Total Flux (erg/s/cm^2/Angstrom)
0,100.08,0.002595845629001189
1,101.94,0.003119421031116568
2,104.07,0.003718979155353532
3,104.712855,0.003899945404615817
4,106.00999999999999,0.003595425181238261
5,107.98,0.0031329906513144308
6,109.99,0.002661333346537838
7,114.11,0.0016943883254027258
8,118.11999999999999,0.0007533968498877301
9,120.22644299999999,0.00026363546751390456
10,120.88,0.0002580507263808271
11,125.12,0.0002145477299316686
12,126.86,0.00019678765778979708
13,128.04,0.00018482267334875776
14,131.02,0.00015427226772647175
15,131.93,0.00014731806396261942
16,134.07,0.00012553584489158207
17,136.88,0.00010080272821419171
18,138.038426,8.929102153849077e-05
19,140.07,9.039760590178992e-05
20,143.0,0.00014389285327020423
21,147.01000000000002,0.0002825687550611057
22,151.13,0.0003025264837839272
23,155.0,0.00032713695129783955
24,158.489319,0.0003517025061618792
25,158.98,0.0003550559867405111
26,161.94,0.00037552768113858326
27,166.08999999999997,0.0004099546155142588
28,169.96,0.00043871154636579234
29,173.12,0.0004638248147096802
30,177.15,0.0004954429047178664
31,180.03000000000003,0.0005205050695376122
32,181.970086,0.0005371687937496864
33,182.11,0.0005384795837949134
34,185.92999999999998,0.0005771947017543218
35,191.14,0.0006271370623743527
36,193.79,0.000662284981115827
37,197.85,0.0007027648373763502
38,202.0,0.0007489848704997911
39,204.81,0.0007826254481086754
40,208.929613,0.0007996415294867284
41,210.06,0.0008053986270223398
42,215.94,0.0009165098771185764
43,219.96,0.0009743661042251871
44,223.01999999999998,0.001001287651724249
45,227.16,0.0010641007512818034
46,229.8,0.0016175137452025625
47,234.07,0.002727103939915306
48,239.88329199999998,0.003354727893932062
49,240.07,0.0033744932021616517
50,246.23,0.003235302164447293
51,251.97,0.003455603788395277
52,257.24,0.0029600435337273105
53,260.22,0.003385962934313546
54,263.84000000000003,0.0035631118504619265
55,268.75,0.003574600305790254
56,273.74,0.0035783828255638497
57,275.42287,0.003582126665895412
58,278.83000000000004,0.003596393231002458
59,284.01,0.003609899628914983
60,289.96000000000004,0.003463573342733425
61,296.03000000000003,0.0035410566642255156
62,300.84,0.0035299781051442896
63,307.85,0.0035772100200799663
64,316.227766,0.0036396041825937785
65,317.94000000000005,0.003649350058600163
66,328.35,0.003641800864786219
67,338.33000000000004,0.0035933578538099313
68,347.81,0.0035380869856681267
69,356.73,0.0034996007975009436
70,363.078055,0.0034839131829754073
71,365.88000000000005,0.0034806919600993192
72,375.27,0.0034314488086573613
73,384.89000000000004,0.0032854709016422773
74,394.77,0.0033357386187619206
75,404.89,0.0033044853735443892
76,414.32,0.0032438483950462354
77,416.86938299999997,0.0032238228708635743
78,422.03,0.0031820900785697226
79,429.86999999999995,0.0031283591643223034
80,440.9,0.003076581054099212
81,451.16999999999996,0.0029989787774001055
82,459.55999999999995,0.002936067036260329
83,470.26,0.0028750702221726518
84,478.630092,0.002840306499461756
85,480.10999999999996,0.0028329711091803996
86,490.15999999999997,0.002729909930266848
87,500.42999999999995,0.002695011488730312
88,506.22,0.0026332967587890718
89,512.0799999999999,0.0026719361271041546
90,520.4,0.002626943376998607
91,530.08,0.002541894821587345
92,539.93,0.002437685790512868
93,549.5408739999999,0.002376820794095163
94,549.97,0.0023742350850779964
95,560.2,0.002362153640770084
96,570.61,0.0023448284965623257
97,579.88,0.002266362451720259
98,590.66,0.0022396074243850395
99,600.26,0.002150034429726588
100,610.02,0.0019135977018238293
101,619.93,0.002104381724004532
102,630.0,0.0020427820129409273
103,630.957344,0.0020405160874281876
104,640.24,0.0020217780164672994
105,650.64,0.001983757431433421
106,658.17,0.001937372007846392
107,664.26,0.0019385596652640538
108,675.06,0.0019065950577288728
109,684.45,0.0018258755295107846
110,695.5699999999999,0.001860658903974561
111,705.25,0.0017744553594430284
112,716.71,0.0018122427147806972
113,724.43596,0.0017893177992595476
114,726.68,0.0017824657581190105
115,735.09,0.0017639444945536664
116,745.32,0.0017458802773986756
117,755.68,0.001728066849272996
118,764.43,0.001605376264707388
119,775.07,0.001700268689875609
120,785.85,0.00166480504169078
121,794.9499999999999,0.0016694702737425477
122,804.16,0.0016632500195883479
123,815.3399999999999,0.0016500818761090912
124,824.78,0.0016620027871605955
125,831.763771,0.0015499501995001354
126,834.3399999999999,0.001507683353166393
127,845.94,0.0016235494842297522
128,855.74,0.0016035770259901765
129,865.65,0.001615110287096891
130,875.6700000000001,0.0016303412675498963
131,885.81,0.0016493844872897637
132,894.01,0.00165821183855869
133,904.36,0.0016267969770505668
134,914.8299999999999,0.002075845354829306
135,925.42,0.007825736971894908
136,933.99,0.015792644560964995
137,944.8,0.028943023616723174
138,954.992586,0.04021568536028318
139,955.74,0.04104245649655505
140,964.59,0.0444805395808333
141,975.75,0.008052987114228236
142,984.78,0.0351019281425935
143,993.9000000000001,0.03857270064300227
144,1005.4000000000001,0.05848246984856157
145,1014.71,0.057284564901062186
146,1024.1,0.025386676817601483
147,1035.95,0.038658262303329985
148,1045.54,0.07654333637996596
149,1055.21,0.07480430732064061
150,1064.98,0.057018884341363596
151,1074.83,0.06917313822612527
152,1084.78,0.05272913819093527
153,1094.81,0.07276404501978394
154,1096.4782,0.07227777590296477
155,1104.94,0.06981051147099039
156,1115.17,0.0660591763789867
157,1125.49,0.05861055024511788
158,1135.8999999999999,0.07689001306938392
159,1143.78,0.06932612629274766
160,1154.36,0.07427740826015733
161,1165.04,0.07635672795882796
162,1175.8200000000002,0.05093039538875957
163,1183.97,0.07376316548652789
164,1194.92,0.04886248205960312
165,1205.98,0.03428780513706541
166,1214.34,0.025079769470481756
167,1225.58,0.05034246046421377
168,1234.07,0.07741163884826938
169,1245.49,0.08506911775827111
170,1254.12,0.08031185896609205
171,1258.92541,0.07536511179990771
172,1265.73,0.06836127878431754
173,1274.5,0.09010509531724788
174,1286.3,0.09478607829200023
175,1295.21,0.07240952604666492
176,1304.19,0.07141707441219679
177,1316.26,0.09177893974315109
178,1325.3799999999999,0.0874496893304173
179,1334.57,0.0759943495285507
180,1343.82,0.09284369025028452
181,1356.25,0.08948655872284143
182,1365.6499999999999,0.07902878075357636
183,1375.12,0.08332357339517844
184,1384.65,0.08409655656038097
185,1394.25,0.07174682033645068
186,1403.9099999999999,0.0742665646361208
187,1413.6499999999999,0.07722939963392486
188,1423.45,0.07976001515532935
189,1436.6200000000001,0.07939319008562498
190,1443.25,0.08390357794347311
191,1445.43977,0.08493115322107457
192,1446.5700000000002,0.08546152533092133
193,1456.6000000000001,0.08256085879272612
194,1463.32,0.07564866801140291
195,1473.47,0.07599545235211265
196,1483.68,0.07776598713227487
197,1493.97,0.0792109724983737
198,1504.3200000000002,0.07443848830392501
199,1511.26,0.06589250913392754
200,1518.2399999999998,0.07092657025689836
201,1525.25,0.06852048159959544
202,1535.82,0.05886565901647248
203,1546.47,0.06395082701928614
204,1553.6,0.060793409240888156
205,1564.37,0.06278593812260677
206,1575.22,0.067270347590262
207,1586.14,0.07092645757061179
208,1593.4599999999998,0.0722454211838133
209,1604.5,0.07109369204306804
210,1615.63,0.07125587356150147
211,1626.82,0.06758150551938738
212,1634.33,0.07224591052418838
213,1645.6599999999999,0.07342021350746339
214,1653.26,0.06820612917144309
215,1659.58691,0.07164737413083758
216,1664.72,0.07443953006626772
217,1672.4,0.06589395084887524
218,1676.26,0.07547573730992539
219,1683.99,0.07866806076689886
220,1695.6699999999998,0.07393050549878115
221,1703.49,0.07109620376961331
222,1715.3,0.06727473545484702
223,1723.22,0.06696769907441105
224,1735.16,0.07191840771299621
225,1743.17,0.0704459961464189
226,1755.2599999999998,0.07530618280810186
227,1763.36,0.06932133605538324
228,1775.58,0.07061045967041762
229,1783.7800000000002,0.07241830826643089
230,1796.1399999999999,0.07759738936968988
231,1804.4299999999998,0.07706288277956183
232,1816.94,0.07093634190591863
233,1825.33,0.07275510066452244
234,1833.75,0.07012664102774581
235,1846.46,0.06440590085156635
236,1854.99,0.06529976709839477
237,1863.55,0.06774992494984276
238,1876.47,0.07309413600600022
239,1885.1299999999999,0.06743825920618007
240,1893.83,0.06545139454585268
241,1905.46072,0.06902782082771386
242,1906.96,0.0694886632728975
243,1915.76,0.06697679655030725
244,1924.6,0.06515195706988705
245,1933.48,0.06666866483163689
246,1946.89,0.07110342026914425
247,1955.8700000000001,0.0666669511363192
248,1964.9,0.0735979285562067
249,1973.9699999999998,0.07530965321826426
250,1983.0800000000002,0.07225412512249185
251,1996.83,0.07077100711844458
252,2006.05,0.0725860114386398
253,2015.3,0.07060966369046255
254,2024.6100000000001,0.07308796180554036
255,2033.9499999999998,0.07044560785224571
256,2043.34,0.07359263045166362
257,2052.77,0.06836711029325156
258,2067.0,0.06931762919524484
259,2071.77,0.07617525032402263
260,2076.54,0.0777681314528004
261,2086.13,0.08313603026306852
262,2095.76,0.0784868263155067
263,2105.4300000000003,0.07830731961011492
264,2115.15,0.0804974594574357
265,2124.9100000000003,0.0797599465469265
266,2134.72,0.07478182018912986
267,2144.57,0.07920987107350329
268,2154.47,0.08198990851058925
269,2164.42,0.07794143250038778
270,2174.41,0.07812000373235635
271,2184.44,0.08012331220649496
272,2187.7616199999998,0.08105012462217114
273,2194.53,0.08293950525229009
274,2204.65,0.08086654154797983
275,2214.83,0.07426337114186535
276,2225.05,0.07443572293454807
277,2235.32,0.08237103747572727
278,2245.6400000000003,0.07921001476540297
279,2256.0099999999998,0.07274350480357515
280,2266.42,0.07358664704054454
281,2276.88,0.0767002920260104
282,2287.39,0.08218367975997277
283,2292.66,0.0756493194515029
284,2303.25,0.07958526158305965
285,2313.88,0.07432368591341358
286,2324.56,0.06004462299226401
287,2335.29,0.06587600281961092
288,2346.07,0.061241715395454345
289,2356.9,0.07149585071979424
290,2362.33,0.06172661920651315
291,2373.23,0.06557634837874814
292,2384.19,0.057818700849178915
293,2395.19,0.06242191551840689
294,2406.25,0.060902383485830644
295,2417.36,0.0638142542017509
296,2422.9300000000003,0.07362261038425996
297,2434.1099999999997,0.0723292049480753
298,2445.35,0.07808992281008643
299,2456.64,0.07886521342059405
300,2462.3,0.0755168045503968
301,2473.66,0.07200524900879951
302,2485.08,0.06693880676539801
303,2496.5499999999997,0.06324295727049299
304,2502.31,0.07853917389728873
305,2511.88643,0.06389854107877468
306,2513.86,0.06088115832564675
307,2519.65,0.0606203051444963
308,2525.46,0.060225761537849656
309,2537.12,0.06577361347356395
310,2542.97,0.0662516490159249
311,2554.7,0.07987899946240247
312,2566.5,0.07223955841964337
313,2572.41,0.0794140326855157
314,2584.2900000000004,0.07624352994077177
315,2596.2200000000003,0.07320140613228734
316,2602.2000000000003,0.06929527890892298
317,2614.21,0.06699255339845374
318,2626.2799999999997,0.0748673266114959
319,2632.33,0.09065568789889483
320,2644.48,0.10756629940995217
321,2656.69,0.1253005396445209
322,2662.81,0.09642023944268313
323,2675.1000000000004,0.10506504797526706
324,2687.4500000000003,0.11111238523136238
325,2693.65,0.0963736933275398
326,2706.08,0.10696678888165032
327,2712.3199999999997,0.09129230612683534
328,2724.84,0.08585533976621294
329,2737.42,0.09463805212910195
330,2743.7299999999996,0.07100708788505027
331,2756.3900000000003,0.07899384854595445
332,2762.7400000000002,0.08886438345091036
333,2775.5,0.09419686198433354
334,2781.8900000000003,0.07607651603829703
335,2794.74,0.05554955265698732
336,2807.6299999999997,0.060252438424685195
337,2814.11,0.08933835056391577
338,2827.1000000000004,0.10972841420413265
339,2833.6099999999997,0.10727397570511893
340,2846.69,0.09634866743060289
341,2853.25,0.07781505786784866
342,2866.43,0.11358227746585163
343,2873.0299999999997,0.127484237052105
344,2884.0315,0.12073143827631659
345,2886.2900000000004,0.11934520201394488
346,2892.9500000000003,0.12851649911422228
347,2913.0,0.15647539038457695
348,2933.19,0.14287768159397646
349,2946.73,0.13750357569874463
350,2967.16,0.14548426680364965
351,2987.72,0.14667005785195347
352,3008.4300000000003,0.15061234883494823
353,3029.29,0.1539490397526339
354,3050.29,0.1580887306093645
355,3071.43,0.1645971214051399
356,3092.72,0.1659434121356063
357,3106.9999999999995,0.17632380591818306
358,3128.5299999999997,0.17015939654415493
359,3150.2200000000003,0.16997958710046376
360,3172.05,0.17862207759581747
361,3186.7000000000003,0.16080777121729856
362,3208.7900000000004,0.17492376159944992
363,3231.0299999999997,0.15360905191629215
364,3253.42,0.19096264216782538
365,3268.44,0.21247593562821074
366,3291.1000000000004,0.20838992576218762
367,3306.29,0.2042935191485561
368,3311.31121,0.20435132997657263
369,3321.5499999999997,0.20446913174437173
370,3329.21,0.22121216798979407
371,3336.8799999999997,0.2118388041519859
372,3344.57,0.20710954014771668
373,3352.28,0.19606277597698638
374,3360.0099999999998,0.21805921163979508
375,3367.76,0.21417404713614274
376,3375.52,0.1737707825492599
377,3383.3,0.182037817795916
378,3391.1000000000004,0.21844145287611108
379,3398.92,0.2283112877898451
380,3406.75,0.2171314226203486
381,3414.61,0.21672855720116058
382,3422.48,0.237191691698742
383,3430.37,0.22146402602986237
384,3438.28,0.22776736019452173
385,3446.2,0.17207449427595056
386,3454.15,0.22176002810768783
387,3462.11,0.1919065618561946
388,3470.09,0.21246069543824034
389,3478.0899999999997,0.18133782885382502
390,3486.11,0.20308406210294866
391,3494.14,0.19492969526884177
392,3502.2,0.22649462818504337
393,3510.27,0.2229751610180144
394,3518.3599999999997,0.20867069368452443
395,3526.47,0.19754512618457337
396,3534.6,0.2248287585181613
397,3542.75,0.24833649068528824
398,3550.92,0.24391592268595405
399,3559.1,0.23520435460338943
400,3567.3100000000004,0.2252410862711332
401,3575.53,0.19492401785564645
402,3583.77,0.17908914927369868
403,3592.0400000000004,0.17590288044205935
404,3600.32,0.2462884115271895
405,3608.6200000000003,0.2106978424458586
406,3616.94,0.21920857319806666
407,3625.27,0.2360767038670442
408,3633.63,0.2302806342863302
409,3641.28,0.23190687061498305
410,3644.04,0.21405994764335978
411,3646.79,0.22205482475496702
412,3649.54,0.17869730186657426
413,3652.2900000000004,0.1880459789781815
414,3655.05,0.2161636560065582
415,3657.7999999999997,0.25029273311816547
416,3660.55,0.23536661022977268
417,3663.2999999999997,0.2463543873413799
418,3666.05,0.22769586445298715
419,3668.81,0.22889914148136384
420,3671.56,0.21589471859297107
421,3674.31,0.24553049570457833
422,3677.06,0.23243917281618556
423,3679.81,0.2214082499277928
424,3682.57,0.2189445269561695
425,3685.32,0.22450100406777676
426,3688.07,0.200770081179384
427,3690.82,0.24168965829099123
428,3693.5800000000004,0.22244823531936792
429,3696.33,0.22560711243097517
430,3699.08,0.2204261895425824
431,3701.83,0.24623446665418963
432,3704.58,0.21466374376579686
433,3707.34,0.2124283207941736
434,3710.0899999999997,0.22944819790578083
435,3712.84,0.23738867501738803
436,3715.5899999999997,0.24643015212899527
437,3718.3500000000004,0.225035729157372
438,3721.1,0.26127700626897926
439,3723.8500000000004,0.27391498338058645
440,3726.6,0.3248571604921937
441,3729.3500000000004,0.3225197376038009
442,3732.11,0.3192020146321776
443,3734.8599999999997,0.2583384917437849
444,3737.61,0.21468476885539212
445,3740.3599999999997,0.23010074596699936
446,3743.11,0.2651162230786066
447,3745.87,0.23880960010698332
448,3748.62,0.21426587721859056
449,3751.37,0.20442025433019778
450,3754.1200000000003,0.21743863144180503
451,3756.88,0.24350400847018172
452,3759.63,0.23671648558178895
453,3762.38,0.2684860626933962
454,3765.1299999999997,0.24731313980500344
455,3767.88,0.24594061691661068
456,3770.6400000000003,0.24352019394498736
457,3773.39,0.26191557105659463
458,3776.14,0.24756294816820185
459,3778.89,0.27943322527980907
460,3781.64,0.29574370239141634
461,3784.4,0.313003879419793
462,3787.15,0.30781225653140026
463,3789.9,0.3057737336430075
464,3792.65,0.26157901075461476
465,3795.4100000000003,0.24459648778299145
466,3798.16,0.23773826489459868
467,3800.9100000000003,0.23584384200620592
468,3801.8939600000003,0.2394387942922928
469,3803.66,0.24589112218049206
470,3806.41,0.2606195040611685
471,3809.17,0.29674788587595646
472,3811.9199999999996,0.3303469677566329
473,3814.67,0.30832874963730933
474,3817.42,0.30378943151798576
475,3820.17,0.3028655133986622
476,3822.93,0.2692001952134502
477,3825.6800000000003,0.26960827709412655
478,3828.43,0.248274858974803
479,3831.1800000000003,0.23668404085547942
480,3833.94,0.2126474226702674
481,3836.6899999999996,0.21399870455094383
482,3839.44,0.20511268643162026
483,3842.1899999999996,0.2114873683122967
484,3844.94,0.2527631501929731
485,3847.7,0.2879946320077611
486,3850.4500000000003,0.2952257138884375
487,3853.2,0.30748579576911395
488,3855.9500000000003,0.32053427764979037
489,3858.71,0.30074335946457836
490,3861.46,0.30783854134525473
491,3864.21,0.3118349232259312
492,3866.96,0.33632760510660764
493,3869.71,0.33241348698728407
494,3872.4700000000003,0.33108016880207203
495,3875.22,0.3149334506827485
496,3877.9700000000003,0.29373073256342486
497,3880.72,0.29750951444410134
498,3883.47,0.2711254963247777
499,3886.23,0.2653804781395657
500,3888.98,0.24832306002024215
501,3891.73,0.23635984190091858
502,3894.48,0.260588823781595
503,3897.2400000000002,0.276604305596383
504,3899.99,0.2959591874770594
505,3902.7400000000002,0.3171354693577358
506,3905.49,0.3213220512384123
507,3908.2400000000002,0.3302930331190887
508,3911.0,0.34426391493387665
509,3913.7499999999995,0.36457039681455305
510,3916.5,0.34467237869522954
511,3919.2500000000005,0.34257956057590594
512,3922.0,0.33564814245658237
513,3924.7599999999998,0.31515042427137036
514,3927.51,0.2952525061520468
515,3930.2599999999998,0.2540044880327232
516,3933.01,0.21769836991339964
517,3935.77,0.2017815517281876
518,3938.52,0.22457783360886402
519,3941.27,0.27464741548954047
520,3944.0199999999995,0.2977808973702169
521,3946.77,0.3091982792508933
522,3949.53,0.3125949610656813
523,3952.28,0.3436388429463577
524,3955.0299999999997,0.3505710248270341
525,3957.78,0.3425522067077106
526,3960.5299999999997,0.313765188588387
527,3963.29,0.267641670403175
528,3966.04,0.2280301522838514
529,3968.79,0.18809773416452782
530,3971.54,0.18289231604520426
531,3974.3,0.20369499785999223
532,3977.0499999999997,0.24890407974066867
533,3979.8,0.3004986616213451
534,3982.55,0.3235778435020215
535,3985.2999999999997,0.347608425382698
536,3988.06,0.3783515071974859
537,3990.8100000000004,0.37965678907816236
538,3993.56,0.38389777095883876
539,3996.31,0.38794855283951524
540,3999.07,0.39131773465430314
541,4001.8199999999997,0.3997178165349796
542,4004.57,0.40181139841565605
543,4007.3199999999997,0.3970274802963325
544,4010.07,0.4001268621770089
545,4012.83,0.41129764399179686
546,4015.5800000000004,0.4191540258724733
547,4018.33,0.43087060775314967
548,4021.0800000000004,0.4297836896338261
549,4023.83,0.41891077151450257
550,4026.5899999999997,0.41412475332929055
551,4029.34,0.40841663520996696
552,4032.0899999999997,0.4075472170906434
553,4034.84,0.4115163989713198
554,4037.6,0.4143690807861078
555,4040.35,0.4186916626667842
556,4043.1,0.42225314454746066
557,4045.85,0.41442472642813705
558,4048.6,0.40564490830881356
559,4051.36,0.4142603901236015
560,4054.11,0.42244307200427794
561,4056.86,0.40461115388495433
562,4059.61,0.4085259357656308
563,4062.3599999999997,0.4055090176463072
564,4065.12,0.40061439946109517
565,4067.87,0.4038223813417716
566,4070.62,0.40066956322244807
567,4073.37,0.40578054510312445
568,4076.13,0.39618322691791247
569,4078.8799999999997,0.38800140879858885
570,4081.63,0.39969069067926527
571,4084.38,0.40567147255994174
572,4087.13,0.4071126544406181
573,4089.89,0.4036043362554061
574,4092.6400000000003,0.3982768181360825
