,lambda (Angstroms),Total Flux (erg/s/cm^2/Angstrom)
0,100.05999999999999,0.011955615554912783
1,101.92,0.01437206678086387
2,104.05,0.017139293180136406
3,104.712855,0.018000452753398583
4,105.99000000000001,0.016616028322995732
5,107.96,0.014480549537850735
6,109.97,0.012301710967110208
7,114.09,0.007835633881264806
8,118.1,0.0034887970988988493
9,120.22644299999999,0.0011837407508354435
10,121.13000000000001,0.0011384226776641139
11,125.10000000000001,0.0009393001881405213
12,127.13000000000001,0.0008374819892042761
13,128.01,0.0007933449779895008
14,131.0,0.0006433776428716812
15,131.9,0.0005982421642327053
16,134.05,0.0004904071521912631
17,136.85,0.0003499818069733397
18,138.038426,0.00029037729401676306
19,140.04000000000002,0.00028683996831809763
20,142.97,0.0002818003366557322
21,146.98,0.0002751274163494232
22,151.1,0.00026797440120104583
23,154.97,0.0002613058552119147
24,158.489319,0.0002552801778202909
25,158.95,0.00025405360352438315
26,161.9,0.0002462154201856741
27,166.06,0.00023521043425379971
28,169.93,0.00022500370861284935
29,173.08,0.00021672458955626175
30,177.11999999999998,0.00020614649905511466
31,179.99,0.000198673328003557
32,181.970086,0.00019352385405804298
33,182.07999999999998,0.000193633447230973
34,185.89000000000001,0.00019750512419113004
35,191.1,0.00020283553072194838
36,194.2,0.00020609606005698425
37,197.81,0.00020997579722133243
38,201.95999999999998,0.00021444186673436432
39,204.76999999999998,0.0002175719427154775
40,208.929613,0.00022185839450944013
41,210.02,0.00022782681899605555
42,215.9,0.00026109493364461476
43,219.92000000000002,0.00028372532072067053
44,222.98,0.0003008228140173696
45,227.12,0.00032431393906584495
46,229.75,0.0003468676437947072
47,234.01999999999998,0.0003849998974799704
48,239.88329199999998,0.00042927111716602374
49,240.03,0.00042895567627991517
50,246.18,0.00040320046190991265
51,251.92,0.0003862211278312437
52,257.19,0.00035704916213532276
53,260.16999999999996,0.0003548550602617283
54,263.79,0.0003457902220797102
55,268.69,0.00032859797128084647
56,273.69,0.0003106520969962916
57,275.42287,0.0003044803591489672
58,278.78,0.00032293809623316585
59,283.96000000000004,0.00035176851507366224
60,289.90999999999997,0.00038084088820125876
61,295.98,0.00041592508199697544
62,300.79,0.00044091201877743605
63,307.79,0.00048127752775107934
64,316.227766,0.0005300732173202368
65,317.88,0.0005262375468137674
66,328.28999999999996,0.0004996131717873845
67,338.27000000000004,0.0004732749963057989
68,347.74,0.00044785454121455524
69,356.66,0.00042502316693642493
70,363.078055,0.0004097808322255236
71,365.81,0.00041995964113617455
72,375.2,0.00045143536092498264
73,384.82000000000005,0.00047793115851479473
74,394.69,0.0005179009189317846
75,404.82,0.0005543537846890398
76,414.24999999999994,0.0005844392745301963
77,416.86938299999997,0.0005923647229896403
78,421.95000000000005,0.0006023022140748457
79,429.79,0.0006180858501650734
80,440.82000000000005,0.0006442661047665034
81,451.08000000000004,0.000664619979037643
82,459.47,0.000680048501078078
83,470.17,0.0007017183641093835
84,478.630092,0.0007214635498530387
85,480.02000000000004,0.000719553309308171
86,490.07,0.000697881963483861
87,500.33,0.0006853182268512815
88,506.13,0.0006747383854800379
89,511.99,0.0007063651181635744
90,520.3,0.0006947646247506373
91,529.98,0.0006790448722551823
92,539.83,0.0006530174795816046
93,549.5408739999999,0.0006606516307855977
94,549.87,0.0006613774136139891
95,560.09,0.0006895583928157433
96,570.5,0.0007126802736856319
97,579.77,0.0007054589445467142
98,590.5500000000001,0.000743367476033496
99,600.15,0.0007427016866339696
100,609.9,0.0007552724880250758
101,619.8100000000001,0.0008357387329261896
102,629.88,0.0008606742213373115
103,630.957344,0.000863341130269593
104,640.11,0.000900712784713747
105,650.52,0.0009698267298675041
106,658.0500000000001,0.0010095205138259855
107,665.67,0.0010747304653218191
108,674.93,0.0011223302919427403
109,684.32,0.0011255624050065041
110,695.4399999999999,0.0013300419607327075
111,705.11,0.0012970605061349005
112,716.5699999999999,0.0015262134725577685
113,724.43596,0.0015987302368508025
114,726.54,0.0016172904596106169
115,734.95,0.0016981509095603284
116,745.17,0.001843736867763188
117,755.54,0.0019677265973682425
118,764.29,0.002023858595829595
119,774.9200000000001,0.0022616898625317868
120,785.7,0.0023683789006361733
121,794.8,0.00255221969903598
122,805.86,0.0027267987770911296
123,815.1899999999999,0.002874038358307634
124,824.63,0.0031339047052190818
125,831.763771,0.0028409122239602563
126,834.1800000000001,0.0027376397681166485
127,845.78,0.0034030796763271846
128,855.5699999999999,0.0035325307367910764
129,865.48,0.003830697416995077
130,875.5,0.004099050165294178
131,885.64,0.004417772533333387
132,895.9,0.004675419521112705
133,904.1899999999999,0.004786793834825235
134,914.6600000000001,0.006281705407149744
135,925.25,0.03351568559921436
136,935.96,0.0725918944110191
137,944.62,0.13771142013559695
138,954.992586,0.19357336650659354
139,955.5600000000001,0.19662974255662496
140,964.4,0.22313614294711975
141,975.57,0.03839586172108207
142,984.6,0.1895149877308296
143,995.9999999999999,0.20305792488599253
144,1005.21,0.30158995832450575
145,1014.51,0.2933777754774019
146,1023.9,0.13000337634468084
147,1035.76,0.2087224302622451
148,1045.34,0.4029922967487768
149,1055.01,0.39747344694969133
150,1064.78,0.31504687905547574
151,1074.63,0.378709096685156
152,1084.57,0.30018209802921914
153,1094.6100000000001,0.40390988127815214
154,1096.4782,0.40121484932967394
155,1104.73,0.389307769860786
156,1114.96,0.37523147615332825
157,1125.27,0.33831393713828534
158,1135.69,0.4357508358253127
159,1146.19,0.3974321892047549
160,1154.14,0.42583338676347543
161,1164.82,0.44078053820085095
162,1175.6,0.3036070330037449
163,1183.74,0.43173602295695057
164,1194.7,0.30081211581777784
165,1205.75,0.21848125770757176
166,1214.1100000000001,0.15190312306491813
167,1225.3400000000001,0.30288596301264537
168,1233.84,0.4583312490817176
169,1245.25,0.5048481870873782
170,1253.89,0.4843468938681763
171,1258.92541,0.45638353898621054
172,1265.49,0.41993210653604635
173,1274.2600000000002,0.5446762598244173
174,1286.05,0.5729735347696729
175,1294.96,0.45412589369776696
176,1303.94,0.45202925544572253
177,1316.01,0.5690271416704246
178,1325.1299999999999,0.5459372090581033
179,1334.31,0.4854753788628062
180,1343.56,0.5796073514873707
181,1355.99,0.563817252214218
182,1365.3899999999999,0.5060080308813429
183,1374.86,0.5322872123683294
184,1384.39,0.5396930962723403
185,1393.98,0.46469938259337523
186,1403.6499999999999,0.48212767213710916
187,1413.3799999999999,0.5060070640978672
188,1426.45,0.5201852906063059
189,1436.3400000000001,0.5213741890124619
190,1442.97,0.5509869560936363
191,1445.43977,0.5576281410308458
192,1446.3000000000002,0.559941284669342
193,1456.3200000000002,0.544688923442804
194,1466.4199999999998,0.5048476649210439
195,1476.5800000000002,0.5071804084278676
196,1483.4,0.5177899390102039
197,1493.68,0.5286306865741949
198,1504.0300000000002,0.5013748365048666
199,1510.98,0.44789577148246745
200,1517.95,0.4799209071362628
201,1524.96,0.4679169441424472
202,1535.53,0.4066284015112589
203,1546.17,0.4407403612467514
204,1553.31,0.41994740264820035
205,1564.08,0.43469336677895737
206,1574.9199999999998,0.46577013327639516
207,1585.83,0.4888432021405139
208,1596.83,0.500217474047508
209,1604.2,0.49222772322519415
210,1615.3200000000002,0.49449509918935547
211,1626.51,0.4711718775201977
212,1634.02,0.5025325314312455
213,1645.35,0.5118721144954494
214,1656.75,0.4766255999263343
215,1659.58691,0.49278032223037477
216,1664.4,0.5201893842227877
217,1672.08,0.46577888046166893
218,1675.9399999999998,0.5298545335192315
219,1683.6699999999998,0.5510037421034178
220,1695.34,0.5178097234976553
221,1703.17,0.500234256772452
222,1714.98,0.47772857273354397
223,1726.8600000000001,0.47663990597806327
224,1734.83,0.5107113738197147
225,1746.8600000000001,0.4990945441001496
226,1754.92,0.5335478341633504
227,1763.0199999999998,0.49112813410279527
228,1775.2399999999998,0.5037205512953901
229,1783.44,0.5142640759254454
230,1795.8,0.5497644276848946
231,1804.0900000000001,0.5459894745364995
232,1816.59,0.5072224608628034
233,1824.98,0.5178410324050187
234,1833.4,0.500269111354417
235,1846.11,0.46048964953100274
236,1854.6299999999999,0.46582585317101155
237,1863.19,0.48329836668726445
238,1876.11,0.5190420567141322
239,1884.77,0.48108179492099556
240,1893.4699999999998,0.46476444300410313
241,1905.46072,0.48992360513240796
242,1906.59,0.49229244417608825
243,1915.3899999999999,0.4766836434465915
244,1924.23,0.465832029986506
245,1933.1200000000001,0.47557770061318483
246,1946.52,0.5048959358659966
247,1955.5,0.474480377848851
248,1969.05,0.5202343653619553
249,1978.1399999999999,0.533559472335691
250,1982.7,0.5083827210485882
251,1996.4499999999998,0.49566434490874944
252,2005.6599999999999,0.5083777136907193
253,2014.92,0.4945219665594533
254,2024.2199999999998,0.5130776066975987
255,2033.5600000000002,0.4922546341051556
256,2042.95,0.5118904455994766
257,2057.11,0.4832612389711045
258,2066.61,0.48885181545630685
259,2076.15,0.5298600792109205
260,2085.73,0.5298566302349456
261,2095.36,0.502532565345735
262,2105.0299999999997,0.5048487877259357
263,2114.74,0.5118701973755477
264,2124.51,0.5177876879292768
265,2134.31,0.48323726893506447
266,2144.16,0.49791313402761633
267,2154.06,0.5153985832069324
268,2164.0,0.49905541965565997
269,2173.9900000000002,0.4967573401911517
270,2184.03,0.49220064481340764
271,2187.7616199999998,0.5007849226533654
272,2194.11,0.5153924680723423
273,2204.23,0.5025121360231196
274,2214.41,0.47769571919890136
275,2224.63,0.46575621252468624
276,2234.9,0.497909118537975
277,2245.22,0.4788042372387675
278,2255.58,0.45726166608956315
279,2265.99,0.4668426076278626
280,2276.45,0.4810191618536659
281,2286.96,0.49450842876697304
282,2297.51,0.46482390583028327
283,2302.81,0.47134125070569033
284,2313.44,0.4523232480690067
285,2324.12,0.3644128581198269
286,2334.84,0.41943357832065015
287,2345.62,0.40437171374647807
288,2356.45,0.4414348618598098
289,2367.33,0.40363062266064537
290,2372.7799999999997,0.4178588055985639
291,2383.73,0.3838445841619048
292,2394.74,0.4094959779502504
293,2405.79,0.395694081888599
294,2416.9,0.4059354010519522
295,2422.47,0.43500951443988
296,2433.65,0.42035845136573863
297,2444.88,0.4433168009791011
298,2456.17,0.4383520658174681
299,2467.5,0.43444484080583823
300,2473.19,0.4187959846437752
301,2484.6099999999997,0.4247243824696522
302,2496.08,0.39285389298303314
303,2507.6,0.4490636161839178
304,2511.88643,0.40883618751741696
305,2513.38,0.39481875718539594
306,2519.17,0.4022074885613048
307,2524.98,0.3895030179730543
308,2536.63,0.3968394738503146
309,2542.4799999999996,0.39325069933374573
310,2554.22,0.4224332463722896
311,2566.01,0.41007908850043545
312,2577.85,0.43347832571818323
313,2583.7900000000004,0.4275872423628979
314,2595.7200000000003,0.4208613707419293
315,2607.7,0.4076257942105626
316,2613.71,0.40023770398072006
317,2625.7799999999997,0.422101318610637
318,2637.9,0.43905732833015587
319,2643.98,0.4781391312257561
320,2656.1800000000003,0.4916584330886381
321,2662.31,0.4433426310738403
322,2674.59,0.46435462508008546
323,2686.94,0.46554111221177347
324,2693.13,0.441599204304498
325,2705.5600000000004,0.4561821835795491
326,2718.05,0.43078655696212265
327,2724.32,0.43084414119821035
328,2736.8900000000003,0.45126010672414696
329,2743.2000000000003,0.38951018703191637
330,2755.86,0.4014489437191365
331,2762.2200000000003,0.41848011911650784
332,2774.97,0.43830586696501156
333,2787.78,0.4072986089210377
334,2794.2,0.3296284784259314
335,2807.1000000000004,0.35165991154324105
336,2813.57,0.43264877613773667
337,2826.5600000000004,0.4605100004163299
338,2833.0699999999997,0.4449479610825071
339,2846.15,0.43394237652238393
340,2852.71,0.41352743227816313
341,2865.88,0.45878213887932345
342,2872.49,0.45884208972470464
343,2884.0315,0.45711939998583057
344,2885.74,0.4568645528237033
345,2892.4,0.4548329394381153
346,2912.45,0.49546549914066207
347,2932.63,0.4766664585819286
348,2952.96,0.46817561772171784
349,2966.59,0.47810899032748905
350,2987.16,0.47942204898491475
351,3007.86,0.4851815073810603
352,3028.71,0.4853996654757286
353,3049.71,0.4867293232689197
354,3070.84,0.49146138080083057
355,3092.13,0.49508393801116574
356,3113.5600000000004,0.4964507949401222
357,3127.94,0.48866516603850735
358,3149.6200000000003,0.4922725224650018
359,3171.4500000000003,0.494776578590019
360,3193.43,0.46840163441355903
361,3208.17,0.4861270047883989
362,3230.4100000000003,0.4623427600893784
363,3252.8,0.49335091508888074
364,3267.82,0.5108481849009631
365,3290.47,0.507573139377905
366,3311.31121,0.5077957631139575
367,3313.28,0.5078167218482407
368,3320.92,0.5067315283152213
369,3328.57,0.5174230343979962
370,3336.24,0.5307727397123603
371,3343.93,0.49544264425831325
372,3351.6400000000003,0.5058916480358551
373,3359.37,0.511826651044986
374,3367.1099999999997,0.5048936536699112
375,3374.88,0.46268025514222
376,3382.6600000000003,0.4779115562303232
377,3390.45,0.5169036569342209
378,3398.27,0.5122434564855021
379,3406.1000000000004,0.5006737556525777
380,3413.9599999999996,0.5077174536670368
381,3421.8199999999997,0.5256478516814957
382,3429.71,0.5125868485433382
383,3437.6200000000003,0.5221951446367697
384,3445.5400000000004,0.4623044403459956
385,3453.4900000000002,0.5308607349026049
386,3461.45,0.48535832907500875
387,3469.43,0.49789322247900153
388,3477.42,0.47777061549878874
389,3485.44,0.49236270736595944
390,3493.48,0.48792989846471907
391,3501.5299999999997,0.4913896891792732
392,3509.6,0.4937439791254163
393,3517.69,0.4792732683031483
394,3525.8,0.4916416567124693
395,3533.9300000000003,0.5160726443533793
396,3542.0800000000004,0.5330716312258781
397,3550.2400000000002,0.5307103177141715
398,3558.42,0.5175350034340538
399,3566.63,0.5284587880013195
400,3574.85,0.47544517218437976
401,3583.0899999999997,0.47226055559902896
402,3591.35,0.4428556382452671
403,3599.6299999999997,0.5132350201230941
404,3607.93,0.4846180012325102
405,3610.12,0.5184266170915007
406,3612.86,0.47967151181918743
407,3615.59,0.5024057069310798
408,3618.3199999999997,0.5167975020429719
409,3621.05,0.4947473971548642
410,3623.79,0.48844259188255096
411,3626.5199999999995,0.4961114869944432
412,3629.25,0.5049709821063355
413,3631.98,0.5254379772182277
414,3634.7200000000003,0.5478541719459145
415,3637.45,0.5102748670578067
416,3640.1800000000003,0.530540562169699
417,3642.92,0.5372087568973858
418,3645.6499999999996,0.552511052009278
419,3648.38,0.5461652471211702
420,3651.11,0.5533351422330626
421,3653.8500000000004,0.5308532369607493
422,3656.58,0.5605817320726415
423,3659.31,0.5388643271845338
424,3662.04,0.5166566222964262
425,3664.78,0.5415326170241128
426,3667.5099999999998,0.5220912121360051
427,3670.2400000000002,0.5274492072478973
428,3672.98,0.5161547019755841
429,3675.71,0.5326911970874764
430,3678.44,0.5364909921993686
431,3681.17,0.5281492873112609
432,3683.9100000000003,0.5253021820389476
433,3686.64,0.5072525771508399
434,3689.3700000000003,0.5034277722627322
435,3692.1,0.5106239673746243
436,3694.8399999999997,0.5311231621023111
437,3697.57,0.5352380572142034
438,3700.3,0.5325951523260957
439,3703.0299999999997,0.5395550474379879
440,3705.77,0.5314293421656747
441,3708.5,0.531473737277567
442,3711.23,0.5118485323894592
443,3713.97,0.556087827117146
444,3716.7,0.5471422222290382
445,3719.4300000000003,0.5837861173409304
446,3722.16,0.7045016124528227
447,3724.9,0.8735336071805095
448,3727.63,1.2194135022924018
449,3730.3599999999997,1.519581397404294
450,3733.09,1.3556252925161865
451,3735.83,0.967653687243873
452,3738.5600000000004,0.6987132823557654
453,3741.29,0.6011444774676575
454,3744.0299999999997,0.5863744721953442
455,3746.76,0.6048105673072366
456,3749.49,0.5877327624191289
457,3752.22,0.5458992575310211
458,3754.96,0.5676325522587078
459,3757.69,0.6094937473706001
460,3760.42,0.6318429424824924
461,3763.15,0.6285697375943846
462,3765.89,0.6199710323220713
463,3768.62,0.6148246274339637
464,3771.35,0.578794722545856
465,3774.0800000000004,0.5693239176577481
466,3776.82,0.6179837123854348
467,3779.5499999999997,0.6841630074973272
468,3782.28,0.7327998026092195
469,3785.02,0.7614041973369061
470,3787.7499999999995,0.7634535924487984
471,3790.48,0.7422878875606908
472,3793.21,0.697093082672583
473,3795.9500000000003,0.6478678774002696
474,3798.68,0.6109191725121619
475,3801.41,0.5838356676240543
476,3801.8939600000003,0.5855940193025729
477,3804.14,0.5937544807163493
478,3806.88,0.6589938973787761
479,3809.61,0.7294974143453546
480,3812.34,0.7465682313119332
481,3815.08,0.74228474797436
482,3817.81,0.7540945649409385
483,3820.54,0.756152681907517
484,3823.2699999999995,0.7191776988740956
485,3826.01,0.6964151155365224
486,3828.74,0.6671872325031009
487,3831.4700000000003,0.6309737494696795
488,3834.2,0.5901644664362581
489,3836.9399999999996,0.5515755830986848
490,3839.67,0.5636915000652634
491,3842.4,0.6128096170318419
492,3845.13,0.6655782339984204
493,3847.87,0.7189646506608472
494,3850.6,0.7605984676274258
495,3853.33,0.7895219845940044
496,3856.0699999999997,0.8096437012564311
497,3858.8,0.8111942182230097
498,3861.53,0.8211921351895882
499,3864.2599999999998,0.8362583521561667
500,3867.0,0.8501035688185936
501,3869.73,0.8452551857851721
502,3872.4599999999996,0.8364411027517507
503,3875.19,0.8207817197183291
504,3877.93,0.7853783363807559
505,3880.6600000000003,0.7526140533473346
506,3883.39,0.713625770313913
507,3886.1299999999997,0.6666590869763399
508,3888.86,0.6402848039429184
509,3891.5899999999997,0.621500020909497
510,3894.32,0.6391047378760756
511,3897.06,0.6601899545385023
512,3899.7900000000004,0.692133271505081
513,3902.52,0.7385553884716595
514,3905.25,0.775190905438238
515,3907.9900000000002,0.7990944221006648
516,3910.72,0.8096962390672433
517,3913.45,0.8243598560338219
518,3916.1800000000003,0.8452649730004004
519,3918.92,0.8472400896628272
520,3921.6499999999996,0.8362026066294057
521,3924.38,0.8104326235959842
522,3927.12,0.7855249402584111
523,3929.85,0.7260705572249896
524,3932.58,0.6829327741915682
525,3935.3100000000004,0.6414932911581467
526,3938.05,0.6410181078205734
527,3940.7799999999997,0.7072411247871521
528,3943.51,0.7586967417537306
529,3946.24,0.7950608587203091
530,3948.9800000000005,0.8107707753827359
531,3951.71,0.8222742923493145
532,3954.44,0.830714109315893
533,3957.1800000000003,0.7811471259783198
534,3959.91,0.7318295429448983
535,3962.64,0.6870549599114769
536,3965.37,0.6358897768780555
537,3968.11,0.5749787935404823
538,3970.84,0.5397544105070609
539,3973.57,0.5563259274736394
540,3976.2999999999997,0.5974518444402179
541,3979.04,0.6456915611026447
542,3981.77,0.7209221780692232
543,3984.5000000000005,0.7795995950358018
544,3987.23,0.7968017120023803
545,3989.97,0.8254235286648072
546,3992.7000000000003,0.8517821456313857
547,3995.43,0.8609659625979642
548,3998.1699999999996,0.875992979260391
549,4000.9,0.8801957962269695
550,4003.63,0.876783013193548
551,4006.36,0.8853627301601266
552,4009.1,0.8952511468225535
553,4011.83,0.906106863789132
554,4014.56,0.8828229807557104
555,4017.29,0.9174890977222891
556,4020.03,0.8998907143847158
557,4022.76,0.9261531313512945
558,4025.49,0.9073335483178729
559,4028.23,0.8956876649802998
560,4030.96,0.8963015819468784
561,4033.6899999999996,0.8999792989134568
562,4036.42,0.8992802158800354
563,4039.16,0.8980513325424622
564,4041.8900000000003,0.9178358495090407
565,4044.62,0.9144229664756193
566,4047.35,0.9158246834421978
567,4050.09,0.9180098001046246
568,4052.8199999999997,0.8901740170712031
569,4055.55,0.9090831340377817
570,4058.28,0.9150369510043602
571,4061.02,0.904616567666787
572,4063.75,0.8809824846333656
573,4066.48,0.8836098015999441
574,4069.2200000000003,0.880542718262371
575,4071.95,0.8668267352289495
576,4074.68,0.893150452195528
577,4077.4100000000003,0.8625307691621065
578,4080.15,0.8466045858245334
