,lambda (Angstroms),Total Flux (erg/s/cm^2/Angstrom)
0,100.03,0.0011100804861295457
1,101.89,0.0013352250778922443
2,104.02,0.0015921312697656565
3,104.712855,0.0016759236104421766
4,105.95,0.0015529785167118606
5,107.92,0.0013576394178843453
6,109.92999999999999,0.0011620442229892673
7,114.05,0.0007541340880301997
8,118.06,0.0003568572797569323
9,120.22644299999999,0.00018369369838942454
10,121.09,0.0001972042833811529
11,125.06,0.000192380324406021
12,127.09,0.0001886992660635732
13,127.97,0.00018879732845699485
14,130.95000000000002,0.0001823684442892635
15,131.85999999999999,0.00019470129744609738
16,134.0,0.0001900245719028272
17,137.12,0.0002019906112976857
18,138.038426,0.00020097025698275533
19,139.98999999999998,0.00020753188977521092
20,142.93,0.0004059687146257811
21,146.93,0.0007594085463952643
22,151.05,0.0007951249261178321
23,154.92000000000002,0.0008401686476048071
24,158.489319,0.000882876004223633
25,158.9,0.0008877537735330566
26,161.85000000000002,0.0009235639826940051
27,166.0,0.0009803250430390684
28,169.86999999999998,0.0010245754581078381
29,173.03,0.0010638043262260067
30,177.06,0.0011095082814526584
31,179.92999999999998,0.001144606120534666
32,181.970086,0.001169593860907996
33,182.01999999999998,0.0011702218275725972
34,185.82999999999998,0.001219353333044637
35,191.02999999999997,0.0012793983903818045
36,194.14000000000001,0.0013238012150584568
37,198.20000000000002,0.0013732639636717067
38,201.89,0.0014243237524359659
39,205.17000000000002,0.0014638743424486406
40,208.929613,0.0014668057778765582
41,209.95,0.0014680205228822776
42,215.83,0.0015997288954362027
43,219.84,0.0016571377328411757
44,222.9,0.0016774894267212795
45,227.04,0.0017414931890296554
46,230.2,0.002581398055912377
47,233.94000000000003,0.004304873126210282
48,239.88329199999998,0.005199205224704351
49,239.94000000000003,0.005207687650768127
50,246.1,0.004893198434413411
51,251.83,0.005061806397122415
52,257.11,0.004193843640246944
53,260.08,0.004810149589504491
54,263.7,0.004976521244828505
55,269.22,0.00489543227173142
56,274.23,0.004814987883105262
57,275.42287,0.004791180194749343
58,278.68,0.004728901288365564
59,283.86,0.004666459462649302
60,289.81,0.004389032635813054
61,295.88,0.004391763704906161
62,300.68,0.00423622754208028
63,307.69,0.0042100191292866514
64,316.227766,0.004173218019005912
65,317.77,0.004165414890736278
66,328.18,0.00403117532001371
67,338.15,0.003874858127880761
68,347.62,0.0037158333205087415
69,357.35999999999996,0.0035955679853658207
70,363.078055,0.003532407372552792
71,365.69,0.003505029419622209
72,375.07,0.003381366396234729
73,384.69000000000005,0.0031600857070036453
74,394.56,0.003140766824185475
75,404.67999999999995,0.003051543747780219
76,414.11,0.0029447790856753212
77,416.86938299999997,0.002905388862943724
78,421.8,0.0028345166468624282
79,429.65000000000003,0.0027407480572749837
80,440.67,0.0026506636818286605
81,450.93,0.0025404795736544976
82,460.37,0.002445966832800297
83,470.01,0.002355121758453423
84,478.630092,0.002292249411360905
85,479.86,0.002282857198485627
86,489.9,0.0021704265574712467
87,500.15999999999997,0.0021152151295023677
88,505.95,0.002052964054654433
89,511.80999999999995,0.0020797883657755214
90,520.13,0.0020180282409508555
91,529.8,0.0019270135598144949
92,539.65,0.0018233908711699084
93,549.5408739999999,0.001749881169660263
94,549.6800000000001,0.0017488654263061467
95,559.9,0.0017285174917701378
96,570.31,0.001693095530075436
97,579.58,0.0016176187313328915
98,590.35,0.0015737479813375083
99,599.9399999999999,0.0014934739263276918
100,609.69,0.001321603743184239
101,619.6,0.00142629543190715
102,629.67,0.001368847992496425
103,630.957344,0.0013653055228752295
104,639.9000000000001,0.0013420265414199957
105,650.3000000000001,0.0012953459292709359
106,657.8299999999999,0.0012473604322053185
107,665.44,0.0012424327612000927
108,674.7,0.0012129088776904491
109,685.66,0.001147704047964132
110,695.1999999999999,0.0011408200556658598
111,704.8699999999999,0.0010772631557157243
112,716.33,0.0010782109888668563
113,724.43596,0.00105577460677805
114,726.29,0.001050574645394731
115,734.6999999999999,0.0010255563315244825
116,744.9200000000001,0.0009924567889853695
117,755.28,0.000964748543123803
118,765.79,0.0008796647794167505
119,774.66,0.0009137620974870116
120,785.44,0.0008767470416580842
121,794.53,0.0008656643402216326
122,805.58,0.0008492589922708304
123,814.91,0.0008294284422816011
124,824.3499999999999,0.0008119004325390153
125,831.763771,0.0007725543424908813
126,835.82,0.0007504010580209932
127,845.49,0.0007676164215839139
128,855.2800000000001,0.0007467151847980809
129,865.1899999999999,0.0007311344476634941
130,875.21,0.0007158094685425495
131,885.34,0.0006992547474352472
132,895.59,0.0006830611259791913
133,905.9599999999999,0.0006627925041743813
134,914.35,0.0007372087381240096
135,924.9300000000001,0.0012625407907088805
136,935.64,0.0018771442845826015
137,944.3,0.0026567487427475336
138,954.992586,0.0032182093490740037
139,955.24,0.003231222940826326
140,964.07,0.0035645752295237277
141,975.24,0.0014513813738895236
142,984.26,0.0032012784842010257
143,995.66,0.0031649067810470485
144,1004.8700000000001,0.003940942712972651
145,1014.17,0.0037646931393470373
146,1025.91,0.0019744687485551346
147,1035.4099999999999,0.0030090388292601535
148,1044.99,0.004572492571697425
149,1054.66,0.004458403808583481
150,1064.4099999999999,0.0037552827072017897
151,1074.26,0.004200623932985415
152,1084.2,0.003434689653217824
153,1094.23,0.004248824867899017
154,1096.4782,0.004208628592536661
155,1104.3600000000001,0.004067426594213809
156,1114.58,0.003938474508768617
157,1124.89,0.003568899711220678
158,1135.3,0.004188523678003021
159,1145.8,0.0038744169326826185
160,1153.75,0.003981981696940028
161,1164.42,0.004027279050981104
162,1175.2,0.0029902316457854905
163,1186.07,0.0038194715284871304
164,1194.29,0.002948526156436301
165,1205.34,0.0023509326149324483
166,1213.7,0.001548630912944013
167,1224.93,0.002757681947234668
168,1236.26,0.0036707787458556047
169,1244.83,0.003913710048960762
170,1256.35,0.0037721248998092336
171,1258.92541,0.0036557967859969964
172,1265.0600000000002,0.0033790489056600473
173,1273.83,0.004022340565996579
174,1285.6100000000001,0.004125091435867086
175,1294.5300000000002,0.003449657654818268
176,1303.5,0.0033947510599743325
177,1315.5600000000002,0.003967600972592186
178,1324.68,0.003798455936362901
179,1333.8600000000001,0.0034498481235794754
180,1346.1999999999998,0.003877638078944675
181,1355.53,0.0037551828247758996
182,1364.93,0.003426349831293961
183,1374.39,0.0035137540612578825
184,1383.9199999999998,0.00351378155190864
185,1393.51,0.003041600266005258
186,1406.4099999999999,0.003083701306865151
187,1416.1499999999999,0.0032432435795764184
188,1425.97,0.0032505041502154997
189,1435.85,0.003235830944300441
190,1442.4799999999998,0.003341148635067967
191,1445.43977,0.003361628289171147
192,1445.81,0.0033641898147302738
193,1455.83,0.0032656181332116805
194,1465.92,0.0030557706704848744
195,1476.08,0.0030279514265498537
196,1486.3100000000002,0.003041901401406619
197,1496.62,0.0030488826263111407
198,1503.5200000000002,0.002899118192930074
199,1510.46,0.002639584884572884
200,1517.4399999999998,0.0027693997012395726
201,1524.44,0.0026945435804182002
202,1535.01,0.0023869736179779285
203,1545.65,0.0024872858743294423
204,1556.36,0.002370739349472742
205,1563.55,0.0024255368225147896
206,1574.3799999999999,0.0025449346727297235
207,1585.3,0.0026157558042483823
208,1596.29,0.002651953154558828
209,1603.65,0.002574302158952356
210,1614.77,0.0025567009155904046
211,1625.9599999999998,0.0024424548910202395
212,1633.47,0.0025509113642533097
213,1644.79,0.0025626607460107476
214,1656.1899999999998,0.002398293377815941
215,1659.58691,0.002471301592905113
216,1663.8400000000001,0.002562795074728285
217,1671.52,0.0023230293757149777
218,1675.37,0.002628348254464817
219,1683.1,0.002689330696733975
220,1694.77,0.00253438307206141
221,1706.52,0.0024660602734407904
222,1714.39,0.0024050399113008515
223,1726.28,0.002405278308271135
224,1734.25,0.002564412228696127
225,1746.27,0.00250673259300082
226,1754.3300000000002,0.0026909545677342504
227,1766.49,0.0024394171276298474
228,1774.64,0.002530421156671715
229,1786.9399999999998,0.002601020912158215
230,1795.19,0.0028372962237650135
231,1803.48,0.0027795734483977846
232,1815.98,0.0026135937690141466
233,1824.36,0.0026559000479553555
234,1837.01,0.0025785027924191137
235,1845.4799999999998,0.00227455212566876
236,1854.0,0.002441436600200872
237,1866.86,0.002632706138050985
238,1875.47,0.002724681666891535
239,1884.1299999999999,0.0025972793370145505
240,1892.8300000000002,0.002657466920163538
241,1905.46072,0.0026989696874999978
242,1905.9499999999998,0.0027005518287001895
243,1914.74,0.002694133204785271
244,1923.58,0.0025213241097445565
245,1936.92,0.002238952613382211
246,1945.8600000000001,0.002857900576089905
247,1954.84,0.002774016361896962
248,1968.3899999999999,0.0031308926868062743
249,1977.47,0.003025057530361739
250,1982.03,0.0031235253636891537
251,1995.77,0.0031158840983204414
252,2004.98,0.003045123116948837
253,2014.24,0.0030657556644514378
254,2023.53,0.00285564732927856
255,2032.87,0.0031941525229798864
256,2046.9699999999998,0.003436529665505444
257,2056.41,0.0032599219169551787
258,2065.91,0.0031931374030539582
259,2075.44,0.0035638260064772605
260,2080.23,0.005143137072626014
261,2085.02,0.005970645138774766
262,2094.65,0.005521949799946477
263,2104.31,0.00528611357844271
264,2114.03,0.005807333591587987
265,2123.79,0.005261344427832629
266,2133.59,0.004911055087176633
267,2143.44,0.006023844275394842
268,2153.33,0.006051464286712414
269,2163.27,0.00533312382690419
270,2173.25,0.005419165190195328
271,2183.29,0.006482096788135512
272,2187.7616199999998,0.006515305212015547
273,2193.36,0.006557177550592628
274,2203.49,0.006306198183696711
275,2213.66,0.005047034755134869
276,2223.88,0.005648424499490618
277,2234.14,0.0072720991821804415
278,2244.4500000000003,0.0068824000377878565
279,2254.81,0.0054079530663128615
280,2265.22,0.00514180626775546
281,2275.68,0.005636527642115649
282,2286.18,0.007240104954809913
283,2296.73,0.006094308440421767
284,2307.33,0.0072555950989512145
285,2312.65,0.006249334897382974
286,2323.33,0.004955806432580567
287,2334.05,0.004500163906112234
288,2344.83,0.0032203207871450107
289,2355.65,0.005738112606511861
290,2366.52,0.0035046805987963025
291,2377.4500000000003,0.004488550998581854
292,2382.93,0.002806862550349908
293,2393.93,0.003456247592220088
294,2404.97,0.003432418572424342
295,2416.08,0.0040196221947132234
296,2427.23,0.006611388755336179
297,2432.82,0.006626289887522934
298,2444.05,0.007834540324814038
299,2455.33,0.008239523935022731
300,2466.67,0.007244565952732535
301,2472.35,0.006399654196170955
302,2483.77,0.004264322090548906
303,2495.23,0.004994415923260931
304,2506.75,0.007634169163474065
305,2511.88643,0.003983221902806811
306,2512.53,0.0035257548126842934
307,2518.32,0.002805004245275597
308,2524.1200000000003,0.0031083635870769034
309,2535.77,0.0048453138167295256
310,2547.4799999999996,0.005189613501642163
311,2553.35,0.008878049207913484
312,2565.1400000000003,0.00669248916650614
313,2576.98,0.008457021671148805
314,2582.92,0.0075218667418901425
315,2594.84,0.006751453520212827
316,2606.82,0.005814867753795525
317,2612.83,0.005220357189006878
318,2624.89,0.007196627696269593
319,2637.0,0.012037309749582321
320,2643.08,0.01634174454926369
321,2655.2799999999997,0.021932013785466435
322,2667.54,0.014263732476929197
323,2673.69,0.01629734664108058
324,2686.0299999999997,0.01857683460622336
325,2692.2200000000003,0.013775468407214754
326,2704.65,0.016862115555247553
327,2717.1299999999997,0.012332222249330362
328,2723.4,0.010283615324001774
329,2735.96,0.012790881291764603
330,2742.27,0.007053821003276023
331,2754.93,0.009572282063138874
332,2767.6499999999996,0.012523303578261737
333,2774.03,0.013509315654243174
334,2786.83,0.008072146443046057
335,2793.25,0.0034862351558675024
336,2806.15,0.004254252036770407
337,2812.6200000000003,0.011980725295641863
338,2825.6,0.017586587450224785
339,2832.11,0.016794538345936253
340,2845.19,0.012742399592619198
341,2851.74,0.007442009125170672
342,2864.91,0.01725682055474364
343,2878.1299999999997,0.022170650530366615
344,2884.0315,0.02023095876691447
345,2884.77,0.019988236813433355
346,2898.08,0.02363967434038509
347,2911.46,0.03151159185433056
348,2931.64,0.027630678104810357
349,2951.96,0.025840854329277622
350,2972.42,0.027301040527732356
351,2993.0299999999997,0.027673596698316524
352,3006.84,0.028182824132366377
353,3027.68,0.029568680260215675
354,3048.67,0.03095412636019441
355,3069.7999999999997,0.03307970243416061
356,3091.08,0.03261863848025626
357,3112.51,0.03666837449848133
358,3126.88,0.034296321828481066
359,3148.55,0.034049857802113226
360,3170.3700000000003,0.03723674374787483
361,3192.35,0.032500659663907826
362,3207.09,0.03612153692516016
363,3229.32,0.03059766279474221
364,3251.7000000000003,0.0417340486364537
365,3266.71,0.048236115847539014
366,3289.35,0.04723403164094152
367,3311.31121,0.044975845201561816
368,3312.1600000000003,0.044888564545688917
369,3319.7900000000004,0.04237440744505469
370,3327.44,0.04276050027338341
371,3335.11,0.04875096303067508
372,3342.8,0.04384868571692971
373,3350.5099999999998,0.04719617833214729
374,3358.23,0.04862461091184633
375,3365.97,0.04091105342050833
376,3373.7299999999996,0.03410584585813328
377,3381.5099999999998,0.043625878224721186
378,3389.31,0.04738876052027204
379,3397.1200000000003,0.04146292278030437
380,3404.95,0.04927026496929965
381,3412.7999999999997,0.04390994708725788
382,3420.67,0.04597358913417906
383,3428.55,0.046499031145581717
384,3436.46,0.0462817830504288
385,3444.38,0.03239278491975736
386,3452.3199999999997,0.04923803671804887
387,3460.2699999999995,0.04500607848082185
388,3468.25,0.04552321013703926
389,3476.25,0.04316982172221963
390,3484.26,0.04625217327188146
391,3492.29,0.043561334750506255
392,3500.34,0.040744266158094
393,3508.4100000000003,0.05023234749464468
394,3516.5,0.041778768760158326
395,3524.61,0.04486620995463492
396,3532.73,0.049985511113592986
397,3540.88,0.05281831216599548
398,3549.04,0.05555759318287945
399,3557.22,0.04860788412872637
400,3565.42,0.053536615003536236
401,3573.6400000000003,0.03764031580730907
402,3581.88,0.04252082654004483
403,3590.13,0.03233088723726209
404,3598.4100000000003,0.05063667782792376
405,3606.7,0.04639126838306691
406,3615.02,0.044707898831654484
407,3623.3500000000004,0.04133891924472354
408,3631.71,0.06342103955123701
409,3640.08,0.05178628982223197
410,3648.47,0.049111230022189874
411,3656.88,0.06068715015111073
412,3665.31,0.06310210020899454
413,3673.7599999999998,0.05767740019584129
414,3682.23,0.053948970111651
415,3690.7200000000003,0.048634159956423666
416,3699.22,0.0585965997656778
417,3707.75,0.04918636946837636
418,3716.3,0.06423288910003787
419,3724.8700000000003,0.03654358866066233
420,3733.45,0.05428401818576827
421,3742.06,0.044530467604318634
422,3750.6800000000003,0.03737986698735048
423,3759.3300000000004,0.05991229626382674
424,3768.0000000000005,0.051343665469265956
425,3776.68,0.058671434639186656
426,3785.3900000000003,0.06876216370255177
427,3794.1200000000003,0.05264337269487984
428,3801.8939600000003,0.04326960373546076
429,3802.86,0.042104762366627344
430,3811.6299999999997,0.058915147707301836
431,3820.42,0.0500246029917407
432,3829.22,0.039011818248061735
433,3838.05,0.03185544342002933
434,3846.8999999999996,0.05176410853576129
435,3855.77,0.05662068359525762
436,3864.65,0.05045885862663612
437,3873.56,0.04987457357366118
438,3882.4900000000002,0.0494135784644506
439,3884.16,0.047215613768775165
440,3885.9300000000003,0.07078854879192155
441,3887.7099999999996,0.04834676378695013
442,3889.48,0.04734440881009652
443,3891.26,0.052745113805125095
444,3893.04,0.05903804880015367
445,3894.8100000000004,0.05961168382330006
446,3896.5899999999997,0.053725978818328635
447,3898.36,0.05364295384147503
448,3900.1400000000003,0.0462857788365036
449,3901.9199999999996,0.04864685383153218
450,3903.69,0.05569053885467857
451,3905.47,0.07256529384970714
452,3907.2400000000002,0.06310416887285354
453,3909.0200000000004,0.06628265386788211
454,3910.7999999999997,0.060809718862910686
455,3912.57,0.07418408388605709
456,3914.35,0.06679209888108566
457,3916.1200000000003,0.06440676390423204
458,3917.9,0.06733599889926062
459,3919.68,0.049123953894289196
460,3921.4500000000003,0.05332659891743558
461,3923.2299999999996,0.05201040391246416
462,3925.0,0.04169986893561055
463,3926.78,0.041123453930639126
464,3928.56,0.0370279189256677
465,3930.3300000000004,0.029855863948814093
466,3932.1099999999997,0.031002868943842667
467,3933.88,0.032777373966989064
468,3935.6600000000003,0.024499378962017634
469,3937.44,0.044299343957046204
470,3939.21,0.038563918980192596
471,3940.99,0.04312817397522117
472,3942.76,0.05143957899836756
473,3944.5400000000004,0.06085795399339614
474,3946.3199999999997,0.062109368988424715
475,3948.09,0.06173719401157111
476,3949.87,0.05616744900659968
477,3951.6400000000003,0.05552426402974608
478,3953.42,0.06305306902477464
479,3955.2,0.06496917401980323
480,3956.9700000000003,0.05640325904294962
481,3958.7499999999995,0.047464774037978184
482,3960.52,0.04106176906112458
483,3962.3,0.042026694056153155
484,3964.08,0.04279842905118173
485,3965.8500000000004,0.02506452407432812
486,3967.6299999999997,0.024358579069356696
487,3969.4,0.027036144092503087
488,3971.1800000000003,0.037703299087531665
489,3972.96,0.04320314408256024
490,3974.73,0.05904865910570663
491,3976.5099999999998,0.0641116741007352
492,3978.28,0.06715914912388159
493,3980.0600000000004,0.07661201411891017
494,3981.8399999999997,0.06694721911393875
495,3983.61,0.07127585413708513
496,3985.39,0.08388061913211371
497,3987.1600000000003,0.0852614441552601
498,3988.94,0.08561490915028867
499,3990.72,0.07654780414531726
500,3992.4900000000002,0.08365851916846365
501,3994.27,0.08224571416349222
502,3996.04,0.0869848591866386
503,3997.82,0.08601159418166719
504,3999.6,0.08192393917669577
505,4001.3700000000003,0.09079062419984216
506,4003.1499999999996,0.09659026919487074
507,4004.92,0.09016096421801711
508,4006.7000000000003,0.0893967492130457
509,4008.48,0.09646412420807426
510,4010.25,0.09538457923122066
511,4012.0299999999997,0.08920897422624922
512,4013.8,0.09535481924939564
513,4015.5800000000004,0.09739725424442419
514,4017.3599999999997,0.09857884923945277
515,4019.13,0.11028134426259915
516,4020.91,0.10286743925762774
517,4022.6800000000003,0.10158373428077412
518,4024.46,0.1035564292758027
519,4026.24,0.09545107427083128
520,4028.01,0.08827890929397766
521,4029.79,0.08980137428900625
522,4031.56,0.07876965931215264
523,4033.34,0.08557483430718121
524,4035.12,0.0987960193022098
525,4036.8900000000003,0.09517247432535618
526,4038.6699999999996,0.09572737932038476
527,4040.44,0.10238788434353115
528,4042.2200000000003,0.09790881933855973
529,4044.0,0.0839664043335883
530,4045.77,0.08889006935673469
531,4047.5499999999997,0.08866458435176326
532,4049.32,0.09567926937490966
533,4051.1000000000004,0.09478102436993824
534,4052.8799999999997,0.0966867793649668
535,4054.65,0.0931757843881132
536,4056.43,0.08622294938314176
537,4058.2000000000003,0.08874823440628817
538,4059.9800000000005,0.09083578940131673
539,4061.7599999999998,0.09190483439634531
540,4063.53,0.0938994694194917
541,4065.31,0.08815272441452028
542,4067.08,0.09426953943766667
543,4068.86,0.09850660443269524
544,4070.64,0.09515328942772382
545,4072.4100000000003,0.0881048444508702
546,4074.1899999999996,0.08932937944589879
547,4075.96,0.09387512446904517
548,4077.7400000000002,0.09846376946407376
549,4079.52,0.09154038445910233
550,4081.2900000000004,0.09546477948224871
551,4083.0699999999997,0.0978337444772773
552,4084.84,0.10419665950042369
553,4086.6200000000003,0.10198295449545226
554,4088.3999999999996,0.10135804949048084
555,4090.17,0.10493894451362723
556,4091.95,0.0970699195086558
