,lambda (Angstroms),Total Flux (erg/s/cm^2/Angstrom)
0,102.01,0.05966839217656357
1,103.91,0.06983380122896839
2,104.712855,0.07412924836725479
3,106.08,0.06802615802837207
4,108.06,0.05918721375342928
5,110.06,0.0502589879413537
6,113.93,0.03298287129373377
7,117.94000000000001,0.01508178041133119
8,120.22644299999999,0.00487486919519619
9,120.96000000000001,0.004723354179924173
10,124.92,0.0039053976338410097
11,126.95,0.0034860927495540084
12,128.13,0.0032423606062341277
13,131.10999999999999,0.0026268357520091725
14,132.02,0.002438896586501546
15,133.86,0.0020588499445861356
16,136.98,0.001414462726760011
17,138.038426,0.00119585638166607
18,139.85,0.0011826812158745796
19,143.1,0.0011597253637447
20,147.11,0.001132691823910295
21,150.89,0.0011058974662983118
22,155.11,0.0010761139996521298
23,158.489319,0.0010524946301263545
24,159.09,0.0010459453339028459
25,162.05,0.0010138031484801537
26,165.82,0.0009732607385735494
27,170.07999999999998,0.0009273181217692697
28,172.84,0.0008979943367129754
29,176.87,0.0008551413593300535
30,180.16,0.0008202240633028044
31,181.82,0.0008030270002617003
32,181.970086,0.0008014536990673712
33,186.06,0.0008191769003100334
34,190.82999999999998,0.0008408024721398936
35,193.93,0.0008551834023018572
36,197.99,0.0008740290251591386
37,202.14,0.000893898422956606
38,204.95,0.0009080831872001924
39,208.929613,0.0009261537463679565
40,210.21,0.0009553960488623492
41,216.1,0.0010964330115442037
42,220.10999999999999,0.0011919269829625797
43,223.18,0.0012640987337492178
44,226.79999999999998,0.0013525048680969784
45,229.95999999999998,0.0014712576112845272
46,234.23,0.0016666562007499807
47,239.88329199999998,0.0018666516513006098
48,240.24,0.0018650206042399831
49,245.84,0.0017749703861727334
50,252.14000000000001,0.0017127495908470772
51,256.83,0.001593500773215756
52,259.81,0.0016058313728871123
53,264.03,0.0015720277214150064
54,268.94,0.001511149536645328
55,273.94,0.0014492061562281409
56,275.42287,0.0014308177303440435
57,279.03000000000003,0.0015206667843861341
58,284.21999999999997,0.00165099684853826
59,290.17,0.0017747928415450345
60,296.24,0.0019384536233183311
61,301.06,0.0020545407721070117
62,308.07,0.0022404323658847397
63,316.227766,0.00246031068279579
64,318.15999999999997,0.00244790058182053
65,327.83,0.0023743015696261137
66,337.79,0.002291414363167335
67,348.05999999999995,0.0022015193421501015
68,356.98,0.0021271902909842065
69,363.078055,0.0020805333167826295
70,366.14,0.0021340345607453685
71,374.67,0.002275326044822932
72,385.17,0.002406316276102465
73,395.05,0.002600800404201682
74,405.18,0.0027721997997123176
75,413.67,0.0029041407610040535
76,416.86938299999997,0.0029483377556438696
77,422.33,0.0029997159876744535
78,430.18,0.0030794415475609268
79,441.21,0.003206509639987397
80,451.49,0.003300693946437453
81,459.88,0.0033794636722269448
82,469.51,0.003477135964164108
83,478.630092,0.0035693142496684453
84,480.45,0.0035599157873673947
85,490.51,0.003479909936401636
86,499.63,0.0034475949661424195
87,506.58000000000004,0.0033873802311312835
88,512.45,0.0034460942952297922
89,519.5799999999999,0.003407873093700384
90,530.46,0.003329630006373598
91,540.3199999999999,0.0032242438959837003
92,549.5408739999999,0.003199900809831552
93,550.36,0.0032025251800101868
94,560.59,0.0032574072281724735
95,569.7,0.0033059634958907957
96,580.3,0.003262643203664036
97,589.7199999999999,0.00333139732132667
98,600.6899999999999,0.0032957036887108627
99,610.45,0.003177627061151128
100,620.37,0.003434333259369104
101,630.45,0.003452012283364788
102,630.957344,0.003452400314809264
103,640.69,0.0035242822355868245
104,649.6,0.0036549539213939428
105,658.6400000000001,0.0037448527339300087
106,664.74,0.003848039680442177
107,675.5400000000001,0.00391236220869323
108,684.93,0.003913271362422617
109,694.4599999999999,0.004281736652629333
110,705.75,0.004247146658551035
111,715.5699999999999,0.004579211231460788
112,724.43596,0.004689272723948098
113,725.5200000000001,0.004700953906577515
114,735.61,0.004803419906721887
115,745.85,0.005072041302309437
116,754.48,0.005246177853473553
117,764.98,0.005302337534495942
118,775.62,0.00568776298459863
119,784.6,0.005906647458463493
120,795.52,0.006098562446726777
121,804.73,0.006293832326937844
122,815.92,0.006467702226998848
123,825.37,0.006860484139918998
124,831.763771,0.006374348076297683
125,834.93,0.006111835886469117
126,844.5999999999999,0.007065739242116323
127,854.38,0.007169190986504086
128,864.27,0.007501691119632406
129,874.2800000000001,0.007859910495023152
130,884.4000000000001,0.008323023259154457
131,894.64,0.00864384326554819
132,905.0,0.008578580514204346
133,915.48,0.012600156005122931
134,923.95,0.07925444293814587
135,934.6500000000001,0.17529847620654557
136,945.47,0.3436655637172077
137,954.22,0.5076847105488429
138,954.992586,0.5104772980265808
139,965.27,0.5476668094366168
140,974.2,0.08036156487671643
141,985.48,0.42342674911684225
142,994.6,0.485961552970561
143,1006.1199999999999,0.778400568364732
144,1015.43,0.77483493063207
145,1024.82,0.33732963328408955
146,1034.31,0.5111269614169613
147,1043.8799999999999,1.078980929934515
148,1055.96,1.0666529280214583
149,1065.73,0.8019892475007161
150,1075.6000000000001,0.9977778924608262
151,1085.55,0.750233177805618
152,1095.5900000000001,1.0764773960831768
153,1096.4782,1.0732785134545995
154,1105.73,1.03994315609755
155,1115.96,0.9863293965210284
156,1126.29,0.8771377037130645
157,1134.09,1.1910540116605846
158,1144.5900000000001,1.071412522359169
159,1155.18,1.1719498231494558
160,1165.87,1.2158768907083006
161,1173.95,0.799927945607783
162,1184.81,1.1909287166731761
163,1195.77,0.7551961545071274
164,1204.06,0.5073262196205813
165,1215.2,0.3823768376379369
166,1223.63,0.8146733762273719
167,1234.95,1.3176827744281316
168,1246.3799999999999,1.4681581160743054
169,1255.02,1.3828759648777122
170,1258.92541,1.282059695077328
171,1263.72,1.1583016516369589
172,1275.4099999999999,1.5876105909612108
173,1284.25,1.68943005748186
174,1296.13,1.2583710283263525
175,1305.12,1.2411175197314017
176,1314.16,1.654884019431251
177,1326.32,1.5766660367266239
178,1335.52,1.3514055629698336
179,1344.7700000000002,1.705124097507843
180,1354.1000000000001,1.6510816453175328
181,1363.48,1.4413682014220226
182,1376.1000000000001,1.5479002950295557
183,1385.6399999999999,1.5695208776774054
184,1395.24,1.3608044702790154
185,1404.91,1.4249040744933457
186,1414.65,1.4480346903203956
187,1424.4599999999998,1.516251317760166
188,1434.3300000000002,1.5023699551536962
189,1440.95,1.606062053385223
190,1445.43977,1.6339034231404124
191,1447.6,1.6472990989993272
192,1454.28,1.591314029087864
193,1464.3600000000001,1.448054432574758
194,1474.51,1.4547308458080888
195,1484.74,1.5023682701802044
196,1495.03,1.5409177029064085
197,1505.39,1.4480521453790496
198,1512.3400000000001,1.2613011130609852
199,1515.83,1.3765565989904756
200,1526.33,1.3237500609559898
201,1533.38,1.1268010425614068
202,1544.0100000000002,1.2877025226274468
203,1554.71,1.2101270124399235
204,1565.49,1.226957513391185
205,1576.34,1.3207100240888832
206,1583.6100000000001,1.4086250363259585
207,1594.59,1.4447415651241824
208,1605.64,1.421660103668843
209,1616.77,1.4381096533522881
210,1624.2400000000002,1.3483486934363258
211,1635.5,1.4547282612202967
212,1646.83,1.4852028387507041
213,1654.43,1.357710896935267
214,1659.58691,1.4243166819252697
215,1665.8999999999999,1.5058610341429037
216,1673.5900000000001,1.3116578533791645
217,1677.45,1.5163067782493813
218,1685.19,1.6061076483259302
219,1696.8700000000001,1.4989775246171564
220,1704.7,1.431563486206223
221,1716.52,1.3453355048502547
222,1724.4399999999998,1.3422405579518395
223,1736.3999999999999,1.4514927189486773
224,1744.41,1.4152048635627799
225,1756.5,1.5339011567443657
226,1764.6100000000001,1.3862324030390438
227,1776.8400000000001,1.4316348385734357
228,1785.04,1.464975176380632
229,1793.28,1.5914765548600587
230,1805.72,1.5805002039236589
231,1814.0500000000002,1.4382716739156034
232,1826.62,1.481970455163952
233,1835.06,1.4152900370045298
234,1843.53,1.28790564934928
235,1856.3,1.2908876339587796
236,1864.8700000000001,1.3423813479841056
237,1873.4799999999998,1.482015102681662
238,1886.47,1.3516973109884276
239,1895.1699999999998,1.296876157198502
240,1903.92,1.3863610542488638
241,1905.46072,1.3794405860981915
242,1917.12,1.3270433393474654
243,1925.9699999999998,1.3088527398831666
244,1934.86,1.3485660879919108
245,1943.79,1.4185883836736979
246,1952.76,1.3239556269285275
247,1966.3,1.4751538804034876
248,1975.37,1.519939992590924
249,1984.4899999999998,1.4316610392446638
250,1993.6499999999999,1.3894450334714463
251,2002.85,1.4382419752712716
252,2016.74,1.3798497700103556
253,2026.0500000000002,1.4581945676360484
254,2035.4,1.3734973128347838
255,2044.79,1.444822005606562
256,2054.23,1.3766466328446434
257,2063.71,1.3797952076557676
258,2073.2400000000002,1.4920657169331955
259,2078.02,1.4282254519118
260,2082.81,1.495498173783666
261,2097.25,1.408609247652087
262,2106.93,1.415095560328425
263,2116.65,1.4347718205778057
264,2126.42,1.4547070152934896
265,2136.2400000000002,1.3390361444754768
266,2146.1,1.392443221230507
267,2156.0,1.4546762455585798
268,2165.9500000000003,1.402074204352956
269,2175.9500000000003,1.3892070976136357
270,2186.0,1.3732949253406186
271,2187.7616199999998,1.3857472174539995
272,2196.09,1.4446373195093618
273,2206.2200000000003,1.3988399052633396
274,2216.41,1.3175995537167484
275,2226.64,1.2758282439697783
276,2236.91,1.3860489760224288
277,2247.2400000000002,1.320702770774511
278,2252.42,1.2497381838254098
279,2262.82,1.2847640517268282
280,2273.26,1.3268769614278673
281,2283.75,1.3798419233784327
282,2294.29,1.293773937578524
283,2304.88,1.2997750040281413
284,2315.52,1.2271401227272847
285,2326.21,0.9310930936759542
286,2336.9500000000003,1.1192925168741499
287,2342.34,1.076373149373058
288,2353.15,1.19107744572059
289,2364.01,1.071475794317648
290,2374.92,1.114253195164232
291,2385.88,1.0186556482603422
292,2396.9,1.1015661640558836
293,2402.42,1.0520389324035595
294,2413.51,1.0890145213484375
295,2424.65,1.1803851625428414
296,2435.84,1.1351368559867712
297,2447.09,1.2134846121301326
298,2452.73,1.1996095058766711
299,2464.05,1.1832053351693688
300,2475.42,1.1326362167115926
301,2486.85,1.1510611609532475
302,2492.58,1.091744148748933
303,2504.09,1.2390451765898296
304,2511.88643,1.122900692112549
305,2515.64,1.0669778056957644
306,2527.26,1.0451161061163938
307,2533.08,1.0768587522823199
308,2544.77,1.0596760243922303
309,2556.52,1.17526527223581
310,2562.41,1.1224278900910172
311,2574.24,1.208203105579489
312,2586.12,1.1834523008460192
313,2592.09,1.1592058863461188
314,2604.05,1.109642049257541
315,2616.0699999999997,1.0919411879026326
316,2622.1,1.1619217491364016
317,2634.2,1.2449758554263857
318,2646.3599999999997,1.3903739374500392
319,2652.46,1.469340470373089
320,2664.71,1.2623175159972466
321,2677.01,1.3432585413994618
322,2683.18,1.3588110460117926
323,2695.5600000000004,1.2652810390589002
324,2708.0,1.3310020078396774
325,2714.2500000000005,1.2251974800969005
326,2726.77,1.20564541652257
327,2733.06,1.2888518726022395
328,2745.68,1.0672597685840246
329,2752.0,1.1123992125305289
330,2764.71,1.1809890721128178
331,2777.4700000000003,1.242327911473165
332,2783.87,1.1331133230645614
333,2796.72,0.8818033260254122
334,2803.1699999999996,0.9557392173948666
335,2816.11,1.2225412839562215
336,2822.6,1.337326659148122
337,2835.63,1.291976389309981
338,2842.1600000000003,1.231043748324328
339,2855.28,1.1358234420866908
340,2861.8700000000003,1.349755776834707
341,2875.07,1.3939814382419622
342,2881.7,1.3591597568124247
343,2884.0315,1.3630333110813049
344,2895.0,1.3812607230777296
345,2908.3700000000003,1.5605036124151477
346,2928.5299999999997,1.4766524455521968
347,2948.83,1.4430922775304753
348,2969.27,1.4938281083499834
349,2989.85,1.497318938010721
350,3010.57,1.532199766512688
351,3031.44,1.5393495937731154
352,3052.45,1.5500064198747723
353,3066.54,1.575270303252799
354,3087.8,1.589866127285223
355,3109.2,1.615747950158876
356,3130.76,1.5863667717082202
357,3152.46,1.586370592098794
358,3167.01,1.6158924716694323
359,3188.96,1.5046942899907727
360,3211.0699999999997,1.5938251069878042
361,3233.32,1.4705699228260651
362,3248.2499999999995,1.6537797992514691
363,3270.7599999999998,1.759857612937728
364,3293.44,1.735798425216908
365,3308.64,1.7237782994075403
366,3311.31121,1.7244968975129167
367,3323.91,1.727884283879044
368,3331.5699999999997,1.760002071890425
369,3339.2500000000005,1.6312578567373448
370,3346.9500000000003,1.8429316384198031
371,3354.67,1.7003384169378009
372,3362.3999999999996,1.5942681938735674
373,3370.15,1.6314039676448733
374,3377.9199999999996,1.7359437382517178
375,3385.71,1.6848065056941013
376,3393.51,1.796963271554254
377,3401.3300000000004,1.9254040342499457
378,3409.17,1.7161637937811762
379,3417.0299999999997,1.6887645501479456
380,3424.91,1.8602683033502538
381,3432.81,1.934368053388101
382,3440.72,1.8220638018437174
383,3448.6499999999996,1.646604547134873
384,3456.6000000000004,1.716300289261567
385,3464.57,1.6091680282238003
386,3472.56,1.805472764021572
387,3480.56,1.6391424982371134
388,3488.58,1.7443032292881937
389,3496.63,1.7006159555925824
390,3504.6899999999996,1.82647168031474
391,3512.77,1.764531401872437
392,3520.86,1.860407121847903
393,3528.98,1.6093118370766777
394,3537.1200000000003,1.8435035491409908
395,3545.27,1.8864212596230738
396,3553.44,1.9348169669406954
397,3561.63,1.8692216710938558
398,3569.84,1.6583073720825552
399,3575.27,1.3536675129313538
400,3577.95,1.5733880888935603
401,3580.62,1.0201846664379972
402,3583.29,1.495919243982434
403,3585.97,1.6278648199446404
404,3588.6400000000003,1.4030263974890773
405,3591.31,1.6770219750335145
406,3593.98,1.2487845525779513
407,3596.66,1.2064741285401577
408,3599.33,1.9061957060845944
409,3602.0,1.7646752836290316
410,3604.6800000000003,1.8211248595912377
411,3607.35,1.6441464371356747
412,3610.02,1.4715360146801117
413,3612.69,1.2896565922245486
414,3615.37,1.649927168186755
415,3618.04,1.5799277457311918
416,3620.7099999999996,1.706693323275629
417,3623.3900000000003,1.674728899237835
418,3626.06,1.5717084767822722
419,3628.73,2.0302170543267093
420,3631.4,1.924305631871146
421,3634.08,1.5861622078333524
422,3636.7500000000005,1.9740617853777893
423,3639.42,1.7818653629222263
424,3642.1,1.5791599388844326
425,3644.77,2.31736751642887
426,3647.44,1.6260350939733066
427,3650.12,1.9258136699355128
428,3652.7900000000004,2.0976232474799494
429,3655.46,2.0375158250243866
430,3658.13,1.6353174025688235
431,3660.81,1.47986297853103
432,3663.48,1.7833795560754668
433,3666.15,2.073582133619904
434,3668.83,2.1764437095821103
435,3671.4999999999995,1.7845942871265472
436,3674.17,1.8714898646709839
437,3676.84,2.2408234422154214
438,3679.52,1.8010270181776273
439,3682.19,1.6307445957220643
440,3684.8599999999997,1.4838201732665013
441,3687.5400000000004,1.2476377492287074
442,3690.21,1.4304173267731446
443,3692.88,1.6042659043175813
444,3695.55,1.7762264818620184
445,3698.23,1.9535040578242249
446,3700.8999999999996,1.9907906353686615
447,3703.5699999999997,2.2304702129130987
448,3706.25,2.023045788875305
449,3708.92,1.7340663664197418
450,3711.59,1.898570943964179
451,3714.2599999999998,2.0699245215086157
452,3716.94,1.6990640974708222
453,3719.6099999999997,2.1409846750152592
454,3722.28,2.111009252559696
455,3724.96,3.0204028285219024
456,3727.63,3.751460406066339
457,3730.2999999999997,4.014729983610777
458,3732.97,4.073475561155213
459,3735.6499999999996,3.469627137117419
460,3738.32,3.1263227146618564
461,3740.9900000000002,2.3409452922062934
462,3743.67,2.1590858681684995
463,3746.34,1.9181944457129365
464,3749.0099999999998,1.8386080232573736
465,3751.6899999999996,1.9140805992195797
466,3754.36,1.8732991767640168
467,3757.03,2.122566754308454
468,3759.7000000000003,2.5360323318528906
469,3762.38,2.043429907815097
470,3765.0499999999997,2.080106485359534
471,3767.72,2.2505470629039706
472,3770.3999999999996,1.9709916388661772
473,3773.07,1.9256452164106141
474,3775.7400000000002,2.010257793955051
475,3778.41,1.9428463714994881
476,3781.0899999999997,1.8381419474616945
477,3783.7599999999998,2.479413525006131
478,3786.4300000000003,2.6518321025505682
479,3789.11,2.4970596785127745
480,3791.78,2.2543422560572117
481,3794.45,2.019385833601649
482,3797.12,1.8029934111460855
483,3799.7999999999997,2.353405987108292
484,3801.8939600000003,2.20661435426741
485,3802.47,2.1662325836434184
486,3805.1400000000003,1.9466452492115027
487,3807.82,2.220553913527033
488,3810.4900000000002,2.229079579095117
489,3813.16,2.0977542446632014
490,3815.83,2.3053259102312853
491,3818.5099999999998,2.2318155745468156
492,3821.1800000000003,2.2747322401149
493,3823.85,2.278235905682984
494,3826.53,2.059245569998514
495,3829.2,1.9000732355665984
496,3831.87,1.8769449011346824
497,3834.54,1.6544655667027668
498,3837.2200000000003,1.5645232310182968
499,3839.8900000000003,1.793093896586381
500,3842.56,1.9300545621544654
501,3845.24,1.7981102264699955
502,3847.91,1.7241548920380796
503,3850.58,1.8764855576061639
504,3853.26,2.256004221921694
505,3855.9300000000003,2.3655738874897785
506,3858.6,2.4477525530578625
507,3861.27,2.2694052186259466
508,3863.95,2.340157882941477
509,3866.62,2.504511548509561
510,3869.2900000000004,2.443035214077645
511,3871.9700000000003,2.1423268783931757
512,3874.64,2.2724405439612596
513,3877.31,2.3712062095293436
514,3879.98,2.0708128750974275
515,3882.66,2.451396539412958
516,3885.3300000000004,2.2059402049810424
517,3888.0,1.9318738705491265
518,3890.6800000000003,2.1911735348646566
519,3893.35,2.352635200432741
520,3896.02,2.411073866000825
521,3898.69,2.544688531568909
522,3901.37,2.6049401958844394
523,3904.0399999999995,2.5605078614525234
524,3906.71,2.6868175270206076
525,3909.39,2.630198191336138
526,3912.06,2.941705856904222
527,3914.73,2.767772522472306
528,3917.3999999999996,2.8135821880403906
529,3920.0800000000004,2.7373308523559206
530,3922.75,2.5903325179240047
531,3925.42,2.413507183492089
532,3928.1,2.500238847807619
533,3930.77,2.0689755133757033
534,3933.44,2.1172181789437876
535,3936.1099999999997,2.012218844511872
536,3938.79,1.8919925088274019
537,3941.46,2.1275631743954864
538,3944.13,2.4507888399635704
539,3946.81,2.5751065042791
540,3949.48,2.5979371698471847
541,3952.1499999999996,2.692897835415269
542,3954.83,2.5565384997307987
543,3957.5,2.724392165298883
544,3960.17,2.7800928308669675
545,3962.84,2.3188494964350514
546,3965.52,1.9283581607505818
547,3968.1899999999996,1.9496658263186657
548,3970.86,1.8035784918867501
549,3973.54,1.8781381562022803
550,3976.21,1.9629018217703644
551,3978.88,2.0391454873384487
552,3981.5499999999997,2.398740152906533
553,3984.2300000000005,2.463862817222063
554,3986.9,2.3436474827901472
555,3989.57,2.4533691483582314
556,3992.25,2.581339812673762
557,3994.92,2.8056504782418457
558,3997.5899999999997,3.03300514380993
559,4000.2599999999998,2.975486809378014
560,4002.94,2.8374524736935443
561,4005.61,2.9978501392616286
562,4008.28,3.1921828048297125
563,4010.96,3.131300469145243
564,4013.63,3.207241134713327
565,4016.2999999999997,3.0670908002814112
566,4018.9700000000003,2.9567674658494956
567,4021.65,3.1183671301650255
568,4024.32,3.1157837957331096
569,4026.99,3.122788461301194
570,4029.67,3.090516125616724
571,4032.3399999999997,3.250304791184808
572,4035.0099999999998,3.2162214567528924
573,4037.69,2.9185541210684227
574,4040.36,3.0439507866365068
575,4043.03,3.173608452204591
576,4045.7,2.8863051177726753
577,4048.3799999999997,2.9109467820882053
578,4051.0499999999997,3.1474314476562895
579,4053.7200000000003,3.075304113224374
580,4056.4,2.941378777539904
581,4059.07,2.971513443107988
582,4061.74,2.9975391086760723
583,4064.41,3.0599357742441566
584,4067.0899999999997,3.1851654385596864
585,4069.76,3.116081104127771
586,4072.4300000000003,3.187151769695855
587,4075.11,3.085639434011385
588,4077.7799999999997,3.2863630995794697
