,lambda (Angstroms),Total Flux (erg/s/cm^2/Angstrom)
0,100.1,0.001190554055979591
1,101.97,0.0014314413543403631
2,104.10000000000001,0.0017058145181694248
3,104.712855,0.0017847612658521783
4,106.04,0.0016421461116043119
5,108.01,0.0014304575591448006
6,110.02,0.001214509549428752
7,113.88000000000001,0.0007997589660228042
8,117.88,0.0003699729257689756
9,120.22644299999999,0.00011863410710697836
10,120.91,0.00011547944932725818
11,124.87,9.617086525447733e-05
12,126.9,8.624031416413764e-05
13,128.07,8.05446418017252e-05
14,131.06,6.593106587555985e-05
15,131.96,6.187678590447327e-05
16,134.10999999999999,5.137596408465552e-05
17,136.92,3.819312375270751e-05
18,138.038426,3.27682450202353e-05
19,140.10999999999999,3.2658121127651805e-05
20,143.04000000000002,3.838379462461569e-05
21,147.04999999999998,5.1483919287695956e-05
22,151.17000000000002,5.304380440288066e-05
23,155.04,5.5198987581464356e-05
24,158.489319,5.750432314844718e-05
25,159.01999999999998,5.780899920743696e-05
26,161.98000000000002,5.942948961540176e-05
27,166.13,6.215312305900107e-05
28,170.0,6.438666578833343e-05
29,173.16000000000003,6.645476527791748e-05
30,177.2,6.90447427266262e-05
31,180.07999999999998,7.104566150194332e-05
32,181.970086,7.229951770134643e-05
33,182.16,7.2493245088356e-05
34,185.97,7.67941322954492e-05
35,191.19,8.236495272091548e-05
36,193.83999999999997,8.616385650012727e-05
37,197.89999999999998,9.076362349771216e-05
38,202.05,9.582065601987404e-05
39,204.86,9.961001406500051e-05
40,208.929613,0.00010181736099408557
41,210.10999999999999,0.00010297758082303772
42,216.0,0.00011704432169894144
43,220.02,0.00012484171557349712
44,223.08,0.00012942528703024846
45,227.22,0.00013783124370702967
46,229.85999999999999,0.00019678706535599159
47,234.13,0.00029710347840185053
48,239.88329199999998,0.00036682421063663197
49,240.13,0.000369576641642738
50,245.73000000000002,0.0003565843153393883
51,252.03,0.0003832765982481199
52,256.72,0.00033452028996906443
53,260.29,0.00038456872695067897
54,263.91,0.0004218461431617279
55,268.82,0.00043544926349218377
56,273.81,0.0004487256305897346
57,275.42287,0.00044802668610509464
58,278.90000000000003,0.00044964306430137835
59,284.09,0.0004909740809310966
60,290.03999999999996,0.0005111743847744152
61,296.10999999999996,0.0005332733444935655
62,300.92,0.0005286282175164836
63,307.93,0.0005960763482629818
64,316.227766,0.0006679817386894068
65,318.02,0.0006820724858113636
66,327.68,0.0007738992906009182
67,337.64000000000004,0.0008378737793901484
68,347.90000000000003,0.0009079140521790543
69,356.82,0.001222178649769409
70,363.078055,0.001650679949052215
71,365.97999999999996,0.0018511370779395336
72,375.37,0.00207161971964391
73,384.99,0.001973394342987477
74,394.87,0.003055902902097086
75,405.0,0.004122521745597121
76,414.43,0.004560898992803965
77,416.86938299999997,0.004578063013828972
78,422.14000000000004,0.004614589211854439
79,429.99,0.0048314219857399105
80,441.02000000000004,0.006199827632358604
81,451.29,0.006968638378575647
82,459.68,0.00679704305537808
83,470.39,0.007552558796564498
84,478.630092,0.008841031392067876
85,480.23999999999995,0.009092174836295675
86,490.29,0.008545411637418994
87,500.56000000000006,0.01106867255160173
88,506.35,0.010237344890756358
89,512.2199999999999,0.016272440543750776
90,520.5400000000001,0.016421515183088684
91,530.22,0.016344406157702985
92,540.07,0.014569381674226837
93,549.5408739999999,0.015081048046193004
94,550.12,0.015112416952538758
95,560.34,0.02046742314651859
96,569.45,0.02387484469516402
97,580.03,0.024542186449792846
98,589.46,0.026234236274570714
99,600.42,0.023545822232106817
100,610.1700000000001,0.02370819033301713
101,620.09,0.030956666893122795
102,630.1600000000001,0.030461983270165544
103,630.957344,0.030775719044335983
104,640.4,0.03449268321698943
105,649.3100000000001,0.03457244855102314
106,658.35,0.032941915781064084
107,664.44,0.03755880306324875
108,675.23,0.0405226004318485
109,684.63,0.036369970604678684
110,695.75,0.042923448170835245
111,705.43,0.03645650396583484
112,715.24,0.04684689165684166
113,724.43596,0.04836890205933547
114,725.19,0.048493672417567454
115,735.28,0.04973590775400483
116,745.5100000000001,0.04950867037955034
117,754.14,0.05031296970100272
118,764.63,0.04652828586346338
119,775.27,0.05268424983568276
120,784.25,0.04985407737990551
121,795.1600000000001,0.05428356540969062
122,804.3699999999999,0.05644802492887676
123,815.5600000000001,0.057764547536878166
124,825.0,0.0596578690310277
125,831.763771,0.052232082237983715
126,834.5500000000001,0.049172684938321755
127,844.22,0.06048644735221098
128,855.96,0.06048484481229986
129,865.87,0.06333045998516877
130,875.9,0.06450484153752749
131,884.0000000000001,0.06555182215309137
132,894.24,0.06661764986955732
133,904.59,0.0661561251005556
134,915.07,0.06600208557600122
135,925.67,0.16346644243093666
136,934.23,0.2712628708345449
137,945.0500000000001,0.39570854271854505
138,954.992586,0.47749854382468354
139,955.99,0.4857035962988147
140,964.84,0.5374838375267755
141,976.0099999999999,0.1834069371331395
142,985.04,0.44912367513183843
143,994.1600000000001,0.44706141151590645
144,1005.6700000000001,0.5812680050225537
145,1014.97,0.5799205381773599
146,1024.36,0.3494476697175352
147,1033.8400000000001,0.47903639964307965
148,1045.81,0.7216809848971689
149,1055.49,0.7020505112346446
150,1065.26,0.5852762359574895
151,1075.11,0.6582063592451067
152,1085.06,0.5589396807386897
153,1095.1,0.6797804006176418
154,1096.4782,0.6762333815980845
155,1105.23,0.6537088844784537
156,1115.46,0.6358652100636769
157,1125.78,0.5680500305953977
158,1136.2,0.6829143455121158
159,1144.07,0.6373251036114028
160,1154.66,0.6536986089826163
161,1165.34,0.6566817093003274
162,1176.1299999999999,0.46063620344153544
163,1184.28,0.6285911458188149
164,1195.24,0.5016035304145184
165,1206.3,0.4105459093952191
166,1214.66,0.31072223998099296
167,1225.9,0.48457480885468884
168,1234.3899999999999,0.6286001321409591
169,1245.82,0.6658310903461498
170,1254.45,0.6432344057714164
171,1258.92541,0.6235028774379193
172,1266.06,0.5920477829719679
173,1274.84,0.6971603180385394
174,1283.67,0.7167397533048067
175,1295.55,0.6030574007525137
176,1304.5300000000002,0.598881336617868
177,1313.57,0.7020522727228574
178,1325.73,0.6719515212888606
179,1334.92,0.6185071579929372
180,1344.17,0.6891947949366485
181,1353.49,0.6688629321599339
182,1366.01,0.6142780821637465
183,1375.48,0.6256590199861191
184,1385.0100000000002,0.6256643580481266
185,1394.6100000000001,0.5121078963897081
186,1404.28,0.5121046350108637
187,1414.01,0.5825723738716541
188,1423.8200000000002,0.5799039130519577
189,1433.69,0.5879852524718963
190,1443.62,0.6044690921314695
191,1445.43977,0.6067493859697463
192,1446.9499999999998,0.6086418044618448
193,1453.6299999999999,0.5906950268535497
194,1463.71,0.5537807606422304
195,1473.85,0.5550846946320341
196,1484.0700000000002,0.560229928890002
197,1494.3600000000001,0.5615334633826135
198,1504.71,0.533774398076348
199,1511.6599999999999,0.487930521373107
200,1518.64,0.5109234447704275
201,1525.65,0.49929856826830954
202,1536.22,0.43587340369949545
203,1543.31,0.4338756274655417
204,1554.0100000000002,0.42107746333249435
205,1564.78,0.4470560994340906
206,1575.63,0.47354433580385097
207,1586.55,0.487932472408255
208,1593.8700000000001,0.49358379694527305
209,1604.9199999999998,0.4812402339854438
210,1616.05,0.4768216712937786
211,1623.51,0.45957939630008393
212,1634.76,0.482347834010665
213,1646.0900000000001,0.4845756719894102
214,1653.6899999999998,0.46170039746500274
215,1659.58691,0.4746211336453625
216,1665.1499999999999,0.4868105534128861
217,1672.84,0.4429556416595152
218,1676.7,0.4958574361500208
219,1684.43,0.5027604253758261
220,1696.1100000000001,0.47682541129528355
221,1703.9399999999998,0.4617019029690294
222,1715.75,0.43889999207080954
223,1723.6699999999998,0.4338755859477019
224,1735.62,0.45641547847659886
225,1743.6299999999999,0.44705967455663775
226,1755.72,0.46383117051265144
227,1763.8200000000002,0.4358754687958369
228,1776.0500000000002,0.43688226817896736
229,1784.24,0.4429648686652992
230,1796.61,0.45958417147554653
231,1804.9,0.45747027440981897
232,1813.23,0.42595787832326765
233,1825.8,0.431881186029396
234,1834.23,0.41914729239078524
235,1846.94,0.3893771035240305
236,1855.4699999999998,0.3902770123333602
237,1864.04,0.39844232212186625
238,1876.96,0.4181823383957866
239,1885.6200000000001,0.38758575038743914
240,1894.32,0.3727141633582679
241,1903.07,0.3920738775530669
242,1905.46072,0.3893465214993675
243,1916.26,0.37702599531354775
244,1925.1,0.3659104163741883
245,1933.9899999999998,0.3778954358571176
246,1942.9199999999998,0.3902722540778778
247,1956.38,0.3633880293579934
248,1965.4099999999999,0.39027544442333106
249,1974.4900000000002,0.39935995791095735
250,1983.6000000000001,0.3796368704519569
251,1992.76,0.36928678141524507
252,2006.57,0.3778898456513815
253,2015.8300000000002,0.3684432534592471
254,2025.14,0.37963625968940135
255,2034.4799999999998,0.35922806497292886
256,2043.8700000000001,0.36759116867874503
257,2053.31,0.3375731708068499
258,2062.79,0.3454321716727857
259,2072.31,0.3744257712765525
260,2077.08,0.35592992076289365
261,2086.67,0.3659031181578645
262,2096.3,0.3478307142906665
263,2105.98,0.35024130884575705
264,2115.7000000000003,0.3526681021386786
265,2125.4700000000003,0.35510569385388885
266,2135.2799999999997,0.33679468430693
267,2145.13,0.3383463734978021
268,2155.03,0.34782896111096295
269,2164.98,0.3375702471464125
270,2174.97,0.335245631919693
271,2185.01,0.3283726151152621
272,2187.7616199999998,0.33130514434492775
273,2195.1,0.3391264129086082
274,2205.23,0.3314052677586263
275,2215.41,0.31795692386654184
276,2225.6400000000003,0.31000268123235475
277,2235.9100000000003,0.32163733960448565
278,2246.23,0.31143609923451393
279,2256.6,0.30085796012243965
280,2267.01,0.3050522220166833
281,2277.48,0.30857968542040387
282,2282.73,0.31143701749963343
283,2293.26,0.2947138824128309
284,2303.85,0.2962434488355053
285,2314.48,0.28700671626449764
286,2325.17,0.24273658520296684
287,2335.9,0.271880955147754
288,2346.68,0.26584252635043865
289,2357.5099999999998,0.27724899881102066
290,2362.9500000000003,0.26181873567026037
291,2373.85,0.2650036098918988
292,2384.81,0.2503236856230141
293,2395.8199999999997,0.2610611626120269
294,2406.88,0.25293004085893706
295,2412.4300000000003,0.25534258048555114
296,2423.56,0.26386476049351765
297,2434.75,0.25505584201096115
298,2445.9900000000002,0.26356722478630207
299,2457.28,0.2595016088195404
300,2462.94,0.25720325121352877
301,2474.31,0.250340337259403
302,2485.73,0.2528091245631746
303,2497.2,0.22806731312484368
304,2502.96,0.2559642580346269
305,2511.88643,0.24034098883715407
306,2514.5099999999998,0.23574905706014693
307,2520.31,0.24242760058677407
308,2526.12,0.23588954401603335
309,2537.78,0.23657773048508032
310,2543.63,0.23232737352486804
311,2555.3700000000003,0.24119575921497197
312,2567.1699999999996,0.23693434432086857
313,2573.08,0.24477478677644898
314,2584.96,0.2421232711034025
315,2596.89,0.23894595494351661
316,2602.88,0.23250539662015396
317,2614.8900000000003,0.229459979681325
318,2626.96,0.23495086215828873
319,2633.02,0.2377477031533509
320,2645.17,0.24853688485137151
321,2657.3799999999997,0.24983716596518488
322,2663.51,0.23431610627867183
323,2675.7999999999997,0.23992078661354213
324,2681.9700000000003,0.23889752653755755
325,2694.35,0.22987590599611687
326,2706.79,0.2326831848704689
327,2713.03,0.22485472411290913
328,2725.5499999999997,0.22448690220831807
329,2738.1299999999997,0.2298582797195197
330,2744.44,0.21067421828038474
331,2757.1099999999997,0.21227249491527542
332,2763.4700000000003,0.21628913298930105
333,2776.22,0.22198180884524865
334,2782.62,0.21402314652980273
335,2795.46,0.1861051215094394
336,2801.9100000000003,0.19449105870715405
337,2814.84,0.21735753281047976
338,2827.8399999999997,0.22205650623223025
339,2834.35,0.21459264284573762
340,2847.44,0.21130101539117715
341,2854.0,0.2060868515178451
342,2867.17,0.21644142328434154
343,2873.78,0.21452715892417007
344,2884.0315,0.21387712791306002
345,2887.0499999999997,0.21368575850600044
346,2893.7000000000003,0.2113122571808844
347,2907.0600000000004,0.2204036545186964
348,2927.21,0.21412585050349517
349,2947.5,0.20995124646039676
350,2967.93,0.21016914238940118
351,2988.5099999999998,0.2089420382885158
352,3009.2200000000003,0.20820023416172584
353,3030.08,0.20698663000504605
354,3051.08,0.2053054258204691
355,3072.23,0.2041134216060023
356,3093.5299999999997,0.20292541736164568
357,3107.81,0.20120681451613334
358,3129.3500000000004,0.197754010223953
359,3151.04,0.19706040590188278
360,3172.88,0.19546690154992274
361,3187.53,0.1881047986306822
362,3209.6200000000003,0.19049019422890573
363,3231.87,0.1846571897952468
364,3246.79,0.18909668682220454
365,3269.2900000000004,0.19106448233872922
366,3291.96,0.1890910778213788
367,3307.1499999999996,0.1879305747945348
368,3311.31121,0.1884430540914786
369,3322.4199999999996,0.18981113164985625
370,3330.07,0.19120030250955214
371,3337.75,0.18865267325497234
372,3345.45,0.18485164392420875
373,3353.16,0.18196791455535324
374,3360.8900000000003,0.18287778511031394
375,3368.64,0.18379415558909082
376,3376.4,0.17398222602977584
377,3384.18,0.17810249639427703
378,3391.99,0.18613556664450248
379,3399.81,0.1896703368566361
380,3407.6400000000003,0.17872000703067778
381,3415.5,0.18169627709044378
382,3423.37,0.18858664711211784
383,3431.2599999999998,0.1882290170576081
384,3439.1699999999996,0.18657578692691462
385,3447.1000000000004,0.1749954567200373
386,3455.05,0.1770881264369762
387,3463.01,0.17075109611582315
388,3471.0,0.1780469656803944
389,3479.0,0.1697094352068738
390,3487.02,0.17413310465716936
391,3495.06,0.17541257403128113
392,3503.1099999999997,0.176697543367301
393,3511.19,0.17394371258904517
394,3519.28,0.17481658177269746
395,3527.3900000000003,0.17051235088016592
396,3535.53,0.1765721198733587
397,3543.6800000000003,0.18075728882845954
398,3551.85,0.1808331577073766
399,3560.03,0.17760332654820174
400,3568.24,0.17124889527475123
401,3576.47,0.16474366392511686
402,3584.71,0.1606887325373906
403,3592.97,0.16038610107348059
404,3601.26,0.17391066949529482
405,3609.56,0.16846793787901718
406,3617.88,0.16931370618655572
407,3626.22,0.17695737441791046
408,3634.58,0.1706255425730814
409,3636.1,0.1561950367831125
410,3638.8399999999997,0.1728269263459317
411,3641.58,0.19274401590875087
412,3644.3199999999997,0.20668700547157004
413,3647.06,0.17233909503438924
414,3649.8,0.14382958459720843
415,3652.55,0.15702907412193573
416,3655.29,0.1434818636847549
417,3658.0299999999997,0.1693132532475741
418,3660.77,0.18033424281039329
419,3663.5099999999998,0.20820393237321247
420,3666.25,0.19580052193603165
421,3668.99,0.19938391149885085
422,3671.7300000000005,0.19974170106167002
423,3674.4700000000003,0.1843783906244892
424,3677.21,0.1740621801873084
425,3679.9500000000003,0.18241596975012758
426,3682.69,0.17742865931294677
427,3685.4300000000003,0.17988984887576595
428,3688.17,0.17220823843858513
429,3690.91,0.16004872800140432
430,3693.65,0.1627268175642235
431,3696.39,0.14794350712704268
432,3699.13,0.16710159668986188
433,3701.87,0.17241418625268107
434,3704.6099999999997,0.16697687581550025
435,3707.35,0.17595416537831943
436,3710.0899999999997,0.16425555494113864
437,3712.83,0.1495102445039578
438,3715.57,0.179185234066777
439,3718.3100000000004,0.1817548236295962
440,3721.05,0.23115161319241537
441,3723.79,0.41027470275523453
442,3726.53,0.7378267923180537
443,3729.27,1.038587781880873
444,3732.01,1.075342771443692
445,3734.75,0.7601076610065113
446,3737.49,0.4084480505693305
447,3740.23,0.23333644013214966
448,3742.97,0.22193052969496885
449,3745.71,0.19962281925778805
450,3748.45,0.18058940882060723
451,3751.1899999999996,0.1692051983834264
452,3753.93,0.15029638794624559
453,3756.6699999999996,0.18039427750906478
454,3759.4100000000003,0.19363256707188398
455,3762.15,0.17829635663470317
456,3764.8900000000003,0.18012864619752234
457,3767.63,0.18334883576034153
458,3770.37,0.1883850253231607
459,3773.12,0.17027771484788798
460,3775.8599999999997,0.18959290441070717
461,3778.6,0.20156259397352635
462,3781.34,0.20830108353634555
463,3784.0800000000004,0.21304447309916472
464,3786.82,0.22059606266198392
465,3789.56,0.2131366522248031
466,3792.3,0.20722224178762227
467,3795.04,0.18586873135044146
468,3797.78,0.17998152091326067
469,3800.52,0.18094641047607984
470,3801.8939600000003,0.1893190366730648
471,3803.2599999999998,0.19764340112311146
472,3806.0,0.20160069286064156
473,3808.74,0.20694588459817168
474,3811.48,0.20196937633570175
475,3814.22,0.20187726807323186
476,3816.9599999999996,0.19551835981076196
477,3819.7,0.19887945154829206
478,3822.4399999999996,0.20848564328582214
479,3825.1800000000003,0.19416853502335224
480,3827.92,0.18350532676088235
481,3830.6600000000003,0.19312771849841245
482,3833.4,0.17533581023594255
483,3836.1400000000003,0.17912520197347265
484,3838.88,0.15838959371100272
485,3841.62,0.19017328544853282
486,3844.36,0.20657747718606292
487,3847.1,0.20615466892359302
488,3849.84,0.2056938606611231
489,3852.58,0.22309015239865318
490,3855.3199999999997,0.2118902441361833
491,3858.06,0.2147850358737134
492,3860.7999999999997,0.2210573276112435
493,3863.54,0.23001291934877358
494,3866.28,0.24218331108630367
495,3869.0200000000004,0.2848472028238338
496,3871.76,0.29870349456136386
497,3874.5,0.282532386298894
498,3877.2400000000002,0.23187247803642408
499,3879.98,0.20629586977395417
500,3882.7200000000003,0.21913296151148426
501,3885.46,0.21366855324901435
502,3888.2,0.21439494498654446
503,3890.94,0.24822793672407456
504,3893.69,0.22270442843144966
505,3896.4300000000003,0.21932712016897976
506,3899.17,0.21360791190650982
507,3901.9100000000003,0.20618110364403994
508,3904.65,0.21002999538157002
509,3907.39,0.22632028711910013
510,3910.13,0.23084697885663022
511,3912.87,0.2232194705941603
512,3915.61,0.2099053623316904
513,3918.35,0.21285445406922052
514,3921.0899999999997,0.2126755458067506
515,3923.83,0.2140200375442807
516,3926.5699999999997,0.2161939292818108
517,3929.31,0.2022997210193409
518,3932.05,0.196005912756871
519,3934.7900000000004,0.16316510449440108
520,3937.53,0.1739258962319312
521,3940.27,0.18729968796946128
522,3943.01,0.2081219797069914
523,3945.75,0.2054114714445215
524,3948.4900000000002,0.22111636318205158
525,3951.23,0.19781665491958167
526,3953.97,0.20117224665711178
527,3956.71,0.20066813839464187
528,3959.45,0.19960563013217197
529,3962.19,0.19496522186970205
530,3964.93,0.19329011360723217
531,3967.6699999999996,0.19856480534476226
532,3970.41,0.20792159708229235
533,3973.1499999999996,0.20013158881982246
534,3975.8900000000003,0.20767228055735254
535,3978.63,0.17608907229488263
536,3981.3700000000003,0.18107646403241273
537,3984.11,0.19625545576994283
538,3986.85,0.19705244750747292
539,3989.59,0.21920833924500302
540,3992.33,0.20840963098253312
541,3995.07,0.21867172272006322
542,3997.81,0.2201083144575933
543,4000.5499999999997,0.2183844061951234
544,4003.29,0.2321648979326535
545,4006.0299999999997,0.2407951896701836
546,4008.77,0.2476474814077137
547,4011.52,0.2474619731150888
548,4014.26,0.2273552648526189
549,4017.0,0.230786856590149
550,4019.74,0.22608684832767909
551,4022.48,0.2134340400652092
552,4025.22,0.2365657318027393
553,4027.96,0.23482562354026937
554,4030.7,0.22589711527779946
555,4033.4399999999996,0.23007680701532957
556,4036.18,0.22493769875285965
557,4038.9199999999996,0.23152429049038975
558,4041.6600000000003,0.22199408222791983
559,4044.4,0.23085207396544993
560,4047.1400000000003,0.22498656570298003
561,4049.88,0.21995035744051014
562,4052.62,0.22585384917804024
563,4055.36,0.21683324091557032
564,4058.1,0.21757593265310043
565,4060.84,0.22191282439063054
566,4063.58,0.21890961612816062
567,4066.3199999999997,0.22740980786569073
568,4069.06,0.2326357996032208
569,4071.7999999999997,0.22279109134075092
570,4074.54,0.218616883078281
