,lambda (Angstroms),Total Flux (erg/s/cm^2/Angstrom)
0,100.03,0.007547871619897147
1,101.89,0.009078425739336675
2,104.02,0.010831157069709108
3,104.712855,0.011401292593746937
4,105.96,0.010545010830520578
5,107.92,0.009199287393968712
6,109.92999999999999,0.007819234279478593
7,114.05999999999999,0.004983602756857879
8,118.07,0.0022303624705521424
9,120.22644299999999,0.0007497626006388213
10,121.09,0.0007223276225516248
11,125.06,0.0005962017276445882
12,127.09,0.0005317091512878166
13,127.97,0.000503751792718441
14,130.95000000000002,0.0004090779968014766
15,131.85999999999999,0.00038016762141526624
16,134.01,0.0003118627351032523
17,137.13,0.00021274141818435584
18,138.038426,0.00018388103942344947
19,140.0,0.00018168031682449682
20,142.93,0.00017839572407680717
21,146.93,0.0001739165655654664
22,151.05,0.00016929855624815538
23,154.93,0.0001649515437907849
24,158.489319,0.00016096568811328356
25,158.9,0.00016025858586697877
26,161.85000000000002,0.00015518080632688494
27,166.01000000000002,0.0001480228104857018
28,169.86999999999998,0.00014138427711503677
29,173.03,0.00013595165817558032
30,177.06,0.0001290273399216217
31,179.94,0.00012408291544464877
32,181.970086,0.00012059826330416324
33,182.01999999999998,0.00012062632733518754
34,185.82999999999998,0.0001227760597948186
35,191.04,0.000125720944819406
36,194.14000000000001,0.0001274820878918092
37,198.20999999999998,0.00012979842177493213
38,201.89,0.00013191171752281725
39,205.17000000000002,0.00013379286248071487
40,208.929613,0.00013595015616130093
41,209.95,0.00013940730004404547
42,215.83,0.000159410962539188
43,219.85000000000002,0.0001730924743062752
44,222.91,0.00018350359257823703
45,227.04999999999998,0.00019762793576971483
46,230.21,0.000209041409178669
47,233.95,0.00022310244242217795
48,239.88329199999998,0.00024462240471277225
49,239.95,0.00024445447836465525
50,246.11,0.00022783579866913665
51,251.84,0.00021319788750593513
52,257.11,0.00019819803928428206
53,260.09000000000003,0.0001914348929672941
54,263.71,0.00018254722025336942
55,269.23,0.00016823086595478776
56,274.23,0.0001553941614162175
57,275.42287,0.00015237533905006144
58,278.69,0.0001628548435053006
59,283.87,0.00017946408481641567
60,289.82,0.0001979842148359397
61,295.88,0.00021771777467095076
62,300.69,0.00023303847660270045
63,307.7,0.00025616300484419016
64,316.227766,0.0002845347834209397
65,317.78000000000003,0.00028173094465798026
66,328.19,0.00026268773680834654
67,338.15999999999997,0.00024451374750375027
68,347.63,0.0002276393856366963
69,357.37,0.0002103669787533694
70,363.078055,0.00020112961011072936
71,365.7,0.00020701811254939323
72,375.08,0.00022677519017896334
73,384.7,0.00024580347988007893
74,394.57,0.00026937926007238776
75,404.69,0.0002923237007558899
76,414.11999999999995,0.00031269586048369855
77,416.86938299999997,0.00031846570159994045
78,421.81000000000006,0.0003254865088096633
79,429.65999999999997,0.00033721899094621237
80,440.68,0.000355077588506056
81,450.94,0.0003704105789928069
82,460.39,0.00038358255812534064
83,470.03000000000003,0.00039880558152614756
84,478.630092,0.00041318079308201653
85,479.87,0.0004123410407924423
86,489.92,0.0004022183200544322
87,500.17,0.000396449168804223
88,505.97,0.00039529345395044604
89,511.83,0.00044142238894300944
90,520.14,0.00044051199266113253
91,529.8100000000001,0.00043928259289630094
92,539.66,0.0004270487426704902
93,549.5408739999999,0.00046509276675032205
94,549.6899999999999,0.00046580097690731084
95,559.91,0.0005064242692739633
96,570.32,0.000543509158758978
97,579.5899999999999,0.0005402692655338184
98,590.37,0.0006086467862493285
99,599.96,0.0006285825092235159
100,609.7099999999999,0.0006927606402973771
101,619.61,0.0007853018164646822
102,629.68,0.0008460003637378907
103,630.957344,0.0008491379046008253
104,639.9100000000001,0.0008802448114080923
105,650.3100000000001,0.0009996816610146873
106,657.8399999999999,0.0010755621059702315
107,665.4599999999999,0.0011491482650089098
108,674.72,0.001194525969562474
109,685.6800000000001,0.0012169506956863474
110,695.22,0.0015409347884985506
111,704.89,0.0015195618794308367
112,716.34,0.0018311275600073282
113,724.43596,0.001925349650841074
114,726.3100000000001,0.0019466878083544098
115,734.7199999999999,0.0020590181401667824
116,744.94,0.0023508485136652904
117,755.3,0.0025573714539240517
118,765.81,0.0027488672871402273
119,774.68,0.0030562476240220044
120,785.46,0.0033584522645615264
121,794.55,0.0035678897777808452
122,805.6,0.003799841225643713
123,814.93,0.0040125115675948946
124,824.37,0.004481897497714848
125,831.763771,0.004048704479125053
126,835.84,0.0038055710301804595
127,845.52,0.004891168805951786
128,855.31,0.005135613817811423
129,865.21,0.005623957065759371
130,875.23,0.00613511129853093
131,885.36,0.006785998767390801
132,895.62,0.007295627969809582
133,905.99,0.007419489408316675
134,914.37,0.011755894848498878
135,924.9599999999999,0.08478382575918259
136,935.67,0.19217616965468992
137,944.33,0.37710229005946055
138,954.992586,0.5421268061607433
139,955.26,0.5462657276870992
140,964.0999999999999,0.6271584145116739
141,975.26,0.0984158654350057
142,984.2900000000001,0.5462595004831855
143,995.6800000000001,0.5907307950456182
144,1004.9,0.8858029383174031
145,1014.1999999999999,0.8656494724201796
146,1025.94,0.37192732686820074
147,1035.43,0.6157097391945823
148,1045.01,1.2198880412058295
149,1054.68,1.2142689329019423
150,1064.44,0.9667954142829206
151,1074.29,1.1730566853487645
152,1084.23,0.9339748460994741
153,1094.26,1.268566396535049
154,1096.4782,1.2603708458354266
155,1104.3899999999999,1.2311373042065534
156,1114.6100000000001,1.197594638121842
157,1124.9199999999998,1.0872199397526272
158,1135.33,1.410273205511742
159,1145.8300000000002,1.2921274389863537
160,1153.78,1.3941015871885596
161,1164.45,1.4564497596813313
162,1175.23,1.012305892715266
163,1186.1,1.4430909934646972
164,1194.32,0.991560244813393
165,1205.3700000000001,0.7117601809938175
166,1213.73,0.47682618212217487
167,1224.96,1.0076450537335928
168,1236.29,1.5677799894733402
169,1244.86,1.7510019152711898
170,1256.38,1.6876457828547637
171,1258.92541,1.6200719786324638
172,1265.0900000000001,1.4564210270649485
173,1273.86,1.919877250833996
174,1285.65,2.0382615516592035
175,1294.56,1.615413779000391
176,1303.53,1.6079840078724954
177,1315.5900000000001,2.04766731558683
178,1324.71,1.9782995482862271
179,1333.89,1.7590657825165414
180,1346.24,2.1246520976303085
181,1355.5700000000002,2.0762063356879157
182,1364.97,1.8632675755315926
183,1374.43,1.9827828169061867
184,1383.9499999999998,2.0197220598116976
185,1393.55,1.7712443047584319
186,1406.4399999999998,1.8589976336504526
187,1416.19,1.9154868824244793
188,1426.01,1.9872661329845758
189,1435.8899999999999,1.9872903850755894
190,1442.52,2.1148945542419275
191,1445.43977,2.153600432608559
192,1445.85,2.15903863752565
193,1455.87,2.1099988521011106
194,1465.96,1.9556140681756011
195,1476.12,1.9646042857491222
196,1486.35,2.019737504821673
197,1496.6499999999999,2.0715157253932546
198,1503.56,1.9736178733689465
199,1510.5,1.75905802198708
200,1517.48,1.893539171461802
201,1524.48,1.8461923213648181
202,1535.05,1.611686547718373
203,1545.69,1.795891775570958
204,1556.4,1.7032610049225732
205,1563.59,1.7469531588943856
206,1574.42,1.8805303908157667
207,1585.3400000000001,1.9872856246644721
208,1596.33,2.047657860012208
209,1603.7,2.0150230178386694
210,1614.8100000000002,2.0383012557561715
211,1626.0,1.9332094953868504
212,1633.51,2.076198656211372
213,1644.83,2.1246728986259646
214,1656.23,1.9691311427537341
215,1659.58691,2.0568531968998323
216,1663.88,2.169039886027336
217,1671.56,1.937669087084612
218,1675.4099999999999,2.199347689177127
219,1683.1499999999999,2.3028998996176626
220,1694.81,2.17413972309785
221,1706.56,2.0953775606529272
222,1714.44,2.001166792987736
223,1726.3200000000002,2.00117865087321
224,1734.29,2.149125897282909
225,1746.3100000000002,2.1100397770626564
226,1754.3700000000001,2.266189037547245
227,1766.53,2.0811269392212655
228,1774.6899999999998,2.1491042153446216
229,1786.99,2.199357138912915
230,1795.2399999999998,2.3619394291111604
231,1803.5200000000002,2.3512197240010364
232,1816.0200000000002,2.184111678846863
233,1824.4099999999999,2.240195990939382
234,1837.0500000000002,2.159114967679482
235,1845.53,1.9920092938468907
236,1854.05,2.015078626269806
237,1866.8999999999999,2.0858336358513165
238,1875.52,2.266197983912998
239,1884.18,2.100274338230187
240,1892.8700000000001,2.0242686972390063
241,1905.46072,2.1489994055893953
242,1905.99,2.1542425595771793
243,1914.7900000000002,2.085826785625293
244,1923.63,2.057297003609989
245,1936.97,2.1198053144601974
246,1945.9099999999999,2.2298315122863492
247,1954.8899999999999,2.1002757020490836
248,1968.4399999999998,2.3082139705663494
249,1977.5200000000002,2.3783851401705394
250,1982.08,2.2556552209409255
251,1995.8200000000002,2.2044354511569577
252,2005.03,2.27655059455504
253,2014.29,2.209513727873851
254,2023.5900000000001,2.3189508531292438
255,2032.93,2.2094979703212188
256,2047.02,2.3029181299823462
257,2056.47,2.1993222249999227
258,2065.96,2.2247303119540818
259,2075.5,2.3947553888289685
260,2080.2799999999997,2.2818044252505576
261,2085.07,2.3674124596562924
262,2094.7,2.2505365183884893
263,2104.3700000000003,2.276517569057269
264,2114.08,2.3029096116626304
265,2123.8399999999997,2.35118664418872
266,2133.64,2.194254668651392
267,2143.4900000000002,2.2555986830347923
268,2153.38,2.3457106893547746
269,2163.32,2.2817946855954845
270,2173.31,2.271230671756923
271,2183.34,2.240163649854943
272,2187.7616199999998,2.2888492689790527
273,2193.42,2.351154667950068
274,2203.54,2.2976312944624215
275,2213.71,2.199328929010903
276,2223.9300000000003,2.139328571595513
277,2234.2000000000003,2.286680222216251
278,2244.51,2.193450879265892
279,2254.87,2.118412544351661
280,2265.28,2.172358217473558
281,2275.74,2.2327298986315833
282,2286.24,2.2894245862185114
283,2296.79,2.1709892818415675
284,2307.39,2.180381985500752
285,2312.71,2.0965368405447955
286,2323.39,1.6842625570617853
287,2334.11,1.9738162800076775
288,2344.89,1.9196090125969234
289,2355.71,2.070735751615072
290,2366.58,1.923157498669349
291,2377.5099999999998,1.9812342553669797
292,2382.9900000000002,1.8486961361266336
293,2393.99,1.971261904074844
294,2405.04,1.8996196800591825
295,2416.14,1.9434144640796491
296,2427.29,2.0533632561362443
297,2432.89,1.9789011561826058
298,2444.12,2.085992961097006
299,2455.4,2.0615717740475343
300,2466.73,2.051609595034191
301,2472.42,1.9863285095455832
302,2483.83,2.046132343390045
303,2495.29,1.913583185270635
304,2506.81,2.131741036794579
305,2511.88643,1.9550715493903927
306,2512.59,1.9305858089266545
307,2518.38,1.984391448766282
308,2524.19,1.908003087361832
309,2535.8399999999997,1.9296393626868162
310,2547.54,1.9027036349016073
311,2553.42,2.019751269142887
312,2565.2000000000003,1.9871245363813688
313,2577.04,2.0897187998876188
314,2582.9800000000005,2.075072430396667
315,2594.9100000000003,2.0555166883045692
316,2606.8799999999997,1.9990529437243165
317,2612.89,1.975983569879094
318,2624.95,2.0590398197004935
319,2637.07,2.101638065789662
320,2643.15,2.251538687590169
321,2655.3500000000004,2.282210928703028
322,2667.61,2.109842166083655
323,2673.76,2.198959783529891
324,2686.1000000000004,2.1932900159342097
325,2692.29,2.1088606308922913
326,2704.72,2.1573218576982613
327,2717.2000000000003,2.074074081394038
328,2723.4599999999996,2.0785786919978495
329,2736.04,2.1708089094732403
330,2742.3399999999997,1.934538517588897
331,2755.0,1.9654147300879787
332,2767.7200000000003,2.0293169388548282
333,2774.1,2.1149195419941758
334,2786.9,2.0285437457847166
335,2793.33,1.6869933458138708
336,2806.22,1.7988405440060637
337,2812.69,2.1131541415470636
338,2825.67,2.186844334140909
339,2832.19,2.107479928571715
340,2845.26,2.0730911155672125
341,2851.8199999999997,2.0255967075098646
342,2864.9799999999996,2.1649438889070143
343,2878.21,2.1495040659498934
344,2884.0315,2.1579180981739903
345,2884.84,2.1590867028008653
346,2898.1600000000003,2.138562685844291
347,2911.5299999999997,2.280455668824066
348,2931.71,2.2122416431346013
349,2952.0400000000004,2.1909246172541836
350,2972.5,2.220442591208274
351,2993.1000000000004,2.224758564984143
352,3006.92,2.2444845473910604
353,3027.7599999999998,2.243512520861405
354,3048.75,2.242532494140797
355,3069.8799999999997,2.2468384672419672
356,3091.16,2.2612984401521845
357,3112.59,2.2499544128714497
358,3126.9599999999996,2.2286433945782083
359,3148.63,2.24291936699195
360,3170.46,2.2419433392020083
361,3192.43,2.154789311233845
362,3207.1699999999996,2.2094982924695876
363,3229.4,2.14324426417044
364,3251.78,2.22768823568034
365,3266.79,2.273606216572368
366,3289.44,2.2620681877385533
367,3311.31121,2.2611300000987824
368,3312.2400000000002,2.261090137293894
369,3319.88,2.2868899513732424
370,3327.53,2.297054765209239
371,3335.2,2.3609625785585324
372,3342.89,2.2284583914211225
373,3350.59,2.3332102040403604
374,3358.32,2.248391015929544
375,3366.06,2.212038827575376
376,3373.82,2.1317136387345044
377,3381.6000000000004,2.2165274494069296
378,3389.39,2.3099532598360035
379,3397.21,2.2569860695350217
380,3405.0399999999995,2.2462308789906893
381,3412.89,2.2048056879596527
382,3420.75,2.281812496685265
383,3428.64,2.2763323046808224
384,3436.54,2.286303112433028
385,3444.4700000000003,2.1432369194551786
386,3452.4100000000003,2.3496167262339775
387,3460.36,2.207550532769425
388,3468.3399999999997,2.2175073385748174
389,3476.34,2.191709143893507
390,3484.35,2.211643948968844
391,3492.38,2.226507753557479
392,3500.43,2.1604495576594096
393,3508.5,2.2003153612746376
394,3516.59,2.144808164403162
395,3524.7000000000003,2.2198509670449833
396,3532.8199999999997,2.2607037694434524
397,3540.97,2.2917715711118674
398,3549.1299999999997,2.33397937253693
399,3557.3100000000004,2.2804351734752903
400,3563.81,2.4825120152967246
401,3566.47,2.538409950565189
402,3569.1299999999997,2.3701468858336536
403,3571.8,2.5477868208587657
404,3574.46,2.52902975612723
405,3577.12,2.3953576913956938
406,3579.79,2.1305376264208067
407,3582.45,2.076798561689271
408,3585.11,2.3509954969577347
409,3587.7799999999997,2.0873474319828476
410,3590.4399999999996,2.2083253672513115
411,3593.1000000000004,2.409821302519776
412,3595.77,2.4145032375448885
413,3598.4300000000003,2.1604441728133525
414,3601.1,2.357432107838465
415,3603.7599999999998,2.595475043106929
416,3606.42,2.0410349783753934
417,3609.0899999999997,2.228642913400506
418,3611.7500000000005,2.34121684866897
419,3614.4100000000003,2.0973197839374342
420,3617.08,2.3040807189625467
421,3619.7400000000002,2.388120654231011
422,3622.4,2.1731485894994753
423,3625.07,2.1448025245245876
424,3627.73,2.287864459793052
425,3630.39,2.358811395061516
426,3633.0600000000004,2.3029083300866287
427,3635.7200000000003,2.2814152653550925
428,3638.38,2.2825922006235566
429,3641.05,2.0908641356486695
430,3643.71,2.3025230709171334
431,3646.37,2.2317800061855975
432,3649.04,2.26968594121071
433,3651.7,2.3687748764791743
434,3654.37,2.320689811504287
435,3657.03,2.147149746772751
436,3659.69,2.456915682041215
437,3662.36,2.2219966170663277
438,3665.02,2.2972435523347916
439,3667.68,2.255424487603256
440,3670.35,2.4948214226283683
441,3673.0099999999998,2.2870813578968328
442,3675.6699999999996,2.396528293165297
443,3678.34,2.2872722281904094
444,3681.0,2.3709221634588737
445,3683.6600000000003,2.222006098727338
446,3686.33,2.1979600337524503
447,3688.99,2.3505979690209147
448,3691.65,2.2057859042893786
449,3694.3199999999997,2.371700839314491
450,3696.9800000000005,2.2831737745829557
451,3699.65,2.1680557096080677
452,3702.31,2.3971076448765323
453,3704.9700000000003,2.260894580144996
454,3707.64,2.3599715151701086
455,3710.3,2.143240450438573
456,3712.96,2.423496385707037
457,3715.6299999999997,2.4236833207321498
458,3718.2900000000004,2.8485592560006134
459,3720.9500000000003,3.868141191269078
460,3723.6200000000003,5.6399221262941905
461,3726.28,7.537395061562655
462,3728.94,7.882544996831118
463,3731.61,6.284656931856231
464,3734.27,4.530850867124696
465,3736.93,3.1987828023931595
466,3739.6000000000004,2.901322737418272
467,3742.26,2.7727326726867365
468,3744.92,2.9146226079552
469,3747.59,2.6357295429803127
470,3750.25,2.558342478248777
471,3752.92,2.5405494132738897
472,3755.58,2.848166348542354
473,3758.24,2.834100283810818
474,3760.9100000000003,2.8921332188359306
475,3763.57,2.868101154104395
476,3766.23,2.7293480893728588
477,3768.9,2.8100530243979716
478,3771.56,2.6253729596664352
479,3774.22,2.6326088949349
480,3776.89,2.7912918299600125
481,3779.5499999999997,3.028552765228476
482,3782.2099999999996,3.3946057004969403
483,3784.88,3.398111635522053
484,3787.54,3.2355175707905173
485,3790.2000000000003,3.0625645060589815
486,3792.87,2.9120704410840936
487,3795.5299999999997,2.697880376352558
488,3798.2,2.45670831137767
489,3800.8599999999997,2.5470022466461346
490,3801.8939600000003,2.6664988444770716
491,3803.5200000000004,2.854423190159469
492,3806.19,3.0273721387228734
493,3808.85,3.131543087478924
494,3811.51,3.401052036234974
495,3814.18,3.461428984798378
496,3816.84,3.4272339335544286
497,3819.5,3.2079638823104792
498,3822.1699999999996,3.2339458308738833
499,3824.8300000000004,3.275773779629934
500,3827.4900000000002,2.995919728385984
501,3830.1600000000003,2.6924016769493884
502,3832.82,2.542509625705439
503,3835.48,2.3326185744614896
504,3838.15,2.3390595230248934
505,3840.81,2.593127471780944
506,3843.47,2.9128614205369945
507,3846.1400000000003,3.0946043691003986
508,3848.8,3.415902317856449
509,3851.4700000000003,3.379344266419853
510,3854.13,3.3097772151759037
511,3856.79,3.4219611639319543
512,3859.46,3.403384112495358
513,3862.12,3.5681400612514085
514,3864.7799999999997,3.6156370100074593
515,3867.4500000000003,3.7680629585708627
516,3870.11,3.9375099073269135
517,3872.77,3.589644856082964
518,3875.44,3.477649804646368
519,3878.1,3.4680797534024186
520,3880.7599999999998,3.334409702158469
521,3883.43,3.0529756507218733
522,3886.0899999999997,2.9759795994779235
523,3888.7500000000005,2.938071548233974
524,3891.42,2.9808614967973783
525,3894.08,3.1542154455534286
526,3896.7400000000002,3.2126563943094792
527,3899.41,3.374854342872883
528,3902.07,3.536679291628934
529,3904.74,3.6875422401923377
530,3907.3999999999996,3.7059191889483882
531,3910.0600000000004,3.919339137704439
532,3912.73,3.906818086267843
533,3915.3900000000003,3.9414170350238935
534,3918.05,3.987350983779944
535,3920.72,3.996326932343348
536,3923.38,3.9277378810993984
537,3926.04,3.876149829855449
538,3928.71,3.449115778418853
539,3931.3700000000003,3.1366247271749037
540,3934.03,3.055134675930954
541,3936.7000000000003,3.2411766244943583
542,3939.36,3.5716595732504084
543,3942.02,3.650621522006459
544,3944.69,3.6461144705698634
545,3947.35,3.6908744193259135
546,3950.02,3.6480633678893177
547,3952.6800000000003,3.7231163166453682
548,3955.34,3.626578265401419
549,3958.01,3.4485272139648226
550,3960.67,3.109066162720873
551,3963.33,2.972072111476924
552,3966.0,2.807313060040328
553,3968.66,2.5823740087963785
554,3971.3199999999997,2.6071979575524287
555,3973.9900000000002,2.7037329061158326
556,3976.65,2.8661428548718835
557,3979.31,2.937481803627934
558,3981.98,3.2769387521913376
559,3984.64,3.525340700947388
560,3987.2999999999997,3.583585649703439
561,3989.97,3.7000515982668425
562,3992.6299999999997,3.776668547022893
563,3995.2900000000004,3.7457964957789436
564,3997.96,3.684613444342348
565,4000.62,3.5908113930983983
566,4003.29,3.6478663416618025
567,4005.95,3.658426290417853
568,4008.61,3.822205239173903
569,4011.2799999999997,3.8235611877373072
570,4013.9399999999996,3.756144136493358
571,4016.6000000000004,3.7223400852494084
572,4019.27,3.7901430338128126
573,4021.9300000000003,3.856987982568863
574,4024.59,3.7839019313249134
575,4027.2599999999998,3.8167228798883177
576,4029.92,3.830214828644368
577,4032.58,3.9732787774004183
578,4035.25,4.076844725963822
