,lambda (Angstroms),Total Flux (erg/s/cm^2/Angstrom)
0,100.08,4.821467282214292
1,101.94,4.808054297239306
2,104.07,4.792694245899444
3,104.712855,4.78805844466418
4,106.00999999999999,4.738922558491922
5,107.98,4.664298953916016
6,109.99,4.58816031600595
7,114.11,4.432094883375959
8,118.11999999999999,4.280196383329691
9,120.22644299999999,4.20040901914774
10,120.88,4.179654559219024
11,125.12,4.045001174000595
12,126.86,3.989742566035472
13,128.04,3.952268416847745
14,131.02,3.8576299775219565
15,131.93,3.8287326948224383
16,134.07,3.760771019217746
17,136.88,3.671535491515276
18,138.038426,3.6347467186239593
19,140.07,3.588630977157874
20,143.0,3.5221733018607213
21,147.01000000000002,3.431284744355164
22,151.13,3.3377804622738445
23,155.0,3.249955847482896
24,158.489319,3.1707726686373374
25,158.98,3.162355268466451
26,161.94,3.111578112357168
27,166.08999999999997,3.0403928922019245
28,169.96,2.9740071830516124
29,173.12,2.919802396367378
30,177.15,2.8506737306571055
31,180.03000000000003,2.8012740738778033
32,181.970086,2.767996221880687
33,182.11,2.7661656219608264
34,185.92999999999998,2.71618862091142
35,191.14,2.648023411117072
36,193.79,2.61336179258463
37,197.85,2.5602442076137946
38,202.0,2.505953982072423
39,204.81,2.469195957092362
40,208.929613,2.4152743882189256
41,210.06,2.4041519324680327
42,215.94,2.346376769770571
43,219.96,2.306859316258021
44,223.01999999999998,2.2767617483021994
45,227.16,2.2360678991325584
46,229.8,2.2106315564765553
47,234.07,2.1697046858283984
48,239.88329199999998,2.11310274970603
49,240.07,2.111706427809175
50,246.23,2.0648467042644425
51,251.97,2.0215319642341236
52,257.24,1.9810660782794578
53,260.22,1.9588901816295707
54,263.84000000000003,1.9316114331958156
55,268.75,1.894383016682076
56,273.74,1.856540134070353
57,275.42287,1.8437801469788526
58,278.83000000000004,1.8239563688313372
59,284.01,1.7938092791817315
60,289.96000000000004,1.75901902500313
61,296.03000000000003,1.7237538793654639
62,300.84,1.695736533047973
63,307.85,1.6549679776476374
64,316.227766,1.6062507548011484
65,317.94000000000005,1.5988168301766168
66,328.35,1.553553428155097
67,338.33000000000004,1.510118490310258
68,347.81,1.4688503966941184
69,356.73,1.4300336004941223
70,363.078055,1.4024207329735272
71,365.88000000000005,1.3932920387204248
72,375.27,1.3626611132897724
73,384.89000000000004,1.33118438101364
74,394.77,1.2990571172165315
75,404.89,1.2660666920154442
76,414.32,1.235294099350795
77,416.86938299999997,1.2269711536014771
78,422.03,1.214094826057339
79,429.86999999999995,1.1945428020408402
80,440.9,1.1670591141196693
81,451.16999999999996,1.141439742689894
82,459.55999999999995,1.1205106728967276
83,470.26,1.093838485241557
84,478.630092,1.0729870752039474
85,480.10999999999996,1.070150112526053
86,490.15999999999997,1.0508311580345087
87,500.42999999999995,1.031159719859567
88,506.22,1.020027356146528
89,512.0799999999999,1.0088615044887717
90,520.4,0.9929084289166672
91,530.08,0.9743149378471991
92,539.93,0.9553772413405613
93,549.5408739999999,0.9369401047595525
94,549.97,0.9363115147415265
95,560.2,0.9213760213362563
96,570.61,0.9061727022024478
97,579.88,0.8925712616827163
98,590.66,0.8768187607180232
99,600.26,0.8627248128626378
100,610.02,0.8482505950263292
101,619.93,0.8339847795829054
102,630.0,0.8192331741585582
103,630.957344,0.8178343452906843
104,640.24,0.807077804633961
105,650.64,0.7950094829269283
106,658.17,0.7862526967871247
107,664.26,0.7792092177298333
108,675.06,0.7666842481109916
109,684.45,0.7557415547812765
110,695.5699999999999,0.7429131700329875
111,705.25,0.7316295323672108
112,716.71,0.7184108532938843
113,724.43596,0.7094508490267749
114,726.68,0.7075172206256529
115,735.09,0.7002777099022536
116,745.32,0.6914759688510793
117,755.68,0.6825628580622071
118,764.43,0.6749272474094433
119,775.07,0.6658864290316824
120,785.85,0.6565950478594774
121,794.9499999999999,0.6487862762206034
122,804.16,0.6408721709575227
123,815.3399999999999,0.6312596375154771
124,824.78,0.6231661909472382
125,831.763771,0.617057736839852
126,834.3399999999999,0.6153629140290757
127,845.94,0.6080378076427376
128,855.74,0.6017314963335898
129,865.65,0.5953861297975028
130,875.6700000000001,0.5889739000344761
131,885.81,0.5824885069329703
132,894.01,0.5772373364702139
133,904.36,0.5705667780263691
134,914.8299999999999,0.564299707244045
135,925.42,0.5632565041232416
136,933.99,0.5657260725335072
137,944.8,0.5719422349588248
138,954.992586,0.5766767284000356
139,955.74,0.5770342652019709
140,964.59,0.5749162256301589
141,975.75,0.5314823083226536
142,984.78,0.5528621208103981
143,993.9000000000001,0.5506072618279206
144,1005.4000000000001,0.5632972106329107
145,1014.71,0.5562543902132985
146,1024.1,0.5184613618201557
147,1035.95,0.5242933932409499
148,1045.54,0.5561577649139808
149,1055.21,0.5483478086134811
150,1064.98,0.5244286773460684
151,1074.83,0.5303989981051253
152,1084.78,0.5077082838972689
153,1094.81,0.521446251715882
154,1096.4782,0.5199126691736515
155,1104.94,0.5130966303901311
156,1115.17,0.5040877896118297
157,1125.49,0.4913354040759478
158,1135.8999999999999,0.5042648537824856
159,1143.78,0.49265119722989353
160,1154.36,0.4921650979498906
161,1165.04,0.48875564338368727
162,1175.8200000000002,0.45778914353128336
163,1183.97,0.4764333827059505
164,1194.92,0.4459051638670059
165,1205.98,0.42564641921324103
166,1214.34,0.4121419272868872
167,1225.58,0.4316280431179616
168,1234.07,0.45433395431954715
169,1245.49,0.4561223506354607
170,1254.12,0.4469298744363658
171,1258.92541,0.4395134820697911
172,1265.73,0.430015981470112
173,1274.5,0.44854586965284643
174,1286.3,0.4489025248588061
175,1295.21,0.42326073867957736
176,1304.19,0.41897740031936703
177,1316.26,0.4349159913986834
178,1325.3799999999999,0.42724454867650996
179,1334.57,0.4124213637733548
180,1343.82,0.42588087128650115
181,1356.25,0.41796853686362645
182,1365.6499999999999,0.4040659554175266
183,1375.12,0.4048902917904451
184,1384.65,0.40217083057966496
185,1394.25,0.3863029971879034
186,1403.9099999999999,0.38528265621244334
187,1413.6499999999999,0.3846760884587185
188,1423.45,0.38361531312129515
189,1436.6200000000001,0.37842209849947217
190,1443.25,0.3805028005007868
191,1445.43977,0.38072789414972147
192,1446.5700000000002,0.3809691528137082
193,1456.6000000000001,0.37550280684568443
194,1463.32,0.3668716364264303
195,1473.47,0.3646220452723485
196,1483.68,0.3637808565252375
197,1493.97,0.3625936543207545
198,1504.3200000000002,0.35517363452324247
199,1511.26,0.3448523995962151
200,1518.2399999999998,0.3481009729405017
201,1525.25,0.3439017224882738
202,1535.82,0.3315430881829885
203,1546.47,0.3339039804203312
204,1553.6,0.32892270478204516
205,1564.37,0.3281602618333297
206,1575.22,0.3298692354272421
207,1586.14,0.3307320034959541
208,1593.4599999999998,0.3301785071464094
209,1604.5,0.3262027400290632
210,1615.63,0.3235178615221734
211,1626.82,0.3169810854222546
212,1634.33,0.3197244283614512
213,1645.6599999999999,0.31800051121113126
214,1653.26,0.31084234276078426
215,1659.58691,0.31266516071705047
216,1664.72,0.3145374306430214
217,1672.4,0.3046155411422234
218,1676.26,0.3135055883202077
219,1683.99,0.315312641140368
220,1695.6699999999998,0.3084819473162377
221,1703.49,0.304246246314123
222,1715.3,0.2983083425244843
223,1723.22,0.2965819861642863
224,1735.16,0.2993929624091393
225,1743.17,0.29648510222666635
226,1755.2599999999998,0.2991786754343945
227,1763.36,0.2917422514296465
228,1775.58,0.29084146467186633
229,1783.7800000000002,0.29117981530903503
230,1796.1399999999999,0.2941438970499382
231,1804.4299999999998,0.29212376386483196
232,1816.94,0.2837553425686101
233,1825.33,0.28407055402542064
234,1833.75,0.27993317087480607
235,1846.46,0.27193470886241755
236,1854.99,0.2712999388179115
237,1863.55,0.2722160841659803
238,1876.47,0.2752449399016169
239,1885.1299999999999,0.26803712989160244
240,1893.83,0.2644911637383547
241,1905.46072,0.2659832827885217
242,1906.96,0.26624739297662287
243,1915.76,0.2625808094150661
244,1924.6,0.25959600438277497
245,1933.48,0.25994749787974947
246,1946.89,0.26262262231605893
247,1955.8700000000001,0.2570078171361976
248,1964.9,0.26275389761791834
249,1973.9699999999998,0.2632754766289047
250,1983.0800000000002,0.2590245541691567
251,1996.83,0.25573719110422427
252,2006.05,0.2563423670999568
253,2015.3,0.25315225449263856
254,2024.6100000000001,0.25440891467921883
255,2033.9499999999998,0.25054098626274834
256,2043.34,0.2524558735078599
257,2052.77,0.2459929692822371
258,2067.0,0.24507625856849247
259,2071.77,0.2513079706834213
260,2076.54,0.2522749427983503
261,2086.13,0.25638446268979004
262,2095.76,0.2504716311104955
263,2105.4300000000003,0.2490232480604666
264,2115.15,0.24993795067201985
265,2124.9100000000003,0.24791975181283862
266,2134.72,0.24165437861523958
267,2144.57,0.2447899339469061
268,2154.47,0.24627091494015474
269,2164.42,0.2409168215949854
270,2174.41,0.2397845267790818
271,2184.44,0.24047172049244375
272,2187.7616199999998,0.24096267716418268
273,2194.53,0.24225050551573185
274,2204.65,0.23927810811249725
275,2214.83,0.2317701713965952
276,2225.05,0.23103420180558154
277,2235.32,0.23805675112067842
278,2245.6400000000003,0.2339785193418858
279,2256.0099999999998,0.22659035646920367
280,2266.42,0.22650829072140993
281,2276.88,0.2286922838797267
282,2287.39,0.233241575944154
283,2292.66,0.22623883464820077
284,2303.25,0.22923357096240485
285,2313.88,0.2230272344014973
286,2324.56,0.20779896674670031
287,2335.29,0.21267669799801375
288,2346.07,0.20708431815543774
289,2356.9,0.2163759172189722
290,2362.33,0.20612408442257263
291,2373.23,0.2090050559546618
292,2384.19,0.20027331817408356
293,2395.19,0.20389888751839372
294,2406.25,0.2013963775500365
295,2417.36,0.2033208264877898
296,2422.9300000000003,0.21263413862849956
297,2434.1099999999997,0.21034709003480762
298,2445.35,0.21510883212844817
299,2456.64,0.21488070312819924
300,2462.3,0.21102925129990793
301,2473.66,0.20650805476821374
302,2485.08,0.2004266389238521
303,2496.5499999999997,0.195711371985601
304,2502.31,0.21049565796953068
305,2511.88643,0.19500390224020733
306,2513.86,0.19185595093800104
307,2519.65,0.19121203969498124
308,2525.46,0.190433114855267
309,2537.12,0.19520955798244985
310,2542.97,0.19530056594934692
311,2554.7,0.2081518764880995
312,2566.5,0.19973176443842175
313,2572.41,0.20651524161523566
314,2584.2900000000004,0.20255877517878043
315,2596.2200000000003,0.19872737975058935
316,2602.2000000000003,0.19442562433897298
317,2614.21,0.19132833452400438
318,2626.2799999999997,0.19840457391895266
319,2632.33,0.21379267591890605
320,2644.48,0.2298994609270768
321,2656.69,0.2468259051451645
322,2662.81,0.2175407145566876
323,2675.1000000000004,0.22537243438799778
324,2687.4500000000003,0.2306027134292249
325,2693.65,0.21545383845397054
326,2706.08,0.22522458310842017
327,2712.3199999999997,0.20913727093977708
328,2724.84,0.202871999409102
329,2737.42,0.21082243708834386
330,2743.7299999999996,0.1867740123312705
331,2756.3900000000003,0.19392320562373483
332,2762.7400000000002,0.20337363367327266
333,2775.5,0.2078619289822652
334,2781.8900000000003,0.18931882983841428
335,2794.74,0.1679417289622822
336,2807.6299999999997,0.17179183089276137
337,2814.11,0.2004490355637858
338,2827.1000000000004,0.21997969951079305
339,2833.6099999999997,0.21709456878677597
340,2846.69,0.2053039065486586
341,2853.25,0.18633629683290553
342,2866.43,0.2212315466113164
343,2873.0299999999997,0.23469685970217458
344,2884.0315,0.22721621752955434
345,2886.2900000000004,0.22572442253173286
346,2892.9500000000003,0.23458444171388074
347,2913.0,0.2616062275400166
348,2933.19,0.24706486992553695
349,2946.73,0.24105792574029405
350,2967.16,0.24808375079904493
351,2987.72,0.24830859980579573
352,3008.4300000000003,0.2512829379833156
353,3029.29,0.25364466533160457
354,3050.29,0.25680284923927804
355,3071.43,0.262323189706336
356,3092.72,0.2626744193441631
357,3106.9999999999995,0.27238738840138105
358,3128.5299999999997,0.26521670071243864
359,3150.2200000000003,0.26402313480564993
360,3172.05,0.2716453254582457
361,3186.7000000000003,0.2531463011366941
362,3208.7900000000004,0.2662298396852897
363,3231.0299999999997,0.24387566740465438
364,3253.42,0.28018278429478816
365,3268.44,0.300994066594467
366,3291.1000000000004,0.29584896399198507
367,3306.29,0.29104260068520227
368,3311.31121,0.2908657280604724
369,3321.5499999999997,0.29064465025972464
370,3329.21,0.30713415874502403
371,3336.8799999999997,0.29750693617090473
372,3344.57,0.29252315147794816
373,3352.28,0.2812212046661542
374,3360.0099999999998,0.3029617957355229
375,3367.76,0.29882012468605423
376,3375.52,0.25816002257716697
377,3383.3,0.26616955834944234
378,3391.1000000000004,0.30231503200288035
379,3398.92,0.3119260435374811
380,3406.75,0.3004870240126631
381,3414.61,0.29982401130958913
382,3422.48,0.32002666754709647
383,3430.37,0.3040378616657665
384,3438.28,0.31007939366559917
385,3446.2,0.25412439460601316
386,3454.15,0.3035468023681711
387,3462.11,0.27342987907091043
388,3470.09,0.29371989365481244
389,3478.0899999999997,0.2623322461198771
390,3486.11,0.2838130364661044
391,3494.14,0.27539289575291304
392,3502.2,0.30669106186146566
393,3510.27,0.3029044969105996
394,3518.3599999999997,0.28833226984089627
395,3526.47,0.2769382806523556
396,3534.6,0.30395282934497747
397,3542.75,0.32719081591876215
398,3550.92,0.3224998403737094
399,3559.1,0.31351753376923797
400,3567.3100000000004,0.30328253398651056
401,3575.53,0.27269340314436447
402,3583.77,0.2565858101833811
403,3592.0400000000004,0.25312582404414163
404,3600.32,0.3232373068454836
405,3608.6200000000003,0.2873720275279881
406,3616.94,0.2956073860916554
407,3625.27,0.31219981359590393
408,3633.63,0.3061270479218965
409,3641.28,0.30750008746661456
410,3644.04,0.28956181506706186
411,3646.79,0.29746567372692784
412,3649.54,0.2540171323867938
413,3652.2900000000004,0.2632747910466598
414,3655.05,0.29130111864710706
415,3657.7999999999997,0.3253391773069731
416,3660.55,0.31032203596683905
417,3663.2999999999997,0.321218794626705
418,3666.05,0.302469253286571
419,3668.81,0.3035811808870183
420,3671.56,0.2904857395468843
421,3674.31,0.3200304982067502
422,3677.06,0.3068481568666162
423,3679.81,0.29572621552648215
424,3682.57,0.2931711431269295
425,3685.32,0.29863660178679546
426,3688.07,0.2748146604466614
427,3690.82,0.3156432191065274
428,3693.5800000000004,0.2963104467069747
429,3696.33,0.2993783053668407
430,3699.08,0.29410636402670665
431,3701.83,0.3198236226865726
432,3704.58,0.2881618813464386
433,3707.34,0.2858351089468859
434,3710.0899999999997,0.3027639676067519
435,3712.84,0.3106134262666178
436,3715.5899999999997,0.3195638849264838
437,3718.3500000000004,0.2980781125269311
438,3721.1,0.3342283711867971
439,3723.8500000000004,0.34677532984666304
440,3726.6,0.39762648850652904
441,3729.3500000000004,0.395198047166395
442,3732.11,0.39178897476684227
443,3734.8599999999997,0.3308344334267083
444,3737.61,0.28708969208657426
445,3740.3599999999997,0.30241465074644025
446,3743.11,0.3373391094063062
447,3745.87,0.3109411370067535
448,3748.62,0.2863063956666195
449,3751.37,0.2763697543264855
450,3754.1200000000003,0.2892971129863514
451,3756.88,0.3152711405867987
452,3759.63,0.3083925992466647
453,3762.38,0.34007115790653064
454,3765.1299999999997,0.31880721656639666
455,3767.88,0.3173436752262626
456,3770.6400000000003,0.3148319028267099
457,3773.39,0.33313626148657594
458,3776.14,0.31869262014644184
459,3778.89,0.3504718788063078
460,3781.64,0.36669133746617383
461,3784.4,0.38386016506662113
462,3787.15,0.37857752372648706
463,3789.9,0.376447982386353
464,3792.65,0.33216224104621905
465,3795.4100000000003,0.31508836864666634
466,3798.16,0.3081391273065323
467,3800.9100000000003,0.30615368596639825
468,3801.8939600000003,0.3097160715194759
469,3803.66,0.316126901629026
470,3806.41,0.3307906649895753
471,3809.17,0.36685419330779934
472,3811.9199999999996,0.40038865666834866
473,3814.67,0.37830582002889795
474,3817.42,0.37370188338944726
475,3820.17,0.37271334674999657
476,3822.93,0.3389831750682206
477,3825.6800000000003,0.33932663842876987
478,3828.43,0.3179286017893192
479,3831.1800000000003,0.30627316514986846
480,3833.94,0.28217169346809257
481,3836.6899999999996,0.28345835682864184
482,3839.44,0.2745077201891911
483,3842.1899999999996,0.28081778354974046
484,3844.94,0.3220289469102897
485,3847.7,0.3571955752285138
486,3850.4500000000003,0.36436203858906313
487,3853.2,0.3765575019496124
488,3855.9500000000003,0.3895413653101617
489,3858.71,0.36968559362838577
490,3861.46,0.376716156988935
491,3864.21,0.38064792034948436
492,3866.96,0.4050759837100337
493,3869.71,0.401097247070583
494,3872.4700000000003,0.399699075388807
495,3875.22,0.3834877387493563
496,3877.9700000000003,0.3622204021099056
497,3880.72,0.36593456547045494
498,3883.47,0.33948592883100426
499,3886.23,0.33367605714922827
500,3888.98,0.3165540205097776
501,3891.73,0.3045261838703269
502,3894.48,0.3286905472308762
503,3897.2400000000002,0.34464117554910023
504,3899.99,0.3639314389096496
505,3902.7400000000002,0.38504310227019883
506,3905.49,0.3891650656307482
507,3908.2400000000002,0.3980714289912975
508,3911.0,0.4119774573095215
509,3913.7499999999995,0.4322193206700708
510,3916.5,0.4122566840306201
511,3919.2500000000005,0.41009924739116943
512,3922.0,0.40310321075171873
513,3924.7599999999998,0.3825406390699428
514,3927.51,0.36257810243049204
515,3930.2599999999998,0.32126546579104137
516,3933.01,0.2848947291515907
517,3935.77,0.2689130574698147
518,3938.52,0.291644720830364
519,3941.27,0.34164968419091335
520,3944.0199999999995,0.3647185475514626
521,3946.77,0.37607131091201196
522,3949.53,0.37940313923023594
523,3952.28,0.4103824025907853
524,3955.0299999999997,0.4172499659513346
525,3957.78,0.4091665293118839
526,3960.5299999999997,0.38031489267243324
527,3963.29,0.33412652099065726
528,3966.04,0.2944503843512065
529,3968.79,0.2544533477117558
530,3971.54,0.24918331107230515
531,3974.3,0.2699211393905292
532,3977.0499999999997,0.31506560275107853
533,3979.8,0.3665955661116278
534,3982.55,0.3896101294721771
535,3985.2999999999997,0.41357609283272645
536,3988.06,0.4442543211509504
537,3990.8100000000004,0.44549498451149977
538,3993.56,0.44967134787204904
539,3996.31,0.4536575112325984
540,3999.07,0.45696183955082237
541,4001.8199999999997,0.4652973029113717
542,4004.57,0.46732626627192103
543,4007.3199999999997,0.46247772963247036
544,4010.07,0.4655124929930196
545,4012.83,0.47661842131124366
546,4015.5800000000004,0.484410184671793
547,4018.33,0.4960621480323423
548,4021.0800000000004,0.49491061139289155
549,4023.83,0.4839730747534409
550,4026.5899999999997,0.4791222030716649
551,4029.34,0.47334946643221426
552,4032.0899999999997,0.4724154297927635
553,4034.84,0.47631999315331286
554,4037.6,0.47910782147153685
555,4040.35,0.4833657848320862
556,4043.1,0.48686264819263547
557,4045.85,0.4789696115531848
558,4048.6,0.4701251749137341
559,4051.36,0.4786758032319582
560,4054.11,0.48679386659250745
561,4056.86,0.4688973299530568
562,4059.61,0.47274749331360605
563,4062.3599999999997,0.4696659566741554
564,4065.12,0.4647064849923794
565,4067.87,0.46784984835292875
566,4070.62,0.464632411713478
567,4073.37,0.46967877507402733
568,4076.13,0.46001660339225137
569,4078.8799999999997,0.4517701667528007
570,4081.63,0.46339483011335
571,4084.38,0.4693109934738993
572,4087.13,0.4706875568344486
573,4089.89,0.4671143851526726
574,4092.6400000000003,0.4617222485132219
575,4095.39,0.4411344118737713
576,4098.14,0.40592187523432055
577,4100.900000000001,0.3866370035525446
578,4103.65,0.3758895669130939
579,4106.4,0.3874326302736432
580,4109.15,0.41210539363419246
581,4111.9,0.4333258569947418
582,4114.66,0.45008608531296584
583,4117.41,0.4609224486735152
584,4120.16,0.46577841203406445
585,4122.91,0.4736517753946138
586,4125.66,0.46980913875516306
587,4128.42,0.4636535670733871
588,4131.17,0.4587779304339364
589,4133.92,0.4708918937944857
590,4136.67,0.47841195715503504
591,4139.43,0.480329785473259
