,lambda (Angstroms),Total Flux (erg/s/cm^2/Angstrom)
0,102.06,0.033947099488037986
1,103.96000000000001,0.03970468608088443
2,104.712855,0.041986069189094526
3,105.89,0.039009741072262516
4,108.11,0.033396627712758704
5,110.11999999999999,0.028314484900498926
6,113.98,0.018554748130937913
7,117.99000000000001,0.008415747731174771
8,120.22644299999999,0.0027610726051315107
9,121.02,0.002668235659279612
10,124.98,0.0022049507110631205
11,127.01,0.001967459354706586
12,127.89,0.0018645093103706995
13,130.87,0.001515879945866674
14,132.07999999999998,0.001374331972336082
15,133.92,0.0011590753156610456
16,137.04,0.0007940941328438102
17,138.038426,0.0006772951703152447
18,139.91,0.0006695831036105756
19,142.84,0.0006578467378970696
20,146.84,0.0006424316021663447
21,150.96,0.0006258107800906982
22,154.83,0.0006103395771919718
23,158.489319,0.0005957555786916979
24,159.17000000000002,0.0005915339004475818
25,162.12,0.0005733492821789633
26,165.9,0.0005502573881262923
27,170.16,0.000524179514812965
28,172.92,0.0005075209743141896
29,176.95,0.0004831759824590934
30,179.82000000000002,0.00046599956456725057
31,181.91,0.0004535319250989751
32,181.970086,0.00045317426065131404
33,186.14,0.0004633452025195602
34,190.92000000000002,0.0004755102126760854
35,194.01999999999998,0.0004836156727775975
36,198.07999999999998,0.0004942362529105456
37,202.23000000000002,0.000505485273046441
38,205.04000000000002,0.0005134662931384569
39,208.929613,0.0005237185319563191
40,209.82,0.0005352931405427288
41,216.20000000000002,0.0006211483551093422
42,220.22,0.0006753838653221608
43,222.77,0.000709911807695964
44,226.91,0.0007665135650793146
45,230.05999999999997,0.0008334486233057769
46,233.8,0.0009384718401206887
47,239.8,0.0010595266986472842
48,239.88329199999998,0.0010606620710969352
49,245.95,0.0010060880134520906
50,252.26,0.0009715312624362585
51,256.95,0.0009046548812533342
52,259.92,0.0009123938865596698
53,264.15000000000003,0.000894161681995966
54,269.06,0.0008612644641690669
55,274.06,0.0008272339313514503
56,275.42287,0.0008181477172864331
57,279.16,0.0008722039855673022
58,283.69,0.0009401298607120976
59,290.3,0.0010191658549079253
60,295.7,0.0011064077928288735
61,301.19,0.0011826846613818376
62,308.21000000000004,0.001290386450679071
63,316.227766,0.0014161850879349446
64,318.31,0.0014094931963961278
65,327.98,0.0013720903835644565
66,337.95,0.0013294903691971603
67,348.21999999999997,0.001283235653294238
68,357.15,0.0012459124709171105
69,363.078055,0.0012228503176611788
70,366.30999999999995,0.0012562676302375307
71,374.84000000000003,0.0013398949529530473
72,385.34,0.0014179683312077855
73,395.23,0.001535724316630582
74,405.36999999999995,0.0016376667253451577
75,413.84999999999997,0.001716278063402318
76,416.86938299999997,0.001741741711284707
77,421.54999999999995,0.0017695363626301867
78,430.38,0.0018237984251130031
79,441.42,0.00190093440957623
80,450.66,0.0019561454150508876
81,460.1,0.0020082509293020525
82,469.73,0.0020657654268909
83,478.630092,0.0021249575797196124
84,479.57,0.0021230788501323565
85,489.60999999999996,0.002080502316869493
86,499.86,0.002062264806217665
87,505.65,0.0020338430724933646
88,511.5,0.0020625119166579314
89,519.81,0.0020390614542660592
90,529.48,0.001999109424021847
91,540.56,0.001937256474166018
92,549.5408739999999,0.0019157535777219248
93,550.61,0.0019167324776164414
94,559.56,0.0019493631756164827
95,569.96,0.0019734310369796592
96,580.5600000000001,0.00195370747259982
97,589.99,0.0019834785488166235
98,599.5799999999999,0.001959624084439014
99,609.32,0.0018672560507541425
100,620.65,0.0020201125824122956
101,629.29,0.0020215833903140116
102,630.957344,0.0020235000763967103
103,639.51,0.0020654038790657615
104,649.9000000000001,0.002126111828097753
105,657.43,0.0021553626708514483
106,665.04,0.0022182187403541865
107,674.2900000000001,0.002258533458212312
108,685.25,0.002258340522831236
109,694.78,0.0024310770343110126
110,704.4499999999999,0.0024006929426016147
111,715.89,0.0025801543677147986
112,724.43596,0.002636378573405318
113,725.85,0.0026443694555762626
114,734.2600000000001,0.0026998088283696443
115,744.47,0.00281065501341369
116,754.8299999999999,0.0028948629328119572
117,765.33,0.002880613337607499
118,774.19,0.003104427913463547
119,784.9599999999999,0.0031833090400966877
120,795.8800000000001,0.003307152901084051
121,805.1,0.0034173744393902316
122,814.42,0.003514498467265893
123,825.75,0.00370892453548813
124,831.763771,0.003493358525370099
125,835.31,0.0033524291772393626
126,844.98,0.003834708089491488
127,854.77,0.0038953335621852124
128,864.66,0.004072363001913602
129,874.6800000000001,0.004255251298787056
130,884.8100000000001,0.004476652859398642
131,895.0500000000001,0.00465414868374836
132,905.42,0.004652750365243142
133,915.9000000000001,0.0062839613104760566
134,924.37,0.032687667618312204
135,935.0799999999999,0.07025513838772485
136,945.91,0.1347060487175791
137,954.66,0.1970678833331123
138,954.992586,0.19753362993090848
139,965.71,0.21256617173015852
140,974.65,0.03387135843289302
141,985.93,0.16439283749406136
142,995.06,0.18907598400367726
143,1004.26,0.30203850096845997
144,1015.89,0.30203589230546246
145,1025.29,0.1358930248564361
146,1034.78,0.20253361942119566
147,1044.35,0.42148238022043155
148,1054.02,0.417593598812763
149,1066.22,0.31548694957040957
150,1076.09,0.3915684837489319
151,1086.04,0.2965041841619306
152,1096.09,0.42436144236802475
153,1096.4782,0.4238469919257473
154,1106.24,0.41090168318592646
155,1113.9,0.39154426432820616
156,1124.21,0.3490088448212745
157,1134.6100000000001,0.47273630642436953
158,1145.1100000000001,0.4272344359274944
159,1155.71,0.46732273333064894
160,1163.72,0.48372645212303284
161,1174.49,0.319013624956238
162,1185.35,0.47594207889947
163,1196.32,0.30676258753273467
164,1204.61,0.21139703644520183
165,1215.76,0.16306270729852013
166,1224.19,0.33395807127102894
167,1235.51,0.5314588175543978
168,1244.0800000000002,0.5907905965869483
169,1255.5900000000001,0.5590281918803738
170,1258.92541,0.5262983530826885
171,1264.2900000000002,0.47366408987153485
172,1275.99,0.6447376892251311
173,1284.84,0.6860780207874666
174,1293.7399999999998,0.5157656570478946
175,1305.71,0.511059281771189
176,1314.76,0.6766700321258938
177,1323.88,0.6477136890579278
178,1336.13,0.5590318400905391
179,1345.3899999999999,0.7020455101772315
180,1354.71,0.6813431859016346
181,1364.1000000000001,0.5989963682033669
182,1373.56,0.6403011570824285
183,1386.27,0.6506940513374889
184,1395.8799999999999,0.5603160543108273
185,1405.5500000000002,0.5840117629218765
186,1415.3,0.6045274790498734
187,1425.11,0.631527400815581
188,1434.9899999999998,0.6300966291586177
189,1441.6100000000001,0.6735565511860371
190,1445.43977,0.6826027701877688
191,1448.26,0.6892643334450534
192,1454.95,0.6673817610265669
193,1465.03,0.6115444559475917
194,1475.19,0.6157587571775134
195,1485.41,0.635908663139108
196,1495.71,0.6537147754095995
197,1506.08,0.6157604932003761
198,1513.03,0.5400738412858048
199,1516.52,0.5880775165114374
200,1523.52,0.5668030685399268
201,1534.08,0.4836295013143337
202,1544.71,0.5425602396090256
203,1555.42,0.5146187842126143
204,1566.2,0.529008234336488
205,1573.43,0.5694486045030563
206,1584.34,0.6087199648788877
207,1595.3200000000002,0.6228818307750039
208,1606.38,0.6157675029800173
209,1613.79,0.6214572873416039
210,1624.98,0.5867327697985748
211,1636.24,0.6330190577758307
212,1643.79,0.6477447531779871
213,1655.19,0.5962613521958127
214,1659.58691,0.6206149835772128
215,1666.66,0.6597949723953367
216,1670.51,0.5760101896437239
217,1678.22,0.668948129899585
218,1685.96,0.7069546874327063
219,1693.74,0.6613195680021745
220,1705.48,0.6359482291699837
221,1713.36,0.5990415673303192
222,1725.23,0.5990556033662559
223,1733.2,0.6477766933583716
224,1745.21,0.6345352100215225
225,1753.2700000000002,0.6861616518454188
226,1765.42,0.6243809491357836
227,1773.57,0.6418910427914604
228,1785.86,0.6598631207090393
229,1794.1,0.7135663661964966
230,1806.5400000000002,0.7102918305003764
231,1814.88,0.6508019335787009
232,1823.26,0.6705762596933723
233,1835.89,0.6434030334198996
234,1844.37,0.5895533171254382
235,1852.88,0.5936304181082369
236,1865.7299999999998,0.6173145185346722
237,1874.34,0.6768195771083382
238,1882.99,0.620150958718351
239,1896.04,0.5991492743265205
240,1904.7900000000002,0.6389972135274006
241,1905.46072,0.6371289357717745
242,1913.59,0.6144742650080236
243,1926.85,0.6046745214114101
244,1935.74,0.6244390218960335
245,1944.68,0.6583549852630226
246,1953.65,0.6158807263594311
247,1967.2,0.6846208674805387
248,1976.28,0.7054000269181517
249,1985.3999999999999,0.6690183566616574
250,1994.56,0.6507923567110556
251,2003.77,0.6736415196428196
252,2013.02,0.650776452880476
253,2026.9699999999998,0.6845812970605094
254,2036.3300000000002,0.6492889486393704
255,2045.73,0.681399370524124
256,2055.17,0.6418577627147702
257,2064.6600000000003,0.6477594177877821
258,2074.19,0.7069489431666865
259,2078.97,0.6813783947208485
260,2083.76,0.7151153388514836
261,2093.38,0.6766949974186464
262,2103.04,0.6798146262917018
263,2112.75,0.6924227180471227
264,2127.3900000000003,0.7004333500038028
265,2137.21,0.6506831601004284
266,2147.08,0.6751136330794197
267,2156.9900000000002,0.7036482763643036
268,2166.94,0.67977248995508
269,2176.95,0.6766378590046953
270,2186.9900000000002,0.67196510578373
271,2187.7616199999998,0.6745074410586582
272,2197.0899999999997,0.705255054178744
273,2207.23,0.6860538557632871
274,2217.42,0.6476860869414425
275,2222.53,0.6315012114086037
276,2232.79,0.684484584017816
277,2243.1,0.6551966862206404
278,2253.45,0.6199964120983545
279,2263.85,0.6358938675696809
280,2274.2999999999997,0.6582679526346193
281,2284.7999999999997,0.6845895672931699
282,2295.3399999999997,0.6404693056266102
283,2305.94,0.650943179472385
284,2316.58,0.6160041769930497
285,2327.27,0.4816590041073264
286,2332.64,0.5645391824612709
287,2343.41,0.544172356925327
288,2354.22,0.6022084550642729
289,2365.09,0.5430180887155533
290,2376.01,0.564753651960446
291,2386.97,0.5175041388802283
292,2392.48,0.5570795000962867
293,2403.52,0.5357741343658485
294,2414.61,0.5546467982290224
295,2425.76,0.6025893976045309
296,2436.96,0.5821820265736515
297,2442.57,0.6209751469769343
298,2453.85,0.6181949232958344
299,2465.17,0.6069845232896242
300,2476.5499999999997,0.5837564587957484
301,2482.26,0.5851147383862555
302,2493.7200000000003,0.5449038212421593
303,2505.23,0.6328341336916752
304,2511.01,0.5425012547132392
305,2511.88643,0.5444150292357179
306,2516.79,0.5551184501863582
307,2522.6,0.5363258192888396
308,2534.24,0.5564705529123996
309,2545.94,0.5488961727917508
310,2557.69,0.6116283812175952
311,2563.58,0.5828232319944653
312,2575.42,0.624501119803997
313,2587.3,0.611775698450723
314,2593.2699999999995,0.5992703309019819
315,2605.24,0.5763350889323952
316,2617.27,0.5645831332186001
317,2623.3,0.6035523519256505
318,2635.4100000000003,0.6557057778862442
319,2647.57,0.7323298923933307
320,2653.68,0.7865162927747698
321,2665.92,0.6680520889562451
322,2672.0699999999997,0.7125176801748785
323,2684.4,0.7258471557400412
324,2696.79,0.6697392175609954
325,2703.01,0.709422292744719
326,2715.49,0.6501131339493604
327,2728.02,0.636818463700495
328,2734.31,0.6792548228493086
329,2746.9300000000003,0.5625202319841305
330,2753.26,0.5903834819701385
331,2765.97,0.6297299704886477
332,2772.35,0.6624504090211487
333,2785.14,0.5973446792140464
334,2798.0,0.4702906333720344
335,2804.45,0.5062494558696256
336,2817.4,0.649109089411301
337,2823.89,0.7199409027460865
338,2836.92,0.6971959179621504
339,2843.46,0.6612695198434289
340,2856.59,0.6031986121524788
341,2863.17,0.7301740048709516
342,2876.39,0.7646263765636889
343,2883.02,0.7438366578286548
344,2884.0315,0.7452929937237566
345,2896.33,0.763002868469183
346,2909.7000000000003,0.8720149057909965
347,2929.87,0.8215201112346001
348,2950.1699999999996,0.8011165160687675
349,2970.62,0.831277420199739
350,2991.22,0.8352612236275146
351,3011.95,0.8528861264458539
352,3032.8300000000004,0.8628660285609974
353,3046.83,0.8709619629293887
354,3067.95,0.8934414639194188
355,3089.21,0.9018424642531331
356,3110.6299999999997,0.9294029638367716
357,3132.19,0.906315662764094
358,3146.64,0.9105784950228979
359,3168.46,0.9341064927313476
360,3190.42,0.8639581897834814
361,3212.53,0.9195025861324192
362,3227.36,0.8426087166097936
363,3249.73,0.9652911117398588
364,3272.26,1.0392395061198483
365,3287.3599999999997,1.0251214353314704
366,3310.15,1.0158983284925873
367,3311.31121,1.0159065305541028
368,3325.43,1.0160050577798516
369,3333.1,1.0614923704253862
370,3340.7799999999997,0.9726631821747612
371,3348.4799999999996,1.114208992131817
372,3356.2,1.0641273002965534
373,3363.94,0.8711044066689705
374,3371.69,0.9121855121452279
375,3379.46,1.069251215829166
376,3387.25,1.0546395177207848
377,3395.06,1.0026358178200843
378,3402.89,1.148511116127064
379,3410.73,1.0027454135378846
380,3418.6,0.9936303082602259
381,3426.48,1.0477010020864077
382,3434.38,1.13042729412027
383,3442.29,0.9869642852579728
384,3450.23,1.0335038737071964
385,3458.1800000000003,1.0527861612602605
386,3466.15,1.0218314470210053
387,3474.14,1.0849067309894305
388,3482.15,1.0385500131655367
389,3490.18,1.0875352935493234
390,3498.2200000000003,0.9805966730369504
391,3506.2900000000004,1.1181108498360983
392,3514.37,1.0222041257390868
393,3522.47,1.1157043998497558
394,3530.59,1.0083066721681055
395,3538.73,1.123571942694136
396,3546.89,1.1524492114278468
397,3555.07,1.1578354783692386
398,3563.2599999999998,1.1160387444144708
399,3571.48,0.9970803077712237
400,3579.71,1.020352270231817
401,3587.96,0.8908554309000911
402,3596.2300000000005,1.0587617897760457
403,3604.52,1.1371610468596811
404,3612.8300000000004,0.983709002150997
405,3617.7799999999997,1.0847808585519616
406,3620.5,0.9936495147965317
407,3623.21,0.9684962719372618
408,3625.92,1.0641791290779918
409,3628.63,1.0977308862187218
410,3631.34,1.0970156433594518
411,3634.0499999999997,1.0900874005001817
412,3636.76,1.200381157640912
413,3639.48,1.141180913885482
414,3642.19,1.0709546710262123
415,3644.8999999999996,1.0524284281669423
416,3647.61,1.1856911853076721
417,3650.32,1.1899099424484023
418,3653.0299999999997,1.1084236995891321
419,3655.7400000000002,1.133390456729862
420,3658.45,1.1841882138705924
421,3661.17,1.1285269701151626
422,3663.88,1.2147207272558926
423,3666.59,1.2038014843966227
424,3669.2999999999997,1.2253032415373526
425,3672.01,1.1097389986780826
426,3674.7200000000003,0.9921042558188126
427,3677.43,1.0291955129595425
428,3680.1499999999996,1.095953269204113
429,3682.86,1.101037026344843
430,3685.57,0.898301083485573
431,3688.2799999999997,0.9356933406263029
432,3690.9900000000002,1.227034297767033
433,3693.7,1.191337054907763
434,3696.41,0.9938349120484931
435,3699.1200000000003,1.092718569189223
436,3701.84,1.1044613254337934
437,3704.5499999999997,1.1607950825745232
438,3707.26,1.1897898397152535
439,3709.9700000000003,1.2182205968559836
440,3712.68,1.2055313539967134
441,3715.39,1.3502801111374434
442,3718.1,1.1932568682781735
443,3720.82,1.3719256245227438
444,3723.5299999999997,1.5157323816634738
445,3726.2400000000002,1.8054911388042036
446,3728.95,2.0874938959449336
447,3731.66,1.755599653085664
448,3734.3700000000003,1.573310410226394
449,3737.08,1.3462861673671238
450,3739.79,1.3120579245078539
451,3742.51,1.0892076807524242
452,3745.2200000000003,1.1858694378931542
453,3747.93,0.9823427950338842
454,3750.64,1.0564109521746141
455,3753.35,1.0251197093153444
456,3756.06,1.2857724664560743
457,3758.77,1.2090302235968042
458,3761.48,1.2689409807375343
459,3764.2,1.1849637369821047
460,3766.91,1.2996624941228345
461,3769.6200000000003,1.2801952512635646
462,3772.33,1.2622720084042944
463,3775.04,1.3603277655450248
464,3777.7500000000005,1.4735205226857546
465,3780.46,1.4182432798264846
466,3783.18,1.577180036071055
467,3785.89,1.435445793211785
468,3788.6,1.480256550352515
469,3791.31,1.343455307493245
470,3794.02,1.2616300646339749
471,3796.73,1.1838728217747052
472,3799.44,1.170618578915435
473,3801.8939600000003,1.3254568963593865
474,3802.15,1.341612340837086
475,3804.8700000000003,1.3825371478710025
476,3807.58,1.4645139556143534
477,3810.29,1.6157387633577045
478,3812.9999999999995,1.5340655711010553
479,3815.71,1.4533703788444063
480,3818.42,1.4707301865877573
481,3821.1299999999997,1.463463994331108
482,3823.85,1.2716408013650249
483,3826.56,1.2848956091083759
484,3829.27,1.1733614168517268
485,3831.98,1.1227532245950778
486,3834.69,1.0409290323384286
487,3837.4,1.0466528400817794
488,3840.11,1.1300226478251305
489,3842.82,1.2692354555684813
490,3845.54,1.3966932626023982
491,3848.2499999999995,1.5088310703457493
492,3850.96,1.5278108780891
493,3853.67,1.532970685832451
494,3856.3799999999997,1.5510454935758018
495,3859.09,1.5626073013191528
496,3861.8,1.5846361090625039
497,3864.5099999999998,1.6342299168058547
498,3867.23,1.7041107238397715
499,3869.94,1.5838405315831223
500,3872.65,1.5593273393264733
501,3875.36,1.4476791470698243
502,3878.07,1.3885989548131752
503,3880.7799999999997,1.358663762556526
504,3883.49,1.2890765702998772
505,3886.21,1.3246933773337939
506,3888.92,1.3379481850771446
507,3891.6299999999997,1.2923479928204957
508,3894.34,1.4282848005638467
509,3897.05,1.4071236083071976
510,3899.7599999999998,1.4099104160505485
511,3902.4700000000003,1.5716422237938996
512,3905.18,1.5326320315372501
513,3907.9,1.628758838571167
514,3910.61,1.636667646314518
515,3913.32,1.711602454057869
516,3916.0299999999997,1.7457942618012199
517,3918.74,1.776673069544571
518,3921.4500000000003,1.6331688772879216
519,3924.16,1.4861256850312727
520,3926.8799999999997,1.3749974920651895
521,3929.59,1.3384722998085405
522,3932.3,1.1995621075518914
523,3935.0099999999998,1.1695889152952423
524,3937.7200000000003,1.2436207230385932
525,3940.43,1.309555530781944
526,3943.14,1.461496338525295
527,3945.8500000000004,1.5408371462686459
528,3948.57,1.5618049533025629
529,3951.2799999999997,1.5734407610459138
530,3953.99,1.6072935687892647
531,3956.7000000000003,1.5785263765326154
532,3959.41,1.5724271842759665
533,3962.12,1.4777989920193175
534,3964.83,1.2628997997626683
535,3967.54,1.1152156075060193
536,3970.2599999999998,1.0772164145399359
537,3972.9700000000003,1.130047222283287
538,3975.68,1.2415460300266379
539,3978.39,1.5073188377699889
540,3981.1000000000004,1.6909276455133397
541,3983.81,1.7402944532566909
542,3986.52,1.8294642610000418
543,3989.24,1.8522000680339583
544,3991.9500000000003,1.9133158757773094
545,3994.66,1.8431266835206603
546,3997.37,1.9126394912640112
547,4000.08,1.9713832990073623
548,4002.79,1.9171601067507131
549,4005.5,1.965209914494064
550,4008.21,1.9698807222374148
551,4010.93,2.0291035292713318
552,4013.64,2.0307243370146826
553,4016.3500000000004,2.106073144758034
554,4019.06,2.1090869525013844
555,4021.77,2.1063767602447356
556,4024.4799999999996,2.0411215679880863
557,4027.19,1.9475483757314374
558,4029.91,2.033470182765354
559,4032.62,2.046009990508705
560,4035.33,2.130810798252056
561,4038.04,2.026017605995407
562,4040.75,2.018449413738758
563,4043.46,2.030387221482109
564,4046.17,1.9449110292254597
565,4048.88,1.9855798369688107
566,4051.6000000000004,2.0060926440027274
567,4054.31,2.0257874517460785
568,4057.02,2.0231912594894292
569,4059.7299999999996,1.95518606723278
570,4062.44,1.9241968749761311
571,4065.15,1.918737682719482
572,4067.8599999999997,1.976351490462833
573,4070.58,1.9445622974967498
574,4073.29,1.8940301052401005
575,4076.0,1.8823579129834516
576,4078.71,1.8613847207268026
577,4081.42,1.9444155284701534
578,4084.13,1.9953653362135044
579,4086.8399999999997,1.9993951439568554
580,4089.55,1.9972119517002063
581,4092.27,1.915227758734123
582,4094.9799999999996,1.813257566477474
583,4097.69,1.694230374220825
584,4100.400000000001,1.6426811819641758
585,4103.11,1.681202989707527
586,4105.82,1.7549707974508777
587,4108.530000000001,1.7610346051942287
588,4111.24,1.7691314129375795
589,4113.96,1.8084362199714963
