,lambda (Angstroms),Total Flux (erg/s/cm^2/Angstrom)
0,100.08,0.0002566699014769084
1,101.94,0.00030843605340073776
2,104.07,0.0003677164313136711
3,104.712855,0.0003856081101550318
4,106.00999999999999,0.0003554886354394861
5,107.98,0.00030974661890179435
6,109.98,0.00026331143467114306
7,114.11,0.0001674207953483484
8,118.11999999999999,7.43209177053929e-05
9,120.22644299999999,2.5519130463804525e-05
10,120.87,2.486189080955477e-05
11,125.12,2.0369849058492907e-05
12,126.86,1.8538923815705233e-05
13,128.03,1.730771322658938e-05
14,131.02,1.4159978509959962e-05
15,131.92000000000002,1.3276114956793916e-05
16,134.07,1.1022415229786173e-05
17,136.88,8.193052603789974e-06
18,138.038426,6.992698115000335e-06
19,140.06,6.993372766079948e-06
20,143.0,8.589018327012583e-06
21,147.0,1.2892908437125012e-05
22,151.12,1.3832072790540811e-05
23,155.0,1.5015105657349866e-05
24,158.489319,1.6223017848998498e-05
25,158.97000000000003,1.6379631433646134e-05
26,161.92999999999998,1.740289532904788e-05
27,166.08,1.915760494591181e-05
28,169.95,2.0844250275372877e-05
29,173.11,2.2290742947490955e-05
30,177.14000000000001,2.4261899298325088e-05
31,180.02,2.59129376830403e-05
32,181.970086,2.6999760934406675e-05
33,182.11,2.708852093386354e-05
34,185.92000000000002,2.9850727576720067e-05
35,191.13000000000002,3.355367227731915e-05
36,193.79,3.613494158703001e-05
37,197.85,3.936148895448341e-05
38,201.99,4.308197735380783e-05
39,204.8,4.599575109827681e-05
40,208.929613,4.8247424723333774e-05
41,210.04999999999998,4.896495518930373e-05
42,215.94,5.797436117305421e-05
43,219.95000000000002,6.311013376980114e-05
44,223.01000000000002,6.630075024013671e-05
45,227.16,7.211228489761794e-05
46,229.79,0.00010927594575284098
47,234.06,0.00018897558360523732
48,239.88329199999998,0.00023888639793933435
49,240.06,0.0002403642225042201
50,246.22000000000003,0.00023870153295309183
51,251.96,0.0002628130654168133
52,257.23,0.00023136941299239022
53,260.21,0.0002686180044108379
54,263.83,0.00028767752418760995
55,268.74,0.00029576406206162945
56,273.73,0.0003034571909804395
57,275.42287,0.0003058401608410542
58,278.82,0.0003112814236794468
59,284.01,0.0003196569171914923
60,289.95,0.00031523606872550976
61,296.02,0.0003304064476500023
62,300.83,0.0003353960610975821
63,307.84,0.0003491915380762794
64,316.227766,0.00036682689998744557
65,317.93,0.0003701103352763213
66,328.34000000000003,0.00038205582480858933
67,338.32,0.00039002527702108067
68,347.8,0.0003964566300245294
69,356.72,0.00040304178791385035
70,363.078055,0.00040771747760556175
71,365.87,0.0004101355385811035
72,375.26,0.00041534506286851764
73,384.88,0.00040843836315019216
74,394.75000000000006,0.0004240901851647584
75,404.88000000000005,0.0004294849017815321
76,414.31,0.0004309891175462089
77,416.86938299999997,0.00043081754228447715
78,422.01000000000005,0.000430355127449501
79,429.86,0.0004306204437051102
80,440.89000000000004,0.0004329326613228643
81,451.16,0.00042941135660249573
82,459.54,0.00042874448975179576
83,470.25,0.0004271769084903403
84,478.630092,0.0004274719282118181
85,480.09000000000003,0.00042740735232842613
86,490.15000000000003,0.00042028098658050016
87,500.41,0.00042076980759702884
88,506.21,0.0004167276237662166
89,512.07,0.00042691173596474084
90,520.39,0.0004236583853660585
91,530.06,0.0004175349954274457
92,539.92,0.00040685054291506495
93,549.5408739999999,0.00040293004753909437
94,549.95,0.0004027757658294585
95,560.18,0.0004053522119926072
96,570.59,0.00040612601791229224
97,579.86,0.0003977968453739138
98,590.65,0.0003976295774462866
99,600.24,0.0003868461111417506
100,610.0,0.00034849055127394323
101,619.91,0.0003865569912032495
102,629.98,0.000379478984249477
103,630.957344,0.0003793821469713784
104,640.2199999999999,0.00037878338622764513
105,650.62,0.00037388301103538646
106,658.15,0.00036815459130483765
107,664.24,0.00037078460044706314
108,675.04,0.00036765353390125606
109,684.4300000000001,0.00035560188937670714
110,695.5500000000001,0.0003623024497480613
111,705.22,0.00034887634127602846
112,716.68,0.0003570449239968666
113,724.43596,0.0003547135641134565
114,726.65,0.0003540291785569303
115,735.07,0.00035173959878884777
116,745.29,0.0003487063680014601
117,755.66,0.0003456944246291304
118,764.41,0.0003218451571741751
119,775.0500000000001,0.00034205365114894963
120,785.83,0.00033684702004444487
121,794.93,0.00033770498989129147
122,804.13,0.00033705418468151
123,815.3199999999999,0.0003349144658448301
124,824.76,0.00033653136049914133
125,831.763771,0.0003170012035909489
126,834.3100000000001,0.00030980990450004206
127,845.92,0.00032954537750067784
128,855.7099999999999,0.0003263711847079324
129,865.62,0.00032685434900046466
130,875.64,0.0003288194156211685
131,885.7800000000001,0.00033079883932715014
132,893.98,0.0003313301401544726
133,904.33,0.00032664091375969053
134,914.8000000000001,0.0004127375444501864
135,925.39,0.0013160849322259602
136,933.96,0.002571118759066223
137,944.7700000000001,0.00459821365149834
138,954.992586,0.006271097525037326
139,955.71,0.006388514168944368
140,964.55,0.007150503902635902
141,975.72,0.0014548666045968107
142,984.7499999999999,0.00605935660179529
143,993.86,0.0064325432888914305
144,1005.37,0.009338177672917398
145,1014.6700000000001,0.009021299623520482
146,1024.06,0.003986783225258437
147,1035.92,0.0063737892525866716
148,1045.51,0.012111058079068777
149,1055.18,0.011890380595448542
150,1064.94,0.009380956762963178
151,1074.8,0.01117354454284989
152,1084.74,0.008775366012634263
153,1094.78,0.01175402709479071
154,1096.4782,0.011678334101826771
155,1104.91,0.011302438217054974
156,1115.13,0.010844074227480769
157,1125.45,0.009732120024701337
158,1135.87,0.012420952608716677
159,1143.74,0.011276467129465307
160,1154.3200000000002,0.012026758772352285
161,1165.0,0.012392309202034036
162,1175.78,0.008554728418510559
163,1183.93,0.012026479542284555
164,1194.8899999999999,0.008226409574991668
165,1205.94,0.005919658515814079
166,1214.3,0.003985102091857097
167,1225.54,0.008150746727589576
168,1234.03,0.012391531726465798
169,1245.45,0.01368044317842887
170,1254.08,0.013034418478817774
171,1258.92541,0.01224621056203485
172,1265.6899999999998,0.011145895531519177
173,1274.46,0.014557633099546408
174,1286.25,0.015278483273667393
175,1295.1699999999998,0.011997740971136367
176,1304.15,0.011805888720382038
177,1316.2099999999998,0.014930939127498162
178,1325.3400000000001,0.014258507006185575
179,1334.53,0.012563264936649684
180,1343.78,0.015068572918890492
181,1356.2099999999998,0.01459116364529625
182,1365.61,0.012974711756978799
183,1375.08,0.013680359929067496
184,1384.61,0.01380677815293289
185,1394.2099999999998,0.012025566437204432
186,1403.8700000000001,0.01247703477325267
187,1413.6000000000001,0.012738273169707055
188,1423.3999999999999,0.013124831626567586
189,1436.5700000000002,0.013004902991552606
190,1443.2,0.01377494871287764
191,1445.43977,0.013947137168198374
192,1446.53,0.014030951435286751
193,1456.5600000000002,0.013585868699622987
194,1466.6499999999999,0.012505516007414874
195,1473.42,0.012448150910660769
196,1483.6299999999999,0.012708968305363956
197,1493.92,0.012945275758008008
198,1504.27,0.012221073254107713
199,1511.22,0.01084247828772056
200,1518.19,0.011644533335818621
201,1525.1999999999998,0.011249358412887116
202,1535.77,0.009753223068324208
203,1546.42,0.010792753781702163
204,1553.56,0.01016580895292457
205,1564.32,0.010330996745971219
206,1575.1699999999998,0.011044174604201346
207,1586.09,0.01161785251312973
208,1593.41,0.011860607814719086
209,1604.45,0.01161788581055877
210,1615.5700000000002,0.011644583864339322
211,1626.77,0.010968441976060742
212,1634.28,0.01169849741525966
213,1645.6100000000001,0.011888445621134988
214,1653.21,0.01091791112551738
215,1659.58691,0.011519517332011172
216,1664.66,0.011998142576353527
217,1672.35,0.010595833249850292
218,1676.1999999999998,0.01205371361304438
219,1683.9399999999998,0.012621554550998209
220,1695.61,0.011779746275277432
221,1703.44,0.011301167689253981
222,1715.25,0.010718940154012988
223,1723.17,0.010669702044012257
224,1735.11,0.011406215196359638
225,1743.12,0.011121157562381623
226,1755.2,0.011916201455208789
227,1763.3,0.010818334297253493
228,1775.53,0.011146818983451857
229,1783.72,0.01135381230151928
230,1796.09,0.01219390772819743
231,1804.3799999999999,0.012026461575178986
232,1816.8799999999999,0.011096127689445507
233,1825.27,0.011327902065341195
234,1833.69,0.010843636599911123
235,1846.4,0.009912572824897322
236,1854.9299999999998,0.010004603941272795
237,1863.4899999999998,0.010355844216322506
238,1876.41,0.011198962552028385
239,1885.0700000000002,0.010332168355992228
240,1893.77,0.009958559371521727
241,1905.46072,0.0104408923428177
242,1906.9,0.010500256392723452
243,1915.6999999999998,0.010143926396417757
244,1924.54,0.009935917127401583
245,1933.42,0.01007371558567493
246,1946.82,0.010719674227663985
247,1955.81,0.010073512935983507
248,1964.84,0.01107070137159255
249,1973.91,0.011301779534491116
250,1983.02,0.010768717424679199
251,1996.77,0.010475313680451551
252,2005.98,0.010719250888863432
253,2015.24,0.010355367756387214
254,2024.54,0.010719134351200513
255,2033.8899999999999,0.010331390605125714
256,2043.2800000000002,0.010818096586340432
257,2052.71,0.010307522294844673
258,2066.94,0.01033115527809126
259,2071.7,0.011095402825544089
260,2076.48,0.011458690236641677
261,2086.06,0.012277984922481616
262,2095.69,0.011537939267433453
263,2105.36,0.01148462333967481
264,2115.08,0.011833307071028067
265,2124.84,0.011724940529670842
266,2134.65,0.010867283647425516
267,2144.5,0.011698156492469712
268,2154.4,0.012025398996625804
269,2164.35,0.011379221159893798
270,2174.3399999999997,0.011326473050451312
271,2184.37,0.011805634668298346
272,2187.7616199999998,0.011926150190431825
273,2194.46,0.01216424795576378
274,2204.5899999999997,0.011832913019917847
275,2214.76,0.010718218301501938
276,2224.98,0.010817393854873562
277,2235.25,0.01230533968003272
278,2245.57,0.011724755776979408
279,2255.94,0.010546892145713629
280,2266.35,0.010546898731877877
281,2276.81,0.011044125589829656
282,2287.3199999999997,0.012249412719568968
283,2292.5899999999997,0.011095251365974884
284,2303.17,0.011800498876216741
285,2313.81,0.010803796712603638
286,2324.49,0.00851694276642056
287,2335.21,0.00933118603766751
288,2345.9900000000002,0.008406438635059497
289,2356.82,0.010333090504239015
290,2367.7000000000003,0.008509667645206068
291,2373.16,0.009219494324404606
292,2384.11,0.007859680845874205
293,2395.12,0.008630315693488839
294,2406.17,0.008330907758533502
295,2417.28,0.008796770149723203
296,2422.85,0.010668329426854313
297,2434.04,0.010441200252904065
298,2445.27,0.011571141296383845
299,2456.56,0.011776342666008662
300,2462.22,0.01096056343235733
301,2473.59,0.0102443952368422
302,2485.0,0.009039371258757097
303,2496.4700000000003,0.00913621360681703
304,2502.2299999999996,0.011416760916740765
305,2511.88643,0.008781558610704496
306,2513.7799999999997,0.008264796423034326
307,2519.5699999999997,0.00807358324215615
308,2525.3799999999997,0.007922930019202402
309,2537.04,0.009087477489143762
310,2542.89,0.00916801218203887
311,2554.6200000000003,0.012325913504715727
312,2566.4199999999996,0.010555108680128081
313,2572.33,0.012168776246796471
314,2584.21,0.011425291253906537
315,2596.1299999999997,0.010801336176865456
316,2602.12,0.009961091575231559
317,2614.13,0.009504499308850405
318,2626.2000000000003,0.011053262916242533
319,2632.25,0.015005450188381918
320,2644.4,0.018612884627471755
321,2656.6,0.023625988961372666
322,2662.73,0.016528126065209762
323,2675.02,0.018357330209770595
324,2687.37,0.02029546422810471
325,2693.56,0.01618913120571509
326,2706.0,0.01887051503470913
327,2712.23,0.014983331928168366
328,2724.75,0.013038195588860118
329,2737.33,0.015338359123325152
330,2743.64,0.010486325848482098
331,2756.2999999999997,0.012421639214644844
332,2762.6600000000003,0.014857395834612857
333,2775.41,0.01572186901143553
334,2781.81,0.011490965547252398
335,2794.65,0.007345220534734994
336,2807.5499999999997,0.008214315395990872
337,2814.02,0.01446213778454324
338,2827.0099999999998,0.01900067045645904
339,2833.52,0.018136876760860263
340,2846.6000000000004,0.014560089243435994
341,2853.17,0.0106657254216105
342,2866.3300000000004,0.018555127735883938
343,2872.94,0.0231858238299073
344,2884.0315,0.02162518629562053
345,2886.2,0.021320070402483543
346,2892.8599999999997,0.024920400115741884
347,2912.9100000000003,0.0322750992525031
348,2933.1000000000004,0.028588808383236713
349,2946.64,0.026775807800281444
350,2967.0600000000004,0.028058206921112567
351,2987.63,0.028402926035485547
352,3008.3399999999997,0.028751695143830924
353,3029.19,0.030266244246148696
354,3050.19,0.031278433342008326
355,3071.33,0.03369186243184035
356,3092.62,0.03317437151521423
357,3106.9,0.03761093090039878
358,3128.43,0.03520359997343962
359,3150.1200000000003,0.03522436903959179
360,3171.9599999999996,0.038202248099285796
361,3186.6,0.0333886274689708
362,3208.68,0.03679920651833178
363,3230.9300000000003,0.03133925556037352
364,3253.32,0.04258934459638767
365,3268.34,0.04917897394971203
366,3290.99,0.048194692974532057
367,3311.31121,0.045812807528989634
368,3313.8,0.04552109005126164
369,3321.44,0.043646893763293886
370,3329.1,0.048048387458865485
371,3336.77,0.04813031114620675
372,3344.47,0.045097584808857054
373,3352.1800000000003,0.04206195846327703
374,3359.9,0.04684006210946668
375,3367.6499999999996,0.04691851573096536
376,3375.41,0.035001819344233714
377,3383.1899999999996,0.037915662941041414
378,3390.99,0.04759245652138847
379,3398.81,0.046587100085274884
380,3406.65,0.04786175363270064
381,3414.4999999999995,0.046958957171896076
382,3422.3700000000003,0.05241322069463086
383,3430.2599999999998,0.048547284200905
384,3438.1699999999996,0.04964694769071849
385,3446.09,0.033855671172301656
386,3454.04,0.04812118462919384
387,3462.0,0.03990874807785571
388,3469.9799999999996,0.04495540151005693
389,3477.98,0.0393106649257975
390,3486.0,0.04469104832507742
391,3494.03,0.03944113171612702
392,3502.09,0.05030976508248565
393,3510.16,0.04981602844061395
394,3518.25,0.0443702817822816
395,3526.36,0.0400691851074886
396,3534.4900000000002,0.049262148416234955
397,3542.6400000000003,0.05600473170852066
398,3550.81,0.05406765498434572
399,3558.9900000000002,0.05007857825194046
400,3567.2,0.04659795149484421
401,3575.42,0.04093350472951765
402,3583.6600000000003,0.03379117794773044
403,3591.92,0.03544072114948258
404,3600.2000000000003,0.05574369433477407
405,3608.5,0.04517617750360491
406,3610.04,0.04149043623613497
407,3612.79,0.03256037397279579
408,3615.53,0.04874477171768694
409,3618.2799999999997,0.04185712945434776
410,3621.02,0.050966877199238904
411,3623.77,0.05372999493589973
412,3626.5199999999995,0.06714681267256055
413,3629.26,0.0522872904174517
414,3632.0099999999998,0.043914598154112514
415,3634.75,0.052866165899003656
416,3637.5,0.05208383363566448
417,3640.2400000000002,0.05394508138055563
418,3642.99,0.05637096911721645
419,3645.7400000000002,0.05294301685387727
420,3648.48,0.04846138459876842
421,3651.2299999999996,0.04249038233542923
422,3653.9700000000003,0.044882930080320384
423,3656.72,0.050139877816981204
424,3659.46,0.05655592556187235
425,3662.21,0.06579112329853318
426,3664.96,0.05889013103519399
427,3667.7,0.048117778780085135
428,3670.4500000000003,0.06244778651674596
429,3673.19,0.05892511426163711
430,3675.9399999999996,0.05719716199829792
431,3678.68,0.06522922974318908
432,3681.43,0.05367028747984989
433,3684.1800000000003,0.04741884521651071
434,3686.92,0.06077341296140186
435,3689.67,0.055376580698062686
436,3692.41,0.04774407844295383
437,3695.1600000000003,0.06392533617961464
438,3697.9,0.055362313924505795
439,3700.6499999999996,0.05713056166116661
440,3703.4,0.04236516939782743
441,3706.14,0.05541668714271858
442,3708.8900000000003,0.0450478948793794
443,3711.63,0.051327192624270546
444,3714.38,0.05981726036093137
445,3717.12,0.046900458105822516
446,3719.8700000000003,0.04972269584248333
447,3722.62,0.06727424357914415
448,3725.3599999999997,0.0726514413240353
449,3728.11,0.09392743906069612
450,3730.85,0.08773954680558727
451,3733.6000000000004,0.06351972454224808
452,3736.34,0.07062938228713923
453,3739.0899999999997,0.055168630023800055
454,3741.84,0.06025750776046088
455,3744.58,0.04314169550535202
456,3747.33,0.05630303324201284
457,3750.0699999999997,0.054559160986903985
458,3752.82,0.04367758872356481
459,3755.5699999999997,0.06508398646022563
460,3758.3100000000004,0.06334593420511678
461,3761.06,0.06277796194177761
462,3763.7999999999997,0.05624926968666875
463,3766.55,0.05234619742332956
464,3769.29,0.05686870516822071
465,3772.04,0.057223752904881534
466,3774.79,0.05639738064154235
467,3777.53,0.0742563483864335
468,3780.2799999999997,0.06322409612309432
469,3783.0200000000004,0.06277813386798546
470,3785.77,0.06518837160464629
471,3788.5099999999998,0.07258194934953742
472,3791.26,0.07161414708619826
473,3794.0099999999998,0.06400046482285908
474,3796.75,0.061769902567750216
475,3799.5,0.047165580304411044
476,3801.8939600000003,0.061307573762134276
477,3802.2400000000002,0.0633517581086441
478,3804.99,0.0686706563168986
479,3807.7299999999996,0.06590703453166852
480,3810.48,0.08081529273992302
481,3813.23,0.07237881094817751
482,3815.9700000000003,0.06423241916294743
483,3818.72,0.07459802737120193
484,3821.46,0.07651612558597186
485,3824.21,0.06814338379422635
486,3826.9500000000003,0.05911625200899628
487,3829.7,0.048446730217250766
488,3832.45,0.049091508425505255
489,3835.19,0.05035884664027519
490,3837.94,0.04288946484852968
491,3840.6800000000003,0.04702027306329961
492,3843.43,0.0568007112715541
493,3846.17,0.06526386948632402
494,3848.92,0.06488130769457853
495,3851.6699999999996,0.06636446590283301
496,3854.41,0.06665437411760294
497,3857.16,0.06600527232585743
498,3859.9,0.07600044054062736
499,3862.65,0.08582717874888186
500,3865.3900000000003,0.07776191696365178
501,3868.14,0.08296491517190628
502,3870.8900000000003,0.08207822338016077
503,3873.63,0.07571067159493071
504,3876.3799999999997,0.07516584980318519
505,3879.12,0.07620901801795511
506,3881.87,0.07063484622620961
507,3884.61,0.062007524440979546
508,3887.36,0.06937177264923404
509,3890.11,0.06701919085748852
510,3892.85,0.07584971907225846
511,3895.6000000000004,0.07288293728051294
512,3898.34,0.06721643549528286
513,3901.0899999999997,0.07197329370353736
514,3903.84,0.07779626191179186
515,3906.58,0.07871198012656179
516,3909.33,0.06969029833481627
517,3912.07,0.08180032654958622
518,3914.82,0.09297709475784069
519,3917.56,0.09063651297261062
520,3920.3100000000004,0.08580397118086512
521,3923.06,0.07778467938911962
522,3925.7999999999997,0.06650944760388953
523,3928.55,0.06046018581214403
524,3931.29,0.05340422402691396
525,3934.04,0.04288363223516845
526,3936.7799999999997,0.04924693044993838
527,3939.53,0.05818316865819287
528,3942.28,0.06942949686644737
529,3945.02,0.0654896650812173
530,3947.77,0.06838660328947178
531,3950.5099999999998,0.07820793150424171
532,3953.26,0.0768634997124962
533,3956.0,0.07987090792726614
534,3958.7499999999995,0.07472551613552063
535,3961.5,0.06787665434377513
536,3964.24,0.05700293255854505
537,3966.9900000000002,0.05154818076679954
538,3969.73,0.05556427898156947
539,3972.48,0.04659130718982396
540,3975.22,0.06176988540459389
541,3977.9700000000003,0.07473710361284838
542,3980.72,0.08389171182110287
543,3983.4599999999996,0.0848711600358728
544,3986.21,0.0872292082441273
545,3988.95,0.09273972645889722
546,3991.7000000000003,0.10163937466715171
547,3994.44,0.09826744288192164
548,3997.19,0.10366737109017614
549,3999.94,0.09820907929843063
550,4002.6800000000003,0.09943192751320055
551,4005.43,0.09605371572145506
552,4008.1699999999996,0.10112966393622498
553,4010.92,0.10352826214447947
554,4013.66,0.1020857603592494
555,4016.4100000000003,0.10125705856750389
556,4019.16,0.10238085677575838
557,4021.9,0.1064892549905283
558,4024.65,0.1080128531987828
