,lambda (Angstroms),Total Flux (erg/s/cm^2/Angstrom)
0,100.07000000000001,1.6228784073607858
1,101.93,1.6183647434165225
2,104.07,1.6131711277734342
3,104.712855,1.6116110922517166
4,106.0,1.5952006681588935
5,107.97,1.570084458097652
6,109.98,1.5444604499874817
7,114.11,1.491806246086087
8,118.11999999999999,1.4406819750994788
9,120.22644299999999,1.4138529878351214
10,120.87,1.406982265238807
11,125.12,1.3615618526669095
12,126.86,1.3429664260934973
13,128.03,1.3304627892518923
14,131.01,1.2986144613882324
15,131.92000000000002,1.2888979017558728
16,134.07,1.265920088623266
17,136.87,1.236008344697545
18,138.038426,1.2235216012928447
19,140.06,1.2080808650173769
20,142.98999999999998,1.1858224890300668
21,147.0,1.1554098326662052
22,151.12,1.1239666882260284
23,154.99,1.0944403884683862
24,158.489319,1.067746696670999
25,158.97000000000003,1.0649760217895023
26,161.92999999999998,1.0479135213553135
27,166.08,1.0239950091519734
28,169.95,1.0016881093707872
29,173.11,0.9834766372207742
30,177.14000000000001,0.9602478679269287
31,180.02,0.943648944299069
32,181.970086,0.9324112178665954
33,182.1,0.9318404929961558
34,185.92000000000002,0.9150595672251933
35,191.12,0.8922122183521557
36,193.78,0.8805356749090248
37,197.84,0.8626992218116146
38,201.98000000000002,0.8445131855053882
39,204.79000000000002,0.8321743489207276
40,208.929613,0.8139516062572745
41,210.04999999999998,0.8102450256050769
42,215.93,0.7908975136069029
43,219.95000000000002,0.7776439924754981
44,223.01000000000002,0.7675396290172646
45,227.14999999999998,0.7538933369267138
46,229.77999999999997,0.745981369738755
47,234.04999999999998,0.7334108067757953
48,239.88329199999998,0.7151976668206533
49,240.06,0.714780236954924
50,246.22000000000003,0.6988010429088617
51,251.95,0.6844818719065994
52,257.23,0.670047485438546
53,260.21,0.6632524363675615
54,263.83,0.6542941226034794
55,268.73,0.6417836594532025
56,273.73,0.6289934948508793
57,275.42287,0.6246552040712239
58,278.82,0.617966401180568
59,284.0,0.6078409567734904
60,289.95,0.5959345627383337
61,296.02,0.5840751879949049
62,300.83,0.5744462131883328
63,307.83000000000004,0.5608087002057954
64,316.227766,0.5444295784070103
65,317.92,0.5419682547647777
66,328.33,0.5266645879982933
67,338.31,0.5119464017898863
68,347.78999999999996,0.49795182920715114
69,356.71000000000004,0.4848542611651681
70,363.078055,0.47554208066142223
71,365.86,0.4724963243476057
72,375.25,0.46209863532358053
73,384.87,0.45129015120844496
74,394.75000000000006,0.4405514054685761
75,404.87,0.4294295664597226
76,414.3,0.4189948817241999
77,416.86938299999997,0.4161338333899416
78,422.0,0.4117497965504952
79,429.85,0.4050672595832909
80,440.88,0.3957893247338306
81,451.15000000000003,0.38708562129648183
82,459.53000000000003,0.37993266301556816
83,470.24,0.3708754571291022
84,478.630092,0.3638109878455813
85,480.08000000000004,0.3628703829801119
86,490.14000000000004,0.35622578029784185
87,500.40000000000003,0.3496134635861031
88,506.19,0.34577874793298746
89,512.0600000000001,0.3421865566680843
90,520.38,0.3367361840421909
91,530.05,0.3303745062173846
92,539.9,0.32383164776605655
93,549.5408739999999,0.3175266637797852
94,549.94,0.31732657159089345
95,560.17,0.31236438021137813
96,570.5799999999999,0.30724557979292705
97,579.85,0.30259195128773564
98,590.63,0.2972456201781387
99,600.23,0.2923666904348985
100,609.98,0.28724510649254514
101,619.89,0.28268195073780444
102,629.97,0.2776248395574022
103,630.957344,0.2771399960940926
104,640.1999999999999,0.27354200092783365
105,650.6,0.26940749661622476
106,658.14,0.2663729061153083
107,665.76,0.2634392478504564
108,675.0200000000001,0.2598018079249277
109,684.41,0.25599486500800395
110,695.5300000000001,0.2517016928209759
111,705.21,0.24777015238478609
112,716.67,0.24338158145103245
113,724.43596,0.24032800134013257
114,726.6400000000001,0.2396824841819989
115,735.05,0.2372139902723977
116,745.28,0.23418781968557
117,755.6400000000001,0.2311443549075118
118,764.39,0.2284206765746925
119,775.03,0.22545818315398414
120,785.81,0.22224725791195066
121,794.9100000000001,0.21962173852581848
122,804.11,0.21694305283873985
123,815.3000000000001,0.2136776387628257
124,824.74,0.21092241595347544
125,831.763771,0.20877314516030426
126,834.2900000000001,0.20818446043216912
127,845.9,0.20575977551603758
128,855.69,0.20360137894851574
129,865.6,0.2014465062810856
130,875.62,0.19925750843873946
131,885.76,0.197036057496485
132,896.02,0.19479268345432219
133,904.31,0.1929620836356546
134,914.7800000000001,0.1907205131686522
135,925.3699999999999,0.18939871660174154
136,933.94,0.18856646288328777
137,944.75,0.18724116796654508
138,954.992586,0.18561184316512214
139,955.69,0.1855041568896573
140,964.53,0.18399850522712788
141,975.7,0.1789187839227779
142,984.73,0.1790077821521172
143,996.1299999999999,0.17645988466423992
144,1005.35,0.1753594197854479
145,1014.65,0.17332002875586378
146,1024.04,0.16931878830663852
147,1035.9,0.16804498945170648
148,1045.48,0.16759564989434994
149,1055.16,0.16535557364850323
150,1064.92,0.1624915352518644
151,1074.77,0.16085368643558448
152,1084.72,0.15782327393081436
153,1094.76,0.1566678230064031
154,1096.4782,0.15626179399711315
155,1104.88,0.15459817038530846
156,1115.11,0.15268213576585993
157,1125.43,0.15039373296794106
158,1135.8400000000001,0.14927873299155203
159,1143.71,0.14760302649643373
160,1154.3,0.1458294711631042
161,1164.98,0.14395819965130452
162,1175.76,0.14082051771898232
163,1183.8999999999999,0.14044284168845336
164,1194.86,0.13772540139919076
165,1205.92,0.1351518936894056
166,1214.27,0.13275913057577945
167,1225.51,0.1322483275090539
168,1234.01,0.13159603376464402
169,1245.42,0.12980938758303026
170,1254.06,0.12815939044988894
171,1258.92541,0.12718491393085357
172,1265.66,0.12617062750350808
173,1274.43,0.12562848441950167
174,1286.2199999999998,0.12424315418684087
175,1295.1399999999999,0.12242389919147748
176,1304.12,0.12129639643157128
177,1316.18,0.12036570475846783
178,1325.3100000000002,0.11903208008720462
179,1334.49,0.11753095211215574
180,1343.75,0.1168112164510498
181,1356.1799999999998,0.11515028972993244
182,1365.5800000000002,0.11363723461822658
183,1375.04,0.11250941574197797
184,1384.58,0.11132291317967229
185,1394.17,0.10945910131358089
186,1403.8400000000001,0.10826631876143245
187,1413.5700000000002,0.1074457724447412
188,1423.37,0.10619215090275007
189,1436.54,0.10459465708560477
190,1443.17,0.10386820360362502
191,1445.43977,0.10358821729619991
192,1446.5,0.10349692574081178
193,1456.52,0.10251594562851196
194,1466.62,0.10142828875483653
195,1473.3899999999999,0.10082850594842238
196,1483.6,0.09996637740285542
197,1493.8799999999999,0.09905596506608477
198,1504.24,0.09799982696793845
199,1511.18,0.09711741566860106
200,1518.16,0.09663655548857585
201,1525.17,0.09598002939803475
202,1535.7399999999998,0.09470764392627741
203,1546.3799999999999,0.09377826266331633
204,1553.52,0.0930652989605398
205,1564.2900000000002,0.09226301708534329
206,1575.1299999999999,0.09146036741894313
207,1586.05,0.09058406899116729
208,1593.3700000000001,0.08997544782529557
209,1604.42,0.08893856278528431
210,1615.54,0.08795318795406935
211,1626.7400000000002,0.08687956936147874
212,1634.2400000000002,0.08635016873251182
213,1645.5700000000002,0.0853677055276858
214,1653.1699999999998,0.08457730119699935
215,1659.58691,0.08410490865505434
216,1664.63,0.08386374397406186
217,1672.31,0.08315317622974336
218,1676.1699999999998,0.08321708233741659
219,1683.9,0.08277949054267932
220,1695.5700000000002,0.08192226977494528
221,1703.3999999999999,0.08136296287937055
222,1715.21,0.08054709397046406
223,1723.1299999999999,0.08005048798413557
224,1735.07,0.07946645994414035
225,1743.08,0.07892438086705814
226,1755.16,0.07832891968589042
227,1763.2600000000002,0.07763696751805449
228,1775.48,0.07693194519571432
229,1783.68,0.07648918092704089
230,1796.0400000000002,0.07591184046352825
231,1804.3300000000002,0.07537754710410109
232,1816.8400000000001,0.07443147648933222
233,1825.23,0.0739771570290676
234,1833.65,0.0733860385385517
235,1846.36,0.07236088472210787
236,1854.8899999999999,0.07193384912067077
237,1863.45,0.07154516948898239
238,1876.36,0.07088099347086363
239,1885.02,0.07019518573833777
240,1893.7300000000002,0.06966387495539318
241,1905.46072,0.06902836835851602
242,1906.85,0.06897548798726419
243,1915.65,0.0685368745346377
244,1924.5,0.0680077756021668
245,1933.38,0.06747891298178918
246,1946.78,0.06728734038347162
247,1955.77,0.06677012690743617
248,1964.79,0.06665754774349404
249,1973.8600000000001,0.06620928009970745
250,1982.97,0.06582021787204527
251,1996.7199999999998,0.06519239191481645
252,2005.94,0.06477155983149643
253,2015.19,0.06436951406026975
254,2024.5,0.06383364391322971
255,2033.8400000000001,0.06359261107828297
256,2043.23,0.06335996576349179
257,2052.66,0.06275417086482503
258,2066.8900000000003,0.06211179190108926
259,2071.65,0.06220682641989587
260,2076.43,0.0630364991467647
261,2086.01,0.06323595280856449
262,2095.64,0.06246226999051987
263,2105.31,0.06191081258859965
264,2115.0299999999997,0.061886261706834984
265,2124.79,0.0610600722411947
266,2134.6,0.060407151295709983
267,2144.46,0.06075572487038078
268,2154.35,0.06031870975714491
269,2164.3,0.05936544626809565
270,2174.29,0.058955213195170844
271,2184.3199999999997,0.05932784653837048
272,2187.7616199999998,0.05918828116167234
273,2194.41,0.05901370104765599
274,2204.54,0.05855257742052342
275,2214.71,0.05731114793701521
276,2224.93,0.057505852633037445
277,2235.2,0.05843652250859012
278,2245.52,0.05784387956367322
279,2255.8900000000003,0.05638617779828676
280,2266.3,0.055838307176524674
281,2276.7599999999998,0.05585811273429303
282,2287.27,0.05683852747159182
283,2292.54,0.055755931394100344
284,2303.12,0.05635494338274175
285,2313.75,0.055272630550913596
286,2324.4300000000003,0.053984098898615884
287,2335.16,0.053375990425848625
288,2345.94,0.052083490132611786
289,2356.77,0.05368259001890541
290,2367.65,0.051654216084729455
291,2373.1,0.05223847065354758
292,2384.06,0.050630344006620344
293,2395.06,0.050814134503317454
294,2406.12,0.05046512121545111
295,2417.22,0.050580105071209094
296,2422.7999999999997,0.05248469410680637
297,2433.98,0.052156639249813064
298,2445.21,0.05283762157235021
299,2456.5,0.05285601711032389
300,2462.16,0.051794262433169855
301,2473.5299999999997,0.05076522925839225
302,2484.95,0.04856267826314506
303,2496.42,0.04884643844742832
304,2502.17,0.050810340093429086
305,2511.88643,0.047805383508346566
306,2513.72,0.04725229728983985
307,2519.5099999999998,0.04657736394706109
308,2525.3199999999997,0.04668086609705339
309,2536.9799999999996,0.04795117838258008
310,2542.83,0.048060745518114484
311,2554.5699999999997,0.05120526977472542
312,2566.3599999999997,0.048974243263264
313,2572.27,0.05046387187711157
314,2584.15,0.049342403583119906
315,2596.0699999999997,0.048414193274670364
316,2602.06,0.04746651185960217
317,2614.07,0.046702339768622377
318,2626.1400000000003,0.04814250615595576
319,2632.1899999999996,0.05268465321920076
320,2644.34,0.05631181757761836
321,2656.54,0.062008008167963626
322,2662.6699999999996,0.054252670202292845
323,2674.96,0.05577992601010786
324,2687.31,0.058031645296236056
325,2693.5,0.05293895080887845
326,2705.93,0.055783698066090875
327,2712.17,0.0511741798106609
328,2724.69,0.04852221528534309
329,2737.27,0.05077619823833845
330,2743.58,0.045601220707607186
331,2756.24,0.047784326631686774
332,2762.5899999999997,0.05051260608649764
333,2775.34,0.05106978522804697
334,2788.1600000000003,0.04560376009429502
335,2794.58,0.04134651827380458
336,2807.48,0.04176189011113686
337,2813.9500000000003,0.04867784352257406
338,2826.94,0.05365110657737611
339,2833.46,0.052448211220740955
340,2846.54,0.04775522949301276
341,2853.1,0.04288668212191972
342,2866.27,0.05169458661166128
343,2872.8799999999997,0.05728776647249589
344,2884.0315,0.0554178371247181
345,2886.14,0.05507807237107544
346,2892.79,0.059422186191414095
347,2912.8399999999997,0.06773561447679605
348,2933.0299999999997,0.06329976031629038
349,2953.3599999999997,0.06078558370989711
350,2967.0,0.061769382553418795
351,2987.5600000000004,0.061942077643067306
352,3008.27,0.06173421296926483
353,3029.1200000000003,0.06352407584957473
354,3050.12,0.06473950896643364
355,3071.26,0.06735515963740492
356,3092.55,0.0661490505449252
357,3106.83,0.07148568106438927
358,3128.36,0.06818930635038792
359,3150.0499999999997,0.0678382445553722
360,3171.88,0.07152189031446884
361,3186.52,0.06599367740165048
362,3208.61,0.06953346290409873
363,3230.85,0.06325181864309595
364,3253.2499999999995,0.07654425730107878
365,3268.26,0.08439192363841458
366,3290.92,0.083151172039749
367,3311.31121,0.0797182422306913
368,3313.7299999999996,0.07932212973565562
369,3321.3700000000003,0.07602589664734521
370,3329.02,0.08220400212829097
371,3336.7000000000003,0.08191034331700513
372,3344.39,0.07820400307497542
373,3352.1,0.074321609971458
374,3359.83,0.08401246400645285
375,3367.5699999999997,0.07908638661070384
376,3375.34,0.06559859492272324
377,3383.12,0.06998105180399879
378,3390.91,0.08071485725453045
379,3398.73,0.07853441841283056
380,3406.5699999999997,0.08208736670964292
381,3414.42,0.08032265357571143
382,3422.29,0.08679763758029221
383,3430.18,0.08231517872338528
384,3438.0899999999997,0.08379361700499062
385,3446.0099999999998,0.0644505138558521
386,3453.9599999999996,0.08513776641448198
387,3461.92,0.07473598754236802
388,3469.9,0.07830037580876631
389,3477.9,0.0714667112136769
390,3485.92,0.07890503375709976
391,3493.9500000000003,0.07269537486977876
392,3502.0099999999998,0.07832609169022617
393,3510.08,0.0840086770799297
394,3518.17,0.07670299960814554
395,3526.2799999999997,0.07225708927487365
396,3534.41,0.08373112608011403
397,3542.56,0.09169453002386668
398,3550.7300000000005,0.08929241110613159
399,3558.9100000000003,0.08384821075765268
400,3567.11,0.08033118754768603
401,3575.34,0.07222703004548779
402,3583.58,0.06433132111254569
403,3591.84,0.06515905931811586
404,3600.12,0.08931129466219832
405,3608.42,0.07762798714479305
406,3616.74,0.08179636676590005
407,3625.07,0.0805953949562632
408,3633.4300000000003,0.08366797885439475
409,3641.81,0.09394631989103858
410,3650.2000000000003,0.07906074949693856
411,3658.6200000000003,0.10048044481060694
412,3667.05,0.09992523869353147
413,3675.5,0.10162878971496828
414,3683.98,0.0869661164441735
415,3692.47,0.09029075174263486
416,3700.98,0.09891360417960848
417,3709.5099999999998,0.07648855375509439
418,3718.07,0.10637092903834872
419,3726.64,0.07869622289085917
420,3735.23,0.08484135388188191
421,3743.84,0.09001734201141691
422,3752.47,0.06293680727946421
423,3761.12,0.08524839968602378
424,3769.79,0.08191108923109562
425,3778.48,0.09635649591467974
426,3787.1899999999996,0.10667013973677614
427,3795.92,0.0870577006973848
428,3801.8939600000003,0.08732414484296477
429,3804.67,0.08745693046785563
430,3813.44,0.09895211879771318
431,3822.23,0.0798130189025533
432,3831.04,0.065019170782376
433,3839.8700000000003,0.06422136443718125
434,3848.73,0.08662050075446037
435,3857.6,0.08558515795923079
436,3866.4900000000002,0.08987375693898376
437,3875.4,0.0755146276937193
438,3884.34,0.0802835311109287
439,3893.29,0.0770503054156294
440,3895.09,0.09051224516406083
441,3899.15,0.09729264548552283
442,3903.2099999999996,0.09821626580698481
443,3907.27,0.10364445612844679
444,3911.33,0.0987304664499088
445,3915.3900000000003,0.09931932677137076
446,3919.45,0.09151212709283277
447,3923.51,0.08012665741429476
448,3927.57,0.07155595773575674
449,3931.6400000000003,0.06184712894471001
450,3935.7,0.062848679266172
451,3939.7599999999998,0.06868025958763399
452,3943.82,0.08740563990909597
453,3947.8799999999997,0.09221014023055797
454,3951.94,0.09414785055201996
455,3956.0,0.09288362087348195
456,3960.0600000000004,0.08409197119494394
457,3964.12,0.07536530151640594
458,3968.18,0.06801651183786792
459,3972.2400000000002,0.07313301215932991
460,3976.2999999999997,0.0817111424807919
461,3980.36,0.1016033828022539
462,3984.42,0.10981426312371588
463,3988.48,0.11630853344517786
464,3992.54,0.12292347376663985
465,3996.6000000000004,0.12337265408810184
466,4000.66,0.12193605440956384
467,4004.72,0.12438411473102583
468,4008.78,0.12888969505248782
469,4012.8399999999997,0.1309438753739498
470,4016.9,0.1291860556954118
471,4020.96,0.13023003601687377
472,4025.0200000000004,0.12632961633833578
473,4029.08,0.12843319665979777
474,4033.14,0.12588877698125975
475,4037.2000000000003,0.11967739730272174
476,4041.2599999999998,0.12290883762418373
477,4045.32,0.12635791794564571
478,4049.38,0.1250740982671077
479,4053.4399999999996,0.1232999785885697
480,4057.5,0.12683965891003168
481,4061.56,0.12513703923149366
482,4065.62,0.12177681955295566
483,4069.68,0.12187759987441765
484,4073.7400000000002,0.12191068019587964
485,4077.7999999999997,0.12705006051734163
486,4081.86,0.13442514083880364
487,4085.92,0.13649292116026562
488,4089.9799999999996,0.1310752014817276
489,4094.04,0.1281498818031896
490,4098.1,0.12533246212465157
491,4102.16,0.12134484244611357
492,4106.22,0.11981723276757557
493,4110.28,0.12783310308903756
494,4114.34,0.12711218341049954
495,4118.4,0.12780776373196154
496,4122.46,0.12976834405342352
497,4126.52,0.12540692437488551
498,4130.58,0.1258360046963475
499,4134.64,0.12797528501780947
500,4138.7,0.12438046533927147
501,4142.76,0.12482634566073346
502,4146.82,0.12458962598219546
503,4150.88,0.12107930630365744
504,4154.94,0.12773988662511943
505,4159.0,0.12437626694658142
506,4163.06,0.1284165472680434
507,4167.12,0.1283813275895054
508,4171.18,0.1259409079109674
509,4175.24,0.12343498823242939
510,4179.3,0.12530776855389136
511,4183.36,0.12558784887535338
512,4187.42,0.12670272919681536
513,4191.4800000000005,0.12738260951827735
514,4195.54,0.12596928983973935
515,4199.6,0.12571257016120133
516,4203.66,0.1251573504826633
517,4207.719999999999,0.12770293080412531
518,4211.78,0.1295167111255873
519,4215.84,0.12906869144704927
520,4219.9,0.12590947176851125
521,4223.96,0.12597825208997326
522,4228.02,0.12222463241143523
523,4232.08,0.12047281273289724
524,4236.14,0.12204979305435922
525,4240.2,0.1236267733758212
526,4244.26,0.1252032536972832
527,4248.32,0.1267802340187452
528,4252.38,0.12700831434020718
529,4256.4400000000005,0.13016769466166916
530,4260.5,0.12736317498313116
531,4264.56,0.12465295530459315
532,4268.62,0.12452303562605513
533,4272.679999999999,0.12467641594751713
534,4276.74,0.12417309626897911
535,4280.8,0.1238286765904411
536,4284.86,0.1231238569119031
537,4288.92,0.12094673723336509
538,4292.9800000000005,0.11317523755482707
539,4297.04,0.10337919787628906
540,4301.1,0.10736100819775105
541,4305.17,0.10645744940670433
542,4309.23,0.11457730972816632
543,4313.29,0.12023954004962831
544,4317.349999999999,0.1251220203710903
545,4321.41,0.13599500069255227
546,4325.47,0.13947288101401428
547,4329.53,0.13558286133547626
548,4333.59,0.13816094165693826
549,4337.650000000001,0.13643832197840022
550,4341.71,0.13626660229986223
551,4345.7699999999995,0.13473298262132422
552,4349.83,0.1368197629427862
553,4353.89,0.1421639432642482
554,4357.95,0.1420507235857102
555,4362.01,0.14625350390717218
556,4365.15832,0.14461310536472569
557,4366.070000000001,0.1441402149108489
558,4370.13,0.14103588383553994
559,4374.19,0.13181825276023096
560,4378.25,0.13101252168492197
561,4382.3099999999995,0.128860590609613
562,4386.37,0.13196815953430402
563,4390.43,0.130934828458995
564,4394.49,0.13782209738368603
565,4398.55,0.13476386630837706
566,4402.610000000001,0.13871333523306809
567,4406.67,0.1410404041577591
568,4410.73,0.14095947308245013
569,4414.79,0.14362504200714116
570,4418.849999999999,0.14159661093183218
571,4422.91,0.14489277985652319
572,4426.97,0.14653444878121422
573,4431.030000000001,0.14929381770590522
574,4435.09,0.15130608663059625
575,4439.15,0.14962275555528726
576,4443.21,0.15234632447997828
577,4447.2699999999995,0.1522750934046693
578,4451.33,0.15356846232936033
579,4455.39,0.14731843125405136
