,lambda (Angstroms),Total Flux (erg/s/cm^2/Angstrom)
0,102.05000000000001,0.00031008748284258304
1,103.95,0.0003627267552333651
2,104.712855,0.0003838616229008873
3,105.88,0.00035688190235750054
4,108.10000000000001,0.000305564426851975
5,110.11,0.0002591025098973781
6,113.98,0.00016964462891298944
7,117.97999999999999,7.718186501850293e-05
8,120.22644299999999,2.526355947134658e-05
9,121.01,2.4429299207390854e-05
10,124.97,2.020142007140603e-05
11,127.0,1.8034513120636025e-05
12,127.88000000000001,1.7095864563750494e-05
13,130.86,1.391610639020635e-05
14,132.07,1.2627837246988782e-05
15,133.91,1.0665917150773603e-05
16,137.03,7.343321825452215e-06
17,138.038426,6.269288880258443e-06
18,139.9,6.2074664319085125e-06
19,143.16,6.133259205519363e-06
20,147.17,6.0487242684271855e-06
21,150.94,5.949606331559977e-06
22,155.17,5.842325027594914e-06
23,158.489319,5.767297545286766e-06
24,159.14999999999998,5.7389744687448915e-06
25,162.10999999999999,5.619400852933645e-06
26,165.89,5.477506250309821e-06
27,170.14000000000001,5.316368679634886e-06
28,172.91,5.228555216865579e-06
29,176.93,5.101527015662465e-06
30,179.81,5.02241413271098e-06
31,181.89000000000001,4.968113778357131e-06
32,181.970086,4.966006165265156e-06
33,186.13000000000002,5.175683454685885e-06
34,190.9,5.4528294631865585e-06
35,194.0,5.638842879612573e-06
36,198.07000000000002,5.8945591489202775e-06
37,202.21,6.167759892147276e-06
38,205.03,6.378930412896103e-06
39,208.929613,6.644550474641877e-06
40,209.79999999999998,6.786306224086015e-06
41,216.17999999999998,7.940449783216277e-06
42,220.20000000000002,8.675805072825006e-06
43,222.75,9.175083838621583e-06
44,226.89000000000001,9.969925599561913e-06
45,230.04,1.2578264722016506e-05
46,233.78,1.682052791185149e-05
47,239.78,2.1032587478431673e-05
48,239.88329199999998,2.1054591998347145e-05
49,245.93,2.1091870097122504e-05
50,252.24,2.2159284877020908e-05
51,256.93,1.963260958664429e-05
52,259.9,2.2422608048815172e-05
53,264.13,2.3590814343422186e-05
54,269.04,2.4056072642835996e-05
55,274.04,2.4517231501709535e-05
56,275.42287,2.4588108185644805e-05
57,279.13,2.5494315656525553e-05
58,284.32,2.707224136065008e-05
59,290.28000000000003,2.79130809746351e-05
60,295.67,2.9788928343658457e-05
61,301.17,2.9865919128376168e-05
62,308.18,3.240254498308002e-05
63,316.227766,3.517762910303607e-05
64,318.28000000000003,3.553060942016767e-05
65,327.95,3.648139027439584e-05
66,337.92,3.709506005895168e-05
67,348.19000000000005,3.760855877383516e-05
68,357.12,3.842218159992178e-05
69,363.078055,3.914061289519927e-05
70,366.28000000000003,3.994327670291285e-05
71,374.81,4.1473628329693465e-05
72,385.31,4.2073435760079925e-05
73,395.19,4.490896562791023e-05
74,405.33,4.699078286068345e-05
75,413.82,4.829472335439593e-05
76,416.86938299999997,4.8631956701148006e-05
77,422.48,4.9124449329766014e-05
78,430.34000000000003,4.967359974328207e-05
79,441.37999999999994,5.1482668110358066e-05
80,450.62,5.248482706975863e-05
81,460.06,5.300519929667868e-05
82,469.68999999999994,5.383217262774225e-05
83,478.630092,5.496922554870864e-05
84,479.52000000000004,5.5012036122688446e-05
85,489.56,5.445970421477776e-05
86,499.82,5.5135642504104085e-05
87,505.6,5.691303586787661e-05
88,511.46,6.813821021246261e-05
89,519.77,6.776686084446083e-05
90,529.43,6.746911677768621e-05
91,540.52,6.535749899295217e-05
92,549.5408739999999,6.801542498460834e-05
93,550.57,6.834979077264843e-05
94,559.51,7.318590063756089e-05
95,569.92,7.566213584938848e-05
96,580.51,7.456811273634854e-05
97,589.9399999999999,7.811003771689937e-05
98,599.53,7.731490640867907e-05
99,610.68,7.780505628494013e-05
100,620.6,8.617800638112934e-05
101,630.68,8.751547018854742e-05
102,630.957344,8.757113281832046e-05
103,639.46,8.956911282771494e-05
104,649.85,9.28972925796116e-05
105,657.37,9.404647394960802e-05
106,664.98,9.789093673227726e-05
107,674.23,0.00010040912859031806
108,685.1899999999999,9.913162728914264e-05
109,694.72,0.00010958420020883225
110,704.39,0.00010607970865934625
111,715.8299999999999,0.0001183104948924259
112,724.43596,0.00012093318395792612
113,725.7900000000001,0.00012133434394343942
114,734.1899999999999,0.00012460141261593036
115,744.41,0.00013076466283412768
116,754.76,0.0001351819688770183
117,765.26,0.000137359754717632
118,774.1199999999999,0.00014635517476980695
119,784.89,0.00015297038424632212
120,795.81,0.00015850637352056034
121,805.0300000000001,0.00016351362508727066
122,814.3499999999999,0.00016867599651912963
123,825.6800000000001,0.00017826967724047756
124,831.763771,0.00017092407047530493
125,835.24,0.0001666030400708659
126,844.91,0.00018844436073563756
127,854.69,0.00019451799590642008
128,864.5899999999999,0.00020438380144739625
129,874.5999999999999,0.00021431412149438325
130,884.7299999999999,0.00022578521191156392
131,894.9699999999999,0.00023527691683475544
132,905.34,0.0002408503479923234
133,915.8199999999999,0.00035322389365590227
134,924.29,0.0017533082106187374
135,935.0,0.003943237741158521
136,945.82,0.010724854586204315
137,954.58,0.02286789072322845
138,954.992586,0.023181784293708266
139,965.63,0.03127489960307619
140,974.5600000000001,0.0068786701441625265
141,985.85,0.049449611578525884
142,994.97,0.052742726386443846
143,1004.18,0.06429062084707152
144,1015.8000000000001,0.04788131600803717
145,1025.2,0.008155057735496478
146,1034.69,0.033051223115665496
147,1044.26,0.07658561618713206
148,1053.93,0.08243991887272051
149,1066.1299999999999,0.0724677417955932
150,1076.0,0.08358742370942547
151,1085.95,0.07196959531455528
152,1096.0,0.08533719653380699
153,1096.4782,0.08520053276841959
154,1106.14,0.08243922800021879
155,1113.81,0.08056299536743733
156,1124.11,0.07818922097139441
157,1134.52,0.0879289052468501
158,1145.01,0.08149560855612291
159,1155.61,0.08474788053689429
160,1166.3,0.08977051143070996
161,1174.38,0.07800843384624136
162,1185.25,0.08632412256614559
163,1196.22,0.05638200007832127
164,1204.51,0.039642779957622665
165,1215.65,0.009126768416659757
166,1224.08,0.039459883605141154
167,1235.41,0.07818667676949397
168,1243.97,0.09101753338792822
169,1255.48,0.09039193437836958
170,1258.92541,0.08457615553416856
171,1264.18,0.07570658728112122
172,1275.88,0.0953072673319997
173,1284.73,0.09933698493458727
174,1293.63,0.08813096258012731
175,1305.6000000000001,0.08572942286294916
176,1314.65,0.09843238063734662
177,1323.76,0.09574770846328703
178,1336.01,0.0885380489866427
179,1345.27,0.09888546694144056
180,1354.6,0.09618873495637185
181,1363.99,0.09039097302284613
182,1373.4399999999998,0.09335244114086337
183,1386.1499999999999,0.09552787205938179
184,1395.76,0.09207221031484694
185,1405.43,0.09443442862185507
186,1415.18,0.09207111699758713
187,1424.9899999999998,0.09292314542486216
188,1434.8600000000001,0.09207262390368016
189,1441.49,0.09486940959917797
190,1445.43977,0.0953907826322257
191,1448.1399999999999,0.09574721493906825
192,1454.82,0.09421684975529067
193,1464.91,0.0910180270300937
194,1475.06,0.08977016434815621
195,1485.29,0.08956283172389803
196,1495.58,0.09018393914289934
197,1505.95,0.08853759661957994
198,1512.9,0.08377788163047004
199,1516.3899999999999,0.08712216414672995
200,1523.39,0.08455265919366961
201,1533.95,0.07945624680733858
202,1544.5800000000002,0.08513853447147697
203,1555.29,0.08093377219329465
204,1566.07,0.07963957996558173
205,1573.3,0.0826278051783494
206,1584.2,0.08455308303715545
207,1595.1799999999998,0.0865226109536408
208,1606.2399999999998,0.08300931892780547
209,1613.65,0.0833938142703516
210,1624.84,0.08000751233824514
211,1636.1000000000001,0.08206067045660809
212,1643.65,0.082248875900093
213,1655.0500000000002,0.07693593411939474
214,1659.58691,0.07933840329787832
215,1666.52,0.08300977389502429
216,1670.36,0.07782700411364213
217,1678.0700000000002,0.08093360470883575
218,1685.8200000000002,0.08320045551463999
219,1693.6000000000001,0.08019238647840216
220,1705.34,0.07782670829261398
221,1713.21,0.07570639973025002
222,1725.08,0.0751865022289463
223,1733.05,0.07782667419310885
224,1745.06,0.07588128742894223
225,1753.11,0.07909266981432599
226,1765.27,0.07330558383994913
227,1773.41,0.07658425669920674
228,1785.71,0.076759901461967
229,1793.95,0.0787285948477511
230,1806.3799999999999,0.07818752029499582
231,1814.72,0.07553330420730643
232,1823.1,0.07570714833022765
233,1835.7399999999998,0.07381377488317803
234,1844.21,0.0703303794799731
235,1856.99,0.06968459677006059
236,1865.56,0.07049212189338216
237,1874.18,0.073643177279967
238,1887.1699999999998,0.07016833567576015
239,1895.88,0.06809984153621884
240,1904.6299999999999,0.07081787760728812
241,1905.46072,0.07062057038752895
242,1913.42,0.06873003796173319
243,1926.68,0.06810019796630884
244,1935.5800000000002,0.06872919756214015
245,1944.5100000000002,0.07065428695436189
246,1953.49,0.06762979600723439
247,1967.03,0.07065414411145415
248,1976.1100000000001,0.07147236248562812
249,1985.23,0.06904590058832268
250,1994.39,0.06716411841953783
251,2003.6000000000001,0.06809873591140371
252,2012.84,0.06670242319966004
253,2026.8,0.068569898453346
254,2036.1499999999999,0.06670225499503396
255,2045.55,0.06731913119737264
256,2054.99,0.06503336712823192
257,2064.48,0.06563517271974194
258,2074.01,0.06731812803977254
259,2078.79,0.06609029559798307
260,2083.58,0.06700967308832374
261,2093.2000000000003,0.06473452779752567
262,2102.86,0.0653330922352482
263,2117.44,0.0651825632810033
264,2127.21,0.06578593697215745
265,2137.03,0.06311543032396234
266,2146.89,0.06399294340428782
267,2156.8,0.06458512614526403
268,2166.76,0.06268028854689098
269,2176.76,0.06224866067703852
270,2186.81,0.06182031246783679
271,2187.7616199999998,0.061983629088512106
272,2196.9,0.06355206545892257
273,2207.04,0.06182104032861796
274,2217.23,0.05999808546887399
275,2227.46,0.05849789082557851
276,2232.6,0.0613954086392111
277,2242.9,0.05931137437470051
278,2253.25,0.05782849038075054
279,2263.6600000000003,0.05822793671147333
280,2274.1,0.0591752832045325
281,2284.6,0.05985997002226442
282,2295.15,0.05782829711055697
283,2305.7400000000002,0.057576604415298015
284,2316.38,0.056418331990599695
285,2327.07,0.049044849836462005
286,2332.44,0.05441014889467347
287,2343.2,0.05222216711932066
288,2354.02,0.0545786256686406
289,2364.89,0.05190348448852117
290,2375.8,0.05313401352485025
291,2386.77,0.05029728288585207
292,2392.27,0.05243686264752117
293,2403.31,0.05091117238730788
294,2414.41,0.051402552451767336
295,2425.5499999999997,0.0529860827326753
296,2436.75,0.05109007333825601
297,2442.36,0.052896823695158496
298,2453.64,0.052192584733636214
299,2464.96,0.051616685988562436
300,2476.34,0.05046323756816142
301,2487.77,0.051660109418321026
302,2493.5099999999998,0.050262410478681144
303,2505.0099999999998,0.052653922707625624
304,2510.79,0.04983359398443424
305,2511.88643,0.049922833033961264
306,2516.58,0.05030481008779214
307,2522.38,0.04849541794095811
308,2534.02,0.04851673356351878
309,2545.7200000000003,0.048202949060422544
310,2557.47,0.05014899445261222
311,2563.36,0.04935725211729284
312,2575.2000000000003,0.05099606732099716
313,2587.08,0.050783652440930215
314,2593.05,0.05032856993806829
315,2605.0099999999998,0.048979214890458804
316,2617.04,0.048550949696249596
317,2623.07,0.04935053706773077
318,2635.18,0.05005923170597903
319,2647.34,0.0528045862395132
320,2653.45,0.05306033344345183
321,2665.69,0.050695227809443466
322,2678.0,0.05177902202883537
323,2684.17,0.0517904491071171
324,2696.56,0.050170793158966484
325,2702.78,0.05076319013253412
326,2715.25,0.04894922401684095
327,2727.79,0.048521927754548076
328,2734.07,0.04989286460245881
329,2746.69,0.04615668817262338
330,2753.03,0.04659519489487722
331,2765.73,0.04781209829749926
332,2772.1099999999997,0.048936424935981826
333,2784.9,0.047515868150118504
334,2797.76,0.04198002121765547
335,2804.2099999999996,0.04386712770953831
336,2817.15,0.048455400609532726
337,2823.6499999999996,0.04902761699670149
338,2836.68,0.04793407970821056
339,2843.2200000000003,0.04674604601160805
340,2856.34,0.045704438534631756
341,2862.9300000000003,0.04808980473331516
342,2876.14,0.04811299706785351
343,2882.77,0.04801381318276565
344,2884.0315,0.0480264634521741
345,2896.08,0.048147310024431164
346,2909.4500000000003,0.049977909451393666
347,2929.61,0.04853993858733713
348,2949.9199999999996,0.047798367716851586
349,2970.37,0.047943636840365664
350,2990.9599999999996,0.047758995957879344
351,3011.69,0.047904275069392634
352,3032.57,0.04782990417447693
353,3046.56,0.047743463574866266
354,3067.68,0.04756073266966417
355,3088.95,0.04737799175803309
356,3110.3599999999997,0.047304900840401606
357,3131.92,0.04669220991634114
358,3153.63,0.046513318985851676
359,3168.18,0.04664519836223944
360,3190.1400000000003,0.04520045742103499
361,3212.26,0.045970646472972956
362,3227.08,0.04474241583778853
363,3249.45,0.0462439348790115
364,3271.98,0.04714136391337689
365,3287.08,0.046734583266191676
366,3309.86,0.04634405228984207
367,3311.31121,0.04607146028434491
368,3325.14,0.04347388089747927
369,3332.81,0.043787094613317167
370,3340.49,0.04144411832096189
371,3348.1899999999996,0.04431838201222028
372,3355.91,0.04253015568709232
373,3363.65,0.03970309934557802
374,3371.4,0.03998869299587055
375,3379.17,0.043157276629776746
376,3386.96,0.04336879024729659
377,3394.7699999999995,0.043281173848430096
378,3402.6,0.04419870743317726
379,3410.44,0.04116606100973125
380,3418.3,0.0423308145698989
381,3426.18,0.04372953811368021
382,3434.08,0.04424790164107517
383,3441.99,0.04236661516027697
384,3449.93,0.04189327865489925
385,3457.8799999999997,0.041616162141328364
386,3465.85,0.041151725611371134
387,3473.84,0.043103299065027564
388,3481.8500000000004,0.04194029250229765
389,3489.88,0.04332626592318139
390,3497.92,0.04177105933587197
391,3505.99,0.04246159272398303
392,3514.07,0.04150732610390092
393,3522.17,0.04317632946743247
394,3530.29,0.04143524281457767
395,3538.4300000000003,0.04320115614533654
396,3546.58,0.043915009467902236
397,3554.76,0.044436262765888405
398,3562.95,0.04333794605568142
399,3571.17,0.041782489320894914
400,3579.3999999999996,0.04046847257791525
401,3587.65,0.038837265818549224
402,3595.92,0.04105526904279687
403,3604.21,0.04241263225065817
404,3611.71,0.03816968610577997
405,3614.46,0.06416257385265796
406,3617.21,0.05050479159953596
407,3619.96,0.027652409346413956
408,3622.71,0.03018116709329195
409,3625.4599999999996,0.034629834840169946
410,3628.2,0.025730652595241113
411,3630.95,0.03867854034211911
412,3633.7000000000003,0.0502691880889971
413,3636.45,0.050269155835875094
414,3639.2000000000003,0.037351063582753086
415,3641.95,0.062106941329631085
416,3644.7000000000003,0.05698584907650908
417,3647.45,0.020403636823387073
418,3650.1899999999996,0.039283584578458236
419,3652.94,0.03514264232533624
420,3655.6899999999996,0.03882663007221423
421,3658.44,0.04659091781909223
422,3661.19,0.05121464556597022
423,3663.94,0.05329707331284821
424,3666.69,0.05644046105972621
425,3669.44,0.0350222588066042
426,3672.19,0.023926006553482197
427,3674.9300000000003,0.03982219430855336
428,3677.68,0.043484052055431356
429,3680.4300000000003,0.043212769802309356
430,3683.18,0.06324680754918735
431,3685.93,0.053863615296065336
432,3688.68,0.047363193042943334
433,3691.43,0.03792809078982133
434,3694.1800000000003,0.06811661853669931
435,3696.92,0.059252226291770495
436,3699.67,0.04716420403864849
437,3702.42,0.06371720178552648
438,3705.17,0.04210945953240448
439,3707.92,0.03830326727928247
440,3710.6699999999996,0.04476899502616047
441,3713.42,0.05451569277303846
442,3716.1699999999996,0.03241552051991645
443,3718.9100000000003,0.04353793827498762
444,3721.66,0.04865512602186561
445,3724.4100000000003,0.1154299437687436
446,3727.16,0.1358121415156216
447,3729.9100000000003,0.1360717392624996
448,3732.66,0.10204033700937759
449,3735.4100000000003,0.06231461475625558
450,3738.16,0.031578672503133585
451,3740.91,0.03380348025001158
452,3743.65,0.04549243800508274
453,3746.3999999999996,0.05347026575196073
454,3749.15,0.04605412349883873
455,3751.9,0.020484401245716728
456,3754.65,0.03409787899259472
457,3757.4,0.048267306739472715
458,3760.15,0.04740543448635071
459,3762.9,0.04653778223322871
460,3765.64,0.04638313998829987
461,3768.39,0.04788556773517786
462,3771.14,0.04220080548205586
463,3773.89,0.05867204322893385
464,3776.64,0.051995580975811855
465,3779.3900000000003,0.06026579872268984
466,3782.14,0.05129429646956784
467,3784.8900000000003,0.05941060421644583
468,3787.63,0.061892541971517
469,3790.3799999999997,0.057936269718394995
470,3793.13,0.05358467746527299
471,3795.8799999999997,0.05413676521215098
472,3798.63,0.04665424295902898
473,3801.3799999999997,0.042832670705906975
474,3801.8939600000003,0.043770165096884577
475,3804.13,0.04784883883450936
476,3806.88,0.04883954705085215
477,3809.63,0.05538509526719495
478,3812.37,0.05177347349002377
479,3815.1200000000003,0.05408292170636656
480,3817.87,0.05748986992270936
481,3820.6200000000003,0.06657286813905215
482,3823.37,0.06356983635539494
483,3826.12,0.05567468457173774
484,3828.87,0.05825633278808054
485,3831.62,0.04347414100442333
486,3834.36,0.03427392922725215
487,3837.11,0.03886593744359495
488,3839.86,0.04428130565993774
489,3842.61,0.04756610387628054
490,3845.3599999999997,0.058069802092623336
491,3848.11,0.06190093030896613
492,3850.8599999999997,0.058209198525308925
493,3853.61,0.05605647674165173
494,3856.35,0.05786603496448054
495,3859.1,0.059878253180823335
496,3861.85,0.05565074139716614
497,3864.6000000000004,0.05817179961350893
498,3867.35,0.07064350782985172
499,3870.1000000000004,0.07698994604619451
500,3872.85,0.0759000842625373
501,3875.6000000000004,0.07316830247888012
502,3878.35,0.0649230306952229
503,3881.0899999999997,0.06994819891805172
504,3883.84,0.06895068713439452
505,3886.5899999999997,0.06530895535073732
506,3889.34,0.0673471435670801
507,3892.09,0.0633350917834229
508,3894.84,0.0742129499997657
509,3897.59,0.0742888882161085
510,3900.34,0.07340872643245129
511,3903.08,0.07741723465528011
512,3905.83,0.08590771287162291
513,3908.58,0.0801075110879657
514,3911.33,0.0820389193043085
515,3914.08,0.08227356752065129
516,3916.83,0.06916693573699409
517,3919.58,0.05639697395333688
518,3922.33,0.05076706216967968
519,3925.07,0.0465888703925085
520,3927.82,0.05169065860885129
521,3930.5699999999997,0.05305650682519409
522,3933.32,0.04867894504153688
523,3936.0699999999997,0.04630595325787968
524,3938.82,0.060557141474222476
525,3941.5699999999997,0.056618209690565274
526,3944.32,0.055188817906908064
527,3947.0699999999997,0.06278473612325086
528,3949.8100000000004,0.05080476434607968
529,3952.56,0.05181663256242247
530,3955.3100000000004,0.06538586077876528
531,3958.06,0.044715958995108065
532,3960.81,0.054524227211450865
533,3963.56,0.048246955427793656
534,3966.31,0.035064373644136455
535,3969.06,0.04495150186047925
536,3971.7999999999997,0.04113687008330807
537,3974.55,0.055617028299650866
538,3977.2999999999997,0.057407056515993655
539,3980.05,0.05995792473233646
540,3982.8,0.052152222948679244
541,3985.5499999999997,0.06599172116502204
542,3988.3,0.06580026938136484
543,3991.0499999999997,0.07249009759770762
544,3993.79,0.07766245582053645
545,3996.54,0.07141979403687924
546,3999.29,0.07288854225322204
547,4002.04,0.06822433046956485
548,4004.79,0.05861317868590764
549,4007.54,0.06811362690225042
550,4010.2900000000004,0.06300600511859322
551,4013.04,0.06108028333493602
552,4015.7900000000004,0.07990517155127883
553,4018.53,0.07187379977410763
554,4021.2799999999997,0.06466829799045044
555,4024.03,0.06308306620679323
556,4026.7799999999997,0.06469514442313602
557,4029.53,0.04817577263947882
558,4032.2799999999997,0.06372645085582161
559,4035.03,0.06249809907216441
560,4037.78,0.0650316472885072
561,4040.5200000000004,0.06978362551133603
562,4043.27,0.06344958372767882
563,4046.02,0.06765970194402161
564,4048.77,0.06048210016036441
565,4051.52,0.06290889837670721
566,4054.27,0.06154394659305
567,4057.02,0.0652269448093928
568,4059.77,0.07093950302573558
