,lambda (Angstroms),Total Flux (erg/s/cm^2/Angstrom)
0,100.00999999999999,0.01436808119088421
1,102.10000000000001,0.01764903707541394
2,104.0,0.02063130726953183
3,104.712855,0.021750450420627256
4,105.94,0.020145285912216225
5,107.89999999999999,0.0175819462181049
6,109.91000000000001,0.01495792315812335
7,114.03999999999999,0.009558260061245919
8,118.04,0.0043289307816309274
9,120.22644299999999,0.0015126164900683809
10,121.07,0.0014792295241995489
11,125.03999999999999,0.0012613814296775874
12,127.07,0.001149711149859053
13,127.95,0.0011034232576224465
14,130.93,0.0009409320793666665
15,132.14,0.0008879747150413344
16,133.98,0.0007902961949102489
17,137.1,0.0006410460042531908
18,138.038426,0.0005929292560499579
19,139.97,0.0006067588718987023
20,142.9,0.0008106510396864413
21,146.91,0.0011471827696621522
22,151.02,0.0012402023702108235
23,154.9,0.0013508386084416857
24,158.489319,0.001464820734869354
25,158.86999999999998,0.0014764727109037564
26,161.82,0.0015737641421191717
27,165.97,0.0017160612063713662
28,169.84,0.0018526186229149792
29,173.0,0.001975011789911831
30,177.03,0.0021317252908603476
31,179.89999999999998,0.002257270679873311
32,181.970086,0.0023446265535007832
33,181.99,0.0023455534281595428
34,185.79999999999998,0.0025430904449301648
35,191.0,0.0028008857302863946
36,194.11,0.002974406324028293
37,198.17000000000002,0.0031947267775948875
38,201.85999999999999,0.003431122864703443
39,205.14000000000001,0.0036151352754666033
40,208.929613,0.003771123893076204
41,209.91,0.0038167392290706773
42,215.79000000000002,0.004352832320490399
43,219.81,0.004667986729930413
44,222.86,0.004861092358983159
45,227.01,0.005187982821464765
46,230.17,0.007714389033860398
47,233.91,0.012734545867518519
48,239.88329199999998,0.017090082145234817
49,239.91,0.017109243895695656
50,246.06,0.01681072171938467
51,251.79,0.018279621935602248
52,257.06,0.015039486200779663
53,260.04,0.018360257796648488
54,264.27,0.019758585129039472
55,269.18,0.02014068430209851
56,274.18,0.020436067248187143
57,275.42287,0.020463374760468174
58,279.28000000000003,0.020590320866787297
59,283.82,0.021136958770956667
60,289.76,0.020649905720464608
61,295.83000000000004,0.021205637081325418
62,301.33,0.020482668330869806
63,308.35,0.02137113654392465
64,316.227766,0.02237197780155175
65,317.72,0.022546955729971962
66,328.13,0.022862819458985956
67,338.1,0.022873533894938836
68,348.37,0.022831486939797023
69,357.31,0.023158603485175035
70,363.078055,0.023615674761464603
71,365.63,0.02383669699337328
72,375.01,0.023812519858447394
73,384.63,0.02289158780748929
74,395.4,0.023933509700543473
75,404.60999999999996,0.024400553547807076
76,414.04,0.024265857888707814
77,416.86938299999997,0.024115102217672477
78,421.74,0.023849293089148807
79,429.58000000000004,0.023544514442590266
80,440.6,0.02383276759500415
81,450.86,0.023586148116217082
82,460.3,0.023079639745871083
83,469.94,0.022891618910051655
84,478.630092,0.02295422174880585
85,479.78,0.022957356031566723
86,489.82,0.022173118620035504
87,500.08,0.022497532281159967
88,505.87,0.021934402329689275
89,511.73,0.023449314537699932
90,520.04,0.023010812327558056
91,529.7099999999999,0.02232187493019681
92,539.56,0.021121760228644763
93,549.5408739999999,0.020628117937094757
94,549.59,0.02062577240904826
95,559.8100000000001,0.021423841482676124
96,570.22,0.021609703445148343
97,579.48,0.021119446343562633
98,590.26,0.02092040235273175
99,599.85,0.019942732373875706
100,609.59,0.01776715835989678
101,619.5,0.0201075537727786
102,629.56,0.019473525150537536
103,630.957344,0.0195026345448846
104,639.79,0.019703784679227832
105,650.1899999999999,0.019187536654882875
106,657.72,0.01859912969110234
107,665.3299999999999,0.01894685189636531
108,674.59,0.018913833213150474
109,685.5500000000001,0.017890839372110015
110,695.09,0.01830825278054743
111,704.76,0.017125601088680532
112,716.21,0.017884733408031515
113,724.43596,0.01772938297034491
114,726.17,0.017695801864011186
115,734.5799999999999,0.017503045318679696
116,744.8000000000001,0.017083726639335117
117,755.16,0.016787246745205
118,765.67,0.015323751978090371
119,774.53,0.01631831081380535
120,785.3100000000001,0.015612347275318603
121,794.4,0.015758141972457333
122,805.45,0.01569519966259847
123,814.78,0.015492586562961983
124,824.2099999999999,0.015361066881335825
125,831.763771,0.014506005059858903
126,835.6800000000001,0.014054802980921897
127,845.36,0.01484307997284752
128,855.15,0.014535444885135933
129,865.05,0.01445736771778714
130,875.0600000000001,0.014284018470801135
131,885.2,0.014048469493334794
132,895.45,0.013878778436231243
133,905.8199999999999,0.01355817147406892
134,914.2,0.013516675770797919
135,924.7800000000001,0.021799958474782746
136,935.4899999999999,0.03019976144828723
137,944.15,0.03756473863321243
138,954.992586,0.0412962436848984
139,955.0799999999999,0.04132642919901954
140,963.9200000000001,0.044154107456357325
141,975.0799999999999,0.025151968740507753
142,984.1,0.03858549766371894
143,995.5,0.03703061650236722
144,1004.71,0.041980963906222545
145,1014.0,0.04217212382824382
146,1025.75,0.028881266183868146
147,1035.24,0.037962662401304303
148,1044.8200000000002,0.04662484895167716
149,1054.48,0.045257768020215965
150,1064.24,0.04036966523646222
151,1074.0900000000001,0.04283841278564516
152,1084.03,0.036507480667764804
153,1094.06,0.04312856888282114
154,1096.4782,0.04269025544870619
155,1104.18,0.04129067290318141
156,1114.3999999999999,0.040442813065031766
157,1124.71,0.036904901672534414
158,1135.1200000000001,0.041080871886317406
159,1145.62,0.039327940545752706
160,1156.22,0.039320820811468336
161,1164.23,0.038957642474523255
162,1175.01,0.03036410963154349
163,1185.8799999999999,0.03737217523421603
164,1194.1,0.03317854327045966
165,1205.1499999999999,0.029121695764436805
166,1216.3,0.021793079864694278
167,1224.73,0.032260774274126616
168,1236.06,0.0362434452656887
169,1244.63,0.03690745392391351
170,1256.15,0.03598180496740823
171,1258.92541,0.03559247866603193
172,1264.85,0.034765734980763074
173,1273.6200000000001,0.03706721162377556
174,1285.4099999999999,0.037152895183766105
175,1294.32,0.033060258637499416
176,1306.29,0.03313663095413104
177,1315.3500000000001,0.036147631705065256
178,1324.46,0.034768654888399766
179,1333.64,0.0326120114770947
180,1345.98,0.03484938179348854
181,1355.3100000000002,0.03406176567938436
182,1364.71,0.032021622970640616
183,1374.17,0.03194874318077722
184,1383.6899999999998,0.03180369630979418
185,1396.5,0.026611699490750835
186,1406.1799999999998,0.026190470403448757
187,1415.9199999999998,0.03003873423502704
188,1425.74,0.029360011958445804
189,1435.62,0.02990254260074492
190,1442.25,0.030177405137024594
191,1445.43977,0.03004539622827584
192,1445.57,0.030040005630235858
193,1455.59,0.02929472474455226
194,1465.68,0.02805043671695271
195,1475.84,0.027987021547437207
196,1486.07,0.02805118923600575
197,1496.37,0.027670149782658342
198,1503.28,0.026616701916383528
199,1513.7,0.024912197362608766
200,1517.1899999999998,0.025545629858513382
201,1524.19,0.025371535666918056
202,1534.76,0.022896607237609112
203,1545.4,0.021826701666384212
204,1556.11,0.021481908953243364
205,1563.29,0.02274159211100701
206,1574.1299999999999,0.023641264705736534
207,1585.04,0.0238584601585501
208,1596.03,0.02391309887774544
209,1603.39,0.023268009384868064
210,1614.5100000000002,0.023004753411933775
211,1625.6999999999998,0.022537730297083527
212,1633.1999999999998,0.02316302652037425
213,1644.52,0.023006098713394377
214,1655.9199999999998,0.022487744172796274
215,1659.58691,0.022786787800340325
216,1663.57,0.02311264153852915
217,1671.24,0.02168614851915908
218,1675.1,0.023487799463778575
219,1686.7099999999998,0.023437861242802498
220,1694.4899999999998,0.02254975102237236
221,1706.24,0.021995204545501655
222,1714.1200000000001,0.02116219414228964
223,1726.0,0.02097427642780249
224,1733.96,0.021853719878364975
225,1745.98,0.021462923907983194
226,1754.04,0.022109847175763798
227,1766.2,0.02108214294948739
228,1774.3500000000001,0.020988963052764303
229,1786.6499999999999,0.021377540570593264
230,1794.9,0.022172630491088297
231,1803.18,0.022124439356748772
232,1815.68,0.020763866509013972
233,1824.0600000000002,0.021195045191892567
234,1836.71,0.020770027069984955
235,1845.1899999999998,0.01901259557008167
236,1853.7,0.01954048301534382
237,1866.55,0.02045141452787245
238,1875.1699999999998,0.021114574772074537
239,1883.82,0.019997783961442056
240,1896.8799999999999,0.020001698090128743
241,1905.46072,0.02063606600651111
242,1905.64,0.02064919771635095
243,1914.43,0.020274609303943824
244,1923.27,0.019154131674173746
245,1936.6,0.018299948325210494
246,1945.54,0.021156082260714512
247,1954.52,0.020305290822328168
248,1968.0700000000002,0.022383782916967923
249,1977.15,0.02192742304385567
250,1986.28,0.02222455395338047
251,1995.45,0.0222717194890149
252,2004.66,0.022167269650758974
253,2013.9099999999999,0.022417524438612682
254,2023.21,0.021126200009103438
255,2037.2299999999998,0.02282021146053144
256,2046.63,0.024209158596296288
257,2056.08,0.022605916514698184
258,2065.5699999999997,0.02260220905920972
259,2075.11,0.0251542723863583
260,2079.89,0.03361667520646
261,2084.68,0.03847220418308911
262,2094.31,0.03583417291898438
263,2103.97,0.034940120124461876
264,2113.68,0.03863739811257641
265,2123.44,0.03509261688332801
266,2133.2400000000002,0.03382726028018924
267,2143.09,0.04025145445968751
268,2152.98,0.04006397326529541
269,2162.92,0.035725952853540376
270,2172.9,0.03613325706789497
271,2182.93,0.04329842206488662
272,2187.7616199999998,0.04339177384266137
273,2193.0099999999998,0.04349680334382507
274,2203.13,0.04231978448823225
275,2213.3,0.034597410954499155
276,2223.52,0.03942431274262577
277,2233.7799999999997,0.04980984678824016
278,2244.09,0.04758072615571428
279,2254.4500000000003,0.037668250845048115
280,2264.85,0.035495337791869724
281,2275.31,0.037847763124922995
282,2285.81,0.04914584071546404
283,2296.36,0.041496713627864806
284,2306.96,0.04952848186212529
285,2317.61,0.043191315418245495
286,2322.95,0.035809901792863516
287,2333.67,0.03269886679958733
288,2344.45,0.0243163301925428
289,2355.27,0.04105456584298605
290,2366.14,0.026248226815289023
291,2377.06,0.032699313109451705
292,2382.54,0.021647262385276943
293,2393.54,0.02587207319441518
294,2404.58,0.025887776261041197
295,2415.68,0.029838457713898876
296,2426.83,0.04825477448861628
297,2432.43,0.04826839053690483
298,2443.66,0.05721653182659778
299,2454.94,0.06034926843815045
300,2466.27,0.05250429037156284
301,2477.65,0.04600217762683494
302,2483.36,0.028808477383214886
303,2494.82,0.03491615915346254
304,2506.34,0.05309276930994186
305,2511.88643,0.026406324037043332
306,2512.12,0.025282411241160256
307,2517.91,0.020423804551432407
308,2523.71,0.02267810667571194
309,2535.3599999999997,0.0366984749943079
310,2547.07,0.038608376196948124
311,2552.94,0.06875997001927932
312,2564.72,0.05119107291997119
313,2576.56,0.06544297870470733
314,2582.5,0.057841304225090165
315,2594.42,0.05184391052188535
316,2606.39,0.04449463088871741
317,2612.4,0.040152468107151895
318,2624.46,0.05484131780005037
319,2636.58,0.09668867037699312
320,2642.65,0.13096243047947187
321,2654.8500000000004,0.18370218356847365
322,2667.1,0.11822643072751231
323,2673.25,0.13356910134205008
324,2685.59,0.15660153782715516
325,2697.9900000000002,0.11151256719630451
326,2704.21,0.13907012950889394
327,2716.69,0.09881244939010232
328,2722.9500000000003,0.07696002695872126
329,2735.52,0.09980126616599604
330,2748.1499999999996,0.05626999825731509
331,2754.4800000000005,0.07848938752398568
332,2767.2000000000003,0.10487545894137114
333,2773.58,0.11161300227807862
334,2786.38,0.06451895420752311
335,2792.7999999999997,0.02903787280026011
336,2805.69,0.034876584055771
337,2812.1600000000003,0.09695647671854489
338,2825.14,0.14369628730012218
339,2838.1800000000003,0.13296774076574377
340,2844.72,0.0916728751265693
341,2857.85,0.050173667918257274
342,2864.4399999999996,0.1300884263491197
343,2877.6600000000003,0.1829151584668741
344,2884.0315,0.16716643452854313
345,2884.3,0.16650280215998267
346,2897.61,0.20775196985447472
347,2910.99,0.28422253737906555
348,2931.16,0.24779498842323575
349,2951.48,0.22725133910333178
350,2971.94,0.2359776894436254
351,2992.5400000000004,0.2411318394441165
352,3013.2799999999997,0.2407910891048051
353,3027.19,0.25993485534300076
354,3048.18,0.27493040439689925
355,3069.31,0.3003220531109952
356,3090.58,0.2903970014852887
357,3111.9999999999995,0.34145614949550807
358,3133.57,0.3131603971416534
359,3148.0399999999995,0.3126347620206391
360,3169.8599999999997,0.34946190905999425
361,3191.83,0.30468625573527525
362,3206.56,0.33891431998319926
363,3228.7900000000004,0.2874461660274185
364,3251.17,0.4100720117075637
365,3273.71,0.48220365699936313
366,3288.82,0.4737135203249661
367,3311.31121,0.44095531430716123
368,3311.6200000000003,0.4405055514079603
369,3319.2500000000005,0.4028182973915154
370,3326.8999999999996,0.4104393424471113
371,3334.57,0.4553717865747479
372,3342.26,0.42513152977442537
373,3349.96,0.4598787725101232
374,3357.69,0.4739963138538822
375,3365.43,0.32510475473366157
376,3373.1800000000003,0.3244655951494613
377,3380.96,0.4307485341733222
378,3388.76,0.4532670722692239
379,3396.5699999999997,0.390421909901146
380,3404.4,0.5171437466051088
381,3412.2400000000002,0.4343056828450921
382,3420.11,0.44764201769313644
383,3427.9900000000002,0.46780565207720126
384,3435.9,0.4843986850693272
385,3443.82,0.34707871759747355
386,3451.7599999999998,0.4618482491976606
387,3459.7099999999996,0.4771354803338681
388,3467.69,0.46858531007813675
389,3475.68,0.4709030393584258
390,3483.69,0.47542276771075564
391,3491.73,0.4844184946711466
392,3499.78,0.410584221167558
393,3507.8399999999997,0.5401183471999896
394,3515.93,0.4412443718404826
395,3524.03,0.49522569601699595
396,3532.16,0.5127923188015703
397,3540.3,0.5445992411221652
398,3548.46,0.5757259625148008
399,3556.64,0.5027989829794771
400,3564.84,0.5278703025161944
401,3573.06,0.3817276211249523
402,3581.3,0.425475138805751
403,3589.55,0.3069846560225701
404,3597.16,0.44237680293408443
405,3599.8999999999996,0.41700827580367045
406,3602.64,0.5017454486732564
407,3605.37,0.341303122006822
408,3608.11,0.37488429487640795
409,3610.85,0.43824846774599396
410,3613.5899999999997,0.41074724061557993
411,3616.32,0.6497927139491455
412,3619.06,0.5187561868187315
413,3621.8,0.48125985968831747
414,3624.54,0.4432910325579034
415,3627.2700000000004,0.471888505891469
416,3630.01,0.501930378761055
417,3632.75,0.49990065163064096
418,3635.4900000000002,0.545084624500227
419,3638.22,0.5503435978337926
420,3640.9599999999996,0.5560089707033785
421,3643.7000000000003,0.5157457435729645
422,3646.44,0.4889823164425505
423,3649.17,0.5292465897761162
424,3651.91,0.570395762645702
425,3654.6499999999996,0.597970535515288
426,3657.39,0.696708608384874
427,3660.1299999999997,0.67336298125446
428,3662.86,0.5881719545880255
429,3665.6,0.5384613274576115
430,3668.34,0.6183741003271976
431,3671.08,0.6495568731967836
432,3673.81,0.6569375465303492
433,3676.55,0.5623705193999351
434,3679.29,0.5426852922695211
435,3682.03,0.568980265139107
436,3684.76,0.5604285384726727
437,3687.5,0.5764750113422586
438,3690.2400000000002,0.5882271842118446
439,3692.98,0.5994085570814306
440,3695.71,0.6235626304149962
441,3698.45,0.6407964032845821
442,3701.1899999999996,0.5968152761541682
443,3703.93,0.5459519490237541
444,3706.66,0.4891832223573197
445,3709.4,0.5404312952269056
446,3712.14,0.5675563680964917
447,3714.8799999999997,0.5164279409660777
448,3717.62,0.5698602138356637
449,3720.35,0.5709921871692292
450,3723.09,0.5769283600388152
451,3725.83,0.5524012329084012
452,3728.57,0.5646779057779872
453,3731.3,0.5839610791115528
454,3734.04,0.4914289519811387
455,3736.78,0.42063922485072464
456,3739.52,0.4192147977203107
457,3742.2499999999995,0.48394747105387625
458,3744.9900000000002,0.4258559439234622
459,3747.73,0.41997021679304825
460,3750.4700000000003,0.4727398896626342
461,3753.2,0.5284172629961998
462,3755.94,0.5221797358657857
463,3758.68,0.5172276087353718
464,3761.4199999999996,0.49751928160495773
465,3764.15,0.4940050549385233
466,3766.89,0.5551674278081092
467,3769.63,0.6547416006776953
468,3772.37,0.6135848735472813
469,3775.1099999999997,0.5739096464168673
470,3777.84,0.6722651197504329
471,3780.58,0.6887493926200188
472,3783.32,0.6272454654896048
473,3786.06,0.5545074383591907
474,3788.7900000000004,0.5935268116927563
475,3791.53,0.5476263845623422
476,3794.27,0.5513779574319283
477,3797.01,0.5565590303015142
478,3799.74,0.5673170036350799
479,3801.8939600000003,0.563152135562879
480,3802.4799999999996,0.5620189821702473
481,3805.2200000000003,0.6195208815289688
482,3807.96,0.5486158808876905
483,3810.69,0.5210020806137161
484,3813.43,0.4803066799724377
485,3816.1699999999996,0.45349707933115935
486,3818.91,0.442296778689881
487,3821.64,0.4129013784159066
488,3824.38,0.3690358777746282
489,3827.12,0.35959367713334983
490,3829.86,0.41308397649207146
491,3832.6,0.3135201758507931
492,3835.33,0.31877237557681865
493,3838.07,0.3811279749355403
494,3840.81,0.4648798742942619
495,3843.55,0.5148020736529836
496,3846.28,0.46081147337900913
497,3849.0200000000004,0.5745309727377307
498,3851.76,0.5289072720964524
499,3854.5,0.44800167145517406
500,3857.23,0.5302803711811996
501,3859.97,0.4779530705399212
502,3862.7099999999996,0.5417494698986429
503,3865.4500000000003,0.5369529692573645
504,3868.18,0.55096756898339
505,3870.92,0.45565136834211173
506,3873.66,0.4726029677008333
507,3876.3999999999996,0.520628767059555
508,3879.13,0.5644265667855806
509,3881.87,0.5224110661443022
510,3884.61,0.5937526655030237
511,3887.35,0.5703323648617454
512,3890.09,0.546496964220467
513,3892.82,0.5866057639464926
514,3895.56,0.6348505633052143
515,3898.3,0.7011368626639358
516,3901.04,0.6400364620226575
517,3903.7699999999995,0.6690324617486831
518,3906.51,0.6775623611074048
519,3909.25,0.6770427604661263
520,3911.9900000000002,0.718485659824848
521,3914.72,0.6540454595508736
522,3917.46,0.6593475589095952
523,3920.2,0.6509310582683169
524,3922.9399999999996,0.5197162576270384
525,3925.67,0.45779415735306406
526,3928.41,0.3808944567117857
527,3931.15,0.3453639560705073
528,3933.89,0.37295035542922894
529,3936.6200000000003,0.42709985515525456
530,3939.36,0.5101082545139761
531,3942.1,0.5923095538726978
532,3944.84,0.6483357532314195
533,3947.58,0.669143352590141
534,3950.3100000000004,0.6746216523161667
535,3953.05,0.6486822516748882
536,3955.79,0.63974705103361
537,3958.53,0.6222810503923315
538,3961.2599999999998,0.4791890501183571
539,3963.9999999999995,0.3732727494770787
540,3966.7400000000002,0.41768464883580037
541,3969.48,0.469117048194522
542,3972.21,0.5649818479205475
543,3974.95,0.6672999472792692
544,3977.69,0.7512244466379908
545,3980.43,0.8050601459967125
546,3983.16,0.857862345722738
547,3985.9,0.8996512450814597
548,3988.64,0.9091607444401814
549,3991.38,0.9331382437989029
550,3994.11,0.9217287435249285
551,3996.85,0.9243213428836501
552,3999.59,0.9252423422423718
553,4002.33,0.9272585416010934
554,4005.07,0.9712375409598151
555,4007.8,0.9740079406858406
556,4010.5400000000004,1.0084757400445623
557,4013.28,1.0562586394032838
558,4016.02,1.0440375387620056
559,4018.75,1.015451438488031
560,4021.49,1.0440983378467528
561,4024.2299999999996,1.0018462372054744
562,4026.9700000000003,0.9988472365641959
563,4029.7,0.9833454362902215
564,4032.44,0.9413238356489432
565,4035.18,0.9723334350076648
566,4037.9199999999996,1.0081847343663863
567,4040.65,0.985420434092412
568,4043.39,0.9620743334511337
569,4046.13,0.9538881328098553
570,4048.87,0.9369404321685769
571,4051.6000000000004,0.9560230318946025
572,4054.34,0.9394212312533241
573,4057.08,0.9155565306120458
574,4059.82,0.9112324299707674
575,4062.5499999999997,0.905471529696793
576,4065.29,0.9205147290555146
577,4068.03,0.9418406284142363
578,4070.7700000000004,0.9152093277729578
579,4073.51,0.9289267271316796
580,4076.24,0.9666274268577051
