,lambda (Angstroms),Total Flux (erg/s/cm^2/Angstrom)
0,101.98,0.0841055423265341
1,104.11,0.10021203386568672
2,104.712855,0.1047706624869985
3,106.05,0.09633413263520177
4,108.02000000000001,0.0839046924539281
5,110.03,0.07122287788992285
6,113.89,0.04686874646309798
7,117.9,0.02156821106045552
8,120.22644299999999,0.006889845143121345
9,120.92,0.0066873657893626055
10,124.88000000000001,0.0055312688806684355
11,126.91,0.0049386233456376015
12,128.09,0.004594129994961589
13,131.07,0.003724138467778416
14,131.98,0.0034584713115882824
15,134.12,0.0028337127373723797
16,136.93,0.002013355361054568
17,138.038426,0.0016897585091918532
18,140.12,0.001668298776881404
19,143.05,0.001638137039387339
20,147.06,0.0015969379743951552
21,150.82999999999998,0.001558123984272553
22,155.06,0.0015145838245424188
23,158.489319,0.0014793054346765046
24,159.04000000000002,0.0014705943417509097
25,162.0,0.0014237811892256255
26,166.15,0.0013581713016310541
27,170.02,0.0012970078384645506
28,173.18,0.0012470783378335036
29,176.80999999999997,0.0011897656356339155
30,180.10000000000002,0.0011378091556541222
31,181.970086,0.0011082923812296174
32,182.18,0.0011093748335283301
33,185.99999999999997,0.0011291163950146138
34,191.20999999999998,0.00115607004480088
35,193.87,0.0011699111451447318
36,197.93,0.0011909963341432427
37,202.07,0.001212560079979162
38,204.88,0.0012272517996431561
39,208.929613,0.0012482748732349437
40,210.14000000000001,0.0012858606362404395
41,216.02,0.0014690363876929857
42,220.04,0.0015942352249309509
43,223.1,0.001689483828380746
44,227.25,0.0018188525907358597
45,229.88000000000002,0.0019048387512597036
46,234.14999999999998,0.0020466422003383375
47,239.88329199999998,0.0022317493832282372
48,240.16,0.002225059679703257
49,245.75,0.0020840297917396377
50,252.06,0.0019284469338057485
51,256.74,0.0018062018689989977
52,259.71999999999997,0.0017369700321776056
53,263.94,0.0016339470792963039
54,268.84999999999997,0.0015120403185268283
55,273.84,0.0013881079022051
56,275.42287,0.0013488462506615257
57,278.93,0.0014467900719443226
58,284.12,0.0015917671326973802
59,290.07,0.001755417633599248
60,296.14,0.001926362313998296
61,300.96000000000004,0.0020607078254683817
62,307.97,0.002258070990262011
63,316.227766,0.002490959519901511
64,318.05,0.0024563925895754483
65,327.72,0.0022719891202472625
66,337.68,0.0020812250831212303
67,347.94,0.0018843852899974264
68,356.86,0.0017140560156636703
69,363.078055,0.0015959224802610372
70,366.02000000000004,0.0016444960070821323
71,375.40999999999997,0.0017974900077298236
72,385.03999999999996,0.0019511081889052526
73,394.90999999999997,0.0021168599506084184
74,405.03999999999996,0.0022836971995499654
75,413.53000000000003,0.002422511398218647
76,416.86938299999997,0.0024762701571595844
77,422.18,0.0025286970820025427
78,430.03,0.0026071385016304288
79,441.06,0.002719615009973816
80,451.34000000000003,0.0028216266521107177
81,459.73,0.002905292343407274
82,470.44,0.0030121581648358924
83,478.630092,0.003096142496939753
84,480.29,0.003077336578023626
85,490.35,0.002958559135488834
86,499.46,0.002858187905320649
87,506.40999999999997,0.002813279762217588
88,512.27,0.0031098350111983153
89,520.6,0.0030579301680258688
90,530.28,0.0030003044704377205
91,540.13,0.002876288747478705
92,549.5408739999999,0.0031204166569289453
93,550.18,0.0031422750714613376
94,560.4,0.003370510050820964
95,569.51,0.003581963849447793
96,580.1,0.003498664222385018
97,589.52,0.003970898539955241
98,600.48,0.004093960306470065
99,610.24,0.004611942580300785
100,620.16,0.0050682501864893845
101,630.2299999999999,0.005452023979263498
102,630.957344,0.005455971047210437
103,640.47,0.005596608263786997
104,649.38,0.006391670785836053
105,658.42,0.006918660682505353
106,664.51,0.00731456784740757
107,675.31,0.007486257662012487
108,684.7,0.0075754257980439835
109,694.23,0.00970062402982036
110,705.51,0.009483713458407716
111,715.3199999999999,0.011343410881673848
112,724.43596,0.01191199622871341
113,725.27,0.01196208614119319
114,735.36,0.012548020878591927
115,745.59,0.014328209535042779
116,754.23,0.015457678253687487
117,764.72,0.016562301616949406
118,775.3599999999999,0.018186213464910016
119,784.34,0.019861381415538427
120,795.25,0.020845748535956686
121,804.46,0.021966019496456428
122,815.65,0.02292052245497891
123,825.09,0.025444296425349983
124,831.763771,0.022229333432121537
125,834.65,0.020810892985807544
126,844.3100000000001,0.027021654027057744
127,854.09,0.02793768545391354
128,865.9699999999999,0.0302611036288672
129,876.0,0.03268056919240131
130,884.1,0.035952075220778805
131,894.34,0.0382150614591227
132,904.6899999999999,0.03831356471760506
133,915.17,0.059459411727160134
134,925.7700000000001,0.4440636491223208
135,934.33,0.9472118099621863
136,945.15,1.652191911397624
137,954.992586,2.08414394188148
138,956.1,2.1327501594380176
139,964.9399999999999,2.2590348489971523
140,976.12,0.3480912740278223
141,985.1500000000001,1.5924015634756712
142,994.26,1.7988939686661367
143,1005.78,2.728080835602927
144,1015.08,2.7981450406821073
145,1024.48,1.5668961404395583
146,1033.96,2.1474361559396256
147,1045.93,3.7049155489286343
148,1055.6100000000001,3.5059723537852436
149,1065.3700000000001,2.740615074384469
150,1075.23,3.264449689661965
151,1085.18,2.684360210149905
152,1095.22,3.5299646358482883
153,1096.4782,3.4970046748323025
154,1105.36,3.264316032907243
155,1115.5800000000002,3.146468343909208
156,1125.9099999999999,2.623324292309433
157,1133.71,3.52173358054968
158,1144.2,3.2493220015291917
159,1154.79,3.394364092870758
160,1165.47,3.3943798875381734
161,1176.26,1.9809573196038486
162,1184.41,3.3555884541112864
163,1195.3700000000001,2.8170433257924543
164,1203.65,1.9627740317705626
165,1214.79,1.7135473101034284
166,1226.03,2.8627372587983486
167,1234.53,3.636944239572977
168,1245.95,3.7386585949195954
169,1254.59,3.5869571142010996
170,1258.92541,3.547407692731982
171,1266.2,3.4810715287127945
172,1274.98,3.941917587353399
173,1283.81,4.01516165771747
174,1295.6899999999998,3.1313364432129576
175,1304.67,3.3169675487474257
176,1313.7199999999998,4.024510670694746
177,1325.8700000000001,3.7733835194969494
178,1335.0600000000002,3.505413674269974
179,1344.32,3.905850845455851
180,1353.64,3.8256190307098867
181,1366.1599999999999,3.465146966265738
182,1375.6299999999999,3.481101186690171
183,1385.17,3.457319423527457
184,1394.77,2.5572596744329017
185,1404.44,2.7528409417511983
186,1414.1699999999998,3.1896412231376545
187,1423.97,3.2043185209369627
188,1433.8400000000001,3.324553835149123
189,1440.46,3.4492503873360025
190,1445.43977,3.4314412016039366
191,1447.1100000000001,3.4254678836199797
192,1453.7900000000002,3.3321491981617575
193,1463.87,3.0532111817816854
194,1474.02,3.153045179176752
195,1484.23,3.16774318837908
196,1494.52,3.1677152133244237
197,1504.88,2.9024012520449056
198,1511.8300000000002,2.5514076197193596
199,1515.31,2.696421304540525
200,1525.82,2.7654003727791605
201,1536.3899999999999,2.321677452825057
202,1543.48,2.326999848049789
203,1554.18,2.2898259536780854
204,1564.95,2.487657073081521
205,1575.8,2.696433208227971
206,1586.73,2.7910513591174366
207,1594.05,2.797600799603337
208,1605.1000000000001,2.849343974107326
209,1616.2299999999998,2.8427901643543296
210,1623.69,2.752877632390507
211,1634.94,2.9837078462520337
212,1646.27,3.018223075856576
213,1653.8700000000001,2.91575757144303
214,1659.58691,3.0018632361414563
215,1665.34,3.0885209642472775
216,1673.02,2.88258100120343
217,1676.88,3.204374548423579
218,1684.6200000000001,3.211702671605951
219,1696.3,3.0253324569767663
220,1704.13,2.956328709498468
221,1715.94,2.7845946816927594
222,1723.8600000000001,2.7718210635537917
223,1735.8100000000002,2.9563742369425956
224,1743.8200000000002,2.8826927481429574
225,1755.91,3.0045041227262757
226,1764.01,2.8892557632659672
227,1776.24,2.791223339043798
228,1784.4399999999998,2.889276123293856
229,1796.8100000000002,3.0393439002662004
230,1805.1000000000001,3.0746578138555885
231,1813.43,2.7340387849291234
232,1826.0000000000002,2.8760268493222005
233,1834.4299999999998,2.778510964106102
234,1842.9,2.52831213637415
235,1855.68,2.5516915025589966
236,1864.24,2.623278804166375
237,1872.8500000000001,2.836568177628936
238,1885.83,2.534184831234516
239,1894.5300000000002,2.3706353340364075
240,1903.28,2.6233169086934818
241,1905.46072,2.594374001910624
242,1916.47,2.448220648554763
243,1925.3200000000002,2.3651242544376267
244,1934.2,2.528347804747212
245,1943.13,2.623265262434667
246,1956.6,2.3760043100326524
247,1965.6299999999999,2.6472875824758457
248,1974.7,2.7594017808213342
249,1983.82,2.5752388865446925
250,1992.97,2.5282339366947717
251,2006.79,2.653462335937842
252,2016.05,2.5990041823192342
253,2025.36,2.7214109360784953
254,2034.71,2.493482615740052
255,2044.1000000000001,2.592961221303904
256,2053.53,2.4820077527700515
257,2063.01,2.510722191614068
258,2072.54,2.715020537835954
259,2077.31,2.447934701684684
260,2086.9,2.6048649367600136
261,2096.53,2.453546097737638
262,2106.21,2.539710166093132
263,2115.93,2.5690721603509212
264,2125.7000000000003,2.60478406198658
265,2135.5099999999998,2.5163538895245336
266,2145.37,2.453435624440357
267,2155.27,2.574933285258476
268,2165.22,2.557183853454464
269,2175.21,2.539587347552747
270,2185.25,2.4647137490289
271,2187.7616199999998,2.48625725268241
272,2195.34,2.55128628919922
273,2205.47,2.5279152505876272
274,2215.65,2.4590642858229663
275,2225.88,2.3920673949052373
276,2236.1600000000003,2.4421735778344407
277,2246.48,2.4309588198411887
278,2256.85,2.3484801356948695
279,2267.26,2.4031785106260957
280,2272.4900000000002,2.414286235015174
281,2282.98,2.4426397281014918
282,2293.52,2.2803042950347403
283,2304.1,2.361060921045535
284,2314.7400000000002,2.271100635672648
285,2325.42,1.8853864093773063
286,2336.16,2.1551942716982833
287,2346.94,2.160774193096805
288,2352.35,2.2215901833348393
289,2363.21,2.1517542228884525
290,2374.1200000000003,2.1523653362889976
291,2385.07,2.0943515087670885
292,2396.08,2.1437127698614975
293,2407.1400000000003,2.0859241048028387
294,2412.69,2.105515301812282
295,2423.83,2.155161754908714
296,2435.02,2.0826452818520775
297,2446.26,2.1465098826423734
298,2457.55,2.1421915572796015
299,2463.21,2.113151916752295
300,2474.58,2.070456709544614
301,2486.0099999999998,2.071059590953251
302,2497.48,1.8338285314394338
303,2503.24,2.071976038605991
304,2511.88643,1.975630896828299
305,2514.79,1.9432711491308794
306,2520.5899999999997,2.0257398337688786
307,2526.3999999999996,1.975390512690736
308,2532.22,1.9756891858964518
309,2543.91,1.9313185037271774
310,2555.65,2.004318792977196
311,2567.45,1.977435047930366
312,2573.37,2.0284026639746684
313,2585.25,2.0104068731987073
314,2597.18,1.9926070538420395
315,2603.17,1.956552629873352
316,2615.18,1.9347517647875534
317,2627.25,1.9622508654049062
318,2633.31,1.9806574014232292
319,2645.46,2.041446456311451
320,2657.6699999999996,2.0609294769028246
321,2663.8,1.9370819729081576
322,2676.1000000000004,1.9873309420542589
323,2682.27,1.9876354151950266
324,2694.65,1.9119793386119968
325,2707.0899999999997,1.9125742277321185
326,2713.33,1.8822936608598966
327,2725.8500000000004,1.8872405042508873
328,2732.1299999999997,1.9181939145140998
329,2744.7500000000005,1.7948937007436767
330,2757.4100000000003,1.807914464108688
331,2763.77,1.8333368286427696
332,2776.5299999999997,1.8765885348463673
333,2782.9300000000003,1.8257718765158832
334,2795.77,1.6581345369903497
335,2802.2200000000003,1.7166248500791588
336,2815.15,1.8441364591083529
337,2828.1499999999996,1.8703670281245575
338,2834.67,1.7947683012003768
339,2847.75,1.79536682448745
340,2854.32,1.7588350689825627
341,2867.49,1.8338275408243634
342,2874.1,1.8256957624549106
343,2884.0315,1.8167502386341319
344,2887.3700000000003,1.8137450464146165
345,2894.02,1.8015649686215058
346,2907.38,1.8483578123333912
347,2927.5299999999997,1.8113955766144165
348,2947.8300000000004,1.7751623391407099
349,2968.2599999999998,1.7842561001462356
350,2988.8399999999997,1.7728798593970296
351,3009.5499999999997,1.753526617127056
352,3030.41,1.7584583731023504
353,3051.42,1.7512971273229132
354,3072.57,1.7441858799057264
355,3086.7499999999995,1.720871714025078
356,3108.15,1.721783463683338
357,3129.69,1.6952042117038482
358,3151.39,1.6921919578526448
359,3173.23,1.6737657023636912
360,3187.88,1.625010530984883
361,3209.98,1.6485102724543947
362,3232.23,1.6008020121691742
363,3247.1499999999996,1.638673837631849
364,3269.66,1.6471485743050935
365,3292.32,1.6329843092236063
366,3307.52,1.6223631314107816
367,3311.31121,1.6376340113769157
368,3322.78,1.6838275223550747
369,3330.44,1.688034809389469
370,3338.12,1.623587091951368
371,3345.8199999999997,1.623873370040772
372,3353.53,1.6019136458939285
373,3361.2599999999998,1.6207579172745898
374,3369.01,1.5878451841827563
375,3376.77,1.555620448854675
376,3384.56,1.5994467068178515
377,3392.3599999999997,1.64078096254478
378,3400.18,1.6754402137992137
379,3408.02,1.5857224605811526
380,3415.88,1.604383702890596
381,3423.75,1.6802649429637921
382,3431.6400000000003,1.6728731785644932
383,3439.55,1.669340409692699
384,3447.48,1.5872556363484098
385,3455.43,1.5766378585316259
386,3463.39,1.541092078478594
387,3471.38,1.5955122917168199
388,3479.38,1.555930502718798
389,3487.4,1.5384467092482812
390,3495.44,1.6001329113052691
391,3503.5,1.5748761088897623
392,3511.57,1.567952304238008
393,3519.6699999999996,1.5864014928775108
394,3527.7799999999997,1.550644679280766
395,3535.92,1.6127998589752788
396,3544.07,1.6280340364335442
397,3552.24,1.6434332094193143
398,3560.43,1.6286833779325895
399,3568.6299999999997,1.5665335442096173
400,3576.86,1.4998417037779022
401,3585.11,1.4829748588736924
402,3593.3700000000003,1.5108160117332348
403,3601.65,1.5896041601202822
404,3609.96,1.550177301798587
405,3618.2799999999997,1.5720574412406443
406,3626.62,1.6388645762102068
407,3634.98,1.5835787067072737
408,3643.36,1.650889832731846
409,3649.6099999999997,1.5614674350771414
410,3652.34,1.3426908245815665
411,3655.06,1.5838882163222392
412,3657.7799999999997,1.5790016080629117
413,3660.5,1.6004889998035843
414,3663.22,1.5534633915442568
415,3665.9399999999996,1.4658157832849295
416,3668.67,1.4538881727893544
417,3671.39,1.530846564530027
418,3674.1099999999997,1.6355129562706996
419,3676.83,1.6392773480113723
420,3679.5499999999997,1.4921347397520448
421,3682.2700000000004,1.5051791314927174
422,3685.0,1.5861545209971426
423,3687.72,1.516255912737815
424,3690.44,1.5515463044784876
425,3693.16,1.5675976962191602
426,3695.88,1.5620830879598329
427,3698.6000000000004,1.5247544797005053
428,3701.33,1.5746488692049305
429,3704.0499999999997,1.498947260945603
430,3706.77,1.5163056526862757
431,3709.49,1.7815790444269484
432,3712.21,1.9616084361676207
433,3714.9300000000003,2.5133548279082936
434,3717.66,3.9705072174127185
435,3720.3799999999997,6.37097360915339
436,3723.1,8.702958000894064
437,3725.82,8.815106392634735
438,3728.54,6.716564784375408
439,3731.26,3.9519621761160812
440,3733.99,2.4919045656205068
441,3736.7099999999996,1.958120957361179
442,3739.4300000000003,1.6483333491018515
443,3742.15,1.6335647408425242
444,3744.8700000000003,1.6222731325831967
445,3747.59,1.5176595243238695
446,3750.3199999999997,1.6336629138282945
447,3753.0400000000004,1.7072223055689668
448,3755.76,1.7667446973096397
449,3758.48,1.6628640890503121
450,3761.2000000000003,1.7248964807909848
451,3763.92,1.7476398725316573
452,3766.65,1.6689752620360825
453,3769.3700000000003,1.644952653776755
454,3772.09,1.7374900455174276
455,3774.81,1.9345634372581002
456,3777.53,1.8794348289987728
457,3780.25,1.8427342207394453
458,3782.98,1.8826416102438703
459,3785.7000000000003,1.789897001984543
460,3788.42,1.7840163937252156
461,3791.14,1.6879777854658882
462,3793.86,1.6225491772065608
463,3796.58,1.6664395689472333
464,3799.3100000000004,1.7350499584516583
465,3801.8939600000003,1.826460765555423
466,3802.03,1.8312733565310986
467,3804.75,1.8783008750098453
468,3807.47,1.915735393488592
469,3810.19,1.8453409119673385
470,3812.91,1.8831934304460853
471,3815.6400000000003,1.8515549471545334
472,3818.36,1.79501446563328
473,3821.08,1.7741549841120268
474,3823.8,1.8186475025907736
475,3826.52,1.6301760210695204
476,3829.24,1.532072539548267
477,3831.9700000000003,1.609231056256715
478,3834.69,1.7490825747354617
479,3837.41,1.6857200932142085
480,3840.13,1.7646126116929552
481,3842.85,1.805157130171702
482,3845.5699999999997,1.9472046486504486
483,3848.3,1.9473791653588968
484,3851.02,1.9342576838376433
485,3853.74,2.0268482023163905
486,3856.46,2.046376720795137
487,3859.18,2.118420239273884
488,3861.8999999999996,2.15462575775263
489,3864.63,2.2999562744610786
490,3867.35,2.179215792939825
491,3870.0699999999997,2.053116311418572
492,3872.79,1.9712198298973185
493,3875.5099999999998,1.8770113483760653
494,3878.2299999999996,1.8546098668548119
495,3880.96,1.9524443835632599
496,3883.68,1.9963609020420068
497,3886.3999999999996,2.0010684205207534
498,3889.12,1.8992259389995
499,3891.8399999999997,1.8126764574782468
500,3894.5600000000004,1.8302179759569934
501,3897.29,1.7885944926654416
502,3900.0099999999998,1.8694730111441882
503,3902.73,1.998346529622935
504,3905.45,2.019600048101682
505,3908.17,1.9790315665804286
506,3910.8900000000003,1.9418080850591752
507,3913.62,1.943759601767623
508,3916.3399999999997,1.9321291202463697
509,3919.06,1.8926316387251167
510,3921.78,1.7755241572038634
511,3924.5,1.69833267568261
512,3927.2200000000003,1.6965041941613568
513,3929.95,1.643849710869805
514,3932.6699999999996,1.6093712293485516
515,3935.3900000000003,1.7334867478272982
516,3938.11,1.853132266306045
517,3940.8300000000004,1.8322727847847915
518,3943.55,1.8879533032635385
519,3946.2799999999997,1.9413238199719864
520,3948.9999999999995,1.928620338450733
521,3951.7200000000003,1.8160348569294797
522,3954.44,1.8196173754082265
523,3957.1600000000003,1.7234478938869733
524,3959.88,1.69898141236572
525,3962.6099999999997,1.7652129290741678
526,3965.3300000000004,1.786074447552915
527,3968.05,1.7744169660316615
528,3970.77,1.723548484510408
529,3973.4900000000002,1.7307380029891548
530,3976.21,1.8519525214679016
531,3978.94,1.8651710381763498
532,3981.6600000000003,1.8963835566550964
533,3984.38,1.921636075133843
534,3987.1,1.9658925936125897
535,3989.82,1.9783891120913366
536,3992.54,1.9501846305700834
537,3995.2700000000004,2.0059591472785314
538,3997.9900000000002,2.041851665757278
539,4000.71,2.0203651842360246
540,4003.43,2.0675757027147714
541,4006.15,2.057199221193518
542,4008.87,2.049802739672265
543,4011.6000000000004,2.140213256380713
544,4014.32,2.1189887748594596
545,4017.04,2.0814262933382066
546,4019.76,2.145418811816953
547,4022.48,2.0975833302957
548,4025.2,1.9785418487744466
549,4027.9300000000003,2.0698143654828947
550,4030.65,2.0633588839616412
551,4033.37,2.012046402440388
552,4036.09,2.0489839209191345
553,4038.81,2.1190414393978814
554,4041.5299999999997,2.081792957876628
555,4044.26,2.0233604745850764
556,4046.98,2.0152059930638226
557,4049.7,2.0357005115425695
558,4052.42,2.085709030021316
559,4055.14,2.021169548500063
560,4057.8599999999997,2.09969606697881
561,4060.59,2.070069583687258
562,4063.31,2.1588431021660046
563,4066.0299999999997,2.051198620644751
564,4068.75,2.079223139123498
565,4071.47,2.0474376576022446
566,4074.1899999999996,2.0141351760809916
567,4076.92,2.0165576927894393
568,4079.64,2.0347792112681864
569,4082.3599999999997,2.025682729746933
570,4085.08,1.9555232482256797
571,4087.7999999999997,1.9592627667044262
572,4090.5200000000004,1.991939285183173
573,4093.25,2.0663518018916207
574,4095.97,2.1976043203703677
575,4098.69,2.3737128388491144
576,4101.41,2.281778357327861
577,4104.13,2.020375875806608
578,4106.85,1.9072153942853547
579,4109.58,1.9344449109938027
580,4112.3,1.8583524294725493
581,4115.0199999999995,1.892675947951296
582,4117.74,1.971175466430043
583,4120.46,1.9278359849087896
584,4123.18,1.9475995033875362
585,4125.91,1.9421540200959841
