,lambda (Angstroms),Total Flux (erg/s/cm^2/Angstrom)
0,100.05999999999999,0.0003867847910949089
1,101.92,0.00046518786783039895
2,104.05,0.0005547953942049109
3,104.712855,0.0005827590355560279
4,105.99000000000001,0.0005386665922774755
5,107.96,0.0004709063978428683
6,109.97,0.00040275181475984175
7,114.09,0.00026172512197274303
8,118.1,0.00012489061046879542
9,120.22644299999999,7.408682552953401e-05
10,121.13000000000001,8.256806048663072e-05
11,125.10000000000001,8.672883826283111e-05
12,127.13000000000001,8.791265332219807e-05
13,128.01,8.98145173380813e-05
14,131.0,9.149994405113903e-05
15,131.9,0.00010262766747647412
16,134.05,0.00010409898899255241
17,136.85,0.00012244336631581722
18,138.038426,0.00012399888213363694
19,140.04000000000002,0.0001297361849092119
20,142.97,0.00034794921222655606
21,146.98,0.0008580541564390305
22,151.1,0.0009102513282982312
23,154.97,0.0009767975555057813
24,158.489319,0.001042008197603017
25,158.95,0.001050530217870213
26,161.9,0.0011044087626072196
27,166.06,0.0011932422968804221
28,169.92,0.0012633781147396918
29,173.08,0.0013253052609664515
30,177.11999999999998,0.001399760308674081
31,179.99,0.0014552328623673723
32,181.970086,0.0014934768412029791
33,182.07999999999998,0.0014956124820263586
34,185.89000000000001,0.0015731718993063737
35,191.1,0.0016738037875029296
36,194.2,0.0017483671873895561
37,197.81,0.0018222309659672081
38,201.95999999999998,0.0019121619690412404
39,204.76999999999998,0.0019747431928094404
40,208.929613,0.001985589891525987
41,210.02,0.001988589155883304
42,215.9,0.002200997891268576
43,219.92000000000002,0.002299633169542181
44,222.98,0.0023320860828549245
45,227.12,0.0024422149067486365
46,229.75,0.003691875198255995
47,234.01999999999998,0.006248877279904823
48,239.88329199999998,0.007550967148192256
49,240.01999999999998,0.007581283873515042
50,246.18,0.007140282074164091
51,251.92,0.007492469511132526
52,257.19,0.006320013236363125
53,260.16999999999996,0.007204467940573217
54,263.79,0.007490932379915679
55,268.69,0.007438722289522879
56,273.69,0.00735293009524451
57,275.42287,0.007324051803834035
58,278.78,0.007269084205262096
59,283.96000000000004,0.007219859202539705
60,289.90999999999997,0.006801588145358581
61,295.98,0.006849730157612459
62,300.79,0.00672571344079881
63,307.79,0.006711430491173957
64,316.227766,0.006699774012549306
65,317.87,0.006697076908659785
66,328.28999999999996,0.006543668637820162
67,338.26,0.006350360999598372
68,347.74,0.006147864405782669
69,356.66,0.006007257577002492
70,363.078055,0.005920176006320007
71,365.81,0.005883644866718464
72,375.18999999999994,0.00571121630186212
73,384.82000000000005,0.005380738257132207
74,394.69,0.005369174871723666
75,404.81000000000006,0.005248111006441555
76,414.24,0.005082944745610498
77,416.86938299999997,0.005028213910210195
78,421.95000000000005,0.004922285484427945
79,429.79,0.004789122399335079
80,440.81,0.00464890755268669
81,451.08000000000004,0.004461249970556113
82,460.53,0.004320539037631678
83,470.17,0.004184441917696062
84,478.630092,0.004087285470495423
85,480.02000000000004,0.004071157737795961
86,490.07,0.0038880281783979
87,500.33,0.0037990913983556997
88,506.11999999999995,0.0037041493148815925
89,511.98,0.0037550924911927725
90,520.3,0.003660973082815472
91,529.98,0.003512154578838035
92,539.83,0.0033386145629105825
93,549.5408739999999,0.0032287347834092624
94,549.87,0.003225025714138055
95,560.09,0.003195237460602854
96,570.5,0.003144276019379621
97,579.77,0.00300980170428458
98,590.5500000000001,0.0029549551080899164
99,600.15,0.002809191519641978
100,609.9,0.0024759356251245405
101,619.8100000000001,0.0027136922041329707
102,629.88,0.0026156782566672684
103,630.957344,0.0026106557617210087
104,640.11,0.0025684604298828397
105,650.51,0.0024932354058910646
106,658.0500000000001,0.0024091564134970274
107,665.67,0.0024038117978415147
108,674.93,0.0023495749053257615
109,684.32,0.00222923987501011
110,695.43,0.0022398829445727424
111,705.11,0.002115548529934244
112,716.5699999999999,0.002140121997727922
113,724.43596,0.002098459975294763
114,726.53,0.002087342086226835
115,734.95,0.002049433414769181
116,745.17,0.0020032581698407694
117,755.54,0.001958170460456461
118,764.29,0.0017911253671958347
119,774.9200000000001,0.0018838460527546394
120,785.7,0.0018204852738575475
121,794.8,0.001808189096866496
122,805.85,0.0017837478819487907
123,815.1899999999999,0.0017515667618283048
124,824.6199999999999,0.0017357881630342812
125,831.763771,0.0016171644838802257
126,834.1700000000001,0.0015770792474667516
127,845.78,0.001661709410900417
128,855.5699999999999,0.001627517642598572
129,865.48,0.001616018452213354
130,875.5,0.001608367208251711
131,885.64,0.001596998542206695
132,895.89,0.0015820908225852538
133,904.18,0.0015425153303255709
134,914.6500000000001,0.0019297085035512793
135,925.2399999999999,0.005845387254693615
136,935.96,0.011128071215245628
137,944.62,0.019464752088228877
138,954.992586,0.026304891210087337
139,955.5600000000001,0.0266790865462823
140,964.4,0.029523015057031934
141,975.57,0.006161362996519884
142,984.59,0.02450205745884587
143,995.9899999999999,0.02577417105868138
144,1005.21,0.037078607356092204
145,1014.51,0.03557409318753696
146,1023.9,0.01574945849476989
147,1035.75,0.02489882947354627
148,1045.34,0.04646305361586404
149,1055.01,0.04530105729221573
150,1064.77,0.0354922804443556
151,1074.6200000000001,0.04198843307228366
152,1084.57,0.03274413511775412
153,1094.6,0.04356291669725851
154,1096.4782,0.04318174425744145
155,1104.73,0.041506975328316244
156,1114.95,0.0395480490190663
157,1125.27,0.03524788088682958
158,1135.68,0.04467956111390473
159,1146.19,0.04037507951799311
160,1154.13,0.04266820477284198
161,1164.81,0.0437627300778528
162,1175.59,0.030000473559876836
163,1183.74,0.04179189498645345
164,1194.69,0.028584135369399945
165,1205.75,0.020472253747060964
166,1214.1100000000001,0.01381112134536532
167,1225.3400000000001,0.0278053866239488
168,1233.8300000000002,0.041888641852370324
169,1245.25,0.04592806366727891
170,1253.8799999999999,0.04355992634351893
171,1258.92541,0.04073941103093865
172,1265.48,0.03707535286555767
173,1274.2600000000002,0.047981604250395736
174,1286.05,0.05012742953823636
175,1294.96,0.03918258109164263
176,1303.94,0.03837850273581641
177,1316.0,0.04820382837376025
178,1325.12,0.04582216019946903
179,1334.31,0.04018773211594532
180,1343.56,0.04798179411022231
181,1355.99,0.046140270227937236
182,1365.3899999999999,0.04083987241671602
183,1374.85,0.042862874683295527
184,1384.38,0.043061417040642536
185,1393.98,0.037161339488757036
186,1403.6399999999999,0.038467652014672254
187,1416.63,0.03918275885852719
188,1426.45,0.040095011591910985
189,1436.3400000000001,0.03963679441606229
190,1442.97,0.04179062301304137
191,1445.43977,0.042224197314665764
192,1446.29,0.04237345714083525
193,1456.3200000000002,0.04102867805637427
194,1466.4099999999999,0.037505399037210625
195,1476.5800000000002,0.037246980105110114
196,1483.3899999999999,0.03785240751635845
197,1493.68,0.03837911871485261
198,1504.0300000000002,0.03606637997864412
199,1510.97,0.03192367753137002
200,1517.95,0.034206005127627497
201,1524.9499999999998,0.03296883274565073
202,1535.52,0.028451874248865833
203,1546.17,0.03134118583914406
204,1553.3,0.029384043598644875
205,1564.07,0.029793645319517784
206,1574.9099999999999,0.031703997116570924
207,1585.83,0.03319709900068719
208,1596.82,0.03373697096098368
209,1604.19,0.03296895898167387
210,1615.3100000000002,0.03289311108344794
211,1626.51,0.030911453272285127
212,1634.02,0.03281725144533578
213,1645.3400000000001,0.03327427376476766
214,1656.75,0.030416066182145544
215,1659.58691,0.031477441219589015
216,1664.39,0.0332744574424227
217,1672.08,0.0293839885592442
218,1675.9299999999998,0.0333513891573928
219,1683.6699999999998,0.03476183067159286
220,1695.34,0.032368023419747205
221,1703.1599999999999,0.030912265569752937
222,1714.97,0.02925038943056723
223,1726.8600000000001,0.028981843927187206
224,1734.83,0.030840877269328604
225,1746.8500000000001,0.03000018279913282
226,1754.92,0.03199733693603132
227,1763.0199999999998,0.02904937131135696
228,1775.2399999999998,0.029794688430675387
229,1783.43,0.03020898352128242
230,1795.79,0.0323690317532608
231,1804.0800000000002,0.03185075763862493
232,1816.59,0.029318337062738974
233,1824.97,0.02979509366338451
234,1833.4,0.028453120661408596
235,1846.1,0.025950951595561135
236,1854.6299999999999,0.02607080938834233
237,1863.19,0.02692444741955066
238,1876.1,0.02898334002269312
239,1884.76,0.026677738848658556
240,1893.4599999999998,0.025654377992526834
241,1905.46072,0.026873081134646443
242,1906.59,0.026987741800184414
243,1915.3899999999999,0.025951081648518157
244,1924.23,0.0253029910870716
245,1933.1100000000001,0.025654200115844742
246,1946.51,0.02717432283944385
247,1955.49,0.025418420843766238
248,1969.05,0.027870721928244142
249,1978.1399999999999,0.028388938805670703
250,1982.7,0.02698679209071637
251,1996.4399999999998,0.026130231331182918
252,2005.6599999999999,0.026738096876823502
253,2014.91,0.025771872115128856
254,2024.2099999999998,0.026615546841208832
255,2033.5600000000002,0.025536001055063436
256,2042.94,0.026615204961582813
257,2057.1,0.0253588698993562
258,2066.6,0.02530146257653467
259,2076.14,0.027172954843932843
260,2085.7200000000003,0.029725396701550718
261,2095.35,0.027869488046943208
262,2105.02,0.027740928982555403
263,2114.74,0.02845151940594222
264,2124.5,0.028191629419548732
265,2134.3,0.02612894902337495
266,2144.16,0.02793306801253071
267,2154.05,0.028649866694351246
268,2163.9900000000002,0.027109404863946408
269,2173.98,0.02686090252131619
270,2184.02,0.0278686596664606
271,2187.7616199999998,0.02818284688883886
272,2194.1,0.02871520310646521
273,2204.23,0.027868475846980358
274,2214.4,0.025242048914210276
275,2224.62,0.025357732389833652
276,2234.89,0.028715436273850488
277,2245.21,0.027296480566260786
278,2255.57,0.02466694518538585
279,2265.98,0.02455443021290438
280,2276.44,0.025652275648816367
281,2286.9500000000003,0.028321871493121816
282,2297.5,0.025661127664142032
283,2302.8,0.027187220953848873
284,2313.43,0.024923117778298625
285,2324.11,0.019671095011141844
286,2334.84,0.021579782652378518
287,2345.61,0.019511440620329962
288,2356.44,0.023794189078353557
289,2367.32,0.019711357944770615
290,2372.77,0.021271882459657842
291,2383.73,0.018241161979504435
292,2394.73,0.0199642618260658
293,2405.7799999999997,0.019253502081020623
294,2416.89,0.0202628128260476
295,2422.46,0.024422748321079126
296,2433.64,0.023879039637856952
297,2444.87,0.026438861363028233
298,2456.16,0.02682000357827167
299,2467.5,0.024986976201908567
300,2473.1800000000003,0.023325482595405705
301,2484.6,0.020657505872472143
302,2496.07,0.020860209557932035
303,2507.59,0.025912553651785394
304,2511.88643,0.020739419426747386
305,2513.37,0.01895310405463127
306,2519.16,0.018526345751396577
307,2524.9700000000003,0.018150827384938274
308,2536.62,0.02075473055718625
309,2542.47,0.02090455206428073
310,2554.21,0.028082204952022467
311,2566.0,0.02402506768170519
312,2577.84,0.027726770253328883
313,2583.7900000000004,0.02600216144430532
314,2595.71,0.024618853763034583
315,2607.6899999999996,0.022725885892093022
316,2613.7,0.021709536893398627
317,2625.77,0.025168358737950827
318,2637.89,0.034202010424444
319,2643.97,0.042282211204466985
320,2656.17,0.053875552638065725
321,2662.3,0.037543923260029685
322,2674.58,0.04166530444073399
323,2686.9300000000003,0.046132145400155665
324,2693.12,0.0366560258324488
325,2705.5600000000004,0.042792836507364235
326,2718.04,0.033934987055832457
327,2724.31,0.029362317235231156
328,2736.8799999999997,0.034595747499193134
329,2743.1899999999996,0.023833347552144616
330,2755.8500000000004,0.028210227531600365
331,2762.21,0.03369054742649282
332,2774.96,0.035624827121442326
333,2787.77,0.026064326626721007
334,2794.1899999999996,0.01675804633194264
335,2807.0899999999997,0.018726595552715077
336,2813.56,0.03277395509987769
337,2826.5499999999997,0.04283110403614389
338,2833.06,0.040822593456859284
339,2846.14,0.03252115210861924
340,2852.7000000000003,0.02389580137127562
341,2865.87,0.04145056973852934
342,2872.48,0.0523169988431267
343,2884.0315,0.048618302798449045
344,2885.73,0.048074462216867724
345,2892.3900000000003,0.05662821178600389
346,2912.44,0.07369044048888378
347,2932.6200000000003,0.06513542918335342
348,2952.95,0.060844077868118907
349,2973.42,0.0636234565438272
350,2987.15,0.06439983565557487
351,3007.8500000000004,0.06490547431640349
352,3028.7,0.06865741296752796
353,3049.69,0.07097416160959524
354,3070.83,0.07682603024195837
355,3092.12,0.07549524886461736
356,3113.5499999999997,0.08616513747821916
357,3127.92,0.0802807765485625
358,3149.61,0.08054449514534379
359,3171.4399999999996,0.08779239373306788
360,3193.42,0.07636332231108782
361,3208.16,0.08417220135749429
362,3230.4,0.07154815991869372
363,3252.79,0.09817957847018903
364,3267.81,0.1135810174984811
365,3290.46,0.11136451603315586
366,3311.31121,0.10554555535162867
367,3313.27,0.10499891226175623
368,3320.9,0.10053910282569535
369,3328.56,0.10926439335253332
370,3336.23,0.11082238386700424
371,3343.92,0.10393857435674103
372,3351.63,0.10302056482174374
373,3359.36,0.11404215526201235
374,3367.1,0.10794984568991389
375,3374.86,0.07841036609308133
376,3382.64,0.09152113647151466
377,3390.44,0.1108318168252139
378,3398.26,0.10735270715417904
379,3406.09,0.11090869747077711
380,3413.9399999999996,0.10842238776264107
381,3421.81,0.11541597802977094
382,3429.7,0.1092487682721667
383,3437.6099999999997,0.11131855848982836
384,3445.53,0.07323798869512296
385,3453.4700000000003,0.11691503887568347
386,3461.44,0.09572487901914281
387,3469.4199999999996,0.10379481915023511
388,3477.4100000000003,0.09043456926896033
389,3485.43,0.10339109935058442
390,3493.4700000000003,0.09196894940747441
391,3501.52,0.10538797945199734
392,3509.59,0.11586246947178616
393,3517.6800000000003,0.09662722946684087
394,3525.79,0.09845863943716147
395,3533.9199999999996,0.118141739382748
396,3542.0600000000004,0.12839792931596744
397,3550.2299999999996,0.12551971921208574
398,3558.4100000000003,0.11611110909583698
399,3566.62,0.11995609894248707
400,3574.84,0.08814309877677011
401,3583.08,0.08557473858631905
402,3591.34,0.08175342837113388
403,3599.62,0.1266632581312146
404,3607.92,0.10466844786656122
405,3616.2300000000005,0.1132328375895408
406,3624.5699999999997,0.1117193272754192
407,3632.92,0.13717771694893055
408,3641.3,0.13786120658534076
409,3649.69,0.11392059620938391
410,3658.11,0.1485159857963259
411,3666.54,0.14890197537090083
412,3674.9900000000002,0.1476032649207417
413,3683.46,0.1239495544458484
414,3691.95,0.11923604394622103
415,3700.46,0.14776013342185956
416,3709.0,0.10561642286039692
417,3717.55,0.16139271228656724
418,3726.12,0.09507241168800344
419,3734.7000000000003,0.1197325910770726
420,3743.32,0.13315938041667355
421,3751.94,0.07862272975627449
422,3760.5899999999997,0.12181515905877428
423,3769.2599999999998,0.11936144833653997
424,3777.95,0.14389113758957153
425,3786.66,0.16755982681786902
426,3795.3900000000003,0.1271614160214324
427,3801.8939600000003,0.11789010591166486
428,3804.14,0.11468840577902634
429,3812.91,0.15054359719299493
430,3821.7000000000003,0.11690958858738305
431,3830.5099999999998,0.08811002996219072
432,3839.34,0.07910324131741793
433,3848.19,0.1277464626530647
434,3857.06,0.13320295396913098
435,3865.9500000000003,0.13325394526561682
436,3874.86,0.1096107365425222
437,3883.8,0.11803732779005688
438,3892.75,0.10819011902780133
439,3901.7200000000003,0.14974421024596532
440,3910.72,0.15224200143475866
441,3919.73,0.16583279261376171
442,3928.77,0.1383115837633941
443,3937.82,0.05309607490323627
444,3946.8999999999996,0.12624046601370775
445,3956.0,0.16571885710459877
446,3965.12,0.12575914817590933
447,3976.5499999999997,0.14159403698567682
448,3979.29,0.09607723430315389
449,3982.0299999999997,0.126819931620631
450,3984.7700000000004,0.13251442893810805
451,3987.51,0.20771742625558512
452,3990.25,0.15591082357306218
453,3992.9900000000002,0.18364842089053926
454,3995.73,0.18868761820801636
455,3998.4599999999996,0.18109371553528364
456,4001.2,0.19604031285276072
457,4003.94,0.1894163101702378
458,4006.6800000000003,0.2790678074877148
459,4009.42,0.16940160480519195
460,4012.1600000000003,0.23903840212266902
461,4014.9,0.18399119944014608
462,4017.6400000000003,0.13376769675762315
463,4020.38,0.16521839407510022
464,4023.12,0.21575429139257732
465,4025.8500000000004,0.2469334887198446
466,4028.59,0.17898078603732168
467,4031.3300000000004,0.2534571833547987
468,4034.07,0.2673187806722758
469,4036.81,0.2580251779897529
470,4039.55,0.26477747530722995
471,4042.29,0.271172872624707
472,4045.03,0.19054356994218413
473,4047.77,0.1988376672596612
474,4050.5,0.1830352645869285
475,4053.2400000000002,0.17187156190440558
476,4055.98,0.19709665922188266
477,4058.7200000000003,0.1993092565393597
478,4061.46,0.1806222538568368
479,4064.2,0.22720385117431385
480,4066.94,0.23673994849179095
481,4069.68,0.19428384580926802
482,4072.42,0.29402814312674513
483,4075.16,0.2796094404442222
484,4077.8900000000003,0.20957383777148947
485,4080.63,0.19561203508896655
486,4083.37,0.2267330324064436
487,4086.11,0.1992807297239207
488,4088.85,0.25735422704139777
489,4091.59,0.18389122435887484
490,4094.33,0.2090878216763519
491,4097.07,0.19241371899382897
492,4099.8099999999995,0.20279201631130606
493,4102.55,0.15626741362878313
494,4105.28,0.19898121095605045
495,4108.02,0.18683240827352754
496,4110.76,0.2047198055910046
497,4113.5,0.21662570290848168
498,4116.24,0.24991650022595874
499,4118.98,0.21231419754343583
500,4121.72,0.2085452948609129
501,4124.46,0.23004439217838998
502,4127.2,0.18527568949586704
503,4129.9400000000005,0.18169238681334413
504,4132.67,0.1922714841406114
505,4135.41,0.1795659814580885
506,4138.15,0.22761807877556556
507,4140.889999999999,0.22660427609304265
508,4143.63,0.1975245734105197
509,4146.37,0.2481461707279968
510,4149.11,0.23092956804547385
511,4151.85,0.22994436536295093
512,4154.59,0.233627462680428
513,4157.32,0.2723014600076953
514,4160.0599999999995,0.2416084573251724
515,4162.8,0.16677495464264946
516,4165.54,0.18220685196012654
517,4168.28,0.2226785492776036
518,4171.0199999999995,0.24703274659508068
519,4173.76,0.21124344391255775
520,4176.5,0.26489144123003483
521,4179.24,0.2702874385475119
522,4181.9800000000005,0.25024433586498895
523,4184.71,0.23237213319225627
524,4187.45,0.28257973050973334
525,4190.19,0.2793676278272104
526,4192.93,0.2327286251446875
527,4195.67,0.19472662246216457
528,4198.41,0.2563833197796416
529,4201.150000000001,0.2865906170971187
530,4203.89,0.22193571441459578
531,4206.63,0.14922951173207286
532,4209.37,0.18604640904954994
533,4212.099999999999,0.24065200637681725
534,4214.84,0.2349844036942943
535,4217.58,0.22510550101177138
536,4220.320000000001,0.24146539832924846
537,4223.06,0.2655626956467255
538,4225.8,0.2574967929642026
539,4228.54,0.19823809028167969
540,4231.28,0.17859468759915675
541,4234.02,0.21072918491663384
542,4236.76,0.2073171822341109
543,4239.49,0.20399177956137823
544,4242.2300000000005,0.2166970768788553
545,4244.97,0.25034487419633233
546,4247.71,0.23447017151380944
547,4250.45,0.22240706883128653
548,4253.19,0.2317432661487636
549,4255.93,0.17094296346624066
550,4258.67,0.23329916078371774
551,4261.41,0.2558117581011948
552,4264.15,0.2368107554186719
553,4266.88,0.2224074527459392
554,4269.62,0.22901705006341627
555,4272.36,0.24098004738089335
556,4275.1,0.2193664446983704
557,4277.84,0.21713934201584748
558,4280.58,0.23170043933332457
559,4283.32,0.20797413665080164
560,4286.0599999999995,0.2115714339682787
561,4288.8,0.1992371312857558
562,4291.53,0.16763152861302308
563,4294.27,0.19805302593050014
564,4297.01,0.23495572324797723
565,4299.75,0.1817927205654543
566,4302.49,0.17655341788293138
567,4305.23,0.18266341520040846
568,4307.97,0.19656781251788552
569,4310.71,0.2102867098353626
570,4313.45,0.23675370715283967
