,lambda (Angstroms),Total Flux (erg/s/cm^2/Angstrom)
0,102.05000000000001,0.00784345827555638
1,103.95,0.009174934258309264
2,104.712855,0.00970952550308286
3,105.88,0.009027080242949634
4,108.10000000000001,0.007729016880382586
5,110.11,0.0065537456491008015
6,113.98,0.0042909086585656755
7,117.97999999999999,0.001952060611286695
8,120.22644299999999,0.0006385782723592638
9,121.01,0.0006173940702555191
10,124.97,0.000510288433914474
11,127.0,0.00045538499508464525
12,127.88000000000001,0.0004315883257288572
13,130.86,0.000350997205642212
14,132.07,0.0003182937916530042
15,133.91,0.0002685416028545387
16,137.03,0.00018421420736583626
17,138.038426,0.00015695477991905705
18,139.9,0.00015522060877413293
19,143.16,0.00015263397878935862
20,146.83,0.00015027304372735803
21,150.95000000000002,0.00014679726812206036
22,155.17,0.0001433355863515856
23,158.489319,0.00014072470028660095
24,159.14999999999998,0.00013986634541333437
25,162.10999999999999,0.0001361007010659262
26,165.89,0.00013146976760200631
27,170.14999999999998,0.00012619658846012839
28,172.91,0.00012299024531186944
29,176.94000000000003,0.00011831670734901299
30,179.81,0.00011512225394122201
31,181.89000000000001,0.00011283212467007034
32,181.970086,0.00011274493795401711
33,186.13000000000002,0.00011628900966297022
34,190.91,0.00012082506728161143
35,194.01000000000002,0.00012389259954474692
36,198.07000000000002,0.00012796080915388573
37,202.22,0.00013241414976421226
38,205.03,0.0001357484799124093
39,208.929613,0.00013971340540830935
40,209.81,0.00014271853608885255
41,216.17999999999998,0.00016679651642798342
42,220.20000000000002,0.00018199380781939745
43,222.75,0.0001918500722094733
44,226.89000000000001,0.00020803844886630257
45,230.05,0.00024074403085557313
46,233.79,0.0003024625766276845
47,239.78,0.0003582943486263335
48,239.88329199999998,0.0003586940976074324
49,245.93,0.00035045537781439897
50,252.24,0.00035681116568575993
51,256.93,0.0003274443791749332
52,259.91,0.0003521402308162415
53,264.13,0.00036002377642910103
54,269.04,0.00036052702594548494
55,274.04,0.0003604323629275459
56,275.42287,0.00036034358530959506
57,279.14,0.00037826985638371316
58,283.67,0.0004026526695237359
59,290.28000000000003,0.0004217272220304799
60,295.68,0.000455554537694083
61,301.18,0.00047673598698108626
62,308.19,0.0005152708739814304
63,316.227766,0.000560170468299767
64,318.29,0.0005626749857099063
65,327.96,0.0005685083715551086
66,337.92,0.0005718594578031143
67,348.19000000000005,0.0005730928789644616
68,357.12,0.0005758815879197519
69,363.078055,0.0005779635435532116
70,366.29,0.0005896557059894541
71,374.82,0.0006188046532256731
72,385.32,0.0006382669305973377
73,395.2,0.0006826519563527706
74,405.34000000000003,0.0007160113327859781
75,413.83000000000004,0.000740342679917924
76,416.86938299999997,0.0007481368377348059
77,421.52000000000004,0.0007573793366522921
78,430.34999999999997,0.0007737844684038677
79,441.39,0.0007999979218056111
80,450.63,0.0008158504023701138
81,460.07,0.0008319762799165321
82,469.7,0.0008497489995957704
83,478.630092,0.0008674526722970966
84,479.53000000000003,0.0008674366616326021
85,489.58000000000004,0.0008587833200631874
86,499.83,0.0008597989224426401
87,505.61,0.0008546666925649071
88,511.46999999999997,0.000881594380266721
89,519.7800000000001,0.00087818275634216
90,529.4399999999999,0.0008687523790724541
91,540.53,0.0008516430660371497
92,549.5408739999999,0.0008495740245029051
93,550.58,0.0008501308078846451
94,559.53,0.0008717178679076127
95,569.9300000000001,0.0008855331773197761
96,580.52,0.0008799969111346618
97,589.96,0.0008962414919857025
98,599.54,0.0008844258645019069
99,610.6899999999999,0.0008418103649774476
100,620.61,0.0009260766601090496
101,630.7,0.0009276378665483505
102,630.957344,0.0009281232796045443
103,639.47,0.0009515623894597411
104,649.86,0.0009714318069890468
105,657.38,0.0009751743795415374
106,665.0,0.0010091760376332898
107,674.25,0.0010351834000150105
108,685.1999999999999,0.0010230925165641822
109,694.7399999999999,0.0010940816570097621
110,704.4,0.0010681618401024563
111,715.8499999999999,0.0011648427843479374
112,724.43596,0.0011905273697235877
113,725.8000000000001,0.0011943151345489879
114,734.21,0.0012244469865627073
115,744.42,0.0012558641141560576
116,754.7800000000001,0.0012905707313810438
117,765.28,0.0012617540055955567
118,774.14,0.001370553726504184
119,784.9100000000001,0.0013896514820556415
120,795.83,0.001453451727238735
121,805.0400000000001,0.0015051955906211795
122,814.37,0.0015527344457089325
123,825.69,0.0016215479965763881
124,831.763771,0.0015401371493029383
125,835.26,0.0014901254551324002
126,844.93,0.0016906869480556605
127,854.71,0.001722225512770188
128,864.61,0.0017978159739842807
129,874.62,0.0018624865069896408
130,884.75,0.001934226936494566
131,894.99,0.0019971054377907584
132,905.36,0.002019947660294813
133,915.84,0.002389082954590135
134,924.31,0.008043660482517747
135,935.02,0.015615237745103903
136,945.84,0.027504776079481326
137,954.6,0.03737946652394955
138,954.992586,0.03759631455604357
139,965.65,0.043488563864084624
140,974.58,0.010455092243336512
141,985.8699999999999,0.040222080272648245
142,994.99,0.04124904010677783
143,1004.1999999999999,0.056103021156375804
144,1015.83,0.05382913599967921
145,1025.23,0.02525738850415488
146,1034.71,0.041435573200158005
147,1044.29,0.07239208813557044
148,1053.95,0.07189487526251033
149,1066.15,0.05968467447044684
150,1076.02,0.0696158511001463
151,1085.97,0.057795559921373196
152,1096.02,0.07339246898200942
153,1096.4782,0.07330225781933793
154,1106.16,0.07139407657734223
155,1113.83,0.07009020347810613
156,1124.14,0.06407916388838983
157,1134.54,0.07843906680467988
158,1145.04,0.0725386791720881
159,1155.6299999999999,0.07647535404550267
160,1166.32,0.07897313837003542
161,1174.41,0.057506346965495655
162,1185.28,0.07699340630204113
163,1196.24,0.057235478144592934
164,1204.54,0.04455187258740134
165,1215.68,0.02913352944196587
166,1224.1100000000001,0.0552878241712279
167,1235.43,0.07913402603780514
168,1244.0,0.0867528979986326
169,1255.51,0.08458367182233438
170,1258.92541,0.08097559824873506
171,1264.21,0.07539463328278867
172,1275.91,0.09359016751466348
173,1284.75,0.09777282960096888
174,1293.66,0.08190227320831969
175,1305.63,0.08115384330708392
176,1314.68,0.09777324995652555
177,1323.79,0.09467567790972035
178,1336.04,0.08655257409266622
179,1345.3000000000002,0.09936106530524405
180,1354.63,0.09710060803886729
181,1364.02,0.08918014207624372
182,1373.47,0.09273673741737339
183,1386.1799999999998,0.09402595359576045
184,1395.7900000000002,0.08190471241356531
185,1405.46,0.08419914253512338
186,1415.21,0.08938642439501905
187,1425.02,0.09062883755866792
188,1434.89,0.09125647202607
189,1441.52,0.09533355609079905
190,1445.43977,0.0961138523260733
191,1448.17,0.0966573410558526
192,1454.8500000000001,0.09467896287975655
193,1464.94,0.08897787689221032
194,1475.09,0.08918341199889075
195,1485.32,0.09063076856454012
196,1495.61,0.09189026622441615
197,1505.98,0.0881623853432611
198,1512.93,0.08060067209118514
199,1516.42,0.08517349573870384
200,1523.42,0.08323724339848344
201,1533.98,0.07402565598237955
202,1544.61,0.07840724984287346
203,1555.32,0.07505366516233627
204,1566.1,0.07768801175839687
205,1573.33,0.08266674361271212
206,1584.23,0.08596384239722607
207,1595.22,0.08796286282308007
208,1606.27,0.08596423434316075
209,1613.69,0.08615988966252715
210,1624.87,0.0826686735534323
211,1636.14,0.08735883908567749
212,1643.6899999999998,0.08857239677586835
213,1655.08,0.0834321644965669
214,1659.58691,0.08593585287644794
215,1666.55,0.08980480404930044
216,1670.3999999999999,0.08153621680080854
217,1678.11,0.09147309363564685
218,1685.8500000000001,0.09425083446595145
219,1693.63,0.08939578062354446
220,1705.37,0.08676405418268864
221,1713.24,0.08363192232668053
222,1725.12,0.08324850453133412
223,1733.08,0.08837811466172489
224,1745.1,0.08676852551188785
225,1753.15,0.09148371762867753
226,1765.3,0.08519038579252779
227,1773.45,0.08717425122753844
228,1785.7500000000002,0.08879278936872018
229,1793.99,0.09383139679012972
230,1806.42,0.09318890224499875
231,1814.76,0.08778200298462929
232,1823.14,0.08920770905154823
233,1835.78,0.08658124247468134
234,1844.25,0.08044171052799916
235,1857.03,0.08156219259664164
236,1865.6000000000001,0.08423099396818047
237,1874.21,0.08901051066700769
238,1882.8700000000001,0.0834610340249454
239,1895.92,0.08137871205278455
240,1904.67,0.08520806739712114
241,1905.46072,0.0850169093232949
242,1913.4599999999998,0.08308062944376021
243,1926.72,0.08100478305513463
244,1935.6200000000001,0.08193731516231655
245,1944.55,0.08738541211929796
246,1953.53,0.08269245049261185
247,1967.07,0.08961809603544817
248,1976.15,0.09128076724142702
249,1985.27,0.08778003158047187
250,1994.43,0.08598193905258271
251,2003.6399999999999,0.08757603794102603
252,2012.8899999999999,0.08597876996253533
253,2026.84,0.087773485119298
254,2036.2,0.08577575825673876
255,2045.59,0.08878491624397901
256,2055.04,0.08363087393081824
257,2064.52,0.08479020646745697
258,2074.05,0.09168495042042818
259,2078.83,0.09317214982181352
260,2083.62,0.09755862750646535
261,2093.2400000000002,0.09274271600883505
262,2102.9,0.0927413776442707
263,2112.61,0.09489759069603884
264,2127.25,0.09445960739818977
265,2137.07,0.08897433156588938
266,2146.94,0.09380478714992146
267,2156.85,0.09620911586701954
268,2166.8,0.0918802077171836
269,2176.8,0.09187873098368013
270,2186.85,0.09423228566650915
271,2187.7616199999998,0.09453069283899601
272,2196.95,0.09754122681485229
273,2207.0899999999997,0.0951044747159748
274,2217.27,0.08835673809205245
275,2227.51,0.08856257968056276
276,2232.64,0.0973222818435567
277,2242.95,0.09358960301323846
278,2253.3,0.08675089965787536
279,2263.7,0.08715337314620615
280,2274.15,0.09042112347823082
281,2284.65,0.09665913065394942
282,2295.19,0.08938831330462312
283,2305.79,0.0935862441677295
284,2316.43,0.08854789050579098
285,2327.12,0.07332185368754637
286,2332.4900000000002,0.07946150870027102
287,2343.25,0.07347814146319787
288,2354.07,0.08550861243855741
289,2364.94,0.07413803025761083
290,2375.85,0.07887774355161938
291,2386.82,0.0693406550580606
292,2392.32,0.07462834786438938
293,2403.36,0.07275739895200206
294,2414.46,0.07564609825204742
295,2425.6,0.0870253730270479
296,2436.8,0.08503544601448104
297,2442.4100000000003,0.09152246387693641
298,2453.69,0.0921433678142798
299,2465.0099999999998,0.0885995872265783
300,2476.39,0.08402628485130949
301,2487.82,0.07823592931973458
302,2493.56,0.07592781497579408
303,2505.0699999999997,0.09145698039412939
304,2510.8399999999997,0.07216944015640522
305,2511.88643,0.07193073167139946
306,2516.63,0.07084774210043542
307,2522.43,0.07003375485242787
308,2534.0699999999997,0.07641323823746099
309,2545.77,0.07693044844406643
310,2557.52,0.09202398600198217
311,2563.42,0.08393137345659517
312,2575.25,0.09221343677660734
313,2587.14,0.08886822691819186
314,2593.1,0.08545608119437721
315,2605.0699999999997,0.08066908709805817
316,2617.09,0.0779206203530494
317,2623.13,0.0868052603913312
318,2635.24,0.10432138887868095
319,2647.3999999999996,0.12308984471734098
320,2653.4999999999995,0.14292912157719512
321,2665.75,0.11249957264821363
322,2678.05,0.12163132107054243
323,2684.23,0.12941519369249302
324,2696.6200000000003,0.11065623734718033
325,2702.84,0.12243050785017913
326,2715.3100000000004,0.10468724726696288
327,2727.84,0.09769162350531899
328,2734.13,0.10858445030015217
329,2746.75,0.08219452177086677
330,2753.08,0.09220229644674818
331,2765.7900000000004,0.10413507314982129
332,2772.17,0.10978293517701299
333,2784.96,0.08801857764218253
334,2797.8199999999997,0.06233412639918647
335,2804.27,0.06786211471821256
336,2817.21,0.10430154923731294
337,2823.71,0.12623160490764931
338,2836.74,0.1216481146591082
339,2843.28,0.10644586821049279
340,2856.4,0.08593279319431019
341,2862.9900000000002,0.12472252409700506
342,2876.2,0.14217362431318095
343,2882.83,0.13452277309692404
344,2884.0315,0.13566041530540904
345,2896.14,0.1471259963218353
346,2909.51,0.17887718182714235
347,2929.6699999999996,0.16385745997127024
348,2949.98,0.15680433795278004
349,2970.43,0.16301591578251295
350,2991.02,0.16485869346046894
351,3011.7500000000005,0.1678757709866481
352,3032.63,0.17292444835020912
353,3046.63,0.17855323317252014
354,3067.75,0.18691031027589222
355,3089.0099999999998,0.18600148722748744
356,3110.42,0.2010812640164645
357,3131.9799999999996,0.1919825406428235
358,3146.4399999999996,0.19150482496643906
359,3168.2500000000005,0.2041900013217679
360,3190.21,0.18447347751447865
361,3212.32,0.19988915354457126
362,3227.1499999999996,0.17771893746706216
363,3249.52,0.22312231321528345
364,3272.05,0.24969418879004543
365,3287.1499999999996,0.24620747241982377
366,3309.93,0.2377931477235556
367,3311.31121,0.23701155130560758
368,3325.21,0.22914625818470885
369,3332.8799999999997,0.24157649923001492
370,3340.5600000000004,0.21779454006807894
371,3348.26,0.2599907804916588
372,3355.98,0.24999102050075434
373,3363.7200000000003,0.18236106009536573
374,3371.47,0.203172599482735
375,3379.2400000000002,0.2516389384556201
376,3387.0299999999997,0.24028617701402094
377,3394.84,0.2386157151579376
378,3402.67,0.2783594528873701
379,3410.5099999999998,0.2331396904095604
380,3418.37,0.22263382751726654
381,3426.25,0.24519046421048846
382,3434.15,0.27191170048922614
383,3442.0699999999997,0.22153343635347966
384,3449.9999999999995,0.2367964720104911
385,3457.96,0.24791600704577618
386,3465.93,0.22557014187381919
387,3473.9199999999996,0.26436237628737796
388,3481.93,0.23398321028645253
389,3489.95,0.256519944078285
390,3498.0,0.23394147724839115
391,3506.06,0.2760739102112552
392,3514.14,0.24098174275963505
393,3522.24,0.27097967489353064
394,3530.36,0.2300935066129421
395,3538.5,0.27467823791786933
396,3546.66,0.2823517688083123
397,3554.84,0.28167469928427114
398,3563.0299999999997,0.2646576295529878
399,3571.24,0.2247439594072203
400,3579.48,0.2418882886397265
401,3587.73,0.19571091766499055
402,3595.9999999999995,0.2549746462757704
403,3604.29,0.28342917447206606
404,3612.6000000000004,0.22461590225387754
405,3620.92,0.25372722982844687
406,3621.93,0.27097740889699434
407,3624.6699999999996,0.2503657521126578
408,3627.42,0.24061889512107917
409,3630.16,0.26537463833674263
410,3632.9,0.2616541815524061
411,3635.64,0.27911662476806953
412,3638.3900000000003,0.27822746777649093
413,3641.13,0.2725833109921544
414,3643.8700000000003,0.28454915420781784
415,3646.61,0.2974028974234813
416,3649.3599999999997,0.31395454043190263
417,3652.1,0.3171048836475661
418,3654.8399999999997,0.31812002686322954
419,3657.5800000000004,0.2992630700788931
420,3660.33,0.2985007130873144
421,3663.07,0.29209555630297784
422,3665.81,0.2943367995186413
423,3668.5499999999997,0.30175744273430477
424,3671.3,0.27689498574272614
425,3674.04,0.2805315289583896
426,3676.78,0.27848117217405305
427,3679.52,0.2835975153897165
428,3682.2700000000004,0.2824970583981379
429,3685.01,0.29615410161380135
430,3687.75,0.3034267448294648
431,3690.4900000000002,0.3013976880451283
432,3693.24,0.2950119310535496
433,3695.98,0.30154467426921305
434,3698.72,0.29938871748487655
435,3701.4599999999996,0.28207506070054
436,3704.21,0.29589970370896135
437,3706.95,0.3086688469246248
438,3709.69,0.29606949014028827
439,3712.43,0.3068092333559517
440,3715.1800000000003,0.3432963763643731
441,3717.92,0.3970358195800366
442,3720.66,0.39430916279570005
443,3723.4,0.3314589060113635
444,3726.1499999999996,0.2971677490197848
445,3728.8900000000003,0.2643791922354483
446,3731.63,0.27607023545111176
447,3734.38,0.2746525784595331
448,3737.12,0.2636387216751966
449,3739.8599999999997,0.24298476489086007
450,3742.6,0.2604471081065235
451,3745.35,0.2772949511149449
452,3748.09,0.2930236943306084
453,3750.83,0.2944827375462718
454,3753.57,0.2880352807619353
455,3756.32,0.2967861237703566
456,3759.0600000000004,0.2928121669860201
457,3761.8,0.30057101020168353
458,3764.54,0.32908995341734704
459,3767.29,0.3420053964257683
460,3770.0299999999997,0.3606304396414318
461,3772.7699999999995,0.37079948285709524
462,3775.51,0.3683687260727588
463,3778.2599999999998,0.3549641690811801
464,3781.0,0.3236768122968436
465,3783.74,0.31128885551250707
466,3786.48,0.2971038987281705
467,3789.23,0.2984979417365919
468,3791.9700000000003,0.3045444849522553
469,3794.71,0.3268691281679188
470,3797.45,0.3457268713835822
471,3800.2000000000003,0.3499747143920036
472,3801.8939600000003,0.345295949401348
473,3802.94,0.3424067621246101
474,3805.6800000000003,0.32139361717196624
475,3808.42,0.3090267722193224
476,3811.1699999999996,0.30006202710261787
477,3813.91,0.280380582149974
478,3816.6499999999996,0.27186133719733024
479,3819.39,0.2550971922446864
480,3822.14,0.2343785471279818
481,3824.88,0.228988002175338
482,3827.62,0.2359857572226942
483,3830.3599999999997,0.24898741227005036
484,3833.11,0.2817328671533458
485,3835.85,0.306636722200702
486,3838.59,0.3073558772480582
487,3841.33,0.32653063229541435
488,3844.0800000000004,0.32189958717870976
489,3846.82,0.31820034222606597
490,3849.5600000000004,0.3258535972734221
491,3852.3,0.3304414523207783
492,3855.0499999999997,0.34604180720407374
493,3857.79,0.3425540622514299
494,3860.5299999999997,0.3416454172987861
495,3863.27,0.3417937723461423
496,3866.02,0.3242458272294377
497,3868.7599999999998,0.3232314822767939
498,3871.5,0.31452193732415007
499,3874.24,0.3013306923715062
500,3876.9900000000002,0.29615004725480165
501,3879.73,0.31037790230215784
502,3882.4700000000003,0.32069485734951403
503,3885.21,0.33435201239687024
504,3887.9599999999996,0.3471829672801656
505,3890.7000000000003,0.3698036223275218
506,3893.44,0.36889507737487803
507,3896.1800000000003,0.3863364324222342
508,3898.93,0.3939665873055296
509,3901.67,0.40054174235288575
510,3904.41,0.40599639740024196
511,3907.1499999999996,0.3923190524475982
512,3909.9,0.3850240073308936
513,3912.64,0.34766926237824974
514,3915.38,0.31991221742560594
515,3918.12,0.28566487247296213
516,3920.8700000000003,0.23232642735625755
517,3923.61,0.21300428240361374
518,3926.35,0.2112329374509699
519,3929.1,0.25532679233426536
520,3931.8399999999997,0.2919845473816215
521,3934.58,0.3259365024289777
522,3937.32,0.36117815747633386
523,3940.07,0.3793997123596293
524,3942.81,0.3876026674069855
525,3945.5499999999997,0.37138842245434167
526,3948.29,0.35500497750169785
527,3951.04,0.3188322323849933
528,3953.78,0.2760866874323495
529,3956.52,0.23296044247970563
530,3959.26,0.21497009752706184
531,3962.01,0.22854145241035725
532,3964.75,0.2819636074577134
533,3967.4900000000002,0.3348361625050696
534,3970.23,0.38462251755242577
535,3972.98,0.41823427243572125
536,3975.72,0.4380856274830774
537,3978.4599999999996,0.44387858253043355
538,3981.2,0.4604744375777898
539,3983.95,0.4621215924610852
540,3986.69,0.4641728475084414
541,3989.43,0.47738610255579755
542,3992.17,0.4838345576031537
543,3994.92,0.4779979124864492
544,3997.6600000000003,0.48042966753380534
545,4000.4,0.49026052258116154
546,4003.14,0.5061587776285177
547,4005.89,0.5140422325118131
548,4008.63,0.5127321875591693
549,4011.3700000000003,0.5013168426065254
550,4014.11,0.5149952976538817
551,4016.8599999999997,0.5089894525371771
552,4019.6,0.4949740075845333
553,4022.3399999999997,0.4873004626318895
554,4025.08,0.48713201767924563
555,4027.83,0.5050148725625411
556,4030.57,0.5036414276098972
557,4033.31,0.49070398265725346
558,4036.0499999999997,0.4949961377046096
559,4038.8,0.499370292587905
560,4041.54,0.49934974763526124
561,4044.28,0.49892750268261743
562,4047.02,0.4787389577299736
563,4049.77,0.481485412613269
564,4052.5099999999998,0.48715156766062523
565,4055.2500000000005,0.4929023227079814
566,4057.9900000000002,0.49533407775533755
567,4060.74,0.48894773263863295
568,4063.48,0.4967491876859892
569,4066.22,0.48543964273334533
570,4068.9599999999996,0.49296619778070155
571,4071.71,0.5100457526639969
572,4074.45,0.5324342077113531
573,4077.19,0.5307857627587093
574,4079.93,0.5226685178060655
