,lambda (Angstroms),Total Flux (erg/s/cm^2/Angstrom)
0,101.98,0.026190422115084443
1,104.11,0.031205975221454574
2,104.712855,0.03262552981628462
3,106.05,0.029998398870446114
4,108.02000000000001,0.026127877784487216
5,110.03,0.02217876756173885
6,113.9,0.01457525685227597
7,117.9,0.006716331271495508
8,120.22644299999999,0.0021454994351100057
9,120.92,0.0020824485581076423
10,124.89,0.0017215347717779148
11,126.91,0.0015378963140476108
12,128.09,0.0014306225059818876
13,131.07,0.001159711229847776
14,131.98,0.0010769862554703123
15,134.13,0.0008815310251375124
16,136.93,0.0006269911939422376
17,138.038426,0.0005262261470903496
18,140.12,0.0005195489384347344
19,143.06,0.0005101973594156016
20,147.07,0.0004975536966791651
21,150.84,0.0004855454651740864
22,155.06,0.00047211889594771196
23,158.489319,0.0004612406183919319
24,159.04000000000002,0.000458545234061842
25,162.0,0.0004440743275327846
26,166.15,0.0004238197167096127
27,170.02,0.0004049667982027031
28,173.19,0.000389542903986449
29,176.80999999999997,0.00037199686108334496
30,180.10000000000002,0.0003560365334172639
31,181.970086,0.0003469908353122544
32,182.18,0.00034734427732498733
33,185.99999999999997,0.00035384072305595166
34,191.20999999999998,0.0003627390243487068
35,193.87,0.00036741041140220563
36,197.93,0.00037448522227333535
37,202.07,0.0003817902921911868
38,204.89000000000001,0.00038686059233812917
39,208.929613,0.0003938990549963949
40,210.14000000000001,0.0004057554700501961
41,216.03,0.0004643257513387381
42,220.05,0.0005042574592623272
43,223.11,0.0005345852679504325
44,227.25,0.0005759290075284569
45,229.89,0.0006085549839260376
46,234.16,0.0006652166973797007
47,239.88329199999998,0.0007326814349791357
48,240.17,0.0007310200727264202
49,245.76000000000002,0.0006892046311377265
50,252.06,0.000647511803372294
51,256.75,0.0006052547700358053
52,259.71999999999997,0.00059259749180353
53,263.94,0.0005662639504431925
54,268.84999999999997,0.0005325480657561649
55,273.85,0.0004981347732439163
56,275.42287,0.00048733205477020453
57,278.94,0.000520928717733457
58,284.13,0.0005707534897403181
59,290.08,0.0006238179070699565
60,296.15,0.0006840532215558228
61,300.96000000000004,0.0007290162959012958
62,307.97,0.0007986788514442815
63,316.227766,0.0008810932296464804
64,318.06,0.0008724650970232073
65,327.72999999999996,0.00082535050904562
66,337.69,0.0007754701774782184
67,347.95,0.0007235288973696304
68,356.87000000000006,0.0006799345807450093
69,363.078055,0.0006499247781800485
70,366.03,0.0006682962730593104
71,375.42,0.000724433853882944
72,385.04999999999995,0.0007763942236733152
73,394.92,0.0008425021824304253
74,405.05,0.0009051958709015017
75,413.53000000000003,0.0009554253477262525
76,416.86938299999997,0.0009743360667946677
77,422.19,0.000994150401770767
78,430.04,0.001024855908442748
79,441.07,0.0010701809844417226
80,451.35,0.0011085751355994252
81,459.74,0.001140392952157122
82,470.45,0.0011812495148904876
83,478.630092,0.0012145709241458305
84,480.3,0.001210149455547435
85,490.36,0.0011769500581096963
86,499.46999999999997,0.0011558689500920224
87,506.42,0.0011669513117031273
88,512.29,0.001435566558128622
89,519.41,0.0014462048026856102
90,530.29,0.0014532316112221312
91,540.15,0.0014121762220833532
92,549.5408739999999,0.0016248107360101818
93,550.1899999999999,0.0016411782264645065
94,560.42,0.001825065197308353
95,569.52,0.001993053564334649
96,580.11,0.001957643754093822
97,589.54,0.0022919835717924997
98,600.5,0.002392519569881313
99,610.26,0.0027397298382523735
100,620.1700000000001,0.0030982019478381527
101,630.25,0.0033713410774672803
102,630.957344,0.003376901779449239
103,640.4899999999999,0.0034796191451424824
104,649.4,0.003992071443728219
105,658.43,0.004321319487076052
106,664.53,0.004608678012482673
107,675.3199999999999,0.0047585983123412685
108,684.72,0.004832223318705569
109,694.24,0.006189406069831967
110,705.52,0.006081879077469128
111,715.34,0.007317742690500769
112,724.43596,0.007708034415278466
113,725.29,0.0077440639626193105
114,735.3800000000001,0.008154897752149932
115,745.61,0.009329245795450056
116,754.24,0.010104434938527288
117,764.74,0.010879139971240027
118,775.38,0.011998297257722269
119,784.35,0.013122865017096863
120,795.26,0.013866469292991717
121,804.47,0.014684395487399748
122,815.66,0.015385026270833609
123,825.11,0.017100880900275076
124,831.763771,0.01526000180262135
125,834.66,0.014449944380381203
126,844.3299999999999,0.018451329170261002
127,854.11,0.019221875710594458
128,865.99,0.020887854759588466
129,874.0,0.022664534042622305
130,884.12,0.024930625084357946
131,894.36,0.026584017126588467
132,904.7099999999999,0.026922990919272645
133,915.19,0.042372924962492946
134,925.79,0.31087671000620815
135,934.35,0.7016454480415103
136,945.1700000000001,1.3518597965861328
137,953.9200000000001,1.8573446403722182
138,954.992586,1.8802598405163455
139,964.97,2.0934391424550998
140,973.89,0.335304916950968
141,985.17,1.7056315174345325
142,994.2900000000001,1.8234105263361378
143,1005.8000000000001,2.6536667513862997
144,1015.11,2.629288697973355
145,1024.5,1.238665618322705
146,1033.98,1.9493025091546365
147,1045.95,3.5142095833379936
148,1055.63,3.379256408575662
149,1065.3999999999999,2.6967282042959124
150,1075.26,3.2123409704987447
151,1085.2,2.599293710463871
152,1095.25,3.434149414352153
153,1096.4782,3.40457679264341
154,1105.3799999999999,3.1902328739216053
155,1115.61,3.074873372920291
156,1125.93,2.6720207795348
157,1133.74,3.4738887626413235
158,1144.23,3.1828609947523896
159,1154.81,3.3636601344792805
160,1165.5,3.4262051612921782
161,1176.28,2.2122780957209005
162,1184.4399999999998,3.4103897195556288
163,1195.3999999999999,2.709074469215999
164,1203.68,1.9047609698718264
165,1214.8200000000002,1.3959815347638453
166,1226.0600000000002,2.6903759970067798
167,1234.56,3.6041682718346224
168,1245.98,3.7827415493092054
169,1254.62,3.620815680428329
170,1258.92541,3.531172698931662
171,1266.2300000000002,3.379091794298973
172,1275.0,3.933643434628447
173,1283.84,4.016062080068874
174,1295.72,3.1681739474707156
175,1304.7,3.3098006031330502
176,1313.75,3.997611263906338
177,1325.9,3.7652661510218572
178,1335.09,3.4419178220170528
179,1344.35,3.915614498123202
180,1353.6699999999998,3.8352831786101684
181,1366.1899999999998,3.473811092740728
182,1375.6599999999999,3.5383687841797378
183,1385.2,3.5629134807297014
184,1394.8,2.856356181660482
185,1404.4699999999998,3.0395068877022164
186,1414.1999999999998,3.309775598124768
187,1424.01,3.3480693143884097
188,1433.8799999999999,3.426120035032869
189,1440.49,3.554733517652917
190,1445.43977,3.5486043518430317
191,1447.14,3.5464989832429454
192,1453.8200000000002,3.457805392590569
193,1463.8999999999999,3.2048970102887795
194,1474.0500000000002,3.2644256322765606
195,1484.27,3.279430258553913
196,1494.55,3.28702388850804
197,1504.91,3.053645523364534
198,1511.86,2.7090429492576455
199,1515.3500000000001,2.862934163123395
200,1525.85,2.9095088065590304
201,1536.43,2.5108714548970332
202,1543.52,2.5812358893692866
203,1554.22,2.5051105450608393
204,1564.99,2.665711205041963
205,1575.84,2.849829869925453
206,1586.7600000000002,2.936408539098514
207,1594.09,2.9634909882778677
208,1605.1399999999999,2.9840496654172752
209,1616.26,2.984079346846253
210,1623.7199999999998,2.8893918039919524
211,1634.98,3.0889554940000723
212,1646.31,3.110303188297763
213,1653.91,2.9909696540226043
214,1659.58691,3.085983443929213
215,1665.37,3.182776589911162
216,1673.0600000000002,2.990983031288681
217,1676.92,3.23455775869014
218,1684.66,3.2794582224433264
219,1696.3400000000001,3.1031994493990376
220,1704.17,3.0117409534284234
221,1715.98,2.849842238560868
222,1723.8999999999999,2.8433097828664535
223,1735.85,3.0117751306507645
224,1743.8600000000001,2.9364497152325497
225,1755.95,3.0676761256687275
226,1764.05,2.916221750526712
227,1776.28,2.8762252236147563
228,1784.48,2.950014893224074
229,1796.8500000000001,3.0961434289639844
230,1805.14,3.1248421388495022
231,1813.48,2.810760871110687
232,1826.05,2.9432354963532634
233,1834.47,2.836824264415515
234,1842.94,2.6051090548534326
235,1855.7199999999998,2.5932177740738087
236,1864.2800000000002,2.6720116047879263
237,1872.89,2.8961554578777107
238,1885.8700000000001,2.605130266600753
239,1894.58,2.44821616444187
240,1903.32,2.6843530757083873
241,1905.46072,2.658097510518829
242,1916.51,2.5225686599356782
243,1925.3600000000001,2.453760554816158
244,1934.2500000000002,2.5992254266226507
245,1943.1699999999998,2.684348281123654
246,1956.64,2.459422510958689
247,1965.6699999999998,2.7091153020062295
248,1974.7500000000002,2.8172310642112866
249,1983.8600000000001,2.6353318091108537
250,1993.02,2.5813095251679377
251,2006.84,2.6904065531055905
252,2016.1000000000001,2.629180211477708
253,2025.4,2.765866846775839
254,2034.75,2.5517254532314873
255,2044.15,2.635262030844652
256,2053.58,2.539933591152327
257,2063.06,2.569373122617519
258,2072.58,2.7467176310087242
259,2077.36,2.5109128736673334
260,2086.95,2.647360341679062
261,2096.58,2.505124786616804
262,2106.26,2.5812242027120633
263,2115.98,2.6050045957333356
264,2125.75,2.6412289599121253
265,2135.56,2.5516573010169283
266,2145.42,2.499308613279248
267,2155.32,2.6110029024675807
268,2165.27,2.581208162813431
269,2175.2599999999998,2.5634354000852944
270,2185.3,2.4935186085146746
271,2187.7616199999998,2.5149042505399133
272,2195.3900000000003,2.5811846969586782
273,2205.52,2.5457673559272203
274,2215.7,2.4764100378916583
275,2225.9300000000003,2.408850742851992
276,2236.21,2.476416470808222
277,2246.5299999999997,2.447857217161169
278,2256.9,2.368976986510012
279,2267.31,2.4173317742555716
280,2272.54,2.4334321796262994
281,2283.03,2.460226004165293
282,2293.57,2.3267518517001826
283,2304.1600000000003,2.3633207222309687
284,2314.79,2.281870611158471
285,2325.48,1.8795985276810485
286,2336.21,2.166765462600343
287,2346.99,2.1556514205155337
288,2352.4,2.220565908671488
289,2363.26,2.1389939033801117
290,2374.17,2.1476549210846327
291,2385.13,2.0832109617850487
292,2396.14,2.1452260254813615
293,2407.2,2.0759991121735704
294,2412.75,2.099439664718033
295,2423.88,2.142241783604496
296,2435.07,2.0683589300860343
297,2446.31,2.1299200995634684
298,2457.6,2.118930292036799
299,2463.27,2.0940258997714127
300,2474.64,2.0499181290381765
301,2486.06,2.072483381300837
302,2497.54,1.9064656611585724
303,2503.2900000000004,2.0801563056866192
304,2511.88643,1.9827283514642715
305,2514.8500000000004,1.9491387318223545
306,2520.6499999999996,2.0170326994203576
307,2526.46,1.9614656652383573
308,2532.28,1.9609206292763535
309,2543.97,1.9194605484523286
310,2555.71,1.9856934587282866
311,2567.51,1.961802358324224
312,2573.43,2.011467304562186
313,2585.31,1.9964621899180957
314,2597.2400000000002,1.9814560663739882
315,2603.2300000000005,1.9402330001519257
316,2615.24,1.9212368623677907
317,2627.31,1.9422447139036352
318,2633.37,1.9595676352215488
319,2645.52,2.0224674725173655
320,2657.7400000000002,2.0398992973531582
321,2663.86,1.9296762079910512
322,2676.1600000000003,1.9733320185868164
323,2682.33,1.968105920324692
324,2694.71,1.9001057166804298
325,2707.1499999999996,1.9076545023561466
326,2713.39,1.8678673916339985
327,2725.9100000000003,1.8580911630696877
328,2732.2000000000003,1.8964230434475222
329,2744.81,1.7727407988631807
330,2757.48,1.7838505435988186
331,2763.83,1.808081413296632
332,2776.5899999999997,1.848971142012239
333,2782.9900000000002,1.8020800028100354
334,2795.84,1.6424947155056113
335,2802.2799999999997,1.699615569183394
336,2815.22,1.811509265858939
337,2828.21,1.8269569536344665
338,2834.7299999999996,1.7562807930722217
339,2847.81,1.7470664648277183
340,2854.38,1.7184942953654565
341,2867.5499999999997,1.7899549511009218
342,2874.1699999999996,1.7811607727386427
343,2884.0315,1.7741392060383232
344,2887.4300000000003,1.7717200050081334
345,2894.09,1.7629379807469712
346,2907.45,1.8068369320789337
347,2927.6000000000004,1.767939858676168
348,2947.8900000000003,1.729827784763408
349,2968.33,1.731939710304225
350,2988.9,1.7181566353714763
351,3009.62,1.7004915598923047
352,3030.48,1.7026034839031388
353,3051.4900000000002,1.6889304073675504
354,3072.64,1.6792663303219675
355,3086.82,1.6588222786668203
356,3108.22,1.656930200710533
357,3129.77,1.6285851222078231
358,3151.46,1.619251043195119
359,3173.31,1.6062449635995641
360,3187.95,1.554027910268721
361,3210.0499999999997,1.5701408297624617
362,3232.3,1.52557574870978
363,3247.2200000000003,1.559806694358948
364,3269.73,1.5760316123591336
365,3292.39,1.556024529812897
366,3307.59,1.540576474442076
367,3311.31121,1.5543327531778084
368,3322.86,1.5970246566675574
369,3330.52,1.6036941232509616
370,3338.1899999999996,1.5380205891379997
371,3345.8900000000003,1.5695820529359388
372,3353.6,1.5544695160375115
373,3361.33,1.5325779777463515
374,3369.08,1.507463438062459
375,3376.85,1.462336896985834
376,3384.63,1.5095733552128425
377,3392.44,1.554791811350752
378,3400.2599999999998,1.5976842667922952
379,3408.1,1.5042257208411058
380,3415.95,1.5140111741935505
381,3423.83,1.5737946254568957
382,3431.72,1.5659010760238747
383,3439.63,1.5615725251981214
384,3447.56,1.4735569729796352
385,3455.5099999999998,1.4797764193684164
386,3463.4700000000003,1.4322178650608313
387,3471.46,1.4853313086641473
388,3479.4599999999996,1.434327751571097
389,3487.48,1.456889193085314
390,3495.5199999999995,1.4765526332067984
391,3503.58,1.47255407193555
392,3511.65,1.4549975099679358
393,3519.75,1.4611109459112221
394,3527.8599999999997,1.4272183811581423
395,3536.0000000000005,1.4766608143159639
396,3544.1499999999996,1.4965532467774187
397,3552.3199999999997,1.509776677846141
398,3560.51,1.4952181075221307
399,3568.71,1.4273275365017541
400,3576.94,1.3814229633922788
401,3585.1899999999996,1.3400823888900704
402,3593.4500000000003,1.380204813691496
403,3601.73,1.4512192371001889
404,3610.04,1.407758658419783
405,3618.36,1.4333220790430106
406,3626.7,1.4864364982735054
407,3635.06,1.4319879161112679
408,3643.44,1.4987703325562978
409,3651.84,1.4175407476085948
410,3659.1800000000003,1.3152972364757212
411,3661.86,1.0800470498495491
412,3664.54,1.2691858632233772
413,3667.23,1.5222156759008392
414,3669.9100000000003,1.0756584892746672
415,3672.6,1.2836273019521292
416,3675.28,1.2981881153259573
417,3677.97,1.4014189280034193
418,3680.6499999999996,1.5056587413772473
419,3683.3300000000004,1.4294295547510756
420,3686.02,1.3286333674285373
421,3688.7,1.3320811808023654
422,3691.39,1.190391993479827
423,3694.0699999999997,1.2675158068536552
424,3696.76,1.4932086195311172
425,3699.44,1.5414404329049454
426,3702.13,1.256287245582407
427,3704.81,1.3794170589562353
428,3707.49,1.0987708723300633
429,3710.1800000000003,1.2956266850075253
430,3712.86,1.3137434983813534
431,3715.55,1.5784413110588154
432,3718.23,1.3591931244326434
433,3720.9199999999996,1.842584937110105
434,3723.6000000000004,2.443558750483933
435,3726.28,4.044447563857761
436,3728.97,5.739993376535224
437,3731.65,5.786791189909051
438,3734.3399999999997,4.586059002586513
439,3737.02,2.5431288159603413
440,3739.71,2.058723628637803
441,3742.39,1.7014584420116314
442,3745.08,1.395635254689093
443,3747.7599999999998,1.8647010680629215
444,3750.44,1.5389948814367496
445,3753.13,1.360632694114211
446,3755.81,1.2678455074880393
447,3758.5,1.7902443201655012
448,3761.1800000000003,1.8464771335393293
449,3763.8700000000003,1.623441946216791
450,3766.55,1.6487827595906193
451,3769.23,1.3401885729644474
452,3771.92,1.5768833856419093
453,3774.6000000000004,1.6067791990157374
454,3777.29,1.3884120116931993
455,3779.9700000000003,1.4964298250670274
456,3782.66,1.628775637744489
457,3785.3399999999997,1.7316824511183173
458,3788.03,1.559876263795779
459,3790.71,1.5376550771696071
460,3793.39,1.6331158905434353
461,3796.08,1.4353067032208973
462,3798.7599999999998,1.5848855165947253
463,3801.4500000000003,1.5916593292721872
464,3801.8939600000003,1.60964531068467
465,3804.13,1.700233175090109
466,3806.82,1.6825580267984526
467,3809.5,1.636444879058066
468,3812.1899999999996,1.8779157307664092
469,3814.8700000000003,1.8431375830260226
470,3817.55,1.901927435285636
471,3820.24,2.0971702869939794
472,3822.92,1.6231111392535926
473,3825.6099999999997,1.7337869909619361
474,3828.29,1.5818818432215496
475,3830.98,1.738119694929893
476,3833.66,1.5014255471895062
477,3836.3399999999997,1.4316413994491197
478,3839.0299999999997,1.350848251157463
479,3841.71,1.3428501034170766
480,3844.4,1.1165939551254198
481,3847.08,1.7469028073850332
482,3849.77,1.8164626590933766
483,3852.45,1.81113251135299
484,3855.1400000000003,2.000818363061333
485,3857.82,1.941926215320947
486,3860.5,1.7529050675805602
487,3863.19,1.8455789192889036
488,3865.8700000000003,2.014271771548517
489,3868.56,2.2429626232568602
490,3871.2400000000002,2.112061475516474
491,3873.93,2.198066327224817
492,3876.6099999999997,1.9740411794844306
493,3879.2900000000004,1.7449040317440438
494,3881.98,1.6534418834523872
495,3884.66,1.9590417357120005
496,3887.35,1.8364645874203438
497,3890.0299999999997,1.4453054396799572
498,3892.7200000000003,1.5985432913883006
499,3895.4,1.7531231436479142
500,3898.09,1.7027769953562575
501,3900.77,1.7018918476158709
502,3903.45,1.5518756998754841
503,3906.1400000000003,1.7886805515838275
504,3908.82,2.117950403843441
505,3911.51,1.8745792555517844
506,3914.19,1.9884871078113977
507,3916.8799999999997,2.056934959519741
508,3919.5600000000004,1.8805818117793545
509,3922.2400000000002,1.938705664038968
510,3924.93,1.9788165157473114
511,3927.61,1.7513453680069249
512,3930.2999999999997,1.748228219715268
513,3932.98,1.9213670719748814
514,3935.67,1.7802319236832247
515,3938.35,1.6191027759428382
516,3941.04,1.8056776276511817
517,3943.72,1.9889284799107951
518,3946.4,2.0969473321704086
519,3949.09,1.8253491838787517
520,3951.77,1.8579130361383651
521,3954.46,2.1190528878467085
522,3957.1400000000003,1.8931387401063218
523,3959.83,1.7580045918146654
524,3962.51,1.8779134440742786
525,3965.19,1.6095472963338922
526,3967.8799999999997,1.7986791480422353
527,3970.5600000000004,1.7257840003018488
528,3973.25,1.660325852010192
529,3975.93,1.6356597042698058
530,3978.62,1.3997345559781489
531,3981.2999999999997,1.6466594082377624
532,3983.9900000000002,1.7363332599461057
533,3986.67,1.798567112205719
534,3989.35,1.9719279644653325
535,3992.04,2.1530568161736756
536,3994.72,2.1339486684332893
537,3997.4100000000003,2.0570435201416326
538,4000.09,1.965257372401246
539,4002.78,2.2010602241095896
540,4005.46,2.080382076369203
541,4008.1499999999996,1.9645839280775461
542,4010.8300000000004,2.0702677803371596
543,4013.51,2.338642632596773
544,4016.2,2.1983944843051164
545,4018.88,2.2835223365647295
546,4021.5699999999997,2.134162188273073
547,4024.2499999999995,2.0243740405326864
548,4026.94,2.0105888922410298
549,4029.62,2.102827744500643
550,4032.2999999999997,2.1159445967602566
551,4034.99,2.0445964484686003
552,4037.67,1.8615763007282133
553,4040.36,2.003367152436557
554,4043.04,2.04282100469617
555,4045.73,1.9773618564045135
556,4048.41,1.908690708664127
557,4051.1000000000004,1.9561355603724702
558,4053.78,2.118050412632084
559,4056.46,2.256517264891697
560,4059.15,2.0331481166000405
561,4061.8300000000004,2.0768249688596536
562,4064.52,2.1334938205679967
563,4067.2000000000003,2.1128286728276104
564,4069.89,2.073039524535954
565,4072.5699999999997,2.0577083767955675
566,4075.2500000000005,2.097829229055181
567,4077.94,2.0880440807635243
568,4080.62,2.1840609330231375
569,4083.31,2.146494784731481
570,4085.99,2.0890476369910944
571,4088.6800000000003,2.1982784886994375
572,4091.36,2.097268340959051
573,4094.05,1.9889151926673945
574,4096.7300000000005,1.986364044927008
575,4099.41,2.152834897186621
576,4102.1,2.127269748894965
577,4104.78,1.956806601154578
578,4107.469999999999,1.9748034528629212
579,4110.150000000001,2.001700305122535
580,4112.84,2.153270156830878
581,4115.5199999999995,1.9972540090904916
582,4118.2,2.078379861350105
583,4120.889999999999,2.0362577130584483
584,4123.57,2.0580425653180616
