,lambda (Angstroms),Total Flux (erg/s/cm^2/Angstrom)
0,100.09,0.016598697094200563
1,101.94999999999999,0.01994269961598263
2,104.09,0.0237901003668511
3,104.712855,0.02490990073820093
4,106.02000000000001,0.022949064082849795
5,107.99,0.01999388450367025
6,110.0,0.016978701278255084
7,114.13,0.010783324800185163
8,117.87,0.005172983873457549
9,120.22644299999999,0.0016381045689357297
10,120.89000000000001,0.0015920460247270231
11,125.14000000000001,0.0012970467804787654
12,126.88,0.0011762706198044078
13,128.05,0.0010950590634877678
14,131.04,0.0008875184201664975
15,131.94,0.0008250479940093648
16,134.09,0.0006758130841118136
17,136.9,0.0004807665318954768
18,138.038426,0.000401746579136956
19,140.09,0.0003967172445376735
20,143.02,0.0003895345387392279
21,147.03,0.00037970435863289077
22,151.14000000000001,0.0003696289777270232
23,155.02,0.00036011747114382775
24,158.489319,0.00035161275707217015
25,159.0,0.0003496892507018851
26,161.95000000000002,0.00033857795929469696
27,166.11,0.0003229092178844135
28,169.98,0.0003083328553386455
29,173.14,0.00029643076562763587
30,177.17,0.0002812519485748799
31,180.05,0.0002704046614070989
32,181.970086,0.0002631728384655817
33,182.13,0.0002633666996071244
34,185.95000000000002,0.0002679978287380517
35,191.16,0.000274314274243874
36,193.82,0.0002775395545980327
37,197.88,0.0002824623078552224
38,202.02,0.00028748240537149953
39,204.83,0.00029089014835769736
40,208.929613,0.00029586147484612896
41,210.07999999999998,0.0003043298473334519
42,215.97000000000003,0.00034769064034090774
43,219.98,0.0003772116826737252
44,223.04000000000002,0.00039973896217308265
45,227.19,0.0004302918320518839
46,229.82,0.0004496741699271484
47,234.09,0.0004811498441096502
48,239.88329199999998,0.0005238425172324094
49,240.1,0.0005225303561146808
50,246.26,0.00048519908589879205
51,252.0,0.00045043858036353197
52,257.27,0.00041847354707088034
53,260.25,0.00040045869523689515
54,263.87,0.0003785511329895708
55,268.78,0.0003488188096231727
56,273.77,0.00031860389941760684
57,275.42287,0.0003085960299447891
58,278.86,0.00033087663051578956
59,284.05,0.0003645262856437284
60,290.0,0.0004030861732593807
61,296.07,0.0004424560450467773
62,300.88,0.0004736356354308593
63,307.89,0.0005191209389635858
64,316.227766,0.0005732333950941543
65,317.96999999999997,0.0005650006761490106
66,327.64,0.0005193092940916612
67,338.37,0.00046859737228779777
68,347.85,0.00042382566327935187
69,356.77,0.0003817207014992532
70,363.078055,0.0003519650963855043
71,365.92,0.0003625526202547742
72,375.31,0.00039750789947282555
73,384.94,0.00043330731083063534
74,394.81,0.00047017782632820373
75,404.94,0.0005079772911438437
76,414.37,0.0005431225587185216
77,416.86938299999997,0.0005524366972425952
78,422.08000000000004,0.0005641409353947326
79,429.92,0.0005817689903513677
80,440.95000000000005,0.0006066539475722461
81,451.22,0.0006297669222003894
82,459.61,0.0006486466070991354
83,470.32,0.0006727806012809675
84,478.630092,0.000691594795798657
85,480.16999999999996,0.0006871788196326758
86,490.22,0.0006582193811489718
87,500.49,0.0006288706541432364
88,506.28,0.0006135609160406848
89,512.14,0.0006075964254083956
90,520.47,0.0005851063323696638
91,530.14,0.0005591937963331051
92,540.0,0.0005309102845729737
93,549.5408739999999,0.0005135368998603588
94,550.04,0.0005136081703766368
95,560.26,0.0005127595075135754
96,569.37,0.0005124601262139189
97,579.9499999999999,0.0005027907217627263
98,589.38,0.0005093546912736198
99,600.33,0.0005051204896346254
100,610.09,0.0005140017943563986
101,620.0,0.000523101135083117
102,630.0699999999999,0.0005286880062151104
103,630.957344,0.0005284890544995061
104,640.3100000000001,0.000547200015470578
105,650.72,0.0005861889336400844
106,658.25,0.0006126654591747992
107,664.34,0.0006368868383921185
108,675.1400000000001,0.0006615558857725862
109,684.53,0.0006801872044672703
110,695.65,0.0007653531732516037
111,705.33,0.0007751517957185414
112,716.7900000000001,0.0008608024309944822
113,724.43596,0.0008923217516997783
114,726.76,0.0009006227885593403
115,735.18,0.0009346199537957976
116,745.4,0.0010106280113630888
117,755.7700000000001,0.0010674118766246165
118,764.53,0.0011254885259680087
119,775.16,0.0012047660378995456
120,784.14,0.0012850776651944845
121,795.0500000000001,0.0013462395581552624
122,804.25,0.0014120160634017477
123,815.44,0.0014755476373917663
124,824.8800000000001,0.0015975669549490295
125,831.763771,0.0015007204829238234
126,834.4300000000001,0.001457048164373064
127,844.1,0.0016975854864751993
128,855.8399999999999,0.0017451680510542134
129,865.75,0.001852601846197146
130,875.77,0.001969381370650444
131,885.9200000000001,0.0021177369388341743
132,894.11,0.002235335693851391
133,904.47,0.0022675095634458187
134,914.94,0.0033327961623506124
135,925.53,0.021346513647775806
136,934.1,0.04830419637677428
137,944.9100000000001,0.0959275003208202
138,954.992586,0.13508025549813596
139,955.86,0.13844975948313867
140,964.7,0.16296754586577267
141,975.8699999999999,0.028134658794960684
142,984.9,0.15037548759984587
143,994.01,0.1588957063719947
144,1005.52,0.22844742416205327
145,1014.83,0.22120939285236124
146,1024.22,0.09371700150993288
147,1036.0800000000002,0.16294787165676988
148,1045.66,0.3108679727365927
149,1055.34,0.30942334877549516
150,1065.1,0.2521622047816612
151,1074.96,0.30308283574690675
152,1084.91,0.24698884417532405
153,1094.94,0.3269832325710049
154,1096.4782,0.3250795600207582
155,1105.08,0.3144294058557456
156,1115.3,0.30728479607917636
157,1125.62,0.2789746079290595
158,1136.04,0.355172841405395
159,1143.91,0.3276936734071954
160,1154.5,0.3510994736484999
161,1165.18,0.36678200335361155
162,1175.96,0.26033775468517545
163,1184.1100000000001,0.36844956724104244
164,1195.07,0.26760797750022064
165,1206.12,0.195733917223206
166,1214.49,0.12387925735726818
167,1225.72,0.2663599560078677
168,1234.22,0.396563994256318
169,1245.6399999999999,0.43478594399717707
170,1254.2700000000002,0.42100278036001537
171,1258.92541,0.40196103104151426
172,1265.88,0.3735209194447352
173,1274.6499999999999,0.4669336083423508
174,1286.45,0.48780196615214144
175,1295.3600000000001,0.39473176285427997
176,1304.34,0.40113846345868004
177,1316.41,0.49344243632005064
178,1325.54,0.4734298452864395
179,1334.73,0.4288238575976239
180,1343.9799999999998,0.5026200732536039
181,1356.41,0.49458746618374777
182,1365.8200000000002,0.45004999075918245
183,1375.2800000000002,0.47126461812194687
184,1384.82,0.4811176499444386
185,1394.42,0.41714828511172597
186,1404.0800000000002,0.4408241236238088
187,1413.8100000000002,0.4594801660381531
188,1423.61,0.4712650123547589
189,1433.48,0.4767101625736262
190,1443.42,0.5014702166947549
191,1445.43977,0.5042818127377975
192,1446.75,0.5061056905924922
193,1453.42,0.4968697026654029
194,1463.5,0.4658715742838347
195,1473.6399999999999,0.4690976487095191
196,1483.86,0.4767124268782069
197,1494.1399999999999,0.4855765078541473
198,1504.5,0.4615994925730911
199,1511.44,0.41523021727863846
200,1518.42,0.4428648438556875
201,1525.43,0.4398132718363627
202,1535.9999999999998,0.38844086638069053
203,1546.6499999999999,0.4190823646680218
204,1553.79,0.4020790987310776
205,1564.5600000000002,0.417157202632914
206,1575.4,0.44491900980987836
207,1586.32,0.4648123207298462
208,1593.65,0.47561076368253513
209,1604.69,0.47127308021700814
210,1615.82,0.4756149009623599
211,1623.28,0.4573667499974295
212,1634.53,0.4878176763572864
213,1645.8600000000001,0.4957367064601468
214,1653.4499999999998,0.46801996157759695
215,1659.58691,0.48967149210146854
216,1664.91,0.5084533675054702
217,1672.6,0.4691048950297879
218,1676.4599999999998,0.5131640139171567
219,1684.19,0.529963755108701
220,1695.87,0.5049626459388741
221,1703.7,0.48895662129848494
222,1715.51,0.4669667565471444
223,1723.4199999999998,0.46697165924120854
224,1735.37,0.49690334232516126
225,1743.3799999999999,0.4867280791872919
226,1755.46,0.5167524066897312
227,1763.5700000000002,0.48339117771992834
228,1775.79,0.49124485305766075
229,1783.99,0.5038339548391179
230,1796.35,0.5324562780121433
231,1804.6499999999999,0.5336794139616671
232,1812.9799999999998,0.49351106016161067
233,1825.54,0.5108547516707693
234,1833.97,0.4946591320387795
235,1846.68,0.45850377480003796
236,1855.2099999999998,0.45850128933611467
237,1863.77,0.4735158141226113
238,1876.69,0.5144059286368096
239,1885.3500000000001,0.47243758759137283
240,1894.05,0.45223076021316266
241,1905.46072,0.48226119090944264
242,1907.18,0.4867846018127673
243,1915.99,0.467025921622887
244,1924.83,0.4585144282201013
245,1933.7099999999998,0.48010031720010843
246,1947.12,0.49809551103140304
247,1956.1100000000001,0.46593795156409046
248,1965.1299999999999,0.5096852788838725
249,1974.2,0.5275752841821455
250,1983.3200000000002,0.4992168674589096
251,1997.06,0.48898661594824505
252,2006.28,0.5061631551819912
253,2015.5400000000002,0.49463757679853015
254,2024.85,0.5203193763935602
255,2034.1899999999998,0.4900911627756848
256,2043.5800000000002,0.5073018271363005
257,2053.02,0.4889586694754071
258,2067.25,0.49574770215395464
259,2072.0099999999998,0.5275342057063008
260,2076.79,0.49688190045004343
261,2086.37,0.516723181128925
262,2096.0,0.4923249397862976
263,2105.68,0.5037857764221613
264,2115.4,0.5084390954408178
265,2125.1600000000003,0.517895196842267
266,2134.97,0.4934436762222073
267,2144.83,0.4968530335806387
268,2154.73,0.5166881733218628
269,2164.67,0.5072483954458799
270,2174.66,0.504917995548388
271,2184.7,0.495700673629387
272,2187.7616199999998,0.5020630040189662
273,2194.79,0.5166741932270364
274,2204.92,0.507241550393628
275,2215.09,0.49117172160628675
276,2225.32,0.4777941138880469
277,2235.59,0.5014578202158745
278,2245.9100000000003,0.4889205441012864
279,2256.2799999999997,0.4745135855442827
280,2266.69,0.48556844103334645
281,2277.15,0.4957301140799946
282,2282.4,0.5038031576263524
283,2292.94,0.4813227587651355
284,2303.52,0.4848119739499862
285,2314.15,0.4685304066924212
286,2324.83,0.38544115699244047
287,2335.5699999999997,0.44879882836156104
288,2346.35,0.44179791377674915
289,2357.1800000000003,0.46383131674952155
290,2362.61,0.44101732350318307
291,2373.52,0.4493738545680904
292,2384.47,0.42932639967906533
293,2395.48,0.4507287658591414
294,2406.53,0.436603546085285
295,2417.64,0.4438564473805299
296,2423.2200000000003,0.45952880680694447
297,2434.4,0.4441075326828074
298,2445.64,0.46305767962777156
299,2456.93,0.4589798441303201
300,2462.59,0.4569689316488697
301,2473.96,0.4457149242435532
302,2485.38,0.458360434395821
303,2496.85,0.4319058621056733
304,2502.6,0.4692960812278747
305,2511.88643,0.44348354876807355
306,2514.16,0.43716283318402444
307,2519.9500000000003,0.45155724629437477
308,2525.76,0.4353061566866262
309,2537.42,0.43849267203493114
310,2543.2700000000004,0.43157177699098465
311,2555.0099999999998,0.45102628146689366
312,2566.8,0.44603437914755534
313,2572.72,0.4639131745902625
314,2584.59,0.4619505613985283
315,2596.52,0.46000534005249727
316,2602.51,0.44860442598185796
317,2614.52,0.44671159376343106
318,2626.5899999999997,0.4562359533907073
319,2632.64,0.46159713116577117
320,2644.7999999999997,0.48463677856160203
321,2657.0,0.487072120521235
322,2663.13,0.462043287423903
323,2675.42,0.4762636171520906
324,2687.77,0.4753502387259813
325,2693.97,0.461444596115303
326,2706.4,0.46804700681679784
327,2712.64,0.4553844587699216
328,2725.16,0.4555564572399711
329,2737.7400000000002,0.47066894755572375
330,2744.05,0.43433048999550117
331,2756.72,0.4385298680798084
332,2763.07,0.44779490508338793
333,2775.8300000000004,0.46157267093624993
334,2782.2200000000003,0.45220530250363145
335,2795.07,0.39861575612504807
336,2807.9700000000003,0.4194885029512173
337,2814.44,0.462147923646203
338,2827.4300000000003,0.46876615824092693
339,2833.9500000000003,0.45295077214066515
340,2847.0299999999997,0.44899159450394377
341,2853.5899999999997,0.4449646029674841
342,2866.77,0.46397741174026785
343,2873.37,0.46087851476761027
344,2884.0315,0.46188986814556654
345,2886.64,0.46213765856191863
346,2893.29,0.45905704006610476
347,2913.35,0.47656618427271746
348,2926.7900000000004,0.46700744689170426
349,2947.0800000000004,0.4619641904586121
350,2967.5099999999998,0.46653453363613434
351,2988.0800000000004,0.46576347642427113
352,3008.79,0.4682141188230223
353,3029.6499999999996,0.46852816080457466
354,3050.6499999999996,0.46669090239674144
355,3071.79,0.46593874359952275
356,3093.09,0.466251684357292
357,3107.36,0.4643110446677786
358,3128.9,0.46037098475802973
359,3150.5899999999997,0.461751124431082
360,3172.43,0.4599496636869355
361,3187.07,0.44762072296833183
362,3209.17,0.4552195615010407
363,3231.4100000000003,0.44620229964436403
364,3246.33,0.4557447581469892
365,3268.83,0.460280895567168
366,3291.4900000000002,0.4584921325423346
367,3306.6800000000003,0.45766999029400196
368,3311.31121,0.45966928837233967
369,3321.94,0.4642572122991775
370,3329.6,0.4697369050305565
371,3337.28,0.46234549669857083
372,3344.97,0.455059087834903
373,3352.6800000000003,0.4604363779078706
374,3360.41,0.45318486691747367
375,3368.1499999999996,0.45434165539539445
376,3375.92,0.4340090422782684
377,3383.7,0.4421878286294601
378,3391.5,0.45994291391728725
379,3399.32,0.47293739814174984
380,3407.1600000000003,0.4465980813028479
381,3415.0099999999998,0.4550043639322637
382,3422.8799999999997,0.46894444549831493
383,3430.77,0.46475712600100155
384,3438.6800000000003,0.46701680544032376
385,3446.61,0.44305888381628133
386,3454.56,0.4555775611288744
387,3462.52,0.43719083790978513
388,3470.5000000000005,0.4474881136273314
389,3478.5,0.4344073882815131
390,3486.52,0.44463206187233023
391,3494.56,0.4457705343997828
392,3502.6099999999997,0.45312580639555317
393,3510.69,0.44189857679627664
394,3518.78,0.43897424666531787
395,3526.89,0.4421266154709946
396,3535.02,0.4525285832133067
397,3543.17,0.46319324989225424
398,3551.34,0.4632957155078373
399,3559.53,0.4570615800600558
400,3567.73,0.45718424408059205
401,3575.96,0.43173970650608146
402,3584.2000000000003,0.4239643683998886
403,3592.46,0.4221254292303312
404,3600.7400000000002,0.4472369889974092
405,3602.8300000000004,0.4318072778758142
406,3605.55,0.42963743325823595
407,3608.2799999999997,0.40277378810897546
408,3611.01,0.35752294295971493
409,3613.73,0.32348149834213674
410,3616.46,0.3546341531928763
411,3619.19,0.44299720804361575
412,3621.92,0.46070066289435524
413,3624.64,0.492678618276777
414,3627.37,0.47772277312751654
415,3630.1,0.41981092797825603
416,3632.82,0.4602820833606778
417,3635.55,0.4472349382114173
418,3638.2799999999997,0.43014279306215675
419,3641.01,0.42809314791289627
420,3643.73,0.4544148032953181
421,3646.46,0.5024834581460575
422,3649.19,0.44346831299679706
423,3651.92,0.41427576784753656
424,3654.6400000000003,0.4553771232299583
425,3657.37,0.5090143780806978
426,3660.1,0.5210615329314373
427,3662.82,0.4485299883138591
428,3665.55,0.4294414431645986
429,3668.2799999999997,0.4530287980153381
430,3671.01,0.4544815528660776
431,3673.73,0.4456573082484994
432,3676.4599999999996,0.4315771630992389
433,3679.19,0.4830430179499784
434,3681.92,0.4588585728007179
435,3684.6400000000003,0.43831902818313967
436,3687.37,0.45201228303387914
437,3690.1,0.40401213788461865
438,3692.82,0.4830613932670404
439,3695.55,0.4367947481177799
440,3698.2799999999997,0.4802928029685194
441,3701.01,0.4777527578192589
442,3703.73,0.4640254132016807
443,3706.4599999999996,0.48185136805242024
444,3709.19,0.44456832290315973
445,3711.92,0.4554246777538992
446,3714.6400000000003,0.507628633136321
447,3717.37,0.4803444879870605
448,3720.1,0.5498647428378
449,3722.82,0.7417948982202217
450,3725.55,1.2185663530709614
451,3728.2799999999997,1.6796802079217008
452,3731.01,1.7288510627724403
453,3733.73,1.3368929181548619
454,3736.4599999999996,0.8159896730056014
455,3739.19,0.575185927856341
456,3741.91,0.5240362832387628
457,3744.6400000000003,0.5168206380895024
458,3747.37,0.4986950929402418
459,3750.1,0.4663502477909813
460,3752.82,0.4707298031734031
461,3755.55,0.5142279580241426
462,3758.2799999999997,0.5176418128748821
463,3761.01,0.5503001677256216
464,3763.73,0.5701077231080434
465,3766.4599999999996,0.5384281779587828
466,3769.19,0.48498183280952234
467,3771.91,0.4621657881919441
468,3774.6400000000003,0.4903412430426836
469,3777.37,0.5451517978934232
470,3780.1,0.5851998527441626
471,3782.82,0.6145341081265844
472,3785.5499999999997,0.6463692629773239
473,3788.28,0.6188048178280634
474,3791.01,0.6164047726788029
475,3793.73,0.5408791280612246
476,3796.46,0.5095848829119641
477,3799.19,0.5001452377627037
478,3801.8939600000003,0.5199055740317708
479,3801.91,0.5200227933228203
480,3804.6400000000003,0.5572341784171367
481,3807.37,0.5705595635114531
482,3810.1000000000004,0.6060722486057695
483,3812.82,0.6375078341209858
484,3815.5499999999997,0.6186293192153022
485,3818.28,0.6358772043096186
486,3821.01,0.617401389403935
487,3823.73,0.6127630749191514
488,3826.46,0.6025702600134677
489,3829.19,0.550314645107784
490,3831.91,0.5106527306230004
491,3834.6400000000003,0.47373721571731686
492,3837.37,0.47898990081163323
493,3840.1000000000004,0.4788664859059496
494,3842.82,0.530580171421166
495,3845.5499999999997,0.5586154565154824
496,3848.28,0.5943908416097987
497,3851.0,0.625843927125015
498,3853.73,0.6755235122193314
499,3856.46,0.676520697313648
500,3859.19,0.6553304824079642
501,3861.91,0.6867137679231806
502,3864.64,0.702385653017497
503,3867.37,0.7400519381118134
504,3870.1000000000004,0.7668961232061297
505,3872.82,0.745412008721346
506,3875.5499999999997,0.6901790938156624
507,3878.28,0.6254551789099789
508,3881.0,0.6159834644251951
509,3883.73,0.6163327495195116
510,3886.46,0.586456934613828
511,3889.19,0.5854928197081444
512,3891.9100000000003,0.5743225052233607
513,3894.64,0.568192490317677
514,3897.37,0.5630080754119935
515,3900.1000000000004,0.5889593605063099
516,3902.82,0.6212354460215262
517,3905.5499999999997,0.6472217311158426
518,3908.28,0.682506616210159
519,3911.0,0.7046263017253753
520,3913.7300000000005,0.7070593868196917
521,3916.46,0.699493271914008
522,3919.19,0.6840644570083245
523,3921.9100000000003,0.6722113425235409
524,3924.64,0.6738564276178572
525,3927.37,0.6373786127121736
526,3930.1000000000004,0.6046483978064899
527,3932.82,0.5752484833217063
528,3935.5499999999997,0.5492602684160227
529,3938.28,0.6045260535103392
530,3941.0,0.6412151390255554
531,3943.7299999999996,0.6489717241198718
532,3946.46,0.6488482092141882
533,3949.19,0.6652730943085046
534,3951.9100000000003,0.658866179823721
535,3954.64,0.6567812649180373
536,3957.37,0.6538732500123536
537,3960.09,0.6271526355275701
538,3962.82,0.5852463206218865
539,3965.5499999999997,0.5460718057162028
540,3968.28,0.5288044908105192
541,3971.0,0.5198227763257356
542,3973.7299999999996,0.5325354614200519
543,3976.46,0.5382608465143683
544,3979.19,0.5666813316086847
545,3981.9100000000003,0.593406117123901
546,3984.64,0.6492323022182175
547,3987.37,0.6767770873125338
548,3990.09,0.6757111728277502
549,3992.82,0.6951306579220665
550,3995.5499999999997,0.724076243016383
551,3998.28,0.7153018281106993
552,4001.0,0.7029061136259156
553,4003.7299999999996,0.6967408987202321
554,4006.46,0.7016605838145484
555,4009.19,0.7220080689088648
556,4011.9100000000003,0.7214326544240812
557,4014.64,0.7129208395183976
558,4017.37,0.7125869246127139
559,4020.09,0.7151812101279302
560,4022.8199999999997,0.7306428952222467
561,4025.55,0.7438981803165631
562,4028.28,0.7318489654108795
563,4031.0,0.7447050509260958
564,4033.73,0.7252134360204122
565,4036.46,0.7016417211147286
566,4039.1899999999996,0.713881306209045
567,4041.9100000000003,0.7295741917242613
568,4044.64,0.7359298768185778
569,4047.3700000000003,0.7165607619128941
570,4050.09,0.7182794474281105
571,4052.8199999999997,0.6949352325224268
572,4055.55,0.7299400176167432
573,4058.28,0.7209554027110595
574,4061.0,0.721780888226276
575,4063.73,0.7015713733205923
576,4066.46,0.7279602584149087
577,4069.18,0.7291010439301251
578,4071.9100000000003,0.7078934290244414
579,4074.64,0.6995042141187578
