,lambda (Angstroms),Total Flux (erg/s/cm^2/Angstrom)
0,102.00000000000001,5.0861789289052854
1,103.89,5.071765724188188
2,104.712855,5.065491178469818
3,106.07000000000001,5.0111092716883
4,108.03999999999999,4.93217295386663
5,110.05,4.851649142672539
6,113.91999999999999,4.696588280400932
7,117.92,4.536318048758961
8,120.22644299999999,4.444129938540201
9,120.95,4.419895434096617
10,124.91,4.286937129408062
11,126.94,4.21876948054802
12,128.10999999999999,4.179488720499131
13,131.1,4.079084895396408
14,132.01,4.048610488169492
15,134.15,3.9767504076347686
16,136.96,3.8825155138087997
17,138.038426,3.8463087092747394
18,140.15,3.795650031621556
19,143.07999999999998,3.726611320220381
20,147.09,3.6327735805450527
21,150.87,3.5423418680855163
22,155.09,3.44142108199577
23,158.489319,3.36020080595985
24,159.07000000000002,3.349728949558774
25,162.02999999999997,3.296318824129968
26,166.18,3.221513117197688
27,170.06,3.1515318232031704
28,172.82,3.1018090625060406
29,176.83999999999997,3.02930568909935
30,180.13000000000002,2.969944764413277
31,181.8,2.939888025353782
32,181.970086,2.9368195615273476
33,186.03,2.881052945509986
34,190.81,2.8154941721816917
35,193.91,2.773008252638238
36,197.97,2.717269192074875
37,202.10999999999999,2.66049899642652
38,204.92,2.621985974066163
39,208.929613,2.5665740852939543
40,210.17999999999998,2.5535925283383945
41,216.07000000000002,2.493558196469111
42,220.09,2.4522985422900754
43,223.15,2.4207291497060335
44,226.76999999999998,2.383677309524912
45,229.93,2.358398885941391
46,234.2,2.3287270542636596
47,239.88329199999998,2.2797568911383137
48,240.21,2.277722251521947
49,245.80999999999997,2.230186758511279
50,252.11,2.182561837624277
51,256.8,2.1360054908528423
52,259.77,2.1197683468632555
53,263.99,2.0885895816659303
54,268.90000000000003,2.0491870675619333
55,273.90000000000003,2.0087173627309793
56,275.42287,1.996360922539216
57,278.99,1.974074314221414
58,284.18,1.9422210391328203
59,290.13,1.903249363665164
60,296.2,1.8660856981376563
61,301.02,1.8345859607336052
62,308.03000000000003,1.7920460997372574
63,316.227766,1.7421655920676342
64,318.12,1.7336015702786693
65,327.79,1.6884761757658575
66,337.75,1.6415083062159501
67,348.01,1.5930859018000818
68,356.93999999999994,1.5515081946233074
69,363.078055,1.5234085320821875
70,366.09000000000003,1.5130990686199919
71,374.62,1.4827230352558065
72,385.12,1.4439018197313112
73,394.99,1.4107352209382857
74,405.13,1.3756151492603443
75,413.61,1.345391880874847
76,416.86938299999997,1.3336929050932764
77,422.27,1.3187053163279456
78,430.12,1.2970142398383562
79,441.15000000000003,1.2675730811657226
80,451.43,1.2394456172532409
81,459.82,1.2160053513363418
82,470.53,1.1869738693613732
83,478.630092,1.1652865932931995
84,480.39,1.1616436686356117
85,490.45,1.1397341782353685
86,499.56,1.1213030241751079
87,506.51,1.1061761156878624
88,512.38,1.0959477799871238
89,519.51,1.08064941103546
90,530.38,1.0573945935453364
91,540.25,1.0354971364130896
92,549.5408739999999,1.0157652218965003
93,550.29,1.0145336793412498
94,560.52,0.999370138338081
95,569.63,0.9853089998201073
96,580.22,0.9679684940895541
97,589.65,0.9529884791472389
98,600.61,0.9344983441135409
99,610.37,0.9162686981711236
100,620.28,0.9039148535922963
101,630.3599999999999,0.8873152612255375
102,630.957344,0.8863964406623135
103,640.61,0.8746367889576072
104,649.52,0.8629429277854156
105,658.55,0.8509294991226893
106,664.65,0.843816388353849
107,675.4499999999999,0.830300864205738
108,684.84,0.8174151730714079
109,694.37,0.8061309231981211
110,705.65,0.7907339990878718
111,715.47,0.7795225261124598
112,724.43596,0.7681864564064386
113,725.42,0.767252578682925
114,735.5100000000001,0.7577338946282549
115,745.75,0.7478290443884316
116,754.38,0.739530542535924
117,764.88,0.7281495795751673
118,775.52,0.7196000528416008
119,784.5000000000001,0.7105537965570679
120,795.41,0.700720174690225
121,804.62,0.6922048629217897
122,815.8100000000001,0.6817443235093263
123,825.26,0.6729421438446455
124,831.763771,0.6659345780888919
125,834.82,0.6633425660347698
126,844.4799999999999,0.6576930154915867
127,854.26,0.6506426584820283
128,864.1500000000001,0.6438276438782928
129,874.16,0.6368659128081827
130,884.2800000000001,0.6297325041438953
131,894.52,0.6225547090132331
132,904.88,0.6151745974161958
133,915.36,0.6088288293527837
134,925.9599999999999,0.6166138348229966
135,934.53,0.6287950513493857
136,945.3499999999999,0.6454102216312445
137,954.0899999999999,0.6577222773302691
138,954.992586,0.6578704620391402
139,965.14,0.6596852504892442
140,974.0699999999999,0.5876568317643709
141,985.35,0.6331141296908467
142,994.4699999999999,0.6274505686526783
143,1005.98,0.6464186553577967
144,1015.29,0.6359075420063331
145,1024.69,0.5762447586117295
146,1034.1699999999998,0.5977776274010019
147,1046.14,0.6416007716634056
148,1055.82,0.6318067959123673
149,1065.59,0.602001640118189
150,1075.45,0.6105794042808708
151,1085.3999999999999,0.580263178400413
152,1095.45,0.5998680502497995
153,1096.4782,0.5986394298145578
154,1105.58,0.5888592342007227
155,1115.81,0.5789487191625013
156,1126.14,0.5616914207905729
157,1133.94,0.5790993207614306
158,1144.43,0.5628520090555711
159,1155.02,0.5616965140160047
160,1165.71,0.5575501356427314
161,1173.79,0.5190499922792096
162,1184.65,0.5415127322386343
163,1195.61,0.5053894688643522
164,1203.8999999999999,0.48110186050004583
165,1215.04,0.45329081712509117
166,1226.28,0.4846660804164295
167,1234.78,0.5116091670513385
168,1246.21,0.5140474520086336
169,1254.8500000000001,0.5044016319763528
170,1258.92541,0.4957821163892297
171,1263.55,0.486723182092628
172,1275.24,0.505096289110916
173,1284.08,0.5057974118689713
174,1295.9599999999998,0.47730325783794153
175,1304.94,0.4721173040333415
176,1313.9899999999998,0.4894916119474141
177,1326.15,0.47912420479107376
178,1335.3400000000001,0.4630181361424909
179,1344.59,0.47561800610991306
180,1353.91,0.46781093779600746
181,1366.4399999999998,0.45145708543836427
182,1375.9099999999999,0.45106586366447093
183,1385.45,0.44787190360925
184,1395.05,0.4286324521700341
185,1404.72,0.4271239024494904
186,1414.4599999999998,0.42751202444761927
187,1424.27,0.4248905881644204
188,1434.14,0.42035839049722645
189,1440.76,0.42190068446310036
190,1445.43977,0.42078433994869274
191,1447.41,0.4205450177771686
192,1454.0900000000001,0.415543029541925
193,1464.1699999999998,0.4053709304683839
194,1474.3200000000002,0.4019474585540541
195,1484.54,0.39985829379893595
196,1494.8300000000002,0.3977417462030292
197,1505.1899999999998,0.38987979576633425
198,1512.1399999999999,0.37864585228804937
199,1515.6200000000001,0.38246145248885055
200,1526.1299999999999,0.3772046102504658
201,1536.71,0.36375608517129254
202,1543.8,0.36649395601143075
203,1554.5,0.35946581749090584
204,1565.28,0.35813885000947987
205,1576.13,0.35942359968726534
206,1583.4,0.36033178036537594
207,1594.3799999999999,0.35853838048169717
208,1605.4299999999998,0.35320758775722993
209,1616.56,0.3498118960718614
210,1624.02,0.34368687046783186
211,1635.28,0.3447452392209992
212,1646.6100000000001,0.3420641651333779
213,1654.21,0.3342528138477715
214,1659.58691,0.33558582354347344
215,1665.6799999999998,0.33759040924507666
216,1673.3700000000001,0.3275450548340176
217,1677.22,0.3355960349663222
218,1684.97,0.3364780886092731
219,1696.65,0.3290645497898752
220,1704.4799999999998,0.32446844083817283
221,1716.29,0.3183795928024631
222,1724.2099999999998,0.3161997359317756
223,1736.1699999999998,0.31792519803109076
224,1744.1799999999998,0.3142981832414181
225,1756.27,0.3161015561244214
226,1764.38,0.308248028091432
227,1776.6100000000001,0.30728872643379196
228,1784.81,0.30659653048181745
229,1793.05,0.3091297632325162
230,1805.47,0.3058681904125743
231,1813.81,0.2985432999199563
232,1826.3799999999999,0.2971728172350393
233,1834.81,0.29274448882343623
234,1843.28,0.28534613911450646
235,1856.06,0.2832241646186242
236,1864.62,0.28343562699070934
237,1873.2299999999998,0.2861182627411361
238,1886.21,0.2782680817586203
239,1894.9199999999998,0.2742226642657303
240,1903.67,0.27572488547551355
241,1905.46072,0.2750567361029023
242,1916.86,0.27138072070069225
243,1925.7099999999998,0.2683924914866648
244,1934.6,0.26773844656997503
245,1943.53,0.270252305950623
246,1957.0000000000002,0.26433612307910315
247,1966.03,0.2683757132030955
248,1975.11,0.26806507869875995
249,1984.2299999999998,0.26383088849176217
250,1993.3899999999999,0.26075080258210204
251,2007.2,0.260032936237953
252,2016.47,0.2568061521459716
253,2025.77,0.25700128127699357
254,2035.12,0.25363137577968764
255,2044.52,0.25469768565405393
256,2053.96,0.25000354982575795
257,2063.44,0.24882969829479973
258,2072.96,0.2519669110611792
259,2077.74,0.2538104245930378
260,2087.33,0.2570951048797583
261,2096.96,0.25130064946381653
262,2106.64,0.24979712941954693
263,2116.37,0.25055073474694944
264,2126.14,0.2478907343716898
265,2135.9500000000003,0.24230224829376767
266,2145.81,0.2456452575875179
267,2155.71,0.2454167111786058
268,2165.6600000000003,0.24002206014136584
269,2175.6600000000003,0.23816569447579805
270,2185.7,0.24026771310756806
271,2187.7616199999998,0.2403181326917877
272,2195.79,0.24087515205628407
273,2205.9300000000003,0.23794761089827432
274,2216.11,0.23020476103747162
275,2226.34,0.23072653279817776
276,2236.61,0.23855615585609097
277,2246.94,0.23442720085981472
278,2257.31,0.2259106571607456
279,2262.51,0.22456000579766364
280,2272.96,0.2260778646930086
281,2283.45,0.2330190248855607
282,2293.99,0.22487288669962155
283,2304.58,0.22858361013519124
284,2315.21,0.22185066486796795
285,2325.9,0.20876024154655534
286,2336.6400000000003,0.21138722984665148
287,2347.42,0.20404555944395472
288,2352.83,0.21572661489120987
289,2363.69,0.20333824708292722
290,2374.6,0.20682742089615344
291,2385.56,0.19705465633088845
292,2396.58,0.20050669371143406
293,2407.64,0.1980879523891867
294,2413.19,0.2001439723766666
295,2424.33,0.21155283364883337
296,2435.52,0.20933376654250901
297,2446.76,0.21537326105769344
298,2452.4,0.21632552396388918
299,2463.7200000000003,0.20939477107348775
300,2475.09,0.2034991898045952
301,2486.52,0.19271374048151318
302,2492.25,0.19386946630642482
303,2503.75,0.20690313925345516
304,2511.88643,0.19229283125287183
305,2515.31,0.18622725151347902
306,2526.92,0.1831705911578928
307,2532.74,0.19146225077292198
308,2544.43,0.19128047931238776
309,2556.1800000000003,0.21308008702314243
310,2562.07,0.1999454556713421
311,2573.9,0.21044577227714872
312,2585.7799999999997,0.2042266981923629
313,2597.7099999999996,0.1991450334169845
314,2603.7,0.19302835068399904
315,2615.7200000000003,0.18893306466555404
316,2627.79,0.19877189795651662
317,2633.85,0.22848313425670158
318,2646.0099999999998,0.2528056163045975
319,2652.1099999999997,0.2931848320523085
320,2664.35,0.2394064629952564
321,2676.6499999999996,0.2504310931094933
322,2682.82,0.2669762078903747
323,2695.2,0.23228023689966348
324,2707.64,0.25236066508024124
325,2713.88,0.2220887788942931
326,2726.4100000000003,0.2040850558318043
327,2732.69,0.22080033909338215
328,2745.3100000000004,0.18819478478782678
329,2757.98,0.20228360979167892
330,2764.34,0.22044298194830872
331,2777.1,0.2249734057090943
332,2783.5,0.19224121731325006
333,2796.3500000000004,0.16304085983096903
334,2802.79,0.1681026308826508
335,2815.73,0.21201047215730323
336,2822.22,0.24338528251839245
337,2835.2500000000005,0.2337895025499783
338,2841.7799999999997,0.20350598235859352
339,2854.9,0.1755273311471128
340,2868.08,0.2288693491069211
341,2874.6899999999996,0.26821275781058823
342,2884.0315,0.2593721344804783
343,2887.96,0.2557350729352819
344,2894.62,0.2875956587762706
345,2907.98,0.34602335259543093
346,2928.13,0.315765704201425
347,2948.4300000000003,0.2980603388218558
348,2968.8700000000003,0.30328305092242747
349,2989.4500000000003,0.3054876405031401
350,3010.1699999999996,0.3022622075639936
351,3031.04,0.31674765763928375
352,3052.05,0.32472628519471486
353,3073.2,0.34612949023028683
354,3087.39,0.33777244339599677
355,3108.79,0.37792138678896325
356,3130.3399999999997,0.3543691131963664
357,3152.04,0.3551362226182062
358,3166.59,0.38109567501856423
359,3188.5400000000004,0.3419594227977985
360,3210.6400000000003,0.3657646535914694
361,3232.89,0.3241339673995771
362,3247.81,0.41781142456887893
363,3270.3300000000004,0.47158348780297255
364,3293.0,0.4645423340515029
365,3308.1899999999996,0.43664524064679083
366,3311.31121,0.43195135591947365
367,3323.4599999999996,0.41385641001146223
368,3331.13,0.431181177014649
369,3338.81,0.39886659377924794
370,3346.5,0.4418737603052592
371,3354.22,0.4328423761155072
372,3361.9500000000003,0.34866184168716735
373,3369.7,0.41246360678165206
374,3377.4700000000003,0.3969789713989612
375,3385.25,0.4031887857776826
376,3393.06,0.4412897494406407
377,3400.88,0.475970062865011
378,3408.7200000000003,0.43758677581220584
379,3416.5800000000004,0.4015092882822251
380,3424.45,0.4815792505136567
381,3432.35,0.5027781620293249
382,3440.2599999999998,0.44479412330640544
383,3448.19,0.37294028410631036
384,3456.14,0.43456244442903985
385,3464.11,0.3831913042745937
386,3472.0899999999997,0.46944491388155996
387,3480.1,0.38545347277276276
388,3488.12,0.43441438142537786
389,3496.16,0.40714878960081746
390,3504.2200000000003,0.4893651972990815
391,3512.2999999999997,0.4552351045201701
392,3520.39,0.4926425615026709
393,3528.51,0.3525789677694083
394,3536.64,0.46578342379755805
395,3544.8,0.49571252910994446
396,3552.97,0.5031383841837431
397,3561.16,0.46242663878036633
398,3569.37,0.370525392899814
399,3577.6000000000004,0.4175445465420861
400,3585.84,0.31936374994577044
401,3594.1099999999997,0.41245000263369147
402,3602.39,0.5348947050830248
403,3610.7,0.4127170568165948
404,3619.02,0.48883415831157706
405,3627.36,0.5197994593293838
406,3635.73,0.40440430963142726
407,3644.1099999999997,0.5717997096948829
408,3652.5099999999998,0.4409635092811631
409,3660.93,0.6126253083902677
410,3669.3700000000003,0.5790929070221968
411,3677.82,0.5952411554155381
412,3686.3,0.5441678530931162
413,3694.7999999999997,0.5971623502935188
414,3703.32,0.6276790470167458
415,3711.86,0.4317834432627974
416,3720.4100000000003,0.542132489270261
417,3728.99,0.5219865845619616
418,3737.59,0.31622097937648647
419,3746.2000000000003,0.4823315239524236
420,3754.8399999999997,0.42243261781259756
421,3763.49,0.4452466614341837
422,3772.17,0.45884975434000647
423,3780.8599999999997,0.5590032970072416
424,3789.5800000000004,0.5223135889587134
425,3798.32,0.44677058043300955
426,3798.9,0.5601610665949194
427,3800.62,0.5630496255578243
428,3801.8939600000003,0.5651537278829298
429,3802.35,0.5659115667193036
430,3804.0800000000004,0.5884198487185317
431,3805.81,0.6471717307177598
432,3807.54,0.6530558127169878
433,3809.27,0.5314610947162158
434,3811.0,0.5514434767154439
435,3812.7299999999996,0.5815989587146719
436,3814.46,0.5274887407139
437,3816.19,0.43354652271312805
438,3817.92,0.44881270471235607
439,3819.65,0.45865318671158417
440,3821.3799999999997,0.4273840687108122
441,3823.11,0.44671845071004024
442,3824.8399999999997,0.43162513270926833
443,3826.57,0.4335827147084963
444,3828.3,0.4023896967077244
445,3830.0299999999997,0.34382877870695244
446,3831.76,0.3426710607061805
447,3833.49,0.35338064270540853
448,3835.22,0.3501912247046366
449,3836.9399999999996,0.3613983553628286
450,3838.67,0.4689809373620567
451,3840.4,0.47688831936128473
452,3842.13,0.4303849013605128
453,3843.86,0.4282454833597408
454,3845.5899999999997,0.5005495653589689
455,3847.32,0.4699285473581969
456,3849.05,0.430928729357425
457,3850.7799999999997,0.511964211356653
458,3852.51,0.4420711933558811
459,3854.24,0.38326207535510914
460,3855.9700000000003,0.39476295735433714
461,3857.7,0.4265082393535652
462,3859.43,0.4928852213527932
463,3861.1600000000003,0.4661417033520213
464,3862.89,0.44990458535124933
465,3864.6200000000003,0.4435043673504774
466,3866.35,0.4521153493497055
467,3868.08,0.46405483134893355
468,3869.8100000000004,0.43225951334816154
469,3871.54,0.41566959534738956
470,3873.26,0.4247974260055816
471,3874.99,0.40418490800480966
472,3876.7200000000003,0.4279613900040377
473,3878.45,0.4086166720032658
474,3880.18,0.41569485400249384
475,3881.9100000000003,0.4619479360017219
476,3883.64,0.5191934180009499
477,3885.3700000000003,0.556638500000178
478,3887.1,0.459388481999406
479,3888.83,0.49241086399863404
480,3890.56,0.5994136459978621
481,3892.29,0.5325495279970901
482,3894.0200000000004,0.5580438099963182
483,3895.75,0.6023924919955463
484,3897.48,0.5259296739947743
485,3899.21,0.5056128559940024
486,3900.94,0.5913757379932304
487,3902.6699999999996,0.5794568199924583
488,3904.4,0.5582894019916865
489,3906.1299999999997,0.5379345839909145
490,3907.86,0.5620536659901426
491,3909.5800000000004,0.6071677966483346
492,3911.31,0.6424421786475627
493,3913.04,0.5566089606467908
494,3914.77,0.5035876426460189
495,3916.5,0.5248570246452469
496,3918.2299999999996,0.5307629066444749
497,3919.96,0.48070398864370295
498,3921.69,0.451722470642931
499,3923.42,0.44036375264215905
500,3925.15,0.3965216346413871
501,3926.8799999999997,0.42108151664061516
502,3928.61,0.3391477986398432
503,3930.34,0.28534448063907125
504,3932.0699999999997,0.3119523626382993
505,3933.8,0.2953908446375273
506,3935.5299999999997,0.3412342266367554
507,3937.26,0.4194021086359834
508,3938.99,0.4393752906352115
509,3940.72,0.5959917726344395
510,3942.4500000000003,0.6290544546336676
511,3944.18,0.5390466366328956
512,3945.9,0.5265582672910877
513,3947.6299999999997,0.5482660492903157
514,3949.36,0.5808617312895437
515,3951.0899999999997,0.5419837132887718
516,3952.82,0.5471841952879999
517,3954.55,0.5684915772872279
518,3956.2799999999997,0.515422759286456
519,3958.01,0.478014841285684
520,3959.74,0.42916662328491206
521,3961.4700000000003,0.3437170052841401
522,3963.2000000000003,0.3344366872833682
523,3964.93,0.3323733692825962
524,3966.6600000000003,0.3254474512818243
525,3968.39,0.3536769332810523
526,3970.12,0.4272011152802803
527,3971.85,0.5525240972795084
528,3973.58,0.5875693792787364
529,3975.3100000000004,0.5583092612779644
530,3977.04,0.5768736432771925
531,3978.77,0.6675166252764206
532,3980.5,0.7077286072756486
533,3982.2200000000003,0.6924263379338407
534,3983.95,0.7020500199330687
535,3985.68,0.7139488019322968
536,3987.4100000000003,0.7193307839315248
537,3989.14,0.6905021659307529
538,3990.8700000000003,0.6977111479299809
539,3992.6,0.7420981299292089
540,3994.33,0.7753296119284371
541,3996.06,0.759045393927665
542,3997.79,0.7455982759268931
543,3999.5199999999995,0.7574715579261211
544,4001.25,0.7710669399253492
545,4002.98,0.7572704219245773
546,4004.71,0.7497271039238053
547,4006.44,0.7664488859230334
548,4008.1699999999996,0.7871298679222614
549,4009.9,0.8022311499214895
550,4011.63,0.8257718319207175
551,4013.36,0.8419500139199456
552,4015.09,0.8557202959191735
553,4016.8199999999997,0.8856626779184016
554,4018.55,0.8587694599176297
555,4020.2700000000004,0.8104712905758217
556,4022.0,0.8230370725750498
557,4023.73,0.8533264545742778
558,4025.46,0.8282881365735059
559,4027.19,0.764877418572734
560,4028.9199999999996,0.749152200571962
561,4030.65,0.74036008257119
562,4032.3799999999997,0.7515152645704182
563,4034.11,0.8002680465696461
564,4035.84,0.8320157285688742
565,4037.5699999999997,0.8175962105681023
566,4039.3,0.8031801925673302
567,4041.0299999999997,0.8220275745665584
568,4042.76,0.7728864565657864
569,4044.4900000000002,0.7704107385650143
570,4046.22,0.8089356205642425
571,4047.9500000000003,0.8019894025634705
572,4049.68,0.8140153845626986
573,4051.41,0.8173670665619266
574,4053.14,0.7843125485611547
575,4054.86,0.7793178792193467
576,4056.59,0.7868031612185747
577,4058.32,0.8048534432178027
578,4060.05,0.7933030252170309
579,4061.7799999999997,0.7876184072162589
580,4063.51,0.7931686892154869
581,4065.24,0.788151371214715
582,4066.97,0.786536853213943
583,4068.7000000000003,0.7886649352131712
584,4070.43,0.8009197172123991
585,4072.1600000000003,0.7940399992116273
586,4073.89,0.7795765812108553
