,lambda (Angstroms),Total Flux (erg/s/cm^2/Angstrom)
0,102.07000000000001,0.00104012709220704
1,103.97,0.0012162742013700559
2,104.712855,0.0012851713123980463
3,105.9,0.0011935548764574232
4,108.12,0.00102225986726574
5,109.88,0.0008870869786092711
6,114.0,0.0005693418691634442
7,118.01,0.00026002879275864696
8,120.22644299999999,9.478313913945272e-05
9,121.02999999999999,9.410701469396356e-05
10,125.0,8.180379823925031e-05
11,127.03,7.536778156341458e-05
12,127.91,7.279419857093409e-05
13,130.89,6.327265798276148e-05
14,132.1,6.110770636810075e-05
15,133.94,5.534020647473241e-05
16,137.06,4.7674654046846946e-05
17,138.038426,4.4708851298600196e-05
18,139.93,4.550103220677132e-05
19,142.86,6.925781421590342e-05
20,146.85999999999999,0.00011092597828980393
21,150.98,0.00011603979558592142
22,154.85,0.00012224990950242016
23,158.489319,0.00012881935081309888
24,158.82,0.0001293938657310701
25,162.15,0.00013452392338955793
26,165.92,0.0001424723916695877
27,170.17999999999998,0.00014879236723269824
28,172.94,0.00015452684294964307
29,176.97,0.00016097915386967487
30,179.85000000000002,0.00016625164157431298
31,181.93,0.00017012348269432938
32,181.970086,0.0001701890436961768
33,186.17000000000002,0.00017813539070761484
34,190.94,0.00018818048032464256
35,194.04999999999998,0.00019531120185691848
36,198.10999999999999,0.0002032244515099861
37,201.79,0.00021189196991473703
38,205.07000000000002,0.00021855450805810203
39,208.929613,0.00022069490903129968
40,209.85,0.0002214969003665046
41,216.23,0.00024377121664668735
42,220.25,0.00025430690245332283
43,222.8,0.00025909579046499466
44,226.94,0.0002707639862957089
45,230.09,0.000397951824427774
46,233.83,0.000629572320178226
47,239.83,0.0007626190213821596
48,239.88329199999998,0.0007622964703713653
49,245.98,0.0007211791525555959
50,251.70999999999998,0.0007472003364116191
51,256.97999999999996,0.0006251551294170716
52,259.96,0.0007152215440577259
53,264.18,0.0007382909688173102
54,269.1,0.0007301072057408066
55,274.1,0.00071881254976875
56,275.42287,0.0007159097277924315
57,279.19,0.0007100767682118898
58,283.72999999999996,0.0007052000510195188
59,289.67,0.0006687781932832449
60,295.74,0.0006737743960678942
61,301.24,0.0006520723796454184
62,308.25,0.0006544198123505898
63,316.227766,0.0006547914332255968
64,318.35,0.0006536639516517699
65,328.02,0.0006356797672256271
66,337.99,0.0006125385895908138
67,348.26000000000005,0.0005901051187473301
68,357.20000000000005,0.0005736881811289517
69,363.078055,0.0005657478747214587
70,366.36,0.0005627420926526973
71,374.89000000000004,0.0005483556461571392
72,385.39,0.0005185276284310709
73,395.28000000000003,0.0005204004992586125
74,405.42,0.0005132574387117238
75,413.90999999999997,0.0005015943652360744
76,416.86938299999997,0.0004967982790985621
77,421.60999999999996,0.0004887538825526231
78,430.43,0.00047724881260193024
79,441.46999999999997,0.000472368916201063
80,450.72,0.0004633722393253364
81,460.16,0.0004527026989245948
82,469.79,0.0004480615949988383
83,478.630092,0.0004507644896015072
84,479.63,0.00045080583862276946
85,489.66999999999996,0.0004370529506678169
86,499.93,0.0004496895629767996
87,505.71999999999997,0.00045267496992309694
88,511.57,0.0005884577769413765
89,519.88,0.0005923709869109328
90,529.5500000000001,0.000594812298512089
91,539.39,0.0005703356103171953
92,549.42,0.0006254643223502457
93,549.5408739999999,0.0006266311610855521
94,559.64,0.0007251433398524217
95,570.04,0.0007976209992770981
96,580.64,0.0008042172944599412
97,590.0699999999999,0.0008910531104575083
98,599.66,0.0008786730150616088
99,609.41,0.0009205816082722429
100,619.31,0.001122015778301502
101,629.3700000000001,0.0011654766369372945
102,630.957344,0.0011811884811333143
103,639.6,0.0012677258974947603
104,649.99,0.001351447643462126
105,657.5200000000001,0.001370386178316242
106,665.13,0.0015146759778168822
107,674.38,0.0016219357025712743
108,685.34,0.001568408959145127
109,694.8699999999999,0.0018813821101623547
110,704.5400000000001,0.0017461694743110003
111,715.99,0.0021626599768448155
112,724.43596,0.002266154742715096
113,725.95,0.0022846644790883676
114,734.36,0.0023968383726038944
115,744.5699999999999,0.0025260986630668584
116,754.9300000000001,0.002656279569942109
117,765.43,0.00262659271880216
118,774.29,0.002964236461554546
119,785.0699999999999,0.0030122640943841985
120,794.16,0.0032555044489687573
121,805.1999999999999,0.0034393248169130395
122,814.53,0.0035838151577572567
123,825.86,0.003820908384098626
124,831.763771,0.0035051146560051384
125,835.4200000000001,0.00330910699074322
126,845.1,0.004063174842007964
127,854.88,0.0041660585305791625
128,864.78,0.004450877423918106
129,874.79,0.004658555338294148
130,884.92,0.004887108457437935
131,895.17,0.0050918947813494665
132,905.54,0.005149690310028743
133,916.02,0.006017329859745119
134,924.5,0.024103984663332415
135,935.2,0.04796103125512299
136,946.0300000000001,0.08566208723541195
137,954.79,0.11580638218345732
138,954.992586,0.11613786417720921
139,965.84,0.1338877256952337
140,974.78,0.030406390352660913
141,986.07,0.12182316469073176
142,995.1899999999999,0.12267194702582532
143,1004.4,0.16395392819975202
144,1016.03,0.1544262781511926
145,1025.43,0.07043468687376708
146,1034.92,0.11554323443517474
147,1044.49,0.1998533109644341
148,1054.1599999999999,0.19620658620350806
149,1063.91,0.1613318604104337
150,1076.23,0.1860889014595952
151,1086.1899999999998,0.15301167295713156
152,1096.24,0.1908603432935011
153,1096.4782,0.1906306558702795
154,1103.84,0.18353174294736033
155,1114.05,0.17852853066279606
156,1124.36,0.1613295143401851
157,1134.77,0.19440259397952753
158,1145.27,0.17811476998462794
159,1155.86,0.18565644235548637
160,1163.8700000000001,0.18954521890794868
161,1174.64,0.1373154840103231
162,1185.51,0.18101194507465088
163,1193.73,0.1332661131472152
164,1204.78,0.10273446694305896
165,1215.92,0.06557820710466074
166,1224.35,0.12408437669732707
167,1235.68,0.17567171918664018
168,1244.25,0.1908500731260412
169,1255.76,0.1848005083468703
170,1258.92541,0.17693939405533274
171,1264.46,0.16319479642278725
172,1276.16,0.19984433002795093
173,1285.01,0.20686925544724138
174,1293.92,0.17206748103886604
175,1305.89,0.16931711541953345
176,1314.94,0.20123214141327117
177,1324.05,0.19306286757934307
178,1336.31,0.175268002792959
179,1345.5700000000002,0.19892492938986633
180,1354.9,0.19261545618783016
181,1364.29,0.1760756831581282
182,1373.74,0.18142831030076037
183,1386.4599999999998,0.182260546835605
184,1396.0700000000002,0.15765457443779496
185,1405.74,0.16095400221231912
186,1415.49,0.16970843021662219
187,1425.3,0.1704914583932594
188,1435.18,0.17009868677095316
189,1441.8,0.1764828057851569
190,1445.43977,0.17737346686541205
191,1448.46,0.1781125235201184
192,1455.14,0.17325883962318273
193,1465.2299999999998,0.1624435639465239
194,1475.39,0.1613232884386097
195,1485.61,0.16244331307533388
196,1495.91,0.1635711379049091
197,1506.2800000000002,0.156209162903229
198,1513.23,0.14213867965716567
199,1516.72,0.1495231880702936
200,1523.72,0.1454492049447622
201,1534.2900000000002,0.1287392304252098
202,1544.9199999999998,0.13480565605029568
203,1555.63,0.1284447818682326
204,1566.41,0.13204280785491423
205,1573.64,0.13954162528382966
206,1584.5500000000002,0.14411685158389428
207,1595.53,0.1464578780527036
208,1606.59,0.141812604714364
209,1614.01,0.14115692260130072
210,1625.2,0.1351167495763441
211,1636.46,0.14148467672013212
212,1644.02,0.1421371949445582
213,1655.4099999999999,0.13326542240172928
214,1659.58691,0.1367315037018464
215,1666.89,0.14279186103756353
216,1670.73,0.12933182863861575
217,1678.4399999999998,0.14378126436885347
218,1686.1899999999998,0.14713080080326882
219,1693.97,0.13922273776581737
220,1705.71,0.13418874444195106
221,1713.5900000000001,0.1284462831649437
222,1725.46,0.12697429212965464
223,1733.43,0.1335730324370469
224,1745.44,0.1302332438663796
225,1753.5,0.13636698575817155
226,1765.66,0.12639019982817032
227,1773.8100000000002,0.12874264330436194
228,1786.1,0.12993415966293798
229,1794.3500000000001,0.13574080489957366
230,1806.78,0.1345010237227714
231,1815.1200000000001,0.12610407054380676
232,1823.5000000000002,0.12727041806901973
233,1836.14,0.12323154058915003
234,1844.62,0.11421598987480706
235,1853.13,0.11474393968859732
236,1865.9800000000002,0.11714756590566017
237,1874.59,0.12323261747989449
238,1883.24,0.11474496975830645
239,1896.3,0.11059569967230183
240,1905.0500000000002,0.11554075371115785
241,1905.46072,0.11536957620991317
242,1913.84,0.11187697079635131
243,1927.11,0.10907856966926605
244,1936.0,0.11110456793454201
245,1944.94,0.11553976506520197
246,1953.92,0.10857676128816915
247,1967.46,0.1163395540341575
248,1976.54,0.11850344798789267
249,1985.6699999999998,0.11290644080701186
250,1994.83,0.10958133294536143
251,2004.04,0.11161792394909502
252,2013.2900000000002,0.10882471404513581
253,2027.2399999999998,0.111618697487273
254,2036.6000000000001,0.10708658508715861
255,2046.0,0.1095802717793514
256,2055.4500000000003,0.1024988573369282
257,2064.9300000000003,0.10392564221373542
258,2074.47,0.11110042572900343
259,2079.25,0.10732921725971424
260,2084.04,0.10983200856350185
261,2093.66,0.10464589026338426
262,2103.3199999999997,0.10488657105557389
263,2113.0299999999997,0.10561485071314752
264,2122.79,0.10634702923610516
265,2132.58,0.10016490707829319
266,2147.37,0.10155877145888165
267,2157.28,0.10416364657799129
268,2167.23,0.10062942078940815
269,2177.24,0.0999351536392858
270,2187.29,0.09856411558147067
271,2187.7616199999998,0.09872601450260905
272,2197.38,0.10202822889905969
273,2207.53,0.09924515253709132
274,2212.62,0.09499815462749338
275,2222.83,0.09262265935107003
276,2233.09,0.09721286497926752
277,2243.4,0.09369778151208585
278,2253.75,0.09010154876860085
279,2264.15,0.0911454569297367
280,2274.61,0.09283946617641757
281,2285.1,0.09434597596587095
282,2295.65,0.08928226684086935
283,2306.25,0.08973191862048858
284,2316.89,0.08672189112380449
285,2327.59,0.07283573471266543
286,2332.95,0.08154843168802006
287,2343.72,0.07863618654335017
288,2354.54,0.08371570230330112
289,2365.41,0.07798219896787291
290,2376.33,0.07964930653706558
291,2387.29,0.07419683482995489
292,2392.7999999999997,0.07788817451917207
293,2403.8399999999997,0.07545398425945474
294,2414.94,0.07635999508528243
295,2426.0899999999997,0.07999265681573096
296,2437.28,0.07731417926987619
297,2442.9,0.0804190309492592
298,2454.18,0.07917024503172194
299,2465.5099999999998,0.07829908001880552
300,2476.89,0.07584847591050994
301,2482.6,0.0765700092182105
302,2494.06,0.07116410655730827
303,2505.5699999999997,0.0789662848010269
304,2511.34,0.07154305919427247
305,2511.88643,0.0716542350262113
306,2517.13,0.07272095236376741
307,2522.94,0.07059285168074322
308,2534.5800000000004,0.07111687017465003
309,2546.28,0.07033267824842233
310,2552.15,0.07417479714526365
311,2563.93,0.07235426465885662
312,2575.76,0.0752779518223375
313,2587.65,0.07428095856568388
314,2593.62,0.07311031676230104
315,2605.5899999999997,0.07099032294546807
316,2617.62,0.06972536870850063
317,2623.65,0.07219620648498327
318,2635.7599999999998,0.07408351168783649
319,2647.93,0.07905220647055519
320,2654.03,0.08054127375688093
321,2666.2799999999997,0.07417015797942031
322,2672.4300000000003,0.07644339491563396
323,2684.7599999999998,0.076656598577994
324,2697.1600000000003,0.07290859175019712
325,2703.37,0.07462282826627627
326,2715.8500000000004,0.07097389087830004
327,2722.1099999999997,0.07033966704426711
328,2734.68,0.07284898902608915
329,2747.2999999999997,0.0649607206577991
330,2753.63,0.06633606633360924
331,2766.3399999999997,0.06838486733511745
332,2772.7200000000003,0.0706423326608155
333,2785.5200000000004,0.06672543303212196
334,2791.94,0.05590141807773035
335,2804.83,0.058836767818835047
336,2817.77,0.06915681720982766
337,2824.27,0.07193835169525672
338,2837.31,0.06969211038602516
339,2843.85,0.06765508459136456
340,2856.97,0.06479067272195367
341,2863.56,0.07024771657718097
342,2876.7799999999997,0.07060602400754593
343,2883.4100000000003,0.06997962758268356
344,2884.0315,0.06997372808616226
345,2896.72,0.06985337141249716
346,2910.09,0.07454661949654336
347,2930.26,0.07157554660613286
348,2950.57,0.07016484369566002
349,2971.02,0.07070901076512483
350,2991.62,0.07044048781309428
351,3012.35,0.0706575648424344
352,3033.24,0.07039344184884615
353,3047.24,0.07026709984261179
354,3068.36,0.07016495681606395
355,3089.6299999999997,0.07006235376802077
356,3111.04,0.06996015069991521
357,3132.61,0.06858082760888129
358,3147.07,0.06846278553672781
359,3168.88,0.06867928241130128
360,3190.85,0.06534197926294637
361,3212.97,0.06692182609309608
362,3227.8,0.06394696396792068
363,3250.17,0.0674855507622448
364,3272.7000000000003,0.0694357375336405
365,3287.8,0.06867968536977345
366,3310.59,0.06811195210391052
367,3311.31121,0.06808442990952535
368,3318.2299999999996,0.06782038304728903
369,3325.88,0.06783969209094869
370,3333.54,0.06943988110721444
371,3341.23,0.06603147004129846
372,3348.93,0.07093722894798858
373,3356.65,0.06807653779989088
374,3364.39,0.061255376597005355
375,3372.1400000000003,0.06183891536672592
376,3379.92,0.06782393405426476
377,3387.71,0.06753234271440971
378,3395.52,0.06586556131976681
379,3403.35,0.0693054698703361
380,3411.19,0.0645534083935115
381,3419.06,0.06577094683450517
382,3426.94,0.06670874524810491
383,3434.84,0.07003437360691685
384,3442.76,0.06463213191094096
385,3450.69,0.06631070018757118
386,3458.6499999999996,0.06527042838201966
387,3466.6200000000003,0.06439169654907424
388,3474.61,0.06652340466134099
389,3482.6200000000003,0.06443497271881993
390,3490.65,0.06671642072151104
391,3498.7000000000003,0.06228349866941434
392,3506.7599999999998,0.06614894658992373
393,3514.84,0.0627566144556453
394,3522.9500000000003,0.06618828223918516
395,3531.07,0.0647027199953311
396,3539.21,0.06668860769668922
397,3547.3700000000003,0.06857599534325952
398,3555.54,0.0671932629624359
399,3563.7400000000002,0.06629087049943057
400,3571.96,0.06203094798163743
401,3580.1899999999996,0.06134168543645036
402,3588.44,0.05634920283647549
403,3596.71,0.0625200901817128
404,3605.01,0.06488390744476837
405,3613.3199999999997,0.060852854680430044
406,3621.65,0.06087252186130389
407,3630.0,0.06991160898738992
408,3638.36,0.06541990608608204
409,3646.7500000000005,0.06499035310259245
410,3655.16,0.06591591006431502
411,3663.5800000000004,0.0701639069986437
412,3672.03,0.06702731385079064
413,3680.4900000000002,0.06522291067554367
414,3680.58,0.08298960042899849
415,3683.3199999999997,0.06923788292306744
416,3686.06,0.06489964541713639
417,3688.81,0.07547135788381143
418,3691.55,0.057483740377880385
419,3694.29,0.053614392871949336
420,3697.04,0.04907883533862437
421,3699.7799999999997,0.04849179783269332
422,3702.5200000000004,0.06088826032676227
423,3705.27,0.0676693627934373
424,3708.0099999999998,0.06266521528750627
425,3710.75,0.0694742677815752
426,3713.49,0.06930099027564417
427,3716.2400000000002,0.0689815627423192
428,3718.98,0.08685119523638815
429,3721.7200000000003,0.1588182277304571
430,3724.47,0.2844636201971321
431,3727.21,0.3453189126912011
432,3729.9500000000003,0.29984380518527004
433,3732.7,0.2093209976519451
434,3735.44,0.11972549014601402
435,3738.18,0.08196517264008298
436,3740.9300000000003,0.08114920510675802
437,3743.67,0.061384507600826976
438,3746.41,0.05711325009489592
439,3749.15,0.052191812588964874
440,3751.9,0.0716609050556399
441,3754.6400000000003,0.07410403754970887
442,3757.38,0.07384409004377782
443,3760.1299999999997,0.07876137251045284
444,3762.87,0.08241419500452181
445,3765.6099999999997,0.06845754749859075
446,3768.36,0.06699147996526579
447,3771.1,0.06603802245933474
448,3773.84,0.0778552649534037
449,3776.59,0.07545924742007873
450,3779.3300000000004,0.08188607991414769
451,3782.07,0.07826107240821663
452,3784.81,0.08529869490228559
453,3787.56,0.08805267736896062
454,3790.2999999999997,0.07804429986302956
455,3793.04,0.07948265235709852
456,3795.79,0.06774405482377356
457,3798.5299999999997,0.06179420731784251
458,3801.27,0.05823220981191146
459,3801.8939600000003,0.061242406692461
460,3804.02,0.07149915349209764
461,3806.76,0.0869612275501167
462,3809.5,0.08594474160813577
463,3812.25,0.08478990564446877
464,3814.99,0.08840727970248784
465,3817.7299999999996,0.0850896337605069
466,3820.4700000000003,0.09351033781852597
467,3823.22,0.08809595185485898
468,3825.96,0.07694485591287804
469,3828.7,0.0741039699708971
470,3831.4500000000003,0.07203501400723011
471,3834.19,0.06796472806524918
472,3836.93,0.060032882123268246
473,3839.68,0.06655787615960125
474,3842.4199999999996,0.07242912021762032
475,3845.1600000000003,0.07880867427563938
476,3847.91,0.09410088831197239
477,3850.65,0.09921955236999146
478,3853.39,0.09226102642801053
479,3856.1299999999997,0.09896373048602959
480,3858.88,0.09890033452236258
481,3861.62,0.09055084858038165
482,3864.36,0.09522426263840073
483,3867.11,0.10219436667473372
484,3869.8500000000004,0.10036226073275278
485,3872.59,0.08797392479077185
486,3875.3399999999997,0.09404568882710486
487,3878.08,0.08223263288512393
488,3880.8199999999997,0.080715726943143
489,3883.57,0.079722470979476
490,3886.31,0.07674367503749506
491,3889.05,0.07811109909551413
492,3891.8,0.08359184313184714
493,3894.5400000000004,0.06607709718986621
494,3897.28,0.08646068124788527
495,3900.02,0.08700457530590433
496,3902.77,0.08527444934223734
497,3905.5099999999998,0.0952515734002564
498,3908.25,0.09968068745827548
499,3911.0,0.10007437149460847
500,3913.74,0.10158366555262753
501,3916.48,0.09453844961064661
502,3919.23,0.09313535364697961
503,3921.9700000000003,0.09129928770499868
504,3924.71,0.08469537176301774
505,3927.46,0.08142063579935074
506,3930.2,0.07560479985736981
507,3932.9399999999996,0.06805124391538887
508,3935.68,0.07354814797340795
509,3938.43,0.07657014200974095
510,3941.17,0.08481348606776001
511,3943.91,0.08563715012577908
512,3946.6600000000003,0.08213387416211208
513,3949.4,0.08690576822013116
514,3952.14,0.09070835227815022
515,3954.89,0.09605113631448323
516,3957.6299999999997,0.0835170103725023
517,3960.37,0.07696430443052135
518,3963.12,0.07100621846685436
519,3965.86,0.07202293252487342
520,3968.6,0.0697533965828925
521,3971.3399999999997,0.06520631064091156
522,3974.09,0.07354780467724456
523,3976.83,0.08616889873526362
524,3979.57,0.0897232227932827
525,3982.3199999999997,0.08560917682961569
526,3985.0600000000004,0.09694178088763476
527,3987.8,0.09729655494565383
528,3990.5499999999997,0.09352135898198684
529,3993.29,0.09289104304000591
530,3996.0299999999997,0.09563366709802497
531,3998.78,0.08783144113435798
532,4001.52,0.09828533519237705
533,4004.26,0.09883318925039611
534,4007.0,0.09369116330841518
535,4009.7500000000005,0.09868719734474818
536,4012.4900000000002,0.10312815140276724
537,4015.23,0.09515297546078631
538,4017.98,0.1016424394971193
539,4020.72,0.10389643355513839
540,4023.46,0.10023992761315745
541,4026.21,0.10060602164949044
542,4028.95,0.09692589570750951
543,4031.69,0.08936447976552857
544,4034.44,0.10880580380186158
545,4037.1800000000003,0.10178819785988065
546,4039.92,0.10259619191789972
547,4042.6600000000003,0.09447521597591878
548,4045.41,0.09568852001225178
549,4048.1499999999996,0.09949504407027085
550,4050.89,0.09519625812828991
551,4053.64,0.09427387216462292
552,4056.38,0.09543247622264199
553,4059.12,0.09138191028066106
554,4061.8700000000003,0.10064144431699407
555,4064.61,0.09927820837501312
556,4067.35,0.1022100324330322
557,4070.1,0.09761123646936519
558,4072.8399999999997,0.09895110052738428
559,4075.58,0.09828926458540334
560,4078.3199999999997,0.0890295386434224
561,4081.07,0.0897897226797554
562,4083.81,0.08835556673777446
563,4086.5499999999997,0.09235515079579354
564,4089.3,0.08583355483212653
565,4092.04,0.0889110888901456
566,4094.78,0.08753998294816466
567,4097.53,0.08502180698449767
568,4100.2699999999995,0.08721669104251674
569,4103.01,0.09061736510053581
570,4105.76,0.08651120913686881
571,4108.5,0.08000973319488788
