,lambda (Angstroms),Total Flux (erg/s/cm^2/Angstrom)
0,102.07000000000001,9.888538579222905
1,103.97,9.860353661751164
2,104.712855,9.849334026610565
3,105.9,9.756829656784314
4,108.12,9.583843458021569
5,109.88,9.446701247552957
6,114.0,9.125663798694921
7,118.01,8.813197738570716
8,120.22644299999999,8.640488718889083
9,121.04,8.587339716062951
10,125.0,8.328636194998824
11,127.03,8.19601797668015
12,127.91,8.138528306618184
13,130.89,7.9438473772562554
14,132.1,7.864799084023995
15,133.94,7.744593412089413
16,137.06,7.540766409290712
17,138.038426,7.4768466534214575
18,139.93,7.38851730030113
19,142.86,7.251697428263019
20,146.85999999999999,7.064912624021152
21,150.98,6.872524248227196
22,154.85,6.691809945548739
23,158.489319,6.52186758495379
24,158.82,6.510193495700386
25,162.15,6.392633926669042
26,165.92,6.259540999769069
27,170.17999999999998,6.10914952536202
28,172.95000000000002,6.01135980067412
29,176.97,5.869441146652004
30,179.85000000000002,5.767768111105397
31,181.93,5.694337585745571
32,181.970086,5.692922424406755
33,186.17000000000002,5.579806551436706
34,190.95000000000002,5.451067365912778
35,194.04999999999998,5.367575441817727
36,198.10999999999999,5.258227998505031
37,201.8,5.158845798102593
38,205.07000000000002,5.070775368252124
39,208.929613,4.9668250086031405
40,209.85,4.9481885826615954
41,216.23,4.819003630990987
42,220.25,4.73760501675224
43,222.8,4.685971654744042
44,226.94,4.602143340936556
45,230.1,4.538164932972436
46,233.83999999999997,4.462444691761081
47,239.83,4.341162970508371
48,239.88329199999998,4.3400839013801145
49,245.98999999999998,4.244798556537404
50,251.72,4.155393246879843
51,256.99,4.073158541260657
52,259.96,4.026821683373335
53,264.19,3.9608214239535138
54,269.1,3.884209814542184
55,274.1,3.8061938055563904
56,275.42287,3.7855527913882074
57,279.2,3.740323020332061
58,283.72999999999996,3.686078364327721
59,289.67,3.6149472416420965
60,295.74,3.5422624597725956
61,301.24,3.4764001303270167
62,308.26,3.392339381027643
63,316.227766,3.2969294462297443
64,318.35,3.277949043313923
65,328.03,3.191374126636742
66,337.99999999999994,3.1022048115649348
67,348.27,3.0103521206162718
68,357.20000000000005,2.930484414116227
69,363.078055,2.87791262564475
70,366.36,2.8559308962159022
71,374.90000000000003,2.7987315113513045
72,385.4,2.7284013490112264
73,395.29,2.6621618629971895
74,405.43,2.5942457352036272
75,413.90999999999997,2.537447601830116
76,416.86938299999997,2.517625917693113
77,421.60999999999996,2.493378398084116
78,430.44,2.4482136370082364
79,441.48,2.391746692900568
80,450.72,2.344485829622411
81,460.16,2.2962013893187527
82,469.8,2.246894990089593
83,478.630092,2.2017314527777527
84,479.64,2.19775890308403
85,489.67999999999995,2.158265158500417
86,499.93,2.117947652037266
87,505.71999999999997,2.095246056787155
88,511.58000000000004,2.072509403477197
89,519.89,2.039828715472633
90,529.5500000000001,2.0018439663138974
91,539.4,1.9630770352927243
92,549.43,1.9237546603176605
93,549.5408739999999,1.923319796590167
94,559.64,1.8931318143793427
95,570.05,1.8619765743282908
96,580.65,1.830145807479765
97,590.0799999999999,1.8019855037735768
98,599.67,1.7732240286274104
99,609.41,1.7441414936937647
100,619.31,1.714605911720142
101,629.38,1.6844766644540425
102,630.957344,1.6797524953975762
103,639.6,1.659243425386898
104,650.0,1.6346488786102182
105,657.5200000000001,1.616837352910157
106,665.14,1.598830184644936
107,674.39,1.5769168218676002
108,685.35,1.5508417253260218
109,694.88,1.5285528901662375
110,704.5500000000001,1.5054771068152284
111,716.0,1.4786685906043642
112,724.43596,1.4587018049480924
113,725.9599999999999,1.4560290198652448
114,734.36,1.441335771922112
115,744.5799999999999,1.423553042424634
116,754.94,1.4054422559614372
117,765.44,1.3870863285325212
118,774.3,1.3717170127020266
119,785.0699999999999,1.3529957363392249
120,794.17,1.3371230855674978
121,805.2099999999999,1.3178234582708093
122,814.54,1.301541171555401
123,825.8699999999999,1.2819107653297235
124,831.763771,1.2712353682635442
125,835.4300000000001,1.2662297126415696
126,845.11,1.254267382454994
127,854.89,1.2416058232788876
128,864.79,1.2289095743153444
129,874.8000000000001,1.216077048963317
130,884.9300000000001,1.203125413823853
131,895.18,1.1899406078969523
132,905.55,1.1764567991826147
133,916.0300000000001,1.1659754550797927
134,924.5100000000001,1.2082585967675863
135,935.21,1.265169859887797
136,946.04,1.3764592278216181
137,954.8,1.4432153783387252
138,954.992586,1.4442564121427597
139,965.85,1.5032563251416087
140,974.79,1.1954745830967792
141,986.08,1.4896929550558258
142,995.1999999999999,1.465350238338953
143,1004.4100000000001,1.5314116842860581
144,1016.04,1.4835820374201336
145,1025.44,1.2218907934356373
146,1034.93,1.3873229121151194
147,1044.51,1.56426879345858
148,1054.17,1.541288452725576
149,1063.92,1.4637059746565508
150,1073.77,1.5056313439919458
151,1086.2,1.429190976361383
152,1096.25,1.4934871405056187
153,1096.4782,1.4924569767272424
154,1103.85,1.4609040867814027
155,1114.0700000000002,1.448823962030151
156,1124.37,1.3910004421732152
157,1134.78,1.446138904045962
158,1145.28,1.3997086964248133
159,1155.8799999999999,1.4058841449215589
160,1163.89,1.406308359964854
161,1174.66,1.2703575438620185
162,1185.53,1.3682516838770775
163,1193.74,1.2896961111561602
164,1204.79,1.1906344121834276
165,1215.9399999999998,1.006250169328589
166,1224.3700000000001,1.206998960067038
167,1235.69,1.296830652612619
168,1244.26,1.3124270019161197
169,1255.77,1.2914930810856986
170,1258.92541,1.2802280166441953
171,1264.48,1.2620841085137986
172,1276.18,1.2979599912750934
173,1285.02,1.2951983293614053
174,1293.93,1.230450299310391
175,1305.9,1.2272974478277159
176,1314.96,1.2687206431967186
177,1324.07,1.2427795470390601
178,1336.32,1.2091195230070824
179,1345.5800000000002,1.2303317522694404
180,1354.91,1.220789313394473
181,1364.3,1.188027444687512
182,1373.76,1.1832919078432256
183,1386.47,1.1773255217659655
184,1396.0800000000002,1.1077179103416956
185,1405.76,1.1144485307801004
186,1415.5,1.1353152213865114
187,1425.32,1.120992505550265
188,1435.2,1.1192969598820248
189,1441.82,1.124836901752091
190,1445.43977,1.1201868499050998
191,1448.48,1.1169733924383305
192,1455.16,1.1064684925856962
193,1465.2499999999998,1.0829593100238586
194,1475.4,1.0776234565052603
195,1485.63,1.0700157083776485
196,1495.93,1.06237072746715
197,1506.3,1.0395437137737646
198,1513.2499999999998,1.0069768446157097
199,1516.74,1.018334367297492
200,1523.74,1.0146510890088036
201,1534.3000000000002,0.9716195006190108
202,1544.9399999999998,0.9726796176202047
203,1555.65,0.9528972018385113
204,1566.43,0.9613700532739312
205,1573.66,0.9751895529843289
206,1584.57,0.9724546006801018
207,1595.55,0.9717468155929876
208,1606.61,0.95486203589686
209,1614.03,0.9479882609108503
210,1625.22,0.9362254774750756
211,1636.4799999999998,0.942135661256414
212,1644.04,0.9361525207046306
213,1655.43,0.9203316007463218
214,1659.58691,0.923515592336157
215,1666.91,0.9302792279108909
216,1670.75,0.9091890723368601
217,1678.46,0.9300694052858756
218,1686.21,0.9282365970309951
219,1693.99,0.9113380328731925
220,1705.73,0.8972678895296704
221,1713.6100000000001,0.8829652723621273
222,1725.48,0.8757842201059427
223,1733.45,0.8851308352296333
224,1745.46,0.8730975887598121
225,1753.52,0.8796552361747365
226,1765.68,0.8563370101903047
227,1773.8300000000002,0.8561068898964627
228,1786.12,0.8543633549993683
229,1794.3700000000001,0.8607602816957858
230,1806.8000000000002,0.856184552585055
231,1815.14,0.8335445115727063
232,1823.5199999999998,0.8350244293564614
233,1836.16,0.8230743089252756
234,1844.6399999999999,0.7962989736992903
235,1853.15,0.7931663825703827
236,1865.9999999999998,0.7961492708187423
237,1874.61,0.8044200266800945
238,1883.26,0.7778581413375505
239,1896.32,0.759055338265455
240,1905.0700000000002,0.7731893999131706
241,1905.46072,0.7725634175973357
242,1913.86,0.759933755636917
243,1927.1299999999999,0.7482259920704173
244,1936.03,0.7531213128886654
245,1944.96,0.7640738317546155
246,1953.94,0.7401789473667355
247,1967.48,0.7554550662295536
248,1976.56,0.7615384753340134
249,1985.69,0.7429974811846433
250,1994.85,0.7331603850829751
251,2004.06,0.7355722857274769
252,2013.3100000000002,0.7314354837689144
253,2027.27,0.7334303752995599
254,2036.6200000000001,0.7186559668333374
255,2046.02,0.7201488551132849
256,2055.4700000000003,0.7048307401394023
257,2064.96,0.7062137225624556
258,2074.49,0.7206789023824449
259,2079.27,0.7063300913162907
260,2084.06,0.7106933795993702
261,2093.68,0.6953078535624655
262,2103.35,0.6974324242717305
263,2113.06,0.6963980923779316
264,2122.81,0.6961834578810686
265,2132.61,0.6832161201303755
266,2147.3900000000003,0.6784565582982078
267,2157.3,0.6812761133890886
268,2167.26,0.6723080652261393
269,2177.26,0.667277214460126
270,2187.31,0.6637929604402826
271,2187.7616199999998,0.6639493659583087
272,2197.41,0.6681336174321515
273,2202.48,0.6609792668503482
274,2212.64,0.6507586114438155
275,2222.85,0.6444098204299671
276,2233.11,0.651560293808803
277,2243.42,0.6436325315803233
278,2253.7799999999997,0.6336135337445281
279,2264.1800000000003,0.6324477274228804
280,2274.63,0.6334712854939171
281,2285.13,0.6352765079576381
282,2295.68,0.6209653948140434
283,2306.27,0.6234286731845964
284,2316.92,0.6150566888263707
285,2327.61,0.5775863959822923
286,2332.98,0.6003347317565955
287,2343.75,0.5896348219408121
288,2354.57,0.6006515765177132
289,2365.44,0.5851209954872987
290,2376.35,0.5878817059710317
291,2387.32,0.5714385537259858
292,2392.83,0.5782732097998053
293,2403.87,0.5710777677045178
294,2414.97,0.5704032628804514
295,2426.11,0.5783733495705325
296,2437.31,0.5697193735318351
297,2442.9300000000003,0.57472613126956
298,2454.21,0.5713802382591575
299,2465.5299999999997,0.5660407367629025
300,2476.91,0.5574657725378687
301,2482.62,0.5558114861824256
302,2494.08,0.5411369049856869
303,2505.6,0.5589257610601692
304,2511.37,0.5380625119759475
305,2511.88643,0.5380258710152844
306,2517.16,0.5378973309501737
307,2522.96,0.5328326418570335
308,2534.61,0.5331390568682259
309,2546.31,0.5297623650768915
310,2552.18,0.5402016464602134
311,2563.96,0.5336138637848356
312,2575.79,0.5390152743069306
313,2587.68,0.5355513166659932
314,2593.65,0.531599084444261
315,2605.6200000000003,0.5238147359192802
316,2617.65,0.517974319231267
317,2623.68,0.5245441188465023
318,2635.79,0.5298826112744457
319,2647.9599999999996,0.5433451355393568
320,2654.06,0.5486719056310542
321,2666.31,0.5303795390119219
322,2672.46,0.5354674023010921
323,2684.7900000000004,0.5365129447979164
324,2697.19,0.521192357771203
325,2703.4,0.5261741528973408
326,2715.88,0.512444674986584
327,2722.1400000000003,0.5085258633101947
328,2734.71,0.5143628331548891
329,2747.33,0.4896704961970565
330,2753.66,0.49470905499712936
331,2766.3700000000003,0.500880965794748
332,2772.75,0.5062282177922938
333,2785.55,0.4911111763453636
334,2791.97,0.4548422829008878
335,2804.86,0.4625772892094089
336,2817.81,0.49658812735489766
337,2824.3,0.5032535043868839
338,2837.3399999999997,0.4958837902878239
339,2843.8799999999997,0.48765356051728304
340,2857.0099999999998,0.47350499417367425
341,2863.5899999999997,0.49305581896111184
342,2876.8100000000004,0.49572550037295415
343,2883.44,0.4923318183578647
344,2884.0315,0.4923387212280716
345,2896.75,0.49299577681330775
346,2910.12,0.5067323214345487
347,2930.29,0.4963422817195472
348,2950.6,0.48872328173879964
349,2971.06,0.4894054600447525
350,2991.65,0.4868890395325125
351,3012.39,0.48500339730697306
352,3033.27,0.4837410948156875
353,3047.2700000000004,0.4837507682410706
354,3068.39,0.4818318910085059
355,3089.6600000000003,0.47860179206264164
356,3111.08,0.478593771403478
357,3132.64,0.47148989047856815
358,3147.1,0.46890203731649965
359,3168.92,0.470100958755204
360,3190.8799999999997,0.4574129199281623
361,3212.9999999999995,0.46226059794026775
362,3227.83,0.45035437121872723
363,3250.21,0.464630351594447
364,3272.7400000000002,0.47177101025686724
365,3287.84,0.4684020244513877
366,3310.63,0.4630347854774222
367,3311.31121,0.46250811243144896
368,3318.26,0.4573305712394923
369,3325.9100000000003,0.4574944986760659
370,3333.58,0.46553326409286594
371,3341.27,0.4463826674898923
372,3348.97,0.4665720898770318
373,3356.69,0.4549081502443977
374,3364.43,0.4239677485919899
375,3372.1800000000003,0.42637196592969523
376,3379.96,0.4515148402377401
377,3387.75,0.4529514335358981
378,3395.5600000000004,0.4479727648142824
379,3403.39,0.45915323407289316
380,3411.23,0.438247322321617
381,3419.09,0.44776464855056725
382,3426.98,0.45437143174985695
383,3434.88,0.46454383393925985
384,3442.79,0.44627295511877596
385,3450.73,0.45092213326863145
386,3458.6899999999996,0.44462614939871337
387,3466.66,0.44348538451890845
388,3474.65,0.4546670576193298
389,3482.6600000000003,0.4450349686999775
390,3490.69,0.4583374177608516
391,3498.73,0.4376756858118389
392,3506.7999999999997,0.4519769108331656
393,3514.88,0.4391765548446055
394,3522.99,0.45362155582638497
395,3531.11,0.4432612757982775
396,3539.25,0.4552752337503964
397,3547.41,0.46435652968274166
398,3555.58,0.4617729446052001
399,3563.7799999999997,0.453739816497998
400,3572.0,0.43493122637102233
401,3580.23,0.4325282552341597
402,3588.48,0.4085769220775235
403,3596.7599999999998,0.4365554458912268
404,3605.05,0.4498048886950432
405,3613.36,0.431052669479086
406,3621.69,0.4280182882433551
407,3630.04,0.4676699449878505
408,3638.4,0.44770512072245916
409,3646.79,0.4464985534274073
410,3648.0099999999998,0.43732857022121385
411,3650.7400000000002,0.32261345452210877
412,3653.47,0.38509693882300366
413,3656.2,0.4456750231238986
414,3658.9300000000003,0.5147906074247935
415,3661.66,0.5604312917256885
416,3664.3900000000003,0.5358299760265833
417,3667.12,0.46223876032747824
418,3669.85,0.46613234462837316
419,3672.59,0.42262174791938134
420,3675.32,0.4862652322202762
421,3678.0499999999997,0.40267131652117116
422,3680.78,0.38850060082206606
423,3683.5099999999998,0.44762508512296095
424,3686.2400000000002,0.4457659694238559
425,3688.97,0.4662215537247508
426,3691.7,0.4288812380256457
427,3694.4300000000003,0.4102280223265406
428,3697.16,0.44163940662743556
429,3699.8900000000003,0.3362312909283305
430,3702.62,0.31072607522922546
431,3705.35,0.4178633595301203
432,3708.0800000000004,0.46164744383101525
433,3710.81,0.4149267281319101
434,3713.54,0.4205791124328051
435,3716.27,0.4618471967337
436,3719.0,0.34561738103459494
437,3721.7299999999996,0.4214506653354899
438,3724.46,0.6014928496363847
439,3727.2,0.9100814529273928
440,3729.9300000000003,1.0431363372282878
441,3732.66,1.0143093215291827
442,3735.39,0.6964785058300776
443,3738.12,0.5079065901309725
444,3740.85,0.47247167443186744
445,3743.5800000000004,0.41913125873276236
446,3746.31,0.4522158430336573
447,3749.04,0.3873822273345522
448,3751.77,0.3798558116354471
449,3754.5,0.535665295936342
450,3757.2299999999996,0.424040280237237
451,3759.96,0.43737516453813186
452,3762.69,0.43469764883902684
453,3765.42,0.5119722331399217
454,3768.15,0.44651541744081663
455,3770.8799999999997,0.40388640174171153
456,3773.61,0.4309130860426065
457,3776.34,0.44250137034350145
458,3779.0800000000004,0.4518400736345094
459,3781.81,0.5555083579354044
460,3784.54,0.6034694422362994
461,3787.27,0.49622942653719426
462,3790.0,0.5072681108380892
463,3792.7300000000005,0.4913264951389841
464,3795.46,0.470267279439879
465,3798.19,0.426673463740774
466,3800.92,0.4141149480416688
467,3801.8939600000003,0.42560021411701965
468,3803.65,0.4463427164424394
469,3806.3799999999997,0.524257321834346
470,3809.11,0.4890594272262528
471,3811.84,0.5267049326181594
472,3814.5699999999997,0.5066889380100662
473,3817.3,0.5550338434019729
474,3820.0299999999997,0.43501064879387963
475,3822.76,0.4540911541857864
476,3825.49,0.40521365957769306
477,3828.22,0.5154096649695998
478,3830.9500000000003,0.4104460703615065
479,3833.69,0.47293249225668027
480,3836.4199999999996,0.402668897648587
481,3839.15,0.44659220304049374
482,3841.8799999999997,0.4049577084324004
483,3844.61,0.4568811138243071
484,3847.34,0.5047984192162138
485,3850.0699999999997,0.44145992460812056
486,3852.8,0.4598075300000273
487,3855.5299999999997,0.544964935391934
488,3858.26,0.5737431407838407
489,3860.9900000000002,0.5113939461757474
490,3863.72,0.47988465156765414
491,3866.4500000000003,0.5679246569595608
492,3869.18,0.5259358623514676
493,3871.91,0.5918320677433743
494,3874.64,0.564096873135281
495,3877.37,0.5164285785271877
496,3880.1000000000004,0.5344342839190944
497,3882.83,0.5221373893110011
498,3885.56,0.5051625947029078
499,3888.3,0.3847344165980816
500,3891.0299999999997,0.4083461219899883
501,3893.76,0.530877627381895
502,3896.4900000000002,0.5346175327738018
503,3899.22,0.43874143816570843
504,3901.9500000000003,0.5141276435576152
505,3904.68,0.5156446489495219
506,3907.41,0.5102241543414286
507,3910.14,0.4611025597333353
508,3912.87,0.5109618651252421
509,3915.6000000000004,0.5332912705171488
510,3918.33,0.47067327590905544
511,3921.06,0.5391221813009621
512,3923.79,0.5121319866928689
513,3926.52,0.5228215920847756
514,3929.2500000000005,0.5174010974766823
515,3931.98,0.436682102868589
516,3934.71,0.4160797082604957
517,3937.44,0.4068362136524024
518,3940.18,0.44167063554757624
519,3942.91,0.467236640939483
520,3945.6400000000003,0.5018285463313896
521,3948.37,0.47916215172329635
522,3951.1000000000004,0.48122865711520313
523,3953.83,0.5181046625071098
524,3956.56,0.5262660678990165
525,3959.29,0.49479347329092327
526,3962.02,0.5116509786828299
527,3964.75,0.4627369840747366
528,3967.48,0.38675708946664333
529,3970.21,0.3871503948585501
530,3972.9399999999996,0.3996720002504568
531,3975.67,0.4049996056423635
532,3978.4,0.4106571110342702
533,3981.13,0.4537134164261769
534,3983.86,0.5357319218180836
535,3986.5899999999997,0.5326809272099904
536,3989.32,0.544042332601897
537,3992.0499999999997,0.5506891379938038
538,3994.7899999999995,0.5286552598889775
539,3997.52,0.5520472652808843
540,4000.25,0.496550070672791
541,4002.98,0.5438444760646977
542,4005.71,0.5409521814566044
543,4008.4399999999996,0.5438004868485111
544,4011.17,0.5593633922404179
545,4013.9,0.5535764976323246
546,4016.63,0.5905503030242313
547,4019.36,0.621966708416138
548,4022.0899999999997,0.5885888138080447
549,4024.82,0.5429847191999515
550,4027.5499999999997,0.5614301245918581
551,4030.28,0.5734755299837648
552,4033.01,0.5626442353756715
553,4035.74,0.5753979407675783
554,4038.4700000000003,0.566264446159485
555,4041.2,0.5761968515513918
556,4043.93,0.5399240569432985
557,4046.6600000000003,0.5550839623352051
558,4049.4,0.5368119842303789
559,4052.13,0.6165584896222855
560,4054.86,0.6068264950141923
561,4057.5899999999997,0.556520300406099
562,4060.32,0.5664281057980058
563,4063.05,0.6174722111899125
564,4065.7799999999997,0.5381336165818192
565,4068.51,0.547186521973726
566,4071.24,0.5672196273656327
567,4073.9700000000003,0.5976224327575393
568,4076.7,0.5650261381494461
569,4079.43,0.5756546435413528
570,4082.1600000000003,0.5571286489332594
571,4084.89,0.5234208543251662
572,4087.6200000000003,0.5391303597170729
573,4090.35,0.6101198651089796
574,4093.08,0.5874166705008863
575,4095.81,0.546246175892793
576,4098.54,0.5536746812846998
577,4101.27,0.5669780866766064
578,4104.01,0.5741597085717802
579,4106.74,0.513471613963687
580,4109.47,0.5143046193555937
581,4112.2,0.5246888247475004
582,4114.93,0.5493266301394071
583,4117.66,0.5354541355313138
584,4120.39,0.49336764092322055
585,4123.12,0.5395751463151273
586,4125.849999999999,0.5258858517070341
587,4128.58,0.5256074570989407
588,4131.31,0.5291152624908474
589,4134.04,0.5428582678827542
590,4136.77,0.5429828732746608
591,4139.5,0.5441700786665675
592,4142.2300000000005,0.5616138840584742
593,4144.96,0.549854489450381
594,4147.69,0.5375086948422877
595,4150.42,0.5511662002341944
596,4153.15,0.5119744056261011
597,4155.889999999999,0.5637244275212749
598,4158.62,0.5532963329131816
599,4161.349999999999,0.5969021383050883
