,lambda (Angstroms),Total Flux (erg/s/cm^2/Angstrom)
0,100.1,0.0017524413529325877
1,101.96000000000001,0.0021047494455178808
2,104.10000000000001,0.002508522645589129
3,104.712855,0.0026245168824834465
4,106.03,0.00241968683095002
5,108.0,0.002113781393720069
6,110.01,0.0018085977392367173
7,113.88000000000001,0.0012092807574702648
8,117.88,0.0005887639721302649
9,120.22644299999999,0.0002805478472184199
10,120.9,0.00029281602388245135
11,124.86,0.00028482399039640163
12,126.89,0.00027990179621037106
13,128.07,0.0002775947685554371
14,131.05,0.00027089865295229856
15,131.96,0.0002841944934895952
16,134.1,0.0002789966789289523
17,136.91,0.00029333167663203315
18,138.038426,0.0002921477522841235
19,140.1,0.00030441634923278625
20,143.03,0.0004935407363109083
21,147.04,0.0007876757363734576
22,151.16,0.0008513108451659022
23,155.04,0.0009266276621840298
24,158.489319,0.001000315413095752
25,159.01,0.001011367125112749
26,161.97,0.001072597252841484
27,166.11999999999998,0.0011658750890152173
28,169.99,0.0012482021820254216
29,173.15,0.001321956854870963
30,177.19,0.001412630006230453
31,180.07,0.0014800239359124656
32,181.970086,0.0015290844754411814
33,182.14999999999998,0.0015338235287371692
34,185.97,0.0016308595859213482
35,191.18,0.0017540817790966294
36,193.83999999999997,0.0018399138450939895
37,197.89000000000001,0.001947843047082452
38,202.04,0.00205259392072495
39,204.85,0.0021385249942033648
40,208.929613,0.002188845864152736
41,210.10000000000002,0.0022040345894727047
42,215.99,0.0024457390855215947
43,220.01,0.002573832571789258
44,223.07,0.0026412063150676288
45,227.21,0.002773239144208954
46,229.84,0.004186089992190037
47,234.11999999999998,0.006934770554683968
48,239.88329199999998,0.009125169371315894
49,240.11999999999998,0.009214800495946581
50,246.28,0.008838810652564788
51,252.01999999999998,0.009420296048504478
52,256.7,0.0075760883817793485
53,260.28,0.009244188008515255
54,263.9,0.009809394279125304
55,268.8,0.009851558153707966
56,273.8,0.009848529637975991
57,275.42287,0.009825929477975621
58,278.89,0.00978219037950939
59,284.08,0.009875301867247128
60,290.02,0.009458808939918061
61,296.1,0.009550052761776527
62,300.91,0.009083870073148108
63,307.92,0.00932014530032374
64,316.227766,0.009539114389129215
65,318.01000000000005,0.00958399933561922
66,327.66999999999996,0.009492268654404787
67,337.62,0.009315324213609383
68,347.88,0.009099390098779149
69,356.81,0.009073993295130612
70,363.078055,0.009128070605592774
71,365.96,0.009155478077416415
72,375.34999999999997,0.008992575986536817
73,384.97999999999996,0.008495909749564452
74,394.84999999999997,0.008696640366499317
75,404.98,0.008700274575167014
76,414.40999999999997,0.008526940959938622
77,416.86938299999997,0.008448053118334443
78,422.12,0.00827882030108149
79,429.97,0.00807514952394588
80,441.0,0.008022646921168072
81,451.27,0.007825920899361355
82,459.66,0.007564506472588387
83,470.36,0.007396374266811185
84,478.630092,0.007327999902964561
85,480.21000000000004,0.007314090148800938
86,490.27000000000004,0.0070007993116631565
87,500.53000000000003,0.006997758603011703
88,506.33,0.006791538329115169
89,512.19,0.007221240793764534
90,520.52,0.0070235694952200285
91,530.1899999999999,0.006753321357533912
92,540.05,0.006346540391909804
93,549.5408739999999,0.00615498283958047
94,550.09,0.0061440123753382665
95,560.3199999999999,0.00629922497630572
96,569.42,0.006284202516755753
97,580.01,0.006085123455587163
98,589.4300000000001,0.0059877672963607135
99,600.39,0.005654210582441191
100,610.15,0.005008824742308479
101,620.06,0.005613714042952415
102,630.14,0.00538642250314322
103,630.957344,0.005387336889842452
104,640.37,0.005400056398239341
105,649.28,0.005231454141503224
106,658.32,0.005033252243535267
107,664.41,0.005103537435059066
108,675.1999999999999,0.005035642212816338
109,684.5999999999999,0.0047363223852832865
110,695.7199999999999,0.004813955227605888
111,705.4000000000001,0.004487142788188872
112,715.21,0.004633657707540016
113,724.43596,0.004568570708877
114,726.8299999999999,0.004551543525019113
115,735.2499999999999,0.004480212224698921
116,745.48,0.004340512437017737
117,755.85,0.004234357285673272
118,764.6,0.003849949056718202
119,775.24,0.004066078418308837
120,784.21,0.0038864299035971835
121,795.12,0.0038871677781229194
122,804.33,0.0038441904971313547
123,815.52,0.0037844326443305285
124,824.96,0.0037258238373207167
125,831.763771,0.0034913074657966603
126,834.52,0.003395638241337767
127,844.1800000000001,0.0035674562893932907
128,855.92,0.003477783834338617
129,865.8299999999999,0.0034446724757703196
130,875.86,0.003388798242022587
131,886.0,0.0033189267893603725
132,894.2,0.0032652166520990163
133,904.55,0.0031832914178727915
134,915.03,0.00318875465220218
135,925.62,0.005306168667617087
136,934.19,0.007491201248552473
137,945.01,0.009591471169873465
138,954.992586,0.010652999697540737
139,955.95,0.010754942725265755
140,964.79,0.011573961305366224
141,975.96,0.0060660928890452145
142,985.0,0.010224882233401353
143,994.11,0.009788741745246974
144,1005.62,0.011310272428160595
145,1014.93,0.011155388704261884
146,1024.32,0.0071344988860654384
147,1036.18,0.009720519406426478
148,1045.76,0.012568531614272915
149,1055.44,0.012170648204247186
150,1065.21,0.010702582438136508
151,1075.06,0.011491774577728096
152,1085.01,0.00969709809944752
153,1095.05,0.01151749126508199
154,1096.4782,0.011444642464193402
155,1105.18,0.011000300897611398
156,1115.41,0.01074979270604439
157,1125.73,0.009783747140358026
158,1136.1499999999999,0.010997523381205711
159,1144.02,0.0104074285554352
160,1154.61,0.010454640867390763
161,1165.29,0.010405745805226968
162,1176.07,0.008010224549597222
163,1184.22,0.009914685782122038
164,1195.18,0.008481438778253577
165,1206.24,0.00727232358091916
166,1214.6,0.0052037886071654785
167,1225.84,0.008079806661592347
168,1234.34,0.00946567221698633
169,1245.76,0.009751638523174483
170,1254.3899999999999,0.009485899427062726
171,1258.92541,0.009286785059777338
172,1266.0,0.008976816050207623
173,1274.78,0.009817890219685932
174,1283.6100000000001,0.009908720680562177
175,1295.49,0.00869306191671278
176,1304.47,0.008653194251782848
177,1313.51,0.009573270936530445
178,1325.6699999999998,0.009206671804509512
179,1334.86,0.008554787363450929
180,1344.1100000000001,0.009228131272069874
181,1356.54,0.00899800971359782
182,1365.95,0.008399241554690174
183,1375.42,0.008437772745460058
184,1384.95,0.008399369285907466
185,1394.55,0.0071037972343119945
186,1404.2199999999998,0.007071396590673638
187,1413.9499999999998,0.00785861629671281
188,1423.75,0.007733510410709098
189,1433.62,0.007804778932662502
190,1443.5600000000002,0.007931234862573024
191,1445.43977,0.007920998531065418
192,1446.89,0.007913099911371865
193,1453.5600000000002,0.007698119536649728
194,1463.6399999999999,0.0073362648414174725
195,1473.7900000000002,0.007285933488579438
196,1484.0,0.007302559429222163
197,1494.29,0.00723600476117257
198,1504.6499999999999,0.006943398435517197
199,1511.59,0.006452128381458482
200,1518.57,0.006647252523053607
201,1525.58,0.006556444811389112
202,1536.15,0.0059003955129164004
203,1543.2399999999998,0.005793264192559585
204,1553.94,0.005623048529961855
205,1564.71,0.005886914209758344
206,1575.56,0.006134914280862514
207,1586.48,0.006219960694360904
208,1593.8,0.006277363499013671
209,1604.85,0.006079110548387042
210,1615.9699999999998,0.006023636940154634
211,1623.4299999999998,0.005833545429595842
212,1634.68,0.006023744457238415
213,1646.02,0.006023719925102128
214,1653.6100000000001,0.005780438050418316
215,1659.58691,0.005914467836044893
216,1665.08,0.006037817501936473
217,1672.76,0.00558551483602234
218,1676.6200000000001,0.006321512717476955
219,1684.3600000000001,0.0063655451947978664
220,1696.03,0.006038981054014279
221,1703.8600000000001,0.00591620774618776
222,1715.67,0.005835701606285946
223,1723.5900000000001,0.005822622513311996
224,1735.5400000000002,0.0061521053742919565
225,1743.5500000000002,0.0060132424961705745
226,1755.6299999999999,0.0063534500008264674
227,1763.74,0.005837394694763495
228,1775.96,0.006014421200301162
229,1784.1599999999999,0.006125768109090758
230,1796.53,0.00660732997271604
231,1804.82,0.006487735096358204
232,1813.15,0.006211534648823734
233,1825.72,0.006240504656565834
234,1834.1499999999999,0.006071730781089773
235,1846.86,0.005440347789713648
236,1855.39,0.005774257486295995
237,1863.95,0.006213327254495867
238,1876.87,0.006328714764442402
239,1885.53,0.006073595104700682
240,1894.24,0.006214412230988169
241,1902.98,0.006286331428893177
242,1905.46072,0.0062891507144187085
243,1916.17,0.006300445941105579
244,1925.02,0.005908852449667165
245,1933.9,0.005257585576901842
246,1942.8300000000002,0.006639812401925001
247,1956.29,0.00647404964658477
248,1965.3200000000002,0.007226281867184897
249,1974.4,0.007013709785573508
250,1983.51,0.007126588322635209
251,1997.2599999999998,0.007093548214468182
252,2006.48,0.006916325686664546
253,2015.74,0.006995720317091697
254,2025.04,0.0065155421057496365
255,2034.39,0.007223104592196057
256,2043.78,0.007754785236873266
257,2053.21,0.007305427039781261
258,2062.69,0.007188695540477741
259,2072.21,0.008117513199405004
260,2076.99,0.010449103107984031
261,2086.58,0.011559581543815176
262,2096.21,0.010789538137877105
263,2105.88,0.010352192890169821
264,2115.6,0.01129585534025102
265,2125.37,0.010422805488120704
266,2135.1800000000003,0.009728436794221175
267,2145.03,0.011610250258552432
268,2154.94,0.011609733960229868
269,2164.88,0.010397036280580396
270,2174.8700000000003,0.010516726298719407
271,2184.91,0.012294964014646902
272,2187.7616199999998,0.012375582452987905
273,2195.0,0.012580818440143063
274,2205.1299999999997,0.012126940319740608
275,2215.31,0.010021888034874171
276,2225.53,0.01106277921843655
277,2235.81,0.013889236604642153
278,2246.13,0.013144245459276572
279,2256.49,0.010615835782339806
280,2266.91,0.010139628308046263
281,2277.37,0.010913322302181538
282,2282.62,0.013637935033463581
283,2293.16,0.011638611964456485
284,2303.74,0.013636490363878205
285,2314.38,0.012043980965943148
286,2325.06,0.009726559036436908
287,2335.79,0.009099176942466685
288,2346.57,0.006798751684032482
289,2357.41,0.011314600628241505
290,2362.84,0.007298578967453217
291,2373.75,0.009116834481412667
292,2384.7,0.00596454846380093
293,2395.71,0.007180356648832417
294,2406.77,0.007146766669399924
295,2412.32,0.008163208413898084
296,2423.4500000000003,0.01279946500421602
297,2434.6400000000003,0.012710125797177176
298,2445.87,0.014891348058567148
299,2457.16,0.015518182522600345
300,2462.83,0.013896900672384953
301,2474.2,0.01224626807327578
302,2485.62,0.008482095309702628
303,2497.0899999999997,0.009665779381665495
304,2502.85,0.014312049835414937
305,2511.88643,0.008791484296470004
306,2514.4,0.007255757856428928
307,2520.2000000000003,0.005890183449940096
308,2526.0,0.006425008043451265
309,2537.66,0.009528413377992682
310,2543.5099999999998,0.010067042261103085
311,2555.25,0.016566585459003278
312,2567.05,0.012806257804422549
313,2572.97,0.01596456369297188
314,2584.8399999999997,0.014328155043830082
315,2596.77,0.012978325542207365
316,2602.76,0.011281170436195623
317,2614.77,0.010172339797931682
318,2626.8399999999997,0.013739188307186817
319,2632.9,0.022259742206614006
320,2645.0499999999997,0.029872449579227918
321,2657.26,0.04000288609936091
322,2663.39,0.026744459004227027
323,2675.68,0.030134674387718795
324,2688.03,0.03443166891872964
325,2694.23,0.025413630829034688
326,2706.6600000000003,0.030893654223404312
327,2712.8999999999996,0.02269829556538874
328,2725.42,0.018795717681036987
329,2738.0,0.02343222894420431
330,2744.32,0.013496559149547517
331,2756.98,0.01819212927607362
332,2763.34,0.02358595891309621
333,2776.09,0.025324157760900932
334,2782.4900000000002,0.015341316829602913
335,2795.34,0.006837223256606105
336,2801.7799999999997,0.008269738756987471
337,2814.7100000000005,0.022406789047349437
338,2827.71,0.032219854343150334
339,2834.2200000000003,0.030207371848970623
340,2847.31,0.02234478586605014
341,2853.87,0.01338240266146967
342,2867.04,0.03012307554190796
343,2873.6499999999996,0.03951476162692672
344,2884.0315,0.03692049085211276
345,2886.92,0.036198713286525894
346,2893.5699999999997,0.04331298135290384
347,2906.93,0.05786994746821349
348,2927.0800000000004,0.05085768160919325
349,2947.3700000000003,0.04723364570946518
350,2967.7999999999997,0.049105869769029274
351,2988.3700000000003,0.05000320378788553
352,3009.08,0.05033651776603396
353,3029.94,0.05342349170056686
354,3050.9399999999996,0.056181455594391916
355,3072.09,0.06031997944460144
356,3093.39,0.058794443251195434
357,3107.66,0.06702170910190416
358,3129.21,0.062243872835805604
359,3150.8999999999996,0.0617974565289992
360,3172.74,0.06820679017857727
361,3187.38,0.059807875921701024
362,3209.48,0.06616240949567882
363,3231.7200000000003,0.05669157302894879
364,3246.64,0.07786846869065689
365,3269.14,0.09040598214832658
366,3291.81,0.08872875555656536
367,3307.0,0.08336400113976548
368,3311.31121,0.08153668533469993
369,3322.26,0.07689595902836517
370,3329.92,0.08666410645096909
371,3337.6,0.08237618376240487
372,3345.2900000000004,0.08161248101825659
373,3353.0,0.07546157816294016
374,3360.74,0.08642764514087153
375,3368.48,0.08367910211880292
376,3376.25,0.06570637892998207
377,3384.03,0.07039552568557719
378,3391.83,0.08540120233000416
379,3399.65,0.08778320886326299
380,3407.4900000000002,0.08557982528535368
381,3415.34,0.08228732165186033
382,3423.21,0.0973338579071988
383,3431.11,0.0929433639957851
384,3439.02,0.09207992002878732
385,3446.94,0.06225675600620547
386,3454.89,0.09079721181687142
387,3462.85,0.07534506757195329
388,3470.84,0.08472059316028296
389,3478.84,0.06807413869302857
390,3486.86,0.08277379411460606
391,3494.9,0.07479391942501538
392,3502.9500000000003,0.09178716467984066
393,3511.03,0.09177807976791373
394,3519.12,0.09092592480040272
395,3527.23,0.07090477972172358
396,3535.36,0.0909055045318763
397,3543.52,0.10435583917527683
398,3551.68,0.10080269381867735
399,3559.87,0.09493731829532566
400,3568.08,0.08920513266080585
401,3576.3,0.07895251697070195
402,3584.55,0.060304401113845864
403,3592.81,0.07199013520140571
404,3601.09,0.1045126191777974
405,3609.39,0.08494692304302098
406,3617.71,0.09334379679707641
407,3626.05,0.0972804304399637
408,3634.4100000000003,0.08336711397168287
409,3642.7900000000004,0.11347808739223389
410,3651.19,0.08667315070161678
411,3659.6,0.11989629395541561
412,3668.04,0.11581224704246222
413,3676.4999999999995,0.12097500001834069
414,3684.9700000000003,0.10248585293863512
415,3693.47,0.11287700569217732
416,3701.9800000000005,0.12149145839013546
417,3710.52,0.0848259909213414
418,3719.0699999999997,0.12543926339696326
419,3727.64,0.098494815761417
420,3736.23,0.0849916180147026
421,3744.85,0.10722412010123598
422,3753.48,0.06812506213218532
423,3762.13,0.08694040405196651
424,3770.81,0.0927172658049955
425,3779.5,0.11430882750244041
426,3788.21,0.12853247908871718
427,3796.9399999999996,0.09682634056382583
428,3801.8939600000003,0.10463908684646858
429,3805.7000000000003,0.11064148628018651
430,3814.47,0.11908644769002424
431,3823.26,0.08606975901185705
432,3832.08,0.07109119020168246
433,3840.9100000000003,0.06558155134750542
434,3849.7599999999998,0.10295889240532342
435,3858.64,0.09876821333113406
436,3867.53,0.1070403142129422
437,3876.4500000000003,0.08521728496274296
438,3885.3900000000003,0.09385426562453879
439,3886.15,0.1275844322803514
440,3887.92,0.131061224491915
441,3889.69,0.12141071670347861
442,3891.4500000000003,0.11813430895904468
443,3893.22,0.1466184011706083
444,3894.99,0.1329131933821719
445,3896.76,0.1545844855937355
446,3898.53,0.1529680778052991
447,3900.2999999999997,0.1366118700168627
448,3902.07,0.14872976222842632
449,3903.84,0.1248832544399899
450,3905.61,0.12901664665155352
451,3907.37,0.1282900389071196
452,3909.14,0.1257694311186832
453,3910.9100000000003,0.1651525233302468
454,3912.68,0.16890051554181038
455,3914.45,0.137436807753374
456,3916.2200000000003,0.1420143999649376
457,3917.9900000000002,0.13149409217650118
458,3919.7599999999998,0.1310954843880648
459,3921.5299999999997,0.12227887659962841
460,3923.3,0.12083986881119202
461,3925.0600000000004,0.11257916106675808
462,3926.83,0.08074583327832167
463,3928.6,0.061562985489885286
464,3930.3700000000003,0.0640289077014489
465,3932.14,0.053224919913012494
466,3933.91,0.07367676212457609
467,3935.68,0.07147587433613971
468,3937.4500000000003,0.0703178765477033
469,3939.22,0.0873425487592669
470,3940.99,0.11017409097083052
471,3942.75,0.09414472322639657
472,3944.5200000000004,0.1254203754379602
473,3946.29,0.1308236676495238
474,3948.06,0.1348754598610874
475,3949.83,0.136539252072651
476,3951.6,0.1230289442842146
477,3953.37,0.13415483649577822
478,3955.14,0.1334223287073418
479,3956.9100000000003,0.1261090209189054
480,3958.68,0.130487213130469
481,3960.44,0.10974620538603508
482,3962.21,0.08103545759759868
483,3963.9799999999996,0.07234177980916229
484,3965.75,0.05854192202072589
485,3967.52,0.05195111423228949
486,3969.29,0.06902834644385308
487,3971.06,0.0782930286554167
488,3972.83,0.0924761208669803
489,3974.6,0.1029917430785439
490,3976.3599999999997,0.11325463533410998
491,3978.13,0.13687442754567358
492,3979.9,0.1375568197572372
493,3981.67,0.13426791196880078
494,3983.4399999999996,0.14328600418036438
495,3985.21,0.148781496391928
496,3986.98,0.1549303886034916
497,3988.75,0.1537045808150552
498,3990.52,0.1622119730266188
499,3992.29,0.1532895652381824
500,3994.05,0.16657305749374848
501,3995.8199999999997,0.16927944970531209
502,3997.5899999999997,0.16490934191687567
503,3999.36,0.15640163412843927
504,4001.13,0.16368982634000287
505,4002.8999999999996,0.16047181855156648
506,4004.67,0.15011851076313007
507,4006.44,0.1678350029746937
508,4008.21,0.16578799518625728
509,4009.98,0.1598911873978209
510,4011.74,0.16946227965338698
511,4013.51,0.17147967186495058
512,4015.2799999999997,0.17737256407651417
513,4017.0499999999997,0.1656775562880778
514,4018.82,0.16224654849964137
515,4020.59,0.167710240711205
516,4022.3599999999997,0.16188363292276858
517,4024.13,0.1727889251343322
518,4025.9,0.1743824173458958
519,4027.6600000000003,0.15013480960146186
520,4029.43,0.15244000181302547
521,4031.2,0.15834339402458908
522,4032.9700000000003,0.1569634862361527
523,4034.74,0.1648521784477163
524,4036.5099999999998,0.1664457706592799
525,4038.28,0.1601500628708435
526,4040.05,0.1634946550824071
527,4041.8199999999997,0.1551796472939707
528,4043.59,0.1601084395055343
529,4045.35,0.14873683176110036
530,4047.1200000000003,0.14167432397266397
531,4048.89,0.15403991618422758
532,4050.66,0.15483040839579118
533,4052.4300000000003,0.16203090060735478
534,4054.2,0.16535299281891838
535,4055.97,0.16288058503048197
536,4057.7400000000002,0.15287407724204558
537,4059.51,0.1460706694536092
538,4061.2799999999997,0.1442601616651728
539,4063.04,0.15735545392073885
540,4064.81,0.15829404613230247
541,4066.5800000000004,0.15231713834386607
542,4068.35,0.1453006305554297
543,4070.12,0.15512492276699327
544,4071.8900000000003,0.1446953149785569
545,4073.66,0.1535473071901205
546,4075.43,0.1578876994016841
547,4077.2000000000003,0.1439331916132477
548,4078.9700000000003,0.15855598382481131
549,4080.73,0.1792686760803774
550,4082.5,0.176485868291941
551,4084.27,0.17288406050350455
552,4086.0400000000004,0.17713605271506816
553,4087.81,0.17184894492663177
554,4089.58,0.17793813713819537
555,4091.3500000000004,0.18293352934975898
556,4093.12,0.17222432156132259
557,4094.89,0.1657111137728862
558,4096.66,0.1532818059844498
559,4098.42,0.15010079824001585
560,4100.1900000000005,0.15155769045157946
561,4101.96,0.15898028266314307
562,4103.73,0.16074527487470666
563,4105.5,0.15642806708627027
564,4107.27,0.16961555929783387
565,4109.04,0.1708895515093975
566,4110.8099999999995,0.16336474372096108
567,4112.58,0.17519543593252468
568,4114.34,0.18208412818809078
569,4116.11,0.17620682039965438
570,4117.88,0.17047771261121797
