,lambda (Angstroms),Total Flux (erg/s/cm^2/Angstrom)
0,100.00999999999999,1.5918843994613638
1,102.10000000000001,1.5869087612647679
2,104.0,1.582385453885136
3,104.712855,1.5806883685616844
4,105.94,1.5653424199601522
5,107.89999999999999,1.5408318211502856
6,109.91000000000001,1.5156959531986867
7,114.03999999999999,1.4640486219264777
8,118.04,1.414026995375166
9,120.22644299999999,1.3866846739024397
10,121.07,1.3778404399452682
11,125.03999999999999,1.3362171158293135
12,127.07,1.3149336527364748
13,127.95,1.3057073280503548
14,130.93,1.2744636269116703
15,132.14,1.2617774490034301
16,133.98,1.2424860426788609
17,137.1,1.2097745662901254
18,138.038426,1.1999356811159705
19,139.97,1.1854602488402937
20,142.9,1.1635031369337152
21,146.91,1.1334535035049595
22,151.02,1.1026530851269927
23,154.9,1.073576414021411
24,158.489319,1.0466781743708387
25,158.86999999999998,1.0445214119541877
26,161.82,1.027808113162183
27,165.97,1.0042962968321427
28,169.84,0.9823708451867773
29,173.0,0.9644679267990164
30,177.03,0.9416361116199796
31,179.89999999999998,0.925376313237311
32,181.970086,0.9136483810390463
33,181.99,0.9135623103259911
34,185.79999999999998,0.8970951361891344
35,191.0,0.8746202544540543
36,194.11,0.861178718281612
37,198.17000000000002,0.8436311803016072
38,201.85999999999999,0.8276831365220216
39,205.14000000000001,0.8135069094412787
40,208.929613,0.7971276934868107
41,209.91,0.7939420439979512
42,215.79000000000002,0.7748377223256045
43,219.81,0.7617762268876737
44,222.86,0.751866048765164
45,227.01,0.73838239684929
46,230.17,0.7281293811754439
47,233.91,0.7160086060600057
48,239.88329199999998,0.6966202173851929
49,239.91,0.6965534364507128
50,246.06,0.6811521751829211
51,251.79,0.6668141664434665
52,257.06,0.653603335733619
53,260.04,0.6461578859439898
54,264.27,0.6355737735871673
55,269.18,0.6232821587987515
56,274.18,0.610764709989978
57,275.42287,0.6076532020071583
58,279.28000000000003,0.6002430803268133
59,283.82,0.5915215640121971
60,289.76,0.5801035378974791
61,295.83000000000004,0.5684445081684657
62,301.33,0.5578762560252083
63,308.35,0.5443911966532688
64,316.227766,0.5292593006295698
65,317.72,0.5271188143359693
66,328.13,0.5121818464036655
67,338.1,0.4978747386515935
68,348.37,0.4831363181129998
69,357.31,0.4703071011146524
70,363.078055,0.4620305411618137
71,365.63,0.4592886075096854
72,375.01,0.4492072729112398
73,384.63,0.43886292104481683
74,395.4,0.4272933074568361
75,404.60999999999996,0.4173961227607077
76,414.04,0.4072598206439334
77,416.86938299999997,0.4042179309461749
78,421.74,0.4002189314175753
79,429.58000000000004,0.39378328677082053
80,440.6,0.38473839473851984
81,450.86,0.37631476221534343
82,460.3,0.36856428616516934
83,469.94,0.36065005710206793
84,478.630092,0.3535168719381682
85,479.78,0.352790956343139
86,489.82,0.3464484872560861
87,500.08,0.3399728018691176
88,505.87,0.33631453137588696
89,511.73,0.3326258613872285
90,520.04,0.3273787141586021
91,529.7099999999999,0.3212706183759525
92,539.56,0.31504580254791753
93,549.5408739999999,0.30874593351708024
94,549.59,0.3087222811249454
95,559.8100000000001,0.3038057520024471
96,570.22,0.2987964852768888
97,579.48,0.2943323221803786
98,590.26,0.28914533795938724
99,599.85,0.28452129031019374
100,609.59,0.2798164284006895
101,619.5,0.2750683405094999
102,629.56,0.2702235267579997
103,630.957344,0.26955064215646746
104,639.79,0.26617903124033837
105,650.1899999999999,0.26221205673196984
106,657.72,0.2593374627156222
107,665.3299999999999,0.25643738886151796
108,674.59,0.25290175911618207
109,685.5500000000001,0.24870952914351677
110,695.09,0.2450898090160325
111,704.76,0.2413869885146937
112,716.21,0.2370358650482687
113,724.43596,0.23389741167953132
114,726.17,0.2334064471744443
115,734.5799999999999,0.23102694182133246
116,744.8000000000001,0.22814296571636175
117,755.16,0.22521482345378876
118,765.67,0.22223170623664182
119,774.53,0.21974461511980814
120,785.3100000000001,0.21669828418442813
121,794.4,0.21413119933724778
122,805.45,0.21100889918363466
123,814.78,0.20837131530913602
124,824.2099999999999,0.2057197338649214
125,831.763771,0.2035445878180021
126,835.6800000000001,0.20269717732229403
127,845.36,0.20070827766394023
128,855.15,0.19864094821401418
129,865.05,0.19656443607251595
130,875.07,0.19446367034930254
131,885.2,0.19234686903451698
132,895.45,0.19019394633801626
133,905.8199999999999,0.18799392075980045
134,914.2,0.18645136532002715
135,924.7800000000001,0.18800413624880985
136,935.4899999999999,0.19112430630573451
137,944.15,0.19862041584195925
138,954.992586,0.20518800754231842
139,955.0799999999999,0.2052413561319656
140,963.9200000000001,0.20542257367284072
141,975.0799999999999,0.17738875907964693
142,984.1,0.19406656649805118
143,995.5,0.19498568540822955
144,1004.71,0.20862836197513682
145,1014.0100000000001,0.20631608398080858
146,1025.75,0.18049917010409755
147,1035.24,0.18754814025827232
148,1044.8200000000002,0.21529524585121168
149,1054.48,0.21238517961194178
150,1064.24,0.19619391608241027
151,1074.0900000000001,0.20411219799164332
152,1084.03,0.18903939533964098
153,1094.06,0.20354140812640314
154,1096.4782,0.20253331938262534
155,1104.18,0.1996119668156407
156,1114.3999999999999,0.19490615170415376
157,1124.71,0.18739567314256567
158,1135.1200000000001,0.2012559440808651
159,1145.62,0.1931938515690635
160,1156.22,0.19617482855714938
161,1164.23,0.19659356149814639
162,1175.01,0.17403117158603004
163,1185.8799999999999,0.19127654822381251
164,1194.1,0.1684083531145735
165,1205.1499999999999,0.15437473285215364
166,1216.3,0.1463989120896214
167,1224.73,0.16577630893014636
168,1236.06,0.1878312012674118
169,1244.63,0.19316857940777937
170,1256.15,0.18696464779483124
171,1258.92541,0.18305888555507555
172,1264.85,0.17501004070751358
173,1273.6200000000001,0.19400865724443855
174,1285.4099999999999,0.19705912457287017
175,1294.32,0.17541471392794444
176,1306.29,0.17315057487971092
177,1315.3500000000001,0.19107707725423087
178,1324.46,0.18613837063523275
179,1333.65,0.17432561562660565
180,1345.99,0.1889963340263382
181,1355.3200000000002,0.18517538183586038
182,1364.71,0.1741539308531609
183,1374.17,0.17761701127953605
184,1383.6999999999998,0.1772897431149859
185,1396.5,0.16571161077435184
186,1406.1799999999998,0.16702143562924737
187,1415.93,0.16719349189321753
188,1425.74,0.16879861936496598
189,1435.62,0.1669725482457891
190,1442.25,0.17070789170528883
191,1445.43977,0.17194703744308967
192,1445.57,0.17200238642263727
193,1455.59,0.16846759373585335
194,1465.68,0.1611609798726148
195,1475.84,0.16045362483292172
196,1486.07,0.16142013861677404
197,1496.3799999999999,0.16227238677039257
198,1503.28,0.15723896366272697
199,1513.7,0.14804087282477402
200,1517.1899999999998,0.15273859845582433
201,1524.19,0.14980251081036647
202,1534.76,0.14004243316572512
203,1545.4,0.1456241043446292
204,1556.11,0.14144092434707872
205,1563.29,0.1416983465335948
206,1574.1299999999999,0.14477760863691438
207,1585.04,0.1475745395637794
208,1596.03,0.14793946486041054
209,1603.39,0.1463095968789006
210,1614.5100000000002,0.14594522427640183
211,1625.6999999999998,0.14109435049744853
212,1633.1999999999998,0.14494639016302943
213,1644.52,0.14516273848494615
214,1655.9199999999998,0.13881221117662912
215,1659.58691,0.14144201494537448
216,1663.57,0.14439935080080774
217,1671.25,0.1355513331452723
218,1675.1,0.14401863787524471
219,1686.7099999999998,0.14704444341160322
220,1694.5,0.14182468989120983
221,1706.24,0.13837885667819078
222,1714.1200000000001,0.13406817017745906
223,1726.0,0.13310183677280266
224,1733.97,0.13716406729173264
225,1745.98,0.13490496513769867
226,1754.04,0.13919938267629034
227,1766.2,0.1323324688883592
228,1774.3500000000001,0.13350587344661255
229,1786.6499999999999,0.13404927946704406
230,1794.9,0.13860956960269932
231,1803.19,0.1376567639693153
232,1815.68,0.13092181258681038
233,1824.0700000000002,0.13212178253082826
234,1836.71,0.12870854951442617
235,1845.1899999999998,0.12283779647810576
236,1853.7,0.1224608691150059
237,1866.55,0.12361075581114772
238,1875.1699999999998,0.12881342258318998
239,1883.82,0.12271952502845274
240,1896.8799999999999,0.11965652143713854
241,1905.46072,0.12267753883876081
242,1905.64,0.12274349106083586
243,1914.43,0.1198934058721416
244,1923.27,0.11862797358908617
245,1936.6,0.11996006623239736
246,1945.54,0.12208885976061959
247,1954.52,0.11764818961335287
248,1968.0700000000002,0.1230372670414749
249,1977.15,0.12449004270548583
250,1986.28,0.12045697127513559
251,1995.45,0.11832316616929642
252,2004.66,0.1199336773879683
253,2013.9099999999999,0.11712956493115124
254,2023.21,0.11995161537997301
255,2037.2299999999998,0.11572849212110004
256,2046.64,0.1179763949623272
257,2056.08,0.11439293754693769
258,2065.5699999999997,0.114239853037187
259,2075.11,0.11853765143307513
260,2079.89,0.11519145721214698
261,2084.68,0.11756534957234659
262,2094.31,0.1136444371983846
263,2103.97,0.11362025456780593
264,2113.69,0.11386009142399384
265,2123.44,0.11437871802356504
266,2133.2400000000002,0.10952721752877508
267,2143.09,0.11062162993962393
268,2152.98,0.11269277867498387
269,2162.92,0.11028042031598262
270,2172.9,0.10932982828149243
271,2182.93,0.10787504915264108
272,2187.7616199999998,0.10903193635653013
273,2193.0099999999998,0.11036218994035984
274,2203.13,0.10836529226711172
275,2213.3,0.10517677844923293
276,2223.52,0.10319152848672346
277,2233.7799999999997,0.10657063560850946
278,2244.09,0.10390780658566479
279,2254.4500000000003,0.10111388141818942
280,2264.85,0.10209832333500954
281,2275.31,0.10323559587827283
282,2285.81,0.1045399455058316
283,2296.36,0.1009537889887597
284,2306.96,0.10087516632705712
285,2317.61,0.09801000752072385
286,2322.95,0.08692809327416803
287,2333.67,0.09399869186535184
288,2344.45,0.09254145108297884
289,2355.27,0.0960515373849013
290,2366.14,0.0916943675421931
291,2377.06,0.0928185015548542
292,2382.54,0.08936979210333248
293,2393.54,0.09217288028458452
294,2404.59,0.09010329232120588
295,2415.69,0.09099931821319658
296,2426.84,0.09365845796055661
297,2432.43,0.09170949299084742
298,2443.66,0.09433425690679836
299,2454.94,0.09343999467811863
300,2466.27,0.09266262630480823
301,2477.65,0.09059089178686716
302,2483.36,0.09144744807004435
303,2494.83,0.08785123449176807
304,2506.34,0.09334510799778725
305,2511.88643,0.0877315198280662
306,2512.12,0.08749686757915483
307,2517.91,0.08887096741140194
308,2523.72,0.08693971028279325
309,2535.3599999999997,0.08760555906472009
310,2547.07,0.08653129848365163
311,2552.94,0.09015127047247556
312,2564.72,0.08848760052841184
313,2576.56,0.09120180970178071
314,2582.5,0.09034041232760937
315,2594.42,0.08941462365755506
316,2606.3999999999996,0.08752752410493336
317,2612.4,0.08681600584819463
318,2624.46,0.08892999845214974
319,2636.58,0.09104983017353749
320,2642.66,0.09534350407337555
321,2654.8500000000004,0.09753570643176801
322,2667.1099999999997,0.09068265942716519
323,2673.25,0.09325039244443586
324,2685.59,0.09335418759640984
325,2697.9900000000002,0.09007593186581644
326,2704.21,0.09191001703966395
327,2716.69,0.08857385346564736
328,2722.96,0.08781269623735538
329,2735.52,0.09033424481991562
330,2748.1499999999996,0.08305076403948056
331,2754.4800000000005,0.08433417592862116
332,2767.2000000000003,0.08613358882433504
333,2773.58,0.08833555831133619
334,2786.38,0.08478312336362687
335,2792.7999999999997,0.07589151892891641
336,2805.69,0.07848124765735601
337,2812.1600000000003,0.08704602082050605
338,2825.14,0.08999576322509459
339,2838.1800000000003,0.0876634747471157
340,2844.7299999999996,0.08560476006684259
341,2857.8599999999997,0.08298393526501265
342,2864.4399999999996,0.08891477514345582
343,2877.67,0.09000164553734688
344,2884.0315,0.0892061965502437
345,2884.3,0.08917434626707685
346,2897.61,0.08972877341011065
347,2910.99,0.09537239045547445
348,2931.17,0.09241388372718158
349,2951.48,0.09099215110321587
350,2971.94,0.091951093984243
351,2992.5400000000004,0.09198556666993017
352,3013.29,0.0922929648606102
353,3027.2,0.09263823402361546
354,3048.18,0.09267851332195123
355,3069.31,0.09355919812527985
356,3090.58,0.09346488273326849
357,3112.01,0.09466100854658283
358,3133.5800000000004,0.09298784416455722
359,3148.0399999999995,0.09320808684586966
360,3169.8599999999997,0.09397774497216548
361,3191.84,0.08978322430378702
362,3206.57,0.09222918089408662
363,3228.7900000000004,0.08823869703369674
364,3251.1800000000003,0.09437074007896547
365,3273.71,0.0976598129288942
366,3288.82,0.09681988613184239
367,3311.31121,0.09581219781012736
368,3311.6200000000003,0.09579975264805458
369,3319.2500000000005,0.09549633200063533
370,3326.9100000000003,0.09659022347386842
371,3334.57,0.09915775494710152
372,3342.26,0.09519954854098694
373,3349.97,0.09868763354864063
374,3357.69,0.0972478592631784
375,3365.43,0.08986315639148443
376,3373.1899999999996,0.08817217493355868
377,3380.96,0.09398831418251705
378,3388.76,0.09807868555212776
379,3396.5699999999997,0.09353661762862259
380,3404.4,0.09858291111888565
381,3412.25,0.09399664602291696
382,3420.11,0.09665998163383237
383,3428.0,0.09666583936540014
384,3435.9,0.09747509780385202
385,3443.82,0.08939876765607213
386,3451.7599999999998,0.09716580892206048
387,3459.72,0.09510126160181705
388,3467.69,0.09447882498845775
389,3475.69,0.0955825904957508
390,3483.7000000000003,0.09495593670992794
391,3491.73,0.09590893433787333
392,3499.78,0.09054035337958696
393,3507.85,0.09786668383506883
394,3515.93,0.09218331499743479
395,3524.04,0.09641167828045312
396,3532.16,0.09739574227035555
397,3540.3,0.09940139767402623
398,3548.4700000000003,0.10164010519834923
399,3556.64,0.09758090272267227
400,3564.84,0.09925975236764763
401,3573.06,0.09066882342639124
402,3581.3,0.09081826589890307
403,3589.55,0.08331520907829902
404,3597.8300000000004,0.09468733437834731
405,3606.12,0.09581658038527974
406,3614.44,0.0931123185128645
407,3622.77,0.08990684734733338
408,3627.3100000000004,0.09940618827272218
409,3630.05,0.08653947195897005
410,3632.79,0.07857257564521791
411,3635.54,0.0997725600383499
412,3638.2799999999997,0.11063410372459778
413,3641.03,0.10274023811772974
414,3643.77,0.07977591180397763
415,3646.51,0.10178893549022548
416,3649.2599999999998,0.09867052988335746
417,3652.0000000000005,0.10323896356960532
418,3654.75,0.10782947796273731
419,3657.49,0.10428176164898519
420,3660.23,0.09727451533523306
421,3662.98,0.10104307972836504
422,3665.7200000000003,0.09232399341461289
423,3668.47,0.0976384878077449
424,3671.2099999999996,0.10038761149399276
425,3673.9500000000003,0.10107801518024062
426,3676.7,0.1035438295733726
427,3679.44,0.10234140325962046
428,3682.19,0.09596709765275245
429,3684.9300000000003,0.09453277133900032
430,3687.67,0.08702779502524818
431,3690.4199999999996,0.10409519941838018
432,3693.16,0.10284375310462804
433,3695.8999999999996,0.10246707679087591
434,3698.65,0.0963812211840079
435,3701.39,0.09469047487025575
436,3704.1400000000003,0.10179976926338774
437,3706.88,0.1027842729496356
438,3709.6200000000003,0.09705713663588347
439,3712.37,0.10059756102901546
440,3715.1099999999997,0.09995883471526334
441,3717.86,0.10869133910839532
442,3720.6,0.12247132279464318
443,3723.34,0.16470422648089103
444,3726.09,0.18784577087402304
445,3728.8300000000004,0.1836760245602709
446,3731.58,0.14539116895340287
447,3734.3199999999997,0.11220112263965075
448,3737.06,0.09755845632589862
449,3739.81,0.1050485707190306
450,3742.55,0.08257817440527845
451,3745.2999999999997,0.09870858879841045
452,3748.0400000000004,0.08291401248465831
453,3750.78,0.09764226617090618
454,3753.5299999999997,0.10521722056403818
455,3756.27,0.10528925425028603
456,3759.02,0.10184467864341802
457,3761.76,0.1017017823296659
458,3764.5,0.10424164601591375
459,3767.2499999999995,0.09915311040904574
460,3769.99,0.09821461409529361
461,3772.7300000000005,0.10249271778154147
462,3775.48,0.10541665217467344
463,3778.22,0.10899155586092132
464,3780.9700000000003,0.11908710025405331
465,3783.71,0.11912522394030117
466,3786.4500000000003,0.11953097762654903
467,3789.2,0.11232521201968103
468,3791.9399999999996,0.0998676057059289
469,3794.69,0.09593100009906087
470,3797.43,0.10060499378530874
471,3800.17,0.10623485747155662
472,3801.8939600000003,0.10720862806093269
473,3802.92,0.10779143423289152
474,3805.6600000000003,0.11680089324220286
475,3808.41,0.11919807465665765
476,3811.1499999999996,0.12017433366596897
477,3813.89,0.11599620267528031
478,3816.64,0.1132163940897351
479,3819.38,0.11393623309904642
480,3822.13,0.10782136451350122
481,3824.8700000000003,0.09821170352281255
482,3827.61,0.09836403253212388
483,3830.3599999999997,0.09690586394657869
484,3833.1,0.08965090295589
485,3835.85,0.0860510843703448
486,3838.59,0.09032086337965611
487,3841.33,0.10499559238896745
488,3844.0800000000004,0.10971360380342225
489,3846.82,0.11627030281273357
490,3849.5600000000004,0.1121487118220449
491,3852.31,0.1120120932364997
492,3855.0499999999997,0.11573709224581104
493,3857.8,0.11612079366026583
494,3860.54,0.12288492266957715
495,3863.28,0.12676076167888847
496,3866.0299999999997,0.12352842309334328
497,3868.7700000000004,0.12183323210265459
498,3871.52,0.12268632351710941
499,3874.2599999999998,0.11778805252642073
500,3877.0,0.11350998153573205
501,3879.75,0.10968573295018685
502,3882.4900000000002,0.10188406195949817
503,3885.24,0.09701540337395297
504,3887.9799999999996,0.10267278238326431
505,3890.72,0.10491215139257563
506,3893.47,0.10798431280703044
507,3896.21,0.11866413181634176
508,3898.96,0.12235085323079656
509,3901.7000000000003,0.11668335224010787
510,3904.44,0.11773124124941921
511,3907.19,0.122121182663874
512,3909.93,0.12428328167318534
513,3912.68,0.12582264308764013
514,3915.42,0.12301518209695145
515,3918.16,0.1194685811062628
516,3920.9100000000003,0.12070067252071759
517,3923.65,0.1129706515300289
518,3926.3900000000003,0.10616816053934022
519,3929.14,0.09528542195379504
520,3931.8799999999997,0.08402796096310636
521,3934.63,0.08909859237756115
522,3937.37,0.09937868138687249
523,3940.11,0.1101094003961838
524,3942.86,0.11776279181063862
525,3945.6000000000004,0.11598652081994994
526,3948.35,0.11956013223440473
527,3951.0899999999997,0.12308150124371607
528,3953.83,0.11721606025302739
529,3956.58,0.10752479166748218
530,3959.32,0.10136708067679351
531,3962.0699999999997,0.09395328209124831
532,3964.81,0.08614404110055963
533,3967.55,0.08652824010987095
534,3970.2999999999997,0.08746820152432576
535,3973.04,0.10242760053363709
536,3975.79,0.11000182194809188
537,3978.53,0.1203121209574032
538,3981.27,0.12370341996671455
539,3984.02,0.12483748138116935
540,3986.7599999999998,0.12979172039048067
541,3989.51,0.13296938180493545
542,3992.25,0.13354222081424677
543,3994.99,0.1377083598235581
544,3997.7400000000002,0.13218162123801291
545,4000.48,0.14324606024732423
546,4003.2200000000003,0.13765779925663557
547,4005.97,0.13678206067109036
548,4008.7099999999996,0.1401092996804017
549,4011.46,0.1407946610948565
550,4014.2,0.13641860010416781
551,4016.94,0.14195723911347913
552,4019.69,0.13751270052793393
553,4022.4300000000003,0.13904513953724526
554,4025.18,0.14107840095170007
555,4027.9199999999996,0.14025613996101138
556,4030.66,0.13539927897032272
557,4033.41,0.14364274038477753
558,4036.15,0.14376307939408883
559,4038.9,0.13995384080854364
560,4041.6400000000003,0.14083777981785497
561,4044.38,0.13284381882716628
562,4047.13,0.14053678024162108
563,4049.87,0.13983701925093242
564,4052.62,0.14667018066538723
565,4055.36,0.14348001967469853
566,4058.1,0.14157185868400987
567,4060.85,0.13408822009846466
568,4063.59,0.13537925910777598
569,4066.34,0.13195652052223078
570,4069.08,0.13721055953154213
571,4071.8199999999997,0.13152989854085345
572,4074.57,0.13824055995530823
573,4077.31,0.13173029896461957
574,4080.05,0.1406795379739309
575,4082.7999999999997,0.1326283993883857
576,4085.5399999999995,0.13281093839769703
577,4088.29,0.13367729981215182
578,4091.0299999999997,0.13037393882146314
579,4093.77,0.11984235783077446
580,4096.52,0.11778837924522927
