,lambda (Angstroms),Total Flux (erg/s/cm^2/Angstrom)
0,100.09,17.886458859023513
1,101.94999999999999,17.836698866160837
2,104.08000000000001,17.779715648521965
3,104.712855,17.76278507850925
4,106.02000000000001,17.57909468559109
5,107.99,17.302254645748132
6,110.0,17.019793488735512
7,114.13,16.43941310144611
8,117.87,15.913838611262847
9,120.22644299999999,15.582692548610868
10,120.89000000000001,15.504513644920094
11,125.14000000000001,15.00378748103876
12,126.88,14.798784300489928
13,128.05,14.66093733432273
14,131.03,14.309839933988535
15,131.94,14.202625638194753
16,134.09,13.949317113713523
17,136.89,13.619426965291915
18,138.038426,13.484121808319248
19,140.07999999999998,13.312192048364983
20,143.02,13.064602278138118
21,147.02,12.72774598258424
22,151.14000000000001,12.380783283513578
23,155.02,12.05403210172349
24,158.489319,11.761866168671604
25,159.0,11.729352410987547
26,161.95000000000002,11.5415334707588
27,166.11,11.276677038646687
28,169.98,11.030284213113479
29,173.14,10.829095297295876
30,177.17,10.572515840382586
31,180.05,10.38915394107212
32,181.970086,10.266907211629643
33,182.13,10.259139864622732
34,185.95000000000002,10.07359486141996
35,191.16,9.820534850596351
36,193.81,9.691819441176435
37,197.87,9.494617443371409
38,202.02,9.293044199455164
39,204.83,9.15655746348708
40,208.929613,8.957431178200626
41,210.07999999999998,8.915422464782528
42,215.97000000000003,8.70033941797746
43,219.98,8.55390744317739
44,223.04000000000002,8.442166039183618
45,227.19,8.290622069760303
46,229.82,8.19459865298507
47,234.09,8.038705538066116
48,239.88329199999998,7.827175927848024
49,240.1,7.8210786105089944
50,246.26,7.647735402492025
51,251.98999999999998,7.486505483279163
52,257.27,7.337910451721762
53,260.25,7.254073037270046
54,263.87,7.152216872675009
55,268.77000000000004,7.01433609279333
56,273.77,6.873640935854882
57,275.42287,6.827130855218658
58,278.86,6.75290588740366
59,284.03999999999996,6.641043404905831
60,289.99,6.512544216462375
61,296.06,6.3814660283780436
62,300.88,6.277376585102842
63,307.88,6.1262134930517185
64,316.227766,5.945947347389323
65,317.96999999999997,5.917847778685815
66,327.63,5.762042137083633
67,338.37,5.588814058540215
68,347.85,5.435909373044906
69,356.77,5.292037134659871
70,363.078055,5.190294047241052
71,365.92,5.15596735829796
72,375.31,5.042546028135993
73,384.93,4.926337037979428
74,394.81,4.807006869215929
75,404.94,4.68464905404961
76,414.37,4.57074200787119
77,416.86938299999997,4.540550589891888
78,422.07,4.4925771511898756
79,429.92,4.420165971737413
80,440.95000000000005,4.318424285874146
81,451.22,4.223686820657486
82,459.61,4.146291720582434
83,470.31000000000006,4.047589389605194
84,478.630092,3.970842655080193
85,480.16,3.959989316343291
86,490.21000000000004,3.88868315838918
87,500.48,3.81582826419488
88,506.27,3.7747456410553473
89,512.14,3.7331235231648368
90,520.46,3.674097526863125
91,530.13,3.6054893123511604
92,539.99,3.535527009768122
93,549.5408739999999,3.4677735813551522
94,550.0300000000001,3.465126736947141
95,560.26,3.4097757796635038
96,569.36,3.3605404183751273
97,579.9399999999999,3.303271974038091
98,589.37,3.2522532011050798
99,600.32,3.1929831381058777
100,610.08,3.140132055428234
101,619.99,3.0865613480848473
102,630.0699999999999,3.032013147866953
103,630.957344,3.0272111509673096
104,640.3000000000001,2.9871321982100008
105,650.71,2.9424859710505045
106,658.2399999999999,2.9101881318481038
107,664.33,2.8840756917242487
108,675.13,2.8377397403351465
109,684.52,2.7974386836146223
110,695.64,2.7498039942858434
111,705.3199999999999,2.7082499738356116
112,716.7800000000001,2.6591442249271755
113,724.43596,2.6263092679796696
114,726.75,2.6189434801193583
115,735.17,2.592143457121645
116,745.39,2.559648402286891
117,755.76,2.526656481915717
118,764.5200000000001,2.498758688428785
119,775.15,2.4649853931011503
120,784.13,2.4364257709741355
121,795.0300000000001,2.401748430860944
122,804.24,2.372455093164752
123,815.4300000000001,2.3368473935078145
124,824.87,2.3068657404424453
125,831.763771,2.2847772100635884
126,834.4200000000001,2.278402626087985
127,844.0799999999999,2.2556406907176756
128,855.83,2.2276961240964406
129,865.74,2.204191639117169
130,875.76,2.180428281229954
131,885.9,2.1564098481704375
132,894.1,2.136971523396469
133,904.4499999999999,2.1123100137854234
134,914.9300000000001,2.0883455137377176
135,925.52,2.079428018782069
136,934.08,2.081834586491194
137,944.9000000000001,2.0967626484552992
138,954.992586,2.1112116399675793
139,955.84,2.1124684122195108
140,964.6899999999999,2.094451666013524
141,975.86,1.9590003889377197
142,984.89,2.0087811861987306
143,994.0,2.0083310272228507
144,1005.51,2.0600456011402626
145,1014.8100000000001,2.041430913601769
146,1024.2,1.914234627796773
147,1036.06,1.92003845067779
148,1045.65,2.0475028942805684
149,1055.32,2.0225245016464575
150,1065.0900000000001,1.9238761887162323
151,1074.94,1.953440539549118
152,1084.89,1.8622515700858904
153,1094.9299999999998,1.9290449723561616
154,1096.4782,1.9239763480395407
155,1105.06,1.8995034779186766
156,1115.29,1.8618772747625014
157,1125.61,1.8135349381474748
158,1136.02,1.8816307680735957
159,1143.89,1.8344110756162058
160,1154.48,1.8430376386246232
161,1165.1599999999999,1.8322600681741885
162,1175.94,1.6996722938805844
163,1184.09,1.7899600306623225
164,1195.05,1.6484895894510145
165,1206.11,1.562841644396538
166,1214.47,1.5308023331076204
167,1225.71,1.6174333911354402
168,1234.2,1.7390642348504035
169,1245.6200000000001,1.7562265559605188
170,1254.26,1.712784743910729
171,1258.92541,1.6786629222236444
172,1265.8600000000001,1.6317417807000534
173,1274.6399999999999,1.741372906232237
174,1286.43,1.7557966489457268
175,1295.3500000000001,1.6138325450444824
176,1304.33,1.5966288713860552
177,1316.39,1.70005605019222
178,1325.52,1.6665524521408346
179,1334.71,1.5849788843322656
180,1343.9599999999998,1.6796297467665136
181,1356.39,1.6476421120700482
182,1365.8000000000002,1.5726720551518072
183,1375.26,1.5905920234359139
184,1384.8,1.584103232043776
185,1394.4,1.5148673708944544
186,1404.06,1.51729843998795
187,1413.79,1.5074358443647318
188,1423.5900000000001,1.5167352840247994
189,1433.46,1.497972258968154
190,1443.3999999999999,1.5147895691947943
191,1445.43977,1.5191462107097078
192,1446.73,1.5224316538248803
193,1453.3999999999999,1.4997244958320812
194,1463.48,1.4481319380258721
195,1473.62,1.4419157435660543
196,1483.84,1.4470243335680926
197,1494.12,1.448992086916522
198,1504.48,1.4117757247268072
199,1511.42,1.3515224517927702
200,1518.4,1.3786548210896612
201,1525.41,1.3554644220597478
202,1535.98,1.2899068815824035
203,1546.6299999999999,1.326978725566915
204,1553.77,1.2998764637875166
205,1564.5400000000002,1.292481134464811
206,1575.38,1.306515479046229
207,1586.3,1.3232151080895027
208,1593.6200000000001,1.3237931363492792
209,1604.67,1.309109202643068
210,1615.79,1.30359944284098
211,1623.25,1.2703992189090036
212,1634.5000000000002,1.2909637963574307
213,1645.8300000000002,1.2879997582677138
214,1653.4299999999998,1.244921382143985
215,1659.58691,1.261199907891726
216,1664.8899999999999,1.2767287478288292
217,1672.58,1.2141605758880083
218,1676.4299999999998,1.270839766788898
219,1684.17,1.2944001635610756
220,1695.8400000000001,1.2561607811749407
221,1703.6699999999998,1.231895361630516
222,1715.48,1.1979831316407767
223,1723.3999999999999,1.1919345957797496
224,1735.35,1.2150873181864066
225,1743.36,1.2004813660087765
226,1755.44,1.2273548870692297
227,1763.5400000000002,1.178831418574997
228,1775.7700000000002,1.182288745774446
229,1783.96,1.187079760963611
230,1796.33,1.215079240559456
231,1804.6200000000001,1.207673093174618
232,1812.95,1.1609570607601787
233,1825.52,1.1646579152080179
234,1833.94,1.140280666476976
235,1846.6599999999999,1.0969543270638111
236,1855.1799999999998,1.0897930157587665
237,1863.74,1.0986600194241207
238,1876.66,1.1315829548629497
239,1885.3200000000002,1.0890494959543011
240,1894.03,1.0684981057586511
241,1905.46072,1.0821602660008547
242,1907.1599999999999,1.0844930224595086
243,1915.9599999999998,1.0634765915942497
244,1924.8000000000002,1.0553057787705118
245,1933.69,1.063506913498676
246,1947.09,1.0733042574083953
247,1956.08,1.0439363872403635
248,1965.11,1.0824754351138535
249,1974.18,1.0914455010288644
250,1983.29,1.0615638849853974
251,1997.04,1.0423535617584299
252,2006.25,1.0529385408187668
253,2015.52,1.0300885969413858
254,2024.82,1.049055041595146
255,2034.16,1.0202022042904277
256,2043.5500000000002,1.0356252145376112
257,2052.9900000000002,1.012650472336697
258,2067.22,1.0049072656079883
259,2071.98,1.0348656125490525
260,2076.76,1.0101477185108774
261,2086.35,1.0243353189656692
262,2095.98,0.9958074374619821
263,2105.65,0.9919256739998168
264,2115.37,0.992175558089553
265,2125.13,0.9941841602208111
266,2134.94,0.9568241099039712
267,2144.8,0.9654996071390329
268,2154.7,0.9780795224156166
269,2164.64,0.9599072557337215
270,2174.63,0.9517853366037283
271,2184.67,0.9388840650256373
272,2187.7616199999998,0.9436295932930248
273,2194.75,0.9554574376332505
274,2204.89,0.9405530830367111
275,2215.06,0.9159372430715429
276,2225.29,0.8998349323691168
277,2235.56,0.9240101411751858
278,2245.88,0.9027392743668734
279,2256.24,0.880950727067056
280,2266.66,0.8884153090299809
281,2277.12,0.8962533105014006
282,2287.63,0.904469336358439
283,2292.91,0.8812688114797675
284,2303.49,0.8764583714766722
285,2314.12,0.8537386558591953
286,2324.7999999999997,0.7686229646273371
287,2335.53,0.8191096977810974
288,2346.31,0.8075946553204765
289,2357.14,0.8319073372454744
290,2362.58,0.7999862904007826
291,2373.48,0.8064451064656463
292,2384.44,0.7805602517932525
293,2395.44,0.7988522166293535
294,2406.5,0.7818071107281971
295,2417.61,0.7880578292126592
296,2423.18,0.8069749457705759
297,2434.37,0.7903230032720279
298,2445.6,0.8073582802819748
299,2456.89,0.799007786554664
300,2462.56,0.7945128518838178
301,2473.92,0.7784289922963732
302,2485.34,0.7839690619716708
303,2496.81,0.7629284560325873
304,2502.57,0.7970411652558547
305,2511.88643,0.7610974370562884
306,2514.1200000000003,0.7526677130253768
307,2519.92,0.7613220282842562
308,2525.73,0.7450843883970302
309,2537.38,0.749084943184262
310,2543.23,0.7409936827126146
311,2554.97,0.7642172411848981
312,2566.77,0.7503988687805491
313,2572.68,0.7702331774322693
314,2584.5600000000004,0.7620220638590771
315,2596.4900000000002,0.7538934745553585
316,2602.4700000000003,0.740805097184341
317,2614.48,0.7335841667117792
318,2626.55,0.7469019053625849
319,2632.61,0.7604859868227245
320,2644.7599999999998,0.7892796843046874
321,2656.9700000000003,0.7998591509100177
322,2663.09,0.7534213014935249
323,2675.38,0.7700747269300123
324,2687.73,0.7664785214898677
325,2693.93,0.7469672309045319
326,2706.3599999999997,0.757737484295544
327,2712.6,0.7343182731257867
328,2725.12,0.7293644302018503
329,2737.7000000000003,0.7453813564012817
330,2744.01,0.6928486592087867
331,2756.6800000000003,0.6978889890932697
332,2763.03,0.7098604713163532
333,2775.7900000000004,0.7230878048858876
334,2782.19,0.7008353113784442
335,2795.03,0.6375414037791359
336,2807.9300000000003,0.6535687653031951
337,2814.4,0.7099848857730141
338,2827.3900000000003,0.7290047509821249
339,2833.91,0.7137979957214169
340,2846.99,0.6996816646155795
341,2853.55,0.6829161887704496
342,2866.73,0.7199059062035584
343,2873.33,0.7243385097740074
344,2884.0315,0.7176516618686564
345,2886.6000000000004,0.7162319770610523
346,2893.25,0.7151748183029928
347,2913.31,0.7504212688764249
348,2926.75,0.7304992764390834
349,2947.0400000000004,0.7202531467847931
350,2967.47,0.7264339422092807
351,2988.04,0.7247767627125458
352,3008.75,0.7271586082945887
353,3029.6099999999997,0.7246834450324648
354,3050.61,0.7213665068491186
355,3071.7499999999995,0.7221475937445503
356,3093.0400000000004,0.7221229717958149
357,3107.32,0.7232332298311395
358,3128.86,0.713146959808793
359,3150.5499999999997,0.7113918809422798
360,3172.39,0.7104636932315997
361,3187.03,0.6845536300409241
362,3209.12,0.6988326942566327
363,3231.37,0.6720486157052303
364,3246.28,0.7013726365950543
365,3268.78,0.7170400099700407
366,3291.44,0.7090171405779156
367,3306.6299999999997,0.7039929116252953
368,3311.31121,0.7016521838972198
369,3321.8999999999996,0.6968930450750566
370,3329.55,0.7175125969134788
371,3337.23,0.7040566642493069
372,3344.92,0.6979556034176034
373,3352.6299999999997,0.6867330862508371
374,3360.36,0.7015936127490077
375,3368.11,0.6990115829121153
376,3375.8700000000003,0.6578919249076915
377,3383.65,0.6650853105682049
378,3391.46,0.7027779117261236
379,3399.27,0.7110733128840424
380,3407.1099999999997,0.690428729539367
381,3414.96,0.6931451180271597
382,3422.8399999999997,0.7169737220123583
383,3430.73,0.7031505978300254
384,3438.64,0.7078290173126294
385,3446.5600000000004,0.649471008627702
386,3454.51,0.6943151154401802
387,3462.4700000000003,0.659063294085127
388,3470.45,0.6837122163950108
389,3478.4500000000003,0.6492250823698316
390,3486.47,0.6715863920095895
391,3494.51,0.6639368453142844
392,3502.56,0.6892102704514478
393,3510.64,0.682985211086017
394,3518.73,0.6707223235530544
395,3526.84,0.662161479685029
396,3534.9700000000003,0.6894005794819407
397,3543.1200000000003,0.7110368229437893
398,3551.2899999999995,0.7091991100705752
399,3559.48,0.697917240862298
400,3567.68,0.6868617434864894
401,3575.91,0.6485279616080863
402,3584.1499999999996,0.6243857515621518
403,3592.41,0.6393707851811543
404,3600.6899999999996,0.6963839624650938
405,3608.9900000000002,0.6602291834139704
406,3617.3100000000004,0.675231448027784
407,3625.65,0.6890708563065349
408,3627.3,0.7435069086638416
409,3630.04,0.6843971907602178
410,3632.7799999999997,0.7096174728565938
411,3635.52,0.76043245495297
412,3638.25,0.6147511652168776
413,3640.9900000000002,0.7855856473132536
414,3643.73,0.6784710294096299
415,3646.47,0.484148011506006
416,3649.21,0.7567438936023821
417,3651.95,0.6496785756987582
418,3654.69,0.7660053577951345
419,3657.43,0.5727137398915105
420,3660.1699999999996,0.6112624219878867
421,3662.91,0.6309506040842627
422,3665.6499999999996,0.49050588618063895
423,3668.3900000000003,0.6860970682770151
424,3671.13,0.7788119503733911
425,3673.8700000000003,0.5922813324697673
426,3676.61,0.7005200145661434
427,3679.35,0.7312005966625197
428,3682.09,0.7184647787588957
429,3684.83,0.5761052608552718
430,3687.57,0.6592458429516479
431,3690.31,0.7842291250480242
432,3693.0499999999997,0.7399832071444004
433,3695.79,0.8002400892407764
434,3698.5299999999997,0.7507614713371525
435,3701.27,0.5977204534335286
436,3704.0099999999998,0.6958272355299049
437,3706.7499999999995,0.641119717626281
438,3709.49,0.566281399722657
439,3712.2300000000005,0.6634970818190331
440,3714.9700000000003,0.7126059639154092
441,3717.71,0.7787779460117854
442,3720.4500000000003,0.9668570281081615
443,3723.19,1.4228665102045377
444,3725.9300000000003,1.620613992300914
445,3728.67,1.43717047439729
446,3731.41,1.2108793564936662
447,3734.15,0.8906268385900422
448,3736.89,0.7234881206864184
449,3739.63,0.7096527027827946
450,3742.37,0.6123289848791706
451,3745.1099999999997,0.7623304669755468
452,3747.85,0.7725730490719229
453,3750.5899999999997,0.727075931168299
454,3753.3300000000004,0.7042917132646751
455,3756.07,0.6841619953610514
456,3758.8100000000004,0.6537562774574274
457,3761.55,0.7935651595538036
458,3764.29,0.6977886416501797
459,3767.03,0.7430676237465559
460,3769.77,0.781180005842932
461,3772.51,0.7440628879393081
462,3775.2400000000002,0.7096793982032157
463,3777.98,0.5818424802995918
464,3780.7200000000003,0.8406588623959679
465,3783.46,0.8472992444923442
466,3786.2000000000003,0.8047595265887202
467,3788.94,0.8835964086850964
468,3791.68,0.8446588907814725
469,3794.42,0.8376486728778486
470,3797.16,0.7075557549742248
471,3799.9,0.7816906370706009
472,3801.8939600000003,0.8983063558300735
473,3802.64,0.9419646934974946
474,3805.3799999999997,0.8777575758105052
475,3808.12,0.8273146581235157
476,3810.8599999999997,0.9916789404365263
477,3813.6,0.8989572227495368
478,3816.3399999999997,0.9227206050625474
479,3819.0800000000004,0.8400851873755579
480,3821.82,0.7089902696885686
481,3824.5600000000004,0.7379862520015792
482,3827.3,0.6819316343145898
483,3830.04,0.8597190166276003
484,3832.78,0.5796848989406109
485,3835.52,0.6996809812536215
486,3838.26,0.6383556635666321
487,3841.0,0.8029094458796426
488,3843.74,0.7848868281926533
489,3846.48,0.8498672105056638
490,3849.22,0.7316645928186745
491,3851.96,0.838392975131685
492,3854.7,0.7386944574446956
493,3857.4399999999996,0.8526273397577062
494,3860.18,0.8687689220707168
495,3862.92,0.8592021043837275
496,3865.6600000000003,0.8475118866967379
497,3868.4,0.8538326690097485
498,3871.1400000000003,0.8999297513227591
499,3873.88,0.8700388336357696
500,3876.62,0.8517127159487803
501,3879.36,0.8393398982617908
502,3882.1,0.8122927805748015
503,3884.84,0.712632362887812
504,3887.58,0.8191710452008225
505,3890.3199999999997,0.7505277275138331
506,3893.06,0.7793340098268438
507,3895.7999999999997,0.7097805921398543
508,3898.54,0.8097213744528649
509,3901.2799999999997,0.8511924567658755
510,3904.0200000000004,0.7942658390788859
511,3906.76,0.8595873213918965
512,3909.49,0.8552571756672686
513,3912.23,0.8630189579802791
514,3914.97,0.7585425402932897
515,3917.7099999999996,0.8123371226063003
516,3920.45,0.8776969049193108
517,3923.1899999999996,0.9189026872323214
518,3925.9300000000003,0.8187867695453319
519,3928.67,0.7226144518583426
520,3931.4100000000003,0.7534685341713531
521,3934.15,0.7169417164843637
522,3936.8900000000003,0.7200016987973743
523,3939.63,0.7484288811103849
524,3942.37,0.8210309634233954
525,3945.11,0.7890922457364061
526,3947.85,0.8699605280494167
527,3950.59,0.9006629103624273
528,3953.33,0.8565903926754378
529,3956.0699999999997,0.8019765749884484
530,3958.81,0.745087657301459
531,3961.5499999999997,0.7388955396144695
532,3964.29,0.7143889219274802
533,3967.0299999999997,0.6010701042404907
534,3969.7700000000004,0.6342067865535013
535,3972.51,0.6599039688665118
536,3975.25,0.7163906511795224
537,3977.9900000000002,0.835973333492533
538,3980.73,0.9046318158055436
539,3983.4700000000003,0.8775088981185541
540,3986.21,0.8319195804315647
541,3988.95,0.8779788627445754
542,3991.69,0.9003391450575859
543,3994.43,0.8961566273705965
544,3997.17,0.911919109683607
545,3999.91,0.8681879919966177
546,4002.6499999999996,0.9323719743096283
547,4005.39,0.9455560566226389
548,4008.1299999999997,0.9623044389356494
549,4010.8700000000003,0.9944855212486599
550,4013.61,1.0039156035616705
551,4016.3500000000004,1.0111086858746812
552,4019.09,0.9889908681876917
553,4021.83,0.9952358505007024
554,4024.57,1.004097232813713
555,4027.31,0.9663950151267235
556,4030.05,0.9922058974397341
557,4032.79,0.9841557797527447
558,4035.5299999999997,0.9791010620657552
559,4038.27,0.8562347443787659
560,4041.0099999999998,0.8722627266917764
561,4043.75,0.968108309004787
562,4046.48,0.9925965632801588
563,4049.2200000000003,0.9414712455931693
564,4051.96,0.95943302790618
565,4054.7,0.9422445102191905
566,4057.44,0.9461386925322011
567,4060.18,0.9976581748452117
568,4062.92,1.0022347571582224
569,4065.66,0.9296097394712329
570,4068.3999999999996,0.9207633217842436
571,4071.14,0.924884904097254
572,4073.8799999999997,0.9412920864102646
573,4076.6200000000003,0.8717384687232752
574,4079.36,0.9297419510362858
575,4082.1000000000004,0.8867310333492963
576,4084.84,0.835302315662307
577,4087.58,0.9060842979753176
578,4090.32,0.9270795802883282
579,4093.06,0.8759542626013387
580,4095.8,0.8137947449143492
581,4098.54,0.7806048272273598
582,4101.28,0.8237065095403705
583,4104.0199999999995,0.8511098918533812
584,4106.76,0.8332389741663915
585,4109.5,0.7932616564794022
586,4112.24,0.8965772387924128
587,4114.98,0.9937882211054234
588,4117.72,0.9745900034184338
589,4120.46,0.8961258857314445
590,4123.2,0.8342317680444551
591,4125.9400000000005,0.8997809503574656
592,4128.68,0.9826207326704762
593,4131.42,0.8916056149834869
594,4134.16,0.9033865972964974
