,lambda (Angstroms),Total Flux (erg/s/cm^2/Angstrom)
0,100.00999999999999,1.273507519853729
1,102.10000000000001,1.2695270094232933
2,104.0,1.2659083636492618
3,104.712855,1.2645506954567893
4,105.94,1.2522739366896762
5,107.89999999999999,1.232665457902677
6,109.91000000000001,1.2125567640561614
7,114.03999999999999,1.171238899974994
8,118.04,1.131221600000963
9,120.22644299999999,1.1093477509818885
10,121.07,1.1022723669640366
11,125.03999999999999,1.0689737135687307
12,127.07,1.05194694608368
13,127.95,1.0445658884590638
14,130.93,1.0195709325968363
15,132.14,1.0094219968981641
16,133.98,0.9939888762476486
17,137.1,0.9678197103497004
18,138.038426,0.959948605388567
19,139.97,0.948368266109735
20,142.9,0.9308027138745723
21,146.91,0.9067633720097676
22,151.02,0.8821231277783943
23,154.9,0.8588619008793288
24,158.489319,0.8373434252452229
25,158.86999999999998,0.8356180276239501
26,161.82,0.8222474912665465
27,165.97,0.8034382051411141
28,169.84,0.7858980045540219
29,173.0,0.7715758079606132
30,177.03,0.7533105462091837
31,179.89999999999998,0.7403028590764488
32,181.970086,0.73092062373147
33,181.99,0.730851768223193
34,185.79999999999998,0.7176782533313075
35,191.0,0.6996986545552435
36,194.11,0.6889456433832896
37,198.17000000000002,0.6749078840212859
38,201.85999999999999,0.6621497621876173
39,205.14000000000001,0.650809021281023
40,208.929613,0.6377058404688944
41,209.91,0.635157370536361
42,215.79000000000002,0.6198746170724837
43,219.81,0.609425826430139
44,222.86,0.6014979243341313
45,227.01,0.590711467667432
46,230.17,0.5825122199423551
47,233.91,0.5728221701840046
48,239.88329199999998,0.5573159826668626
49,239.91,0.5572625781445703
50,246.06,0.5449414776883369
51,251.79,0.5334732773147732
52,257.06,0.5229018689588952
53,260.04,0.5169489198551919
54,264.27,0.5084833571297338
55,269.18,0.49865086259900127
56,274.18,0.4886376095719824
57,275.42287,0.4861485795514167
58,279.28000000000003,0.48022102954145063
59,283.82,0.4732445608097578
60,289.76,0.4641097026779833
61,295.83000000000004,0.45478380925477263
62,301.33,0.44632960154016665
63,308.35,0.43554283160261503
64,316.227766,0.4234389260011925
65,317.72,0.4217268421687755
66,328.13,0.4097784602229324
67,338.1,0.3983336197412748
68,348.37,0.38654359287039985
69,357.31,0.37628094251172195
70,363.078055,0.3696603218808943
71,365.63,0.36746705250774836
72,375.01,0.35940240358899184
73,384.63,0.3511263370358535
74,395.4,0.34187225700546886
75,404.60999999999996,0.33395520824856617
76,414.04,0.32584634173514676
77,416.86938299999997,0.32341276506280997
78,421.74,0.3202134536940603
79,429.58000000000004,0.31506502895665645
80,440.6,0.30782946899081587
81,450.86,0.30109038701227475
82,460.3,0.2948898288121355
83,469.94,0.2885583548416544
84,478.630092,0.2828519629732255
85,479.78,0.28227125117451124
86,489.82,0.2771965757848689
87,500.08,0.2720164644352941
88,505.87,0.26908932198070956
89,511.73,0.2661406192297828
90,520.04,0.2619428112068817
91,529.7099999999999,0.25705578764076203
92,539.56,0.25207477339833406
93,549.5408739999999,0.2470352319722626
94,549.59,0.2470163117999563
95,559.8100000000001,0.2430842570219577
96,570.22,0.23907776700151104
97,579.48,0.23550560316430286
98,590.26,0.23135703708750982
99,599.85,0.22765677700815498
100,609.59,0.22389015190055161
101,619.5,0.22009667660759993
102,629.56,0.21622092468639975
103,630.957344,0.21568264373637835
104,639.79,0.21298552397227072
105,650.1899999999999,0.2098127282455759
106,657.72,0.20751315021249778
107,665.3299999999999,0.2051942014092144
108,674.59,0.20236569623294565
109,685.5500000000001,0.1990104085148134
110,695.09,0.19611919469282602
111,704.76,0.19315480773175497
112,716.21,0.18967804455861498
113,724.43596,0.18716775300630997
114,726.17,0.18677508071955545
115,734.5799999999999,0.18487228729706598
116,744.8000000000001,0.1825676210530894
117,755.16,0.18022672440303103
118,765.67,0.17783935538931347
119,774.53,0.17585448397584652
120,785.3100000000001,0.1734192059075425
121,794.4,0.17136737806979824
122,805.45,0.16887143544690775
123,814.78,0.16676271272730883
124,824.2099999999999,0.16464566083193713
125,831.763771,0.16289869228286438
126,835.6800000000001,0.16221721163783523
127,845.36,0.1606384516711522
128,855.15,0.15898592259121136
129,865.05,0.15732887149801278
130,875.07,0.15565265119944205
131,885.2,0.1539650559876136
132,895.45,0.152246423770413
133,905.8199999999999,0.1504857730478404
134,914.2,0.14929827655602174
135,924.7800000000001,0.1512993199990479
136,935.4899999999999,0.1548732706445876
137,944.15,0.1627363026735674
138,954.992586,0.16976329260522346
139,955.0799999999999,0.16982026490557248
140,963.9200000000001,0.17036794093827262
141,975.0799999999999,0.14279675946371756
142,984.1,0.15984848719844094
143,995.5,0.16124018832658366
144,1004.71,0.17526466158010945
145,1014.0100000000001,0.17333791118464686
146,1025.75,0.14800767408327806
147,1035.24,0.15545004820661787
148,1044.8200000000002,0.18359428868096933
149,1054.48,0.18108467368955344
150,1064.24,0.16529800686592822
151,1074.0900000000001,0.17362461639331467
152,1084.03,0.1589638722717128
153,1094.06,0.17388167450112252
154,1096.4782,0.1729738312239659
155,1104.18,0.17031388545251258
156,1114.3999999999999,0.16595494736332303
157,1124.71,0.15879440051405252
158,1135.1200000000001,0.17300799726469207
159,1145.62,0.1653022852552508
160,1156.22,0.16864303684571952
161,1164.23,0.16933363719851713
162,1175.01,0.14713713126882405
163,1185.8799999999999,0.16475144657905003
164,1194.1,0.14216224649165882
165,1205.1499999999999,0.1285036742817229
166,1216.3,0.12090629567169713
167,1224.73,0.1405698151441171
168,1236.06,0.16300925901392943
169,1244.63,0.1686375115262235
170,1256.15,0.162824580235865
171,1258.92541,0.15901301818754318
172,1264.85,0.15110752456601087
173,1273.6200000000001,0.17031833979555083
174,1285.4099999999999,0.17365407765829616
175,1294.32,0.15222525314235558
176,1306.29,0.15025073990376872
177,1315.3500000000001,0.1683964578033847
178,1324.46,0.16367817650818622
179,1333.65,0.15208778250128452
180,1345.99,0.16705707922107055
181,1355.3200000000002,0.16346187546868832
182,1364.71,0.15266762468252873
183,1374.17,0.15635959902362886
184,1383.6999999999998,0.15626291849198873
185,1396.5,0.1449944946194815
186,1406.1799999999998,0.14653853650339793
187,1415.93,0.14694650351457406
188,1425.74,0.14878899349197278
189,1435.62,0.1472019785966313
190,1442.25,0.15109774136423104
191,1445.43977,0.15241406669424884
192,1445.57,0.1524716151381098
193,1455.59,0.14910605098868268
194,1465.68,0.14196984789809186
195,1475.84,0.14143408586633738
196,1486.07,0.14257337489341923
197,1496.3799999999999,0.14359974941631404
198,1503.28,0.13868286093018156
199,1513.7,0.1296607542598192
200,1517.1899999999998,0.13441742276465946
201,1524.19,0.13159955864829317
202,1534.76,0.12201799853258011
203,1545.4,0.12777936947570337
204,1556.11,0.12377707147766298
205,1563.29,0.12415575722687586
206,1574.1299999999999,0.12741809690953151
207,1585.04,0.13039928765102352
208,1596.03,0.13094982388832843
209,1603.39,0.1294442595031205
210,1614.5100000000002,0.1292676934211215
211,1625.6999999999998,0.12460580839795884
212,1633.1999999999998,0.12858451613042354
213,1644.52,0.12899204878795695
214,1655.9199999999998,0.12283405694130328
215,1659.58691,0.12552579143020026
216,1663.57,0.12853024264064622
217,1671.25,0.11977307051621783
218,1675.1,0.12828591630019578
219,1686.7099999999998,0.1314490547292826
220,1694.5,0.12632144791296787
221,1706.24,0.12301448534255263
222,1714.1200000000001,0.11879701014196725
223,1726.0,0.11797120341824213
224,1733.97,0.12212770983338611
225,1745.98,0.12001067211015895
226,1754.04,0.12440043014103229
227,1766.2,0.11767735511068736
228,1774.3500000000001,0.11894716475729006
229,1786.6499999999999,0.11963606557363525
230,1794.9,0.12429394368215946
231,1803.19,0.12343919917545225
232,1815.68,0.11685199006944831
233,1824.0700000000002,0.11815120402466261
234,1836.71,0.11488748761154094
235,1845.1899999999998,0.10911704318248461
236,1853.7,0.10884077929200472
237,1866.55,0.11014266664891818
238,1875.1699999999998,0.11544729806655199
239,1883.82,0.10945572002276219
240,1896.8799999999999,0.10654720114971084
241,1905.46072,0.10966971855988536
242,1905.64,0.10973722484866869
243,1914.43,0.10696333469771328
244,1923.27,0.10577453087126892
245,1936.6,0.1072221729859179
246,1945.54,0.10942846180849566
247,1954.52,0.1050656336906823
248,1968.0700000000002,0.11057216763317992
249,1977.15,0.11210365216438867
250,1986.28,0.10814972302010847
251,1995.45,0.10609540693543713
252,2004.66,0.10778575391037465
253,2013.9099999999999,0.105061823944921
254,2023.21,0.10796449030397841
255,2037.2299999999998,0.10386289769688004
256,2046.64,0.10619236996986177
257,2056.08,0.10269074203755016
258,2065.5699999999997,0.1026199204297496
259,2075.11,0.10700041514646011
260,2079.89,0.10369565576971759
261,2084.68,0.10611106965787727
262,2094.31,0.10227363375870768
263,2103.97,0.10233318765424475
264,2113.69,0.10265728113919508
265,2123.44,0.10326042441885204
266,2133.2400000000002,0.09849387402302007
267,2143.09,0.09967366995169916
268,2152.98,0.10183054893998708
269,2162.92,0.0995043542527861
270,2172.9,0.09864027262519395
271,2182.93,0.09727243732211287
272,2187.7616199999998,0.09847120683183125
273,2193.0099999999998,0.09983223995228788
274,2203.13,0.09789469181368937
275,2213.3,0.09476582075938635
276,2223.52,0.09284050678937877
277,2233.7799999999997,0.09627978448680757
278,2244.09,0.09367741926853182
279,2254.4500000000003,0.09094425113455154
280,2264.85,0.09198968466800764
281,2275.31,0.09318830070261827
282,2285.81,0.09455422840466529
283,2296.36,0.09102994319100777
284,2306.96,0.0910134850616457
285,2317.61,0.08821078401657909
286,2322.95,0.07716018661933444
287,2333.67,0.08429365349228146
288,2344.45,0.08289963286638308
289,2355.27,0.08647317390792104
290,2366.14,0.08217975203375447
291,2377.06,0.08336792724388337
292,2382.54,0.079951355682666
293,2393.54,0.08281895422766762
294,2404.59,0.08081416985696471
295,2415.69,0.08177529257055727
296,2426.84,0.08449982236844528
297,2432.43,0.08258364039267793
298,2443.66,0.0852742635254387
299,2454.94,0.0844461537424949
300,2466.27,0.08373523104384659
301,2477.65,0.08173023542949373
302,2483.36,0.08262027845603548
303,2494.83,0.07909133159341447
304,2506.34,0.0846527063982298
305,2511.88643,0.07907164570276437
306,2512.12,0.07883801406332386
307,2517.91,0.08023741392912155
308,2523.72,0.0783315442262346
309,2535.3599999999997,0.07904825525177607
310,2547.07,0.07802516278692131
311,2552.94,0.08167078437798045
312,2564.72,0.08005858842272948
313,2576.56,0.08282453376142457
314,2582.5,0.08198909186208748
315,2594.42,0.08111538892604406
316,2606.3999999999996,0.0792806372839467
317,2612.4,0.0785953366785557
318,2624.46,0.08076202676171981
319,2636.58,0.08293481813883
320,2642.66,0.08725505925870045
321,2654.8500000000004,0.0895005271454144
322,2667.1099999999997,0.08270105154173216
323,2673.25,0.0852956139555487
324,2685.59,0.08545333007712788
325,2697.9900000000002,0.08222925749265315
326,2704.21,0.08409052163173117
327,2716.69,0.08080889077251789
328,2722.96,0.08007513098988431
329,2735.52,0.08265156185593249
330,2748.1499999999996,0.07542326923158446
331,2754.4800000000005,0.07673434074289694
332,2767.2000000000003,0.07858933505946804
333,2773.58,0.08081918264906895
334,2786.38,0.07732267869090148
335,2792.7999999999997,0.06845912714313312
336,2805.69,0.0711051801258848
337,2812.1600000000003,0.07969822465640485
338,2825.14,0.08270468458007567
339,2838.1800000000003,0.08042937579769256
340,2844.7299999999996,0.07839928205347407
341,2857.8599999999997,0.07583583021201012
342,2864.4399999999996,0.08179542211476465
343,2877.67,0.08294010242987751
344,2884.0315,0.08217245070761578
345,2884.3,0.08214142901366148
346,2897.61,0.08273693072808852
347,2910.99,0.08842183836437956
348,2931.17,0.08552560698174527
349,2951.48,0.08416655088257269
350,2971.94,0.08518863318739442
351,2992.5400000000004,0.08528667733594414
352,3013.29,0.08565810988848817
353,3027.2,0.08604630521889237
354,3048.18,0.08615132865756098
355,3069.31,0.08709722050022388
356,3090.58,0.08706854418661479
357,3112.01,0.08833080283726627
358,3133.5800000000004,0.08672420333164577
359,3148.0399999999995,0.08698906947669574
360,3169.8599999999997,0.08782606397773238
361,3191.84,0.08369937344302962
362,3206.57,0.08619078671526931
363,3228.7900000000004,0.0822688736269574
364,3251.1800000000003,0.08847001206317237
365,3273.71,0.09182861234311536
366,3288.82,0.09103531490547391
367,3311.31121,0.09009703430809136
368,3311.6200000000003,0.09008526411844367
369,3319.2500000000005,0.08979852160050827
370,3326.9100000000003,0.09090915677909474
371,3334.57,0.09349343195768121
372,3342.26,0.08955203483278956
373,3349.97,0.09305697283891251
374,3357.69,0.09163407341054272
375,3365.43,0.08426628911318754
376,3373.1899999999996,0.08259226994684694
377,3380.96,0.08842539334601363
378,3388.76,0.09253281444170221
379,3396.5699999999997,0.08800781810289808
380,3404.4,0.09307122689510852
381,3412.25,0.08850212081833357
382,3420.11,0.0911826373070659
383,3428.0,0.09120574149232011
384,3435.9,0.09203226824308161
385,3443.82,0.0839732501248577
386,3451.7599999999998,0.09175764713764839
387,3459.72,0.08971049928145364
388,3467.69,0.08910548399076619
389,3475.69,0.09022673639660063
390,3483.7000000000003,0.08961759136794237
391,3491.73,0.09058814147029867
392,3499.78,0.08523715670366956
393,3507.85,0.09258112706805506
394,3515.93,0.08691541999794784
395,3524.04,0.0911615106243625
396,3532.16,0.09216332381628445
397,3540.3,0.09418677213922098
398,3548.4700000000003,0.09644333815867939
399,3556.64,0.09240199417813783
400,3564.84,0.09409876789411811
401,3573.06,0.08552580674111299
402,3581.3,0.08569326071912245
403,3589.55,0.07820823726263922
404,3597.8300000000004,0.08959846150267786
405,3606.12,0.09074582830822378
406,3614.44,0.0880597528102916
407,3622.77,0.0848724898778667
408,3627.3100000000004,0.09438175461817774
409,3630.05,0.08152102756717604
410,3632.79,0.07356012051617433
411,3635.54,0.09476611603067993
412,3638.2799999999997,0.10563364897967822
413,3641.03,0.0977457944941838
414,3643.77,0.0747874574431821
415,3646.51,0.09680647039218039
416,3649.2599999999998,0.09369407590668596
417,3652.0000000000005,0.09826849885568426
418,3654.75,0.10286502437018985
419,3657.49,0.09932329731918815
420,3660.23,0.09232204026818644
421,3662.98,0.09609661578269203
422,3665.7200000000003,0.08738351873169031
423,3668.47,0.0927040242461959
424,3671.2099999999996,0.09545913719519422
425,3673.9500000000003,0.0961555301441925
426,3676.7,0.09862735565869808
427,3679.44,0.09743091860769637
428,3682.19,0.09106262412220197
429,3684.9300000000003,0.08963428707120026
430,3687.67,0.08213530002019855
431,3690.4199999999996,0.09920871553470414
432,3693.16,0.09796325848370244
433,3695.8999999999996,0.09759257143270073
434,3698.65,0.09151272694720632
435,3701.39,0.0898279698962046
436,3704.1400000000003,0.09694327541071018
437,3706.88,0.09793376835970849
438,3709.6200000000003,0.09221262130870679
439,3712.37,0.09575905682321237
440,3715.1099999999997,0.09512631977221067
441,3717.86,0.10386483528671625
442,3720.6,0.11765080823571455
443,3723.34,0.15988970118471282
444,3726.09,0.18303725669921844
445,3728.8300000000004,0.17887349964821672
446,3731.58,0.14059465516272232
447,3734.3199999999997,0.1074105981117206
448,3737.06,0.0927739210607189
449,3739.81,0.10027004657522448
450,3742.55,0.07780563952422277
451,3745.2999999999997,0.09394206503872836
452,3748.0400000000004,0.07815347798772665
453,3750.78,0.09288772093672494
454,3753.5299999999997,0.10046868645123054
455,3756.27,0.10054670940022882
456,3759.02,0.09710814491473442
457,3761.76,0.09697123786373271
458,3764.5,0.099517090812731
459,3767.2499999999995,0.0944345663272366
460,3769.99,0.09350205927623488
461,3772.7300000000005,0.09778615222523318
462,3775.48,0.10071609773973876
463,3778.22,0.10429699068873706
464,3780.9700000000003,0.11439854620324263
465,3783.71,0.11444265915224094
466,3786.4500000000003,0.11485440210123923
467,3789.2,0.10765464761574482
468,3791.9399999999996,0.09520303056474312
469,3794.69,0.0912724360792487
470,3797.43,0.095952419028247
471,3800.17,0.10158827197724529
472,3801.8939600000003,0.10256581090582255
473,3802.92,0.10315020938631321
474,3805.6600000000003,0.11216392059376229
475,3808.41,0.11456536972532612
476,3811.1499999999996,0.11554588093277518
477,3813.89,0.11137200214022425
478,3816.64,0.10859646127178808
479,3819.38,0.10932055247923714
480,3822.13,0.10320995161080099
481,3824.8700000000003,0.09360454281825004
482,3827.61,0.09376112402569911
483,3830.3599999999997,0.09230722315726295
484,3833.1,0.085056514364712
485,3835.85,0.08146096349627584
486,3838.59,0.08573499470372489
487,3841.33,0.10041397591117396
488,3844.0800000000004,0.1051362550427378
489,3846.82,0.11169720625018686
490,3849.5600000000004,0.10757986745763592
491,3852.31,0.10744751658919977
492,3855.0499999999997,0.11117676779664883
493,3857.8,0.11156473692821266
494,3860.54,0.11833311813566172
495,3863.28,0.12221320934311078
496,3866.0299999999997,0.11898513847467462
497,3868.7700000000004,0.11729419968212368
498,3871.52,0.11815155881368752
499,3874.2599999999998,0.11325754002113658
500,3877.0,0.10898372122858566
501,3879.75,0.10516374036014949
502,3882.4900000000002,0.09736632156759854
503,3885.24,0.09250193069916238
504,3887.9799999999996,0.09816356190661145
505,3890.72,0.10040718311406051
506,3893.47,0.10348361224562436
507,3896.21,0.1141676834530734
508,3898.96,0.11785867258463725
509,3901.7000000000003,0.1121954237920863
510,3904.44,0.11324756499953537
511,3907.19,0.1176417741310992
512,3909.93,0.11980812533854826
513,3912.68,0.1213517544701121
514,3915.42,0.11854854567756115
515,3918.16,0.11500619688501024
516,3920.9100000000003,0.11624255601657407
517,3923.65,0.10851678722402312
518,3926.3900000000003,0.10171854843147218
519,3929.14,0.09084007756303603
520,3931.8799999999997,0.0795868687704851
521,3934.63,0.08466176790204893
522,3937.37,0.094946109109498
523,3940.11,0.10568108031694705
524,3942.86,0.11333873944851089
525,3945.6000000000004,0.11156672065595995
526,3948.35,0.11514459978752378
527,3951.0899999999997,0.11867022099497286
528,3953.83,0.11280903220242192
529,3956.58,0.10312203133398574
530,3959.32,0.0969685725414348
531,3962.0699999999997,0.08955904167299866
532,3964.81,0.08175405288044771
533,3967.55,0.08214250408789676
534,3970.2999999999997,0.08308673321946061
535,3973.04,0.09805038442690968
536,3975.79,0.10562887355847352
537,3978.53,0.11594342476592256
538,3981.27,0.11933897597337163
539,3984.02,0.12047730510493547
540,3986.7599999999998,0.12543579631238452
541,3989.51,0.12861772544394837
542,3992.25,0.12919481665139743
543,3994.99,0.13336520785884648
544,3997.7400000000002,0.12784273699041032
545,4000.48,0.1389114281978594
546,4003.2200000000003,0.13332741940530846
547,4005.97,0.1324559485368723
548,4008.7099999999996,0.13578743974432134
549,4011.46,0.13647706887588518
550,4014.2,0.13210526008333426
551,4016.94,0.1376481512907833
552,4019.69,0.13320788042234716
553,4022.4300000000003,0.13474457162979622
554,4025.18,0.13678210076136005
555,4027.9199999999996,0.1359640919688091
556,4030.66,0.13111148317625818
557,4033.41,0.13935921230782203
558,4036.15,0.13948380351527107
559,4038.9,0.13567883264683492
560,4041.6400000000003,0.136567023854284
561,4044.38,0.12857731506173303
562,4047.13,0.13627454419329688
563,4049.87,0.13557903540074595
564,4052.62,0.14241646453230977
565,4055.36,0.13923055573975884
566,4058.1,0.1373266469472079
567,4060.85,0.12984727607877172
568,4063.59,0.13114256728622078
569,4066.34,0.12772409641778462
570,4069.08,0.1329823876252337
571,4071.8199999999997,0.12730597883268277
572,4074.57,0.1340209079642466
573,4077.31,0.12751489917169564
574,4080.05,0.1364683903791447
575,4082.7999999999997,0.12842151951070854
576,4085.5399999999995,0.12860831071815762
577,4088.29,0.12947893984972145
578,4091.0299999999997,0.1261798310571705
579,4093.77,0.11565250226461957
580,4096.52,0.11360279139618341
