,lambda (Angstroms),Total Flux (erg/s/cm^2/Angstrom)
0,102.00000000000001,32.42808231151088
1,103.9,32.33566351170655
2,104.712855,32.29612504670563
3,106.08,31.94681054724224
4,108.05,31.44346264787067
5,110.06,30.929894486733986
6,113.93,29.94108414658322
7,117.92999999999999,28.919057955375635
8,120.22644299999999,28.332301735516275
9,120.95,28.177304672438446
10,124.92,27.326869471478158
11,126.95,26.892012177481472
12,128.12,26.641380141173958
13,131.10999999999999,26.000876048754954
14,132.01,25.808082177003545
15,133.85,25.413925813436922
16,136.97,24.745573722115886
17,138.038426,24.516700403792058
18,140.16,24.191849924860378
19,143.09,23.743215183325606
20,147.10000000000002,23.129213420251876
21,150.88,22.55042865491497
22,155.1,21.904272126789053
23,158.489319,21.38530754866959
24,159.07999999999998,21.31693046403213
25,162.04,20.974281615961946
26,165.80999999999997,20.53786740041817
27,170.07000000000002,20.044730909040812
28,172.82999999999998,19.72523406101326
29,176.86,19.258722360996206
30,180.14,18.87903046267561
31,181.81,18.685711755913633
32,181.970086,18.6671802463229
33,186.05,18.30686836766827
34,190.82,17.885612593125842
35,193.92,17.61184051684913
36,197.98,17.253287434746515
37,202.12,16.88766931095099
38,204.93999999999997,16.63862514326846
39,208.929613,16.28628819104751
40,210.19,16.202604313720457
41,216.07999999999998,15.811535973776486
42,220.1,15.544626832757618
43,223.16,15.341457158407723
44,226.79000000000002,15.100442373659343
45,229.94,14.89130069051795
46,234.21999999999997,14.607135997232762
47,239.88329199999998,14.231125670484772
48,240.23,14.213386782409627
49,245.82,13.927376180455306
50,252.13,13.604529864072578
51,256.81,13.365074998442912
52,259.78999999999996,13.212609562322827
53,264.01,12.996697390828812
54,268.92,12.745480301376324
55,273.92,12.489658357654031
56,275.42287,12.412764941318107
57,279.01,12.271911786375853
58,284.2,12.06812017097914
59,290.15,11.834484065892738
60,296.21999999999997,11.59613910894375
61,301.03999999999996,11.406874661903338
62,308.05,11.13161987834078
63,316.227766,10.81051160204107
64,318.14000000000004,10.754430248033348
65,327.81,10.470830748722248
66,337.77000000000004,10.178725454304859
67,348.03000000000003,9.877821485066823
68,356.96,9.615924347127983
69,363.078055,9.43649596947201
70,366.12,9.369685330473176
71,374.64,9.182558206642385
72,385.14,8.951939726615002
73,395.02000000000004,8.734946185116854
74,405.15000000000003,8.512458972458532
75,413.64,8.325990208254963
76,416.86938299999997,8.255061614152943
77,422.29999999999995,8.163975980384395
78,430.15,8.032311378784124
79,441.17999999999995,7.847312382182726
80,451.46,7.6748903477004635
81,459.84999999999997,7.534168006326417
82,469.47999999999996,7.372648652260736
83,478.630092,7.219178781664907
84,480.42,7.196089915486201
85,490.48,7.066318401533479
86,499.59999999999997,6.9486776319978105
87,506.55,6.85903476053236
88,512.41,6.7835310677026435
89,519.54,6.69156456891478
90,530.42,6.551224887059948
91,540.28,6.42402767153213
92,549.5408739999999,6.304625136219086
93,550.33,6.296864884322165
94,560.5600000000001,6.196249791614126
95,569.67,6.1066484918501756
96,580.26,6.00242762103511
97,589.68,5.909811827767885
98,600.65,5.80188060308429
99,610.41,5.705912665171538
100,620.3299999999999,5.608397947566774
101,630.4,5.509366306950748
102,630.957344,5.503883076656681
103,640.65,5.428294277759628
104,649.56,5.3588991937559385
105,658.6,5.288442414337491
106,664.69,5.241003680615441
107,675.49,5.156789420004908
108,684.89,5.083466313399445
109,694.4200000000001,5.009424765179223
110,705.6999999999999,4.921388528452669
111,715.5200000000001,4.845075575245682
112,724.43596,4.77560328338343
113,725.47,4.769624995923997
114,735.56,4.711289196508416
115,745.8,4.652245453842851
116,754.43,4.602439557260447
117,764.9300000000001,4.541801231761577
118,775.57,4.480444124429388
119,784.55,4.428685141263688
120,795.46,4.365683795681529
121,804.67,4.31252925693252
122,815.8700000000001,4.247837178267058
123,825.31,4.193543703934741
124,831.763771,4.155810188324546
125,834.87,4.142191145994629
126,844.54,4.101203324617422
127,854.3199999999999,4.059068461709554
128,864.2099999999999,4.016638895271024
129,874.22,3.973710716980864
130,884.34,3.930417755160043
131,894.5799999999999,3.8864720274875926
132,904.94,3.84174199396351
133,915.42,3.800141942587799
134,926.02,3.812037792360457
135,934.59,3.86197399928986
136,945.41,3.988947664001196
137,954.16,4.152910083153154
138,954.992586,4.158621466792612
139,965.2099999999999,4.229666312857271
140,974.14,3.650976548400977
141,985.4200000000001,4.198975988035132
142,994.53,4.185332835381511
143,1006.05,4.441608090752563
144,1015.36,4.297804651213022
145,1024.75,3.6190360169191145
146,1034.24,3.9079052891822466
147,1043.81,4.602945966691013
148,1055.89,4.59960395878149
149,1065.6599999999999,4.299993649404335
150,1075.52,4.490792195928517
151,1085.47,4.164343598354035
152,1095.52,4.477880507336595
153,1096.4782,4.472878756716451
154,1105.66,4.431997996840699
155,1115.8899999999999,4.353896914873175
156,1126.21,4.245814770600951
157,1134.02,4.5248236972709055
158,1144.51,4.344568101978694
159,1155.1,4.4255817707923715
160,1165.79,4.491747703711937
161,1173.8700000000001,4.077539443467793
162,1184.73,4.383258925367372
163,1195.69,3.679403671372839
164,1203.98,3.399661265751062
165,1215.12,2.9579887871471318
166,1226.36,3.512586772649089
167,1234.87,4.252211548060269
168,1246.29,4.475354308952827
169,1254.9299999999998,4.3696333277016635
170,1258.92541,4.187637340068793
171,1263.63,3.9780208958366408
172,1275.3200000000002,4.532287291152411
173,1284.16,4.641038380510102
174,1296.04,4.18271512955641
175,1305.03,4.110917445543473
176,1314.07,4.531166170406994
177,1326.23,4.4309908091614645
178,1335.43,4.153559042429649
179,1344.68,4.527956684574292
180,1354.0,4.437589299145975
181,1366.53,4.183840363586231
182,1376.0,4.298147204787287
183,1385.5400000000002,4.329178018415382
184,1395.15,4.140838804470519
185,1404.82,4.192796281177405
186,1414.55,4.13525344853604
187,1424.3600000000001,4.1785828700970065
188,1434.23,4.129797982309722
189,1440.85,4.238274517552699
190,1445.43977,4.2555502603833
191,1447.5,4.264842779882465
192,1454.1899999999998,4.201530112989701
193,1464.27,4.0454664713934285
194,1474.4199999999998,4.008880054508293
195,1484.63,4.02962211594699
196,1494.9299999999998,4.060775894871433
197,1505.29,3.9556201521197094
198,1512.24,3.7534028912968824
199,1515.72,3.8767866340791213
200,1526.23,3.7861840871369763
201,1533.27,3.5680925437998976
202,1543.9,3.7468199535054154
203,1554.6,3.6167495879220715
204,1565.38,3.606468193437169
205,1576.23,3.6910530236634034
206,1583.51,3.769013393621651
207,1594.48,3.8064981804955487
208,1605.53,3.7264299384678896
209,1616.66,3.7304806675386715
210,1624.13,3.61281721885572
211,1635.3799999999999,3.6981799045741663
212,1646.72,3.7068333077783597
213,1654.32,3.5343435621303767
214,1659.58691,3.6093959304391916
215,1665.79,3.700995325592154
216,1673.48,3.4953826055492447
217,1677.34,3.6679281192858335
218,1685.08,3.7608069784364035
219,1696.76,3.634959678033129
220,1704.59,3.5421487797319613
221,1716.4099999999999,3.434840301070428
222,1724.33,3.4166256453175228
223,1736.28,3.5129560725590356
224,1744.29,3.462666659354393
225,1756.3899999999999,3.5771748241763426
226,1764.49,3.3941126535199624
227,1776.72,3.454994724244958
228,1784.92,3.477122711975536
229,1793.16,3.5808963630608965
230,1805.59,3.5513207505598094
231,1813.93,3.4100345600321287
232,1826.5,3.426849769272783
233,1834.9299999999998,3.348638821293364
234,1843.4,3.2051375366687296
235,1856.18,3.181420978521996
236,1864.75,3.221312852284319
237,1873.35,3.3610014735627303
238,1886.34,3.207986148028609
239,1895.05,3.1262368435326735
240,1903.79,3.2214052865528258
241,1905.46072,3.2112597010220814
242,1916.99,3.1449696337091706
243,1925.8400000000001,3.112089536211385
244,1934.73,3.158962016804005
245,1943.66,3.216270075487031
246,1957.1299999999999,3.09688074743108
247,1966.16,3.24113325134012
248,1975.24,3.2834854778621665
249,1984.36,3.175853282474618
250,1993.52,3.1111596651774756
251,2002.72,3.1551506259707383
252,2016.6000000000001,3.082184223341443
253,2025.9099999999999,3.165716773883321
254,2035.2600000000002,3.0656599025156046
255,2044.65,3.1136596092382938
256,2054.09,3.0235800385739893
257,2063.57,3.0405990460000902
258,2073.1,3.128363776039199
259,2077.88,3.049387857842655
260,2082.67,3.1020360841687125
261,2097.1,2.9939166302824933
262,2106.78,3.0108775281606217
263,2116.51,3.010849148651757
264,2126.28,3.0325953472332983
265,2136.09,2.905311123905245
266,2145.9500000000003,2.942225623190198
267,2155.86,2.9889918450881585
268,2165.81,2.9246376450765244
269,2175.8,2.8990780231552957
270,2185.85,2.8653512683696754
271,2187.7616199999998,2.8779611064455803
272,2195.94,2.9342516386881448
273,2206.07,2.877518592866236
274,2216.25,2.8019335912406658
275,2226.48,2.7367396338114336
276,2236.76,2.842535720578539
277,2247.09,2.759593851541983
278,2257.46,2.698924017862497
279,2262.66,2.7266906142816554
280,2273.11,2.7677528513163105
281,2283.6,2.7936471237080363
282,2294.14,2.7113464402961
283,2304.73,2.6893158010805016
284,2315.37,2.6220422060612414
285,2326.05,2.3154466463990513
286,2336.79,2.5254411397724676
287,2347.58,2.4770036773422213
288,2352.9900000000002,2.5658724593859996
289,2363.85,2.456820058830627
290,2374.7599999999998,2.4881977024715924
291,2385.7200000000003,2.3898043903088952
292,2396.73,2.471308122342537
293,2402.2599999999998,2.409690010457527
294,2413.35,2.430031813205309
295,2424.49,2.48614566014943
296,2435.6800000000003,2.4164345512898877
297,2446.92,2.4903984866266846
298,2452.56,2.454845471973618
299,2463.88,2.4443804780245553
300,2475.25,2.388901528271831
301,2486.68,2.437534631554712
302,2492.41,2.364824696455054
303,2503.91,2.4737278616128084
304,2511.88643,2.3819279968994933
305,2515.4700000000003,2.341232376122615
306,2527.08,2.3093337614690146
307,2532.91,2.3198632943346054
308,2544.6000000000004,2.2914429682966557
309,2556.35,2.359908858720445
310,2562.2400000000002,2.3333206080477744
311,2574.07,2.3972607870872147
312,2585.9500000000003,2.381203646511437
313,2597.88,2.3687451863204423
314,2603.87,2.3143122964173353
315,2615.8900000000003,2.2987186609189476
316,2627.9700000000003,2.330646241882299
317,2634.0200000000004,2.3522345684409305
318,2646.1800000000003,2.440586438019933
319,2652.28,2.4452124449633468
320,2664.5200000000004,2.341807603158
321,2676.8199999999997,2.3861249778143927
322,2682.9900000000002,2.376074737296501
323,2695.38,2.320666936645501
324,2707.82,2.339619816379283
325,2714.06,2.2809713284000868
326,2726.5899999999997,2.2718580328264766
327,2732.87,2.324652689155106
328,2745.49,2.1738042182741033
329,2758.16,2.1809144277778825
330,2764.52,2.2174473727221633
331,2777.2799999999997,2.262373406918551
332,2783.68,2.2186854961706572
333,2796.5299999999997,2.001923355059652
334,2802.98,2.0727021246965407
335,2815.92,2.2378758082781434
336,2822.4100000000003,2.2625587222228574
337,2835.44,2.205145230497068
338,2841.97,2.1721152887496076
339,2855.09,2.146459621716426
340,2868.27,2.2139151711449827
341,2874.88,2.2006855180131737
342,2884.0315,2.1988403039792503
343,2888.15,2.1985499596951645
344,2894.81,2.1861703267454193
345,2908.17,2.2546984504378216
346,2928.33,2.206055804752106
347,2948.6299999999997,2.178827022638017
348,2969.0699999999997,2.182442104095555
349,2989.6499999999996,2.17233804912472
350,3010.37,2.175859857725512
351,3031.2400000000002,2.162197377295904
352,3052.2500000000005,2.1484897604379234
353,3073.4,2.1347980071515695
354,3087.59,2.1335664648757606
355,3108.99,2.113031896538741
356,3130.54,2.0926100391713214
357,3152.2400000000002,2.085496892773502
358,3166.79,2.0740958568247336
359,3188.74,2.0179108953762483
360,3210.85,2.0366754922953367
361,3233.1,1.9907299527860522
362,3248.03,2.0213331179602716
363,3270.54,2.033709610798294
364,3293.2099999999996,2.0196956620038904
365,3308.41,2.00819770692339
366,3311.31121,2.005392059532901
367,3323.68,1.9945680676233635
368,3331.3500000000004,1.9960363241045567
369,3339.02,1.9335975805857506
370,3346.7200000000003,1.9859581379397517
371,3354.44,1.9393982292089587
372,3362.17,1.9188500874357675
373,3369.92,1.904740479577782
374,3377.69,1.8998664056350016
375,3385.48,1.9290578656074264
376,3393.28,1.9685860925374536
377,3401.1000000000004,2.016049853382686
378,3408.9399999999996,1.9173361481431241
379,3416.7999999999997,1.937479976818767
380,3424.68,1.9709773394096153
381,3432.5699999999997,2.0020464689580657
382,3440.48,1.9543691324217218
383,3448.4199999999996,1.8956970967581857
384,3456.3700000000003,1.8876438280522518
385,3464.33,1.8494253263039209
386,3472.3199999999997,1.915076125428398
387,3480.32,1.8607246915104771
388,3488.35,1.9019205584653642
389,3496.39,1.8814151923778537
390,3504.4500000000003,1.8795623602055487
391,3512.5299999999997,1.862346061948449
392,3520.62,1.8943955306489517
393,3528.7400000000002,1.8374193002222623
394,3536.87,1.8937418367531755
395,3545.03,1.9139316741568964
396,3553.2000000000003,1.91843427851822
397,3561.39,1.9069784167947486
398,3569.6,1.8369480889864827
399,3577.8300000000004,1.8022282950934216
400,3586.08,1.7655020351155661
401,3594.3399999999997,1.8042785420953131
402,3602.63,1.8659653499478677
403,3610.94,1.8183006917156277
404,3616.7700000000004,1.9080788279979428
405,3619.48,1.8178026735082473
406,3622.18,1.8850197520609493
407,3624.8799999999997,1.950236830613651
408,3627.59,1.8807816761239553
409,3630.29,1.7406507546766568
410,3632.99,1.8197668332293588
411,3635.7,1.750689678739663
412,3638.4,1.728889757292365
413,3641.11,1.8950126028026693
414,3643.81,1.9239416813553714
415,3646.51,1.832916759908073
416,3649.2200000000003,1.8556706054183771
417,3651.92,1.850581683971079
418,3654.62,1.829646762523781
419,3657.33,1.7950736080340852
420,3660.03,1.797717686586787
421,3662.73,1.8668827651394888
422,3665.4399999999996,1.759408610649793
423,3668.14,1.780656689202495
424,3670.85,1.9202805347127994
425,3673.5499999999997,1.826605613265501
426,3676.25,1.753211691818203
427,3678.96,1.6884615373285072
428,3681.66,1.739346615881209
429,3684.3599999999997,1.7850946944339108
430,3687.07,1.8157975399442152
431,3689.77,1.8204976184969168
432,3692.47,1.741586697049619
433,3695.1800000000003,1.7972225425599233
434,3697.88,1.747894621112625
435,3700.59,1.789198466622929
436,3703.2900000000004,1.736138545175631
437,3705.9900000000002,1.7649586237283328
438,3708.7,1.7303864692386375
439,3711.4,1.8525505477913389
440,3714.1000000000004,1.9085736263440407
441,3716.81,1.956528471854345
442,3719.5099999999998,2.110493550407047
443,3722.21,2.668178628959749
444,3724.92,3.833561474470053
445,3727.62,4.858675553022755
446,3730.33,4.99801839853306
447,3733.0299999999997,4.030664477085761
448,3735.73,2.893759555638463
449,3738.44,2.2289194011487674
450,3741.14,2.045037479701469
451,3743.84,1.962612558254171
452,3746.55,1.9103004037644753
453,3749.25,1.915054482317177
454,3751.9599999999996,1.8420833278274813
455,3754.6600000000003,1.900107406380183
456,3757.36,2.001775484932885
457,3760.0699999999997,2.0458363304431892
458,3762.7699999999995,2.062650408995891
459,3765.4700000000003,2.0976364875485927
460,3768.18,1.9556033330588973
461,3770.8799999999997,1.831156411611599
462,3773.5800000000004,1.8574344901643007
463,3776.29,2.076233335674605
464,3778.99,2.195965414227307
465,3781.7000000000003,2.2809102597376114
466,3784.4,2.2878283382903133
467,3787.1,2.289716416843015
468,3789.81,2.2554132623533194
469,3792.51,2.146704340906021
470,3795.21,2.081639419458723
471,3797.92,1.8539412649690272
472,3800.62,1.9564743435217289
473,3801.8939600000003,2.0031183027191477
474,3803.32,2.0554227793861433
475,3806.03,2.1461691377254994
476,3808.73,2.3118830814584372
477,3811.44,2.3904604397977933
478,3814.14,2.3372523835307315
479,3816.84,2.400481327263669
480,3819.5499999999997,2.4000456856030254
481,3822.25,2.3494336293359632
482,3824.95,2.240575573068901
483,3827.66,2.0917409314082573
484,3830.3599999999997,2.084879875141195
485,3833.07,1.9825012334805514
486,3835.77,1.9124201772134892
487,3838.47,1.924758120946427
488,3841.1800000000003,1.9803514792857833
489,3843.88,2.1770534230187213
490,3846.58,2.230385366751659
491,3849.2900000000004,2.370453725091015
492,3851.9900000000002,2.328332668823953
493,3854.69,2.404595612556891
494,3857.4,2.5116189708962473
495,3860.1000000000004,2.549376914629185
496,3862.81,2.577441272968541
497,3865.5099999999998,2.6726332167014792
498,3868.21,2.738297160434417
499,3870.92,2.8202795187737735
500,3873.62,2.6834084625067107
501,3876.3199999999997,2.580932406239649
502,3879.03,2.391156764579005
503,3881.73,2.292087708311943
504,3884.43,2.186474652044881
505,3887.14,2.065330010384237
506,3889.84,2.028832954117175
507,3892.55,2.022881312456531
508,3895.25,2.0630712561894686
509,3897.95,2.0897951999224067
510,3900.6600000000003,2.236515558261763
511,3903.36,2.3979025019947007
512,3906.06,2.4021294457276388
513,3908.7699999999995,2.4684298040669947
514,3911.4700000000003,2.578277747799933
515,3914.17,2.6004056915328704
516,3916.8799999999997,2.5035420498722267
517,3919.58,2.5046319936051646
518,3922.29,2.394789351944521
519,3924.99,2.4558012956774586
520,3927.6899999999996,2.4559722394103964
521,3930.4,2.3719805977497526
522,3933.1,2.2757775414826904
523,3935.7999999999997,2.2466894852156285
524,3938.51,2.3279168435549846
525,3941.21,2.4878977872879227
526,3943.92,2.4817831456272783
527,3946.6200000000003,2.5470680893602164
528,3949.32,2.5464810330931544
529,3952.03,2.54090739143251
530,3954.73,2.510468335165448
531,3957.4300000000003,2.5268632788983862
532,3960.14,2.3998226372377425
533,3962.84,2.3184375809706803
534,3965.54,2.1278625247036183
535,3968.25,2.102495883042974
536,3970.95,2.0493958267759123
537,3973.66,2.0916311851152685
538,3976.3599999999997,2.1561031288482067
539,3979.06,2.1925620725811443
540,3981.77,2.3778964309205004
541,3984.47,2.4790913746534384
542,3987.17,2.504950318386376
543,3989.88,2.555296676725732
544,3992.58,2.6617376204586702
545,3995.2799999999997,2.7085805641916085
546,3997.9900000000002,2.7155529225309643
547,4000.69,2.7093428662639023
548,4003.3999999999996,2.6339492246032585
549,4006.1000000000004,2.694420168336196
550,4008.8,2.675122112069134
551,4011.5099999999998,2.6605164704084903
552,4014.2099999999996,2.6364044141414285
553,4016.9100000000003,2.714345357874366
554,4019.62,2.643277716213722
555,4022.3199999999997,2.56800465994666
556,4025.03,2.717806018286016
557,4027.73,2.654917962018954
558,4030.43,2.6347009057518918
559,4033.14,2.655355264091248
560,4035.84,2.632812207824186
561,4038.54,2.5727901515571237
562,4041.25,2.69468650989648
563,4043.95,2.639693453629418
564,4046.65,2.6126613973623556
565,4049.36,2.562091755701712
566,4052.06,2.51202069943465
567,4054.77,2.542086057774006
568,4057.4700000000003,2.4970990015069434
569,4060.17,2.5795819452398816
570,4062.8799999999997,2.4987263035792378
571,4065.58,2.500195247312176
572,4068.28,2.5467131910451135
573,4070.99,2.5040395493844696
574,4073.6899999999996,2.4910684931174076
575,4076.39,2.499080436850346
576,4079.1,2.5156257951897016
577,4081.7999999999997,2.4723147389226394
578,4084.51,2.5153060972619956
579,4087.21,2.454473040994934
580,4089.91,2.364218984727872
581,4092.6200000000003,2.3775203430672276
582,4095.32,2.2777482868001657
583,4098.02,2.2101002305331034
584,4100.7300000000005,2.3159885888724596
585,4103.43,2.3346005326053976
586,4106.13,2.222281476338335
587,4108.84,2.0791258346776917
588,4111.54,2.2197447784106292
589,4114.25,2.3211991367499856
590,4116.95,2.3515470804829235
591,4119.650000000001,2.433002024215861
592,4122.36,2.494651382555218
593,4125.0599999999995,2.5310023262881556
594,4127.759999999999,2.5770342700210933
595,4130.47,2.5768136283604495
596,4133.17,2.520199572093387
597,4135.88,2.5964509304327437
598,4138.58,2.5779628741656815
599,4141.28,2.6341078178986197
600,4143.99,2.6356181762379753
601,4146.6900000000005,2.6411431199709132
602,4149.39,2.5731710637038514
