,lambda (Angstroms),Total Flux (erg/s/cm^2/Angstrom)
0,100.07000000000001,1.0085216654500608
1,101.93,1.0057163573945136
2,104.07,1.0024886578481278
3,104.712855,1.0015190956063493
4,106.0,0.9913207978906255
5,107.97,0.9757122353009575
6,109.98,0.9597872164965298
7,114.11,0.9270650388218349
8,118.11999999999999,0.8952938392664194
9,120.22644299999999,0.8786161954258226
10,120.87,0.874344915974789
11,125.11,0.846184196225168
12,126.85,0.834627712180418
13,128.03,0.8267907686325987
14,131.01,0.8069980092960728
15,131.92000000000002,0.8009592237960595
16,134.06,0.7867459199749302
17,136.87,0.7680904746696151
18,138.038426,0.7603304500340956
19,140.06,0.7507345116034022
20,142.98999999999998,0.7369310732887241
21,147.0,0.7181510424494206
22,151.10999999999999,0.698662274458763
23,154.99,0.6802716274262199
24,158.489319,0.663688751142327
25,158.97000000000003,0.6619677203445733
26,161.92000000000002,0.651403936460987
27,166.08,0.6365167387156583
28,169.94,0.6226942981534063
29,173.1,0.6113819214516664
30,177.14000000000001,0.5969152602595684
31,180.01,0.5866406162114691
32,181.970086,0.5796250235510045
33,182.1,0.5792706038128698
34,185.91,0.5688734873953533
35,191.12,0.5546555523055212
36,193.78,0.5474061408581211
37,197.84,0.5363240554384057
38,201.98000000000002,0.5250311133059861
39,204.79000000000002,0.5173667455972665
40,208.929613,0.5060333929642691
41,210.04,0.5037481188950353
42,215.93,0.4917263360118457
43,219.94,0.48351629002193225
44,223.0,0.4772344139647913
45,227.14999999999998,0.4687415594689956
46,229.77999999999997,0.46395710046563593
47,234.04999999999998,0.45647321853622685
48,239.88329199999998,0.44512509856234905
49,240.04999999999998,0.4448795210042534
50,246.21,0.43487473322914033
51,251.95,0.4259455765523305
52,257.21999999999997,0.416977687366479
53,260.2,0.4127025437642327
54,263.82,0.4071121765360007
55,268.72,0.3993029750557971
56,273.72,0.3913184347902833
57,275.42287,0.38860525383513395
58,278.81,0.3844582803559962
59,283.99,0.3781170923915687
60,289.94,0.37066126370269925
61,296.01,0.363293625238592
62,300.82,0.3573662424144808
63,307.83000000000004,0.34882246237767817
64,316.227766,0.33859005933359526
65,317.91,0.337058764626632
66,328.33,0.32750570355205516
67,338.3,0.3183417673847297
68,347.78000000000003,0.30961176367196686
69,356.7,0.3014222376215613
70,363.078055,0.29557862637474225
71,365.85,0.2936720056155153
72,375.24,0.28718978293492076
73,384.86,0.2804660148127356
74,394.74,0.2737304399304913
75,404.86,0.26677084650050015
76,414.29,0.2602712803952811
77,416.86938299999997,0.2584857176748729
78,421.99,0.25576527746521455
79,429.84000000000003,0.2516156856363717
80,440.86,0.24580855392250572
81,451.13,0.24037851304579028
82,459.52,0.23593950845419906
83,470.22,0.23030153504418396
84,478.630092,0.2258791639610535
85,480.07,0.22529494035046632
86,490.12,0.22118871539237767
87,500.39,0.21703658990485825
88,506.18,0.21466931774392956
89,512.04,0.2123419721872729
90,520.36,0.20896766243789003
91,530.0400000000001,0.205022353142935
92,539.89,0.20099693402978344
93,549.5408739999999,0.1970793062851172
94,549.93,0.19695826220654059
95,560.15,0.1938178053076854
96,570.5699999999999,0.19061305726012465
97,579.84,0.1877185688176209
98,590.62,0.18439551410239008
99,600.21,0.18139820362195747
100,609.97,0.1782466859651251
101,619.88,0.17534327044676357
102,629.9499999999999,0.17221706240943757
103,630.957344,0.17190767802584855
104,640.19,0.16965601284266163
105,650.59,0.16709531426152974
106,658.12,0.16523320978980638
107,665.7399999999999,0.16338450874670785
108,675.0,0.16111828606966155
109,684.39,0.1587864631228511
110,695.51,0.1560938699707178
111,705.1899999999999,0.15369067016058738
112,716.6500000000001,0.15092288487214778
113,724.43596,0.14901976597002442
114,726.62,0.14862208365443483
115,735.03,0.1470918662420786
116,745.26,0.14522237462134088
117,755.62,0.14333686134286164
118,764.37,0.14167533293333526
119,775.01,0.13981055916895113
120,785.79,0.13783631951161465
121,794.89,0.13619473006970717
122,804.0899999999999,0.13452792227569088
123,815.2800000000001,0.13250042877470797
124,824.72,0.13079110973563035
125,831.763771,0.1294803923435873
126,834.27,0.12912767847965628
127,845.87,0.12759522996481687
128,855.6700000000001,0.126260089400556
129,865.5799999999999,0.12491705060598202
130,875.6,0.12356104478109486
131,885.74,0.1221860478595025
132,896.0,0.1207967416412049
133,904.29,0.11966619840215156
134,914.76,0.11833842288961978
135,925.35,0.11736322728038277
136,936.06,0.11642303297444055
137,944.73,0.11580174701248731
138,954.992586,0.11479628615937128
139,955.67,0.11473188167706455
140,964.51,0.11377596992663493
141,975.6800000000001,0.11081809472049248
142,984.7,0.11075739706790477
143,996.11,0.1092366073255516
144,1005.3199999999999,0.1086098624984637
145,1014.62,0.10734066522029677
146,1024.01,0.10487614849105083
147,1035.87,0.10405425849330247
148,1045.46,0.10390279731721418
149,1055.1299999999999,0.10253606896238904
150,1064.89,0.10070521615648477
151,1074.75,0.09975075562715942
152,1084.69,0.09785472791909713
153,1094.73,0.09719482748761371
154,1096.4782,0.09694196133648875
155,1104.86,0.09592909744592526
156,1115.08,0.09472915637675347
157,1125.4,0.09331584987050565
158,1135.81,0.09270569217088939
159,1143.68,0.09164680837300465
160,1154.27,0.09057979828665154
161,1164.95,0.08943883500692992
162,1175.72,0.08742658553383993
163,1183.8700000000001,0.08726934291214225
164,1194.8300000000002,0.08548588380860775
165,1205.88,0.0838680725117048
166,1214.24,0.08242477677214748
167,1225.48,0.08212440084480002
168,1233.97,0.08186837393704384
169,1245.3899999999999,0.08079674562295952
170,1254.0200000000002,0.07976145130329683
171,1258.92541,0.07912310580251382
172,1265.63,0.07845761570740624
173,1274.4,0.0782739417378266
174,1286.19,0.07745460871942934
175,1295.11,0.07621062289974287
176,1304.08,0.07551037646335411
177,1316.15,0.07505866379142406
178,1325.27,0.07421964250492848
179,1334.46,0.0732401395550497
180,1343.7099999999998,0.07288657446512818
181,1356.14,0.07183909895294174
182,1365.5400000000002,0.07084455301291337
183,1375.0100000000002,0.07018475240950182
184,1384.54,0.06944104166604756
185,1394.14,0.06822400025921008
186,1403.8,0.06748910071232987
187,1413.53,0.06701339550206648
188,1426.6100000000001,0.06600469497275042
189,1436.5,0.06526512438903975
190,1443.1299999999999,0.06483889341431763
191,1445.43977,0.0646752297207152
192,1446.46,0.06462655552785312
193,1456.48,0.0640016101011867
194,1466.5800000000002,0.06328597433578441
195,1473.35,0.0629237616702623
196,1483.56,0.06240094543909822
197,1493.85,0.06185038586919827
198,1504.2,0.06116454804524643
199,1511.1399999999999,0.06057956865991061
200,1518.1200000000001,0.060310462105206845
201,1525.13,0.05988260942347715
202,1535.7,0.059033754668001696
203,1546.34,0.058478219616132386
204,1553.4800000000002,0.05802838638395689
205,1564.25,0.057547705781641804
206,1575.0900000000001,0.05708277388293281
207,1586.01,0.05655843664548798
208,1593.33,0.05619226265115683
209,1604.37,0.055545967905608194
210,1615.5,0.054935484778981726
211,1626.69,0.054254078398303346
212,1634.2,0.05395491759947453
213,1645.53,0.05335872762600842
214,1653.12,0.05283521648844374
215,1659.58691,0.05255831111969845
216,1664.58,0.05242455570653197
217,1672.2699999999998,0.05193454125032045
218,1676.1200000000001,0.05203280515455784
219,1683.8600000000001,0.051784233021777974
220,1695.5300000000002,0.05122480691072616
221,1703.36,0.05086319716012329
222,1715.16,0.05032278048999376
223,1723.08,0.05000779012156786
224,1735.02,0.04967201315704699
225,1743.0300000000002,0.04932926017079804
226,1755.1200000000001,0.04898185917657212
227,1763.22,0.048530936572500176
228,1775.44,0.048091452019196554
229,1783.6299999999999,0.047831378797301594
230,1796.0,0.047489723214292935
231,1804.29,0.047149172639261265
232,1816.79,0.04651890049717492
233,1825.18,0.04625078456900656
234,1833.6,0.0458707334348972
235,1846.31,0.0452211668512238
236,1854.8400000000001,0.04495610562866407
237,1863.4,0.04471361920016335
238,1876.32,0.044329707174902894
239,1884.98,0.043874090393265466
240,1893.68,0.043539379670373364
241,1905.46072,0.043161582457331045
242,1906.8,0.04313204220526534
243,1915.6000000000001,0.04284136032509334
244,1924.45,0.04251230238310219
245,1933.3300000000002,0.042218703604019525
246,1946.73,0.04209972403648489
247,1955.72,0.04174841052140008
248,1964.74,0.04172018016922378
249,1973.81,0.041446623755228326
250,1982.92,0.04122587889177754
251,1996.67,0.04083351989150878
252,2005.8799999999999,0.04058550390441969
253,2015.14,0.040311646855511425
254,2024.44,0.03999389435714783
255,2033.79,0.03983882079696509
256,2043.18,0.039719122787327005
257,2057.34,0.03918221168014114
258,2066.83,0.03891666454686475
259,2076.37,0.038866533351769206
260,2085.96,0.040471945094854474
261,2095.59,0.03988956738848444
262,2105.2599999999998,0.03950896523265908
263,2114.98,0.039607558015014546
264,2124.74,0.0389652693479147
265,2134.55,0.03849274061899567
266,2144.4,0.03901524044062133
267,2154.3,0.03876374620042783
268,2164.2400000000002,0.037977644510779
269,2174.23,0.03774801175931102
270,2184.27,0.038320046946023874
271,2187.7616199999998,0.03820144088813729
272,2194.35,0.03803616214953986
273,2204.48,0.037730478290579496
274,2214.65,0.03658167927719086
275,2224.87,0.03690044932076689
276,2235.15,0.0379377786327005
277,2245.46,0.037493144578812906
278,2255.83,0.03616650379328291
279,2266.24,0.035733488853324634
280,2276.7000000000003,0.03591845297033101
281,2287.21,0.03704518514430205
282,2292.48,0.03602203054837697
283,2303.06,0.03678751520209853
284,2313.69,0.03570021091278475
285,2324.37,0.034575477680435625
286,2335.1,0.03403861050505115
287,2345.88,0.032939850386631345
288,2356.71,0.0345245243251762
289,2367.58,0.03275137310929277
290,2373.04,0.03329432152983338
291,2384.0,0.031992327216486344
292,2395.0,0.032222960748711026
293,2406.05,0.03200532633790037
294,2417.16,0.0322191031954473
295,2422.73,0.03406422994131016
296,2433.92,0.03393672649000055
297,2445.15,0.03467980588426265
298,2456.44,0.034883981546882346
299,2467.78,0.0336792652664667
300,2473.46,0.03299476733765182
301,2484.8799999999997,0.030972593748379636
302,2496.35,0.0313898002160721
303,2507.87,0.033253492740729224
304,2511.88643,0.03099478536022215
305,2513.65,0.030011364251958734
306,2519.45,0.0295082838525656
307,2525.2599999999998,0.029615968024897656
308,2536.91,0.03086453008473731
309,2542.76,0.031025562543970087
310,2554.5,0.0343092647493364
311,2566.29,0.03210065781332863
312,2572.2099999999996,0.03358033427463772
313,2584.0800000000004,0.03254263891243141
314,2596.01,0.03171249998057622
315,2607.9900000000002,0.030778552907346955
316,2614.0,0.030254448514182696
317,2626.0699999999997,0.03167014058648009
318,2632.12,0.03630494548021656
319,2644.2700000000004,0.040008625126315416
320,2656.48,0.0458268642027654
321,2662.6,0.03774964609857816
322,2674.89,0.0394804477488296
323,2687.2400000000002,0.04169295882943215
324,2693.43,0.036980601727321205
325,2705.86,0.039894015381725226
326,2712.1,0.0354083261382402
327,2724.62,0.03292614693817088
328,2737.19,0.03515729959672748
329,2743.5,0.030077159355318746
330,2756.17,0.03214394273112719
331,2762.52,0.03475377077661919
332,2775.2700000000004,0.0353208047262291
333,2788.08,0.030323111106190136
334,2794.51,0.026618024725483604
335,2807.4100000000003,0.027065271250971287
336,2813.88,0.0333400031571655
337,2826.8700000000003,0.038408244828179845
338,2833.39,0.03769422959299998
339,2846.46,0.03336037383781579
340,2853.0299999999997,0.028648470461261843
341,2866.2,0.03764660642332951
342,2872.7999999999997,0.04311256376195111
343,2884.0315,0.04094293112239193
344,2886.06,0.04055932669552065
345,2892.72,0.04480926612704942
346,2912.77,0.05277960007632146
347,2932.96,0.04841892533496498
348,2953.29,0.04626761190297997
349,2966.92,0.04765195009393149
350,2987.48,0.047809338098771054
351,3008.19,0.048030069649365764
352,3029.04,0.049550962509331956
353,3050.04,0.050620348915053306
354,3071.18,0.05306947663014612
355,3092.47,0.05225819789099409
356,3106.75,0.0571096814468846
357,3128.2799999999997,0.05426220638094082
358,3149.96,0.05388373486075219
359,3171.8,0.05721976912270238
360,3186.44,0.05167548318840526
361,3208.53,0.05531325335994738
362,3230.77,0.04892760707724465
363,3253.16,0.061383914340297066
364,3268.18,0.06858216338857967
365,3290.83,0.06721046879760768
366,3311.31121,0.06444760761454932
367,3313.64,0.06414010075713358
368,3321.2799999999997,0.06180688554806425
369,3328.94,0.06675300184368321
370,3336.6099999999997,0.06680861889164631
371,3344.3,0.06348870744429773
372,3352.01,0.05989884750163744
373,3359.74,0.06800241906366544
374,3367.4900000000002,0.06557348213038176
375,3375.25,0.052090795949442215
376,3383.03,0.05535645127319098
377,3390.8300000000004,0.06673964810162804
378,3398.64,0.06468616568240926
379,3406.48,0.06617100552022291
380,3414.33,0.06511441611038073
381,3422.2000000000003,0.07112504820522683
382,3430.09,0.06644680180476124
383,3438.0,0.06776479690898396
384,3445.92,0.04811530276555082
385,3453.87,0.06882131087915014
386,3461.8300000000004,0.058796929745093596
387,3469.81,0.06244737011572536
388,3477.81,0.05634269199104542
389,3485.82,0.061913474618709635
390,3493.8599999999997,0.0567739595034063
391,3501.92,0.06294696589279125
392,3509.9900000000002,0.06792485303452037
393,3518.08,0.06167141168093779
394,3526.19,0.056719221832043504
395,3534.32,0.06680929348783751
396,3542.47,0.07419069664831983
397,3550.63,0.07204221056114629
398,3558.8199999999997,0.0676766267310052
399,3567.02,0.06941577365320827
400,3575.2400000000002,0.05738486208009963
401,3583.49,0.04970707276402345
402,3591.75,0.05138518420029141
403,3600.03,0.07218407714124768
404,3608.33,0.06194041158689224
405,3616.64,0.06561525678488095
406,3624.98,0.06498608423990213
407,3633.3399999999997,0.06641200319961159
408,3641.71,0.0767123329116652
409,3650.1099999999997,0.06570852488075127
410,3658.52,0.08215036760218149
411,3666.96,0.08162893258064415
412,3675.41,0.08341162831145098
413,3683.88,0.07014607554694607
414,3692.37,0.0737191642871295
415,3700.89,0.08091248528434536
416,3709.42,0.06087285703390538
417,3717.97,0.0871001302881537
418,3726.54,0.06444953504709032
419,3735.1299999999997,0.06754287131071524
420,3743.74,0.07306156907902844
421,3752.37,0.04917260835202997
422,3761.02,0.06746934912971977
423,3769.69,0.0653886514120979
424,3778.38,0.07809608519916432
425,3787.09,0.08689392049091904
426,3795.8199999999997,0.06917524728736206
427,3801.8939600000003,0.0701870290106924
428,3804.5699999999997,0.07063817011592655
429,3813.34,0.07902504348715955
430,3822.13,0.06332293853084692
431,3830.94,0.05084265524698864
432,3839.77,0.0498866036355847
433,3848.62,0.06950134369663512
434,3857.5,0.06832283626636707
435,3866.3900000000003,0.07016755967232619
436,3875.2999999999997,0.059263264750739654
437,3884.24,0.06423159233783465
438,3884.89,0.07016382669260107
439,3886.6600000000003,0.05511542470481115
440,3888.43,0.060944432717021234
441,3890.19,0.07102677989300414
442,3891.96,0.07926548790521423
443,3893.7300000000005,0.0795078359174243
444,3895.5,0.07804181392963438
445,3897.27,0.08144005194184448
446,3899.0399999999995,0.09392108995405456
447,3900.81,0.08654600796626465
448,3902.58,0.06916196597847472
449,3904.35,0.0672221839906848
450,3906.1200000000003,0.06836416200289488
451,3907.89,0.08389003001510498
452,3909.66,0.08802059802731506
453,3911.4300000000003,0.08649109603952514
454,3913.2,0.08372336405173522
455,3914.97,0.07850400206394531
456,3916.7400000000002,0.0730227700761554
457,3918.51,0.07497119808836547
458,3920.2799999999997,0.07921583610057556
459,3922.05,0.07788205411278565
460,3923.81,0.07061810128876855
461,3925.5800000000004,0.06216641930097863
462,3927.35,0.06141982731318872
463,3929.12,0.052497095325398806
464,3930.8900000000003,0.04159607333760888
465,3932.66,0.03747909134981897
466,3934.43,0.04258109936202906
467,3936.2000000000003,0.04819584737423914
468,3937.9700000000003,0.05157269538644922
469,3939.74,0.05591781339865931
470,3941.5099999999998,0.0673676014108694
471,3943.28,0.07197962942307948
472,3945.0499999999997,0.07364798743528955
473,3946.8199999999997,0.07249670544749964
474,3948.59,0.07403780345970973
475,3950.36,0.07713978147191981
476,3952.1299999999997,0.07366350948412989
477,3953.9,0.07512789749633997
478,3955.67,0.07053010550855006
479,3957.44,0.07759142352076015
480,3959.2,0.07262104069674305
481,3960.97,0.06280186870895313
482,3962.7400000000002,0.06154981672116322
483,3964.5099999999998,0.0553570247333733
484,3966.2799999999997,0.04686830274558339
485,3968.05,0.042733190757793464
486,3969.82,0.04403119877000355
487,3971.5899999999997,0.04428704678221364
488,3973.36,0.05922810479442372
489,3975.13,0.06614954280663381
490,3976.9,0.07707828081884388
491,3978.67,0.08809660883105397
492,3980.44,0.08391939684326405
493,3982.21,0.08465900485547413
494,3983.9799999999996,0.09381553286768422
495,3985.75,0.09717147087989429
496,3987.52,0.09481630889210438
497,3989.29,0.09637624690431447
498,3991.06,0.10415208491652456
499,3992.82,0.09804405209250747
500,3994.59,0.09149424010471754
501,3996.36,0.10206592811692762
502,3998.1299999999997,0.10667522612913771
503,3999.9,0.10343704414134779
504,4001.67,0.10984229215355788
505,4003.4399999999996,0.10403311016576797
506,4005.21,0.10390023817797804
507,4006.98,0.09892908619018813
508,4008.75,0.09970874420239823
509,4010.52,0.1046914122146083
510,4012.29,0.10649954022681839
511,4014.06,0.10692213823902846
512,4015.8300000000004,0.11551005625123854
513,4017.6,0.11696895426344862
514,4019.37,0.10872373227565872
515,4021.1400000000003,0.1067705902878688
516,4022.9100000000003,0.10704240830007888
517,4024.68,0.10551294631228897
518,4026.44,0.10491986348827187
519,4028.21,0.10934973150048195
520,4029.98,0.10602424951269203
521,4031.75,0.09589787752490211
522,4033.52,0.10294370553711221
523,4035.2900000000004,0.10940760354932229
524,4037.06,0.10939858156153237
525,4038.83,0.11298201957374246
526,4040.6,0.10468645758595255
527,4042.3700000000003,0.10478853559816262
528,4044.14,0.10027544361037272
529,4045.91,0.09025757162258279
530,4047.6800000000003,0.10059907963479287
531,4049.45,0.11019739764700297
532,4051.22,0.10559390565921305
533,4052.9900000000002,0.09579069367142312
534,4054.76,0.1006490316836332
535,4056.5299999999997,0.10414206969584329
536,4058.3,0.10462812770805337
537,4060.07,0.10654252572026346
538,4061.8300000000004,0.09864379289624636
539,4063.6,0.09493476090845646
540,4065.37,0.09825897892066654
541,4067.1400000000003,0.10171503693287662
542,4068.91,0.1038754149450867
543,4070.68,0.10109438295729678
544,4072.4500000000003,0.09931626096950688
545,4074.2200000000003,0.09935793898171695
546,4075.99,0.10092805699392704
547,4077.76,0.10308578500613712
548,4079.53,0.0982684930183472
549,4081.2999999999997,0.1049144510305573
550,4083.0699999999997,0.11469257904276738
551,4084.84,0.11745077705497746
552,4086.61,0.11241351506718754
553,4088.3799999999997,0.11290752307939762
554,4090.15,0.11402787109160771
555,4091.92,0.11316766910381779
556,4093.69,0.11067273711602788
557,4095.45,0.10127956429201078
558,4097.219999999999,0.09924487230422087
559,4098.99,0.09780795031643094
560,4100.76,0.09920615832864103
561,4102.53,0.09930337634085112
562,4104.3,0.0990832043530612
563,4106.07,0.10581119236527128
564,4107.84,0.10159962037748137
565,4109.610000000001,0.10423876838969144
566,4111.38,0.10825553640190153
567,4113.15,0.10553312441411163
568,4114.92,0.1089812024263217
569,4116.6900000000005,0.11430769043853178
570,4118.46,0.11143458845074186
571,4120.23,0.10699507646295196
572,4122.0,0.10956808447516204
573,4123.7699999999995,0.11734928248737211
574,4125.54,0.1126081904995822
575,4127.31,0.10622240851179228
576,4129.08,0.10201084652400236
577,4130.84,0.09959268369998528
578,4132.61,0.10418916171219536
579,4134.38,0.09992160972440545
580,4136.150000000001,0.10482490773661553
581,4137.92,0.10783703574882561
582,4139.69,0.10879873376103569
583,4141.46,0.10208494177324577
584,4143.23,0.09851346978545587
