,lambda (Angstroms),Total Flux (erg/s/cm^2/Angstrom)
0,100.09,0.46221080363114786
1,101.94999999999999,0.46092535384471484
2,104.08000000000001,0.45945302030683177
3,104.712855,0.45901561887746584
4,106.02000000000001,0.454269050438255
5,107.99,0.44711558170488963
6,110.0,0.4398179484735523
7,114.12,0.42485742517044783
8,118.13000000000001,0.4102961677435162
9,120.22644299999999,0.40269208692277564
10,120.89000000000001,0.40067468799861583
11,125.13,0.3877680178018654
12,126.87,0.38247148535381204
13,128.05,0.378879575245707
14,131.03,0.36980808829133993
15,131.94,0.3670401798951741
16,134.07999999999998,0.36052570275572926
17,136.89,0.3519745201529536
18,138.038426,0.3484786887615256
19,140.07999999999998,0.3440369151241739
20,143.01,0.33768574890119873
21,147.02,0.32899781699453307
22,151.14000000000001,0.3200369175656396
23,155.02,0.31159980717978863
24,158.489319,0.30405597421775704
25,158.99,0.30323311068270553
26,161.95000000000002,0.29836834943619445
27,166.1,0.2915483331997009
28,169.97000000000003,0.2851876076608502
29,173.13,0.2799943353017371
30,177.16,0.27337096679280476
31,180.04,0.26863783913133454
32,181.970086,0.2654659877942583
33,182.13,0.2652655688448711
34,185.94,0.2604904073629598
35,191.15,0.25395950736827266
36,193.81,0.2506272295039986
37,197.87,0.2455379565269488
38,202.01,0.24034898094345458
39,204.82,0.23682783994209744
40,208.929613,0.2316710117840158
41,210.07999999999998,0.2305858445233055
42,215.96,0.22505502604248703
43,219.98,0.2212692120913153
44,223.04000000000002,0.21838532219415466
45,227.17999999999998,0.2144872402862315
46,229.81,0.21212139266743005
47,234.09,0.20830835074329693
48,239.88329199999998,0.20296741622970257
49,240.09,0.20282159378757067
50,246.25,0.19830387018618204
51,251.98999999999998,0.19415188435988803
52,257.26,0.19019876767477142
53,260.24,0.18812135585624246
54,263.86,0.18551221275185498
55,268.77000000000004,0.18193380870253378
56,273.76,0.1782943684674803
57,275.42287,0.1770816446724551
58,278.85,0.17516179343010302
59,284.03999999999996,0.17225785342285646
60,289.99,0.1688994486004832
61,296.06,0.1655118856178268
62,300.87,0.16280130136814355
63,307.88,0.15888779667993577
64,316.227766,0.15422573875588608
65,317.96,0.1535029991280287
66,327.62,0.14945926199104095
67,338.35999999999996,0.14496207312383103
68,347.84000000000003,0.14098964169188033
69,356.76,0.13725609995337817
70,363.078055,0.13461534586127374
71,365.90999999999997,0.13372809757676232
72,375.3,0.13078000868770576
73,384.91999999999996,0.12774604558241037
74,394.8,0.12465978842832318
75,404.93,0.12148538636962854
76,414.36,0.1185269289038348
77,416.86938299999997,0.11773864927782814
78,422.06,0.11649105020547362
79,429.91,0.11460597253203458
80,440.94,0.11196501886222152
81,451.21000000000004,0.1095013916053783
82,459.6,0.10748815681746067
83,470.3,0.10492472794538453
84,478.630092,0.10293114197741951
85,480.15000000000003,0.1026510569443016
86,490.2,0.10079295928082573
87,500.47,0.09890431129058717
88,506.26,0.09784346752715183
89,512.13,0.0968329909721664
90,520.45,0.09529906625096048
91,530.12,0.09351538179734736
92,539.98,0.09168701238880285
93,549.5408739999999,0.08995373035988537
94,550.02,0.08988770235959537
95,560.24,0.08847845920867693
96,569.35,0.0872147934197467
97,579.9300000000001,0.08571687134061588
98,589.35,0.08442112385239166
99,600.3100000000001,0.08287588899348108
100,610.06,0.08151923635439551
101,619.98,0.08017562287698739
102,630.0500000000001,0.07877315911282412
103,630.957344,0.0786464323432173
104,640.2900000000001,0.07761349320221236
105,650.69,0.07648091497928695
106,658.23,0.07564911986766604
107,664.32,0.07499444475827988
108,675.11,0.07380369855199476
109,684.5,0.07274392760648805
110,695.63,0.07158661035829961
111,705.3,0.07047931636063721
112,716.76,0.06928947271883668
113,724.43596,0.06844899671501185
114,726.73,0.06826336000290047
115,735.15,0.06758584809763346
116,745.3799999999999,0.06678362227520102
117,755.75,0.06595488023486622
118,764.5,0.06524268131597237
119,775.13,0.0644258400709619
120,784.1099999999999,0.0637184718940857
121,795.02,0.06285173041327062
122,804.2199999999999,0.06212312409397653
123,815.41,0.061223739577356835
124,824.85,0.06050636978451592
125,831.763771,0.05984588228104208
126,834.4,0.059648826991250015
127,844.0699999999999,0.05921929093741399
128,855.8100000000001,0.05852175906129869
129,865.7199999999999,0.05797049951067667
130,875.74,0.05740834194486105
131,885.88,0.05684964218065244
132,894.08,0.056391620957130684
133,904.43,0.05576609334573432
134,914.9,0.055551945535944953
135,925.4999999999999,0.06213584834456318
136,934.0600000000001,0.07137564152586241
137,944.88,0.08687048330409346
138,954.992586,0.09777884808952444
139,955.82,0.09867247238966488
140,964.66,0.10628475743947702
141,975.83,0.06152418101486179
142,984.86,0.10160720006461332
143,993.98,0.10093857206170456
144,1005.49,0.11674698121592826
145,1014.79,0.11089751910769893
146,1024.18,0.07410826994680933
147,1036.04,0.09319562278513194
148,1045.6200000000001,0.1275932776241817
149,1055.3,0.12552023351583122
150,1065.06,0.11099552424956044
151,1074.92,0.12020448603588935
152,1084.87,0.10638808076955797
153,1094.9,0.12059690034530635
154,1096.4782,0.11998405095257772
155,1105.03,0.11675649471089744
156,1115.26,0.11422718803500762
157,1125.5800000000002,0.10676223613909529
158,1135.99,0.11891298902316048
159,1143.8700000000001,0.11166163087008013
160,1154.45,0.11414903611632507
161,1165.13,0.11535184334032278
162,1175.92,0.09443535973984857
163,1184.07,0.11050691592670076
164,1195.02,0.09087768749063099
165,1206.0800000000002,0.07767349823008929
166,1214.44,0.06080571557022234
167,1225.68,0.08438620586963566
168,1234.17,0.10464390678084731
169,1245.59,0.11017319664021567
170,1254.23,0.10737879551805651
171,1258.92541,0.1036705102324
172,1265.83,0.09831517917025324
173,1274.61,0.11194432854885505
174,1286.4,0.1138845334661347
175,1295.3200000000002,0.10058315449769827
176,1304.3,0.09904499766624547
177,1316.3600000000001,0.11047879719995135
178,1325.49,0.10700510071095756
179,1334.68,0.0999790363589474
180,1343.93,0.10826762414392083
181,1356.3600000000001,0.10541033518902568
182,1365.76,0.09873011331645815
183,1375.23,0.10045027227037148
184,1384.76,0.10043603336126845
185,1394.3600000000001,0.09135548527864627
186,1404.03,0.092586368022505
187,1413.76,0.09445018290334734
188,1423.5600000000002,0.09440725861067054
189,1433.43,0.09375930514447461
190,1443.36,0.09585096381526231
191,1445.43977,0.09606689990305797
192,1446.6899999999998,0.09620997131094763
193,1453.37,0.09435110509988842
194,1463.44,0.08982632968890547
195,1473.59,0.08901360252689185
196,1483.8000000000002,0.08904538405160524
197,1494.09,0.089217633825288
198,1504.44,0.08603721228569775
199,1511.3899999999999,0.08066138516491012
200,1518.36,0.0831651376063648
201,1525.3700000000001,0.08157984917230415
202,1535.95,0.0752027375985008
203,1546.59,0.07761194471142446
204,1553.73,0.07488224843193902
205,1564.5,0.07552980769943787
206,1575.3500000000001,0.07798984521590607
207,1586.27,0.07920256620022248
208,1593.59,0.07990638598091808
209,1604.6299999999999,0.07788354433868848
210,1615.76,0.07736670572654941
211,1623.21,0.07478761766182021
212,1634.47,0.07678396120425633
213,1645.8,0.07674923821454065
214,1653.39,0.0732355870855078
215,1659.58691,0.07495053551329223
216,1664.85,0.07644572490925977
217,1672.5400000000002,0.07160969109779
218,1676.39,0.07624710831831555
219,1684.13,0.07736035576945001
220,1695.8100000000002,0.07421799471379764
221,1703.6299999999999,0.07221246818509887
222,1715.44,0.06998525441221748
223,1723.36,0.06930241040872717
224,1735.31,0.07132426217113763
225,1743.32,0.06994991244033492
226,1755.4,0.07190084148551637
227,1763.5,0.06817957602740128
228,1775.73,0.06884006886039541
229,1783.9199999999998,0.06902883767496792
230,1796.2900000000002,0.07085006604325389
231,1804.5800000000002,0.07024919738303487
232,1817.0900000000001,0.06693650128661267
233,1825.4799999999998,0.06722252515160211
234,1833.8999999999999,0.06558854377415407
235,1846.61,0.0620431627281488
236,1855.14,0.061993042128430056
237,1863.7,0.06273116628627387
238,1876.62,0.06475018854320634
239,1885.28,0.061475695226258606
240,1893.98,0.05970504491939425
241,1905.46072,0.061096158043180505
242,1907.11,0.061303568699802906
243,1915.91,0.05984709238202102
244,1924.76,0.05870754676697902
245,1933.64,0.059340553573580944
246,1947.04,0.06080112190786763
247,1956.03,0.058129944260497286
248,1965.06,0.06067238317531884
249,1974.13,0.06134882865233228
250,1983.24,0.05918936069153763
251,1996.9899999999998,0.05789093394500345
252,2006.21,0.05842701153023653
253,2015.47,0.05729034567766151
254,2024.77,0.05819355638727838
255,2034.1200000000001,0.056418857799635146
256,2043.51,0.0571207757741838
257,2052.94,0.05476587031092435
258,2067.17,0.055024132310692975
259,2071.93,0.05731932321152915
260,2076.71,0.055883152393461255
261,2086.3,0.05676695317896942
262,2095.93,0.05466212052666948
263,2105.6,0.054805154436561435
264,2115.32,0.05485982904919326
265,2125.08,0.054915780224017
266,2134.8900000000003,0.05270649210158061
267,2144.75,0.0530926946818841
268,2154.65,0.05383506382437949
269,2164.59,0.052417109529066766
270,2174.58,0.052038015936493945
271,2184.62,0.05149322304666098
272,2187.7616199999998,0.05182266730516853
273,2194.7,0.05257850245979667
274,2204.83,0.05147583547476077
275,2215.01,0.04983571273955193
276,2225.24,0.04887942425417017
277,2235.51,0.05055185516865006
278,2245.83,0.049175090332957014
279,2256.19,0.047768984897125624
280,2266.61,0.04798540856108672
281,2277.0699999999997,0.04851627162490948
282,2287.58,0.048978418938559296
283,2292.85,0.047154484870332324
284,2303.43,0.04730423613374004
285,2314.07,0.046114976496940234
286,2324.75,0.04098857626000209
287,2335.48,0.044051140272891004
288,2346.26,0.042893448535607
289,2357.09,0.04467549104815005
290,2362.52,0.042517844579369704
291,2373.43,0.04304411589163607
292,2384.38,0.041013806603764094
293,2395.39,0.0422282364156846
294,2406.44,0.04124347562746676
295,2417.55,0.0414887039390414
296,2423.13,0.042843400219742256
297,2434.31,0.04169972248107479
298,2445.5499999999997,0.04275986384219982
299,2456.83,0.04227738460318649
300,2462.5,0.04190421453357607
301,2473.86,0.04084494409428605
302,2485.28,0.04089581275478852
303,2496.76,0.039122400515083464
304,2502.51,0.041766049245196356
305,2511.88643,0.03947287622592291
306,2514.0600000000004,0.0389460089138071
307,2519.8599999999997,0.039285301393802645
308,2525.67,0.03846826042979817
309,2537.32,0.03865272816978922
310,2543.17,0.03832438342978472
311,2554.9100000000003,0.0398065901737757
312,2566.71,0.03900053625376663
313,2572.62,0.04010570084976208
314,2584.5,0.03966633937775295
315,2596.4300000000003,0.03916956068574377
316,2602.41,0.038219651173739176
317,2614.42,0.03774241492972995
318,2626.4900000000002,0.038592228021720666
319,2632.55,0.039503320957716005
320,2644.7,0.04142840649770667
321,2656.8999999999996,0.04220481481769729
322,2663.03,0.03955216364569258
323,2675.3199999999997,0.04034375096968313
324,2687.6699999999996,0.04048604762967363
325,2693.87,0.038832602349668864
326,2706.2999999999997,0.03947766145765931
327,2712.54,0.03793495240165451
328,2725.0600000000004,0.03744922051364488
329,2737.64,0.03843596796163522
330,2743.95,0.03532522479763037
331,2756.6099999999997,0.03588447469362063
332,2762.9700000000003,0.036727304309615745
333,2775.72,0.037509753209605944
334,2782.1200000000003,0.03581704904960102
335,2794.96,0.03164829695359115
336,2807.8599999999997,0.03266756419358124
337,2814.34,0.03665773248157625
338,2827.33,0.037758558725566264
339,2833.84,0.03686514668156126
340,2846.92,0.035790431929551204
341,2853.4900000000002,0.03445028922154615
342,2866.66,0.03688980347353603
343,2873.27,0.03729002698953095
344,2884.0315,0.03698731983676581
345,2886.5299999999997,0.03692169677367584
346,2893.1800000000003,0.03708768031484397
347,2913.2400000000002,0.03908922806459324
348,2926.68,0.03774504785305935
349,2946.97,0.037054895048593384
350,2967.4,0.037183494950257266
351,2987.97,0.03699822755805101
352,3008.6800000000003,0.03700045287197461
353,3029.54,0.03693974608532305
354,3050.53,0.03687882681150635
355,3071.68,0.0368805106304095
356,3092.97,0.0366924671554425
357,3107.2499999999995,0.03690446318068774
358,3128.79,0.036148519538095475
359,3150.4700000000003,0.03596080860163307
360,3172.31,0.0361459007578905
361,3186.9500000000003,0.034638433741755376
362,3209.05,0.035355720923682527
363,3231.29,0.03391636081173955
364,3253.69,0.0357818037925164
365,3268.71,0.03682558412159088
366,3291.3599999999997,0.03637136693474247
367,3306.56,0.03587904074312676
368,3311.31121,0.035727859784086394
369,3321.8199999999997,0.0354072100093229
370,3329.48,0.03660890918997882
371,3337.1499999999996,0.03582359663327267
372,3344.85,0.03512014886448031
373,3352.56,0.03473801935832589
374,3360.2799999999997,0.0355330481148094
375,3368.03,0.03533159165920671
376,3375.79,0.03235811346624195
377,3383.58,0.03313923006119099
378,3391.38,0.03548185491877795
379,3399.19,0.03623837803900285
380,3407.0299999999997,0.03452411594714154
381,3414.88,0.03506692211791817
382,3422.76,0.036396523076608595
383,3430.65,0.03567242229793695
384,3438.55,0.03585232978190324
385,3446.48,0.032342882053783314
386,3454.43,0.03518958085093927
387,3462.3900000000003,0.032942217910733144
388,3470.37,0.03423426149580289
389,3478.37,0.03206014160614849
390,3486.39,0.03378418824176997
391,3494.43,0.033118341402667305
392,3502.48,0.03479707282620257
393,3510.56,0.03422739903765163
394,3518.6499999999996,0.03319338351173863
395,3526.7599999999998,0.032828604511101485
396,3534.89,0.034494052035740214
397,3543.04,0.0359445460856548
398,3551.21,0.03554185666084525
399,3559.39,0.03489099549867363
400,3567.6000000000004,0.03431578912441581
401,3575.82,0.031939951012795925
402,3584.0699999999997,0.03098454768908983
403,3592.3300000000004,0.03113259262802167
404,3600.61,0.03488623409222937
405,3606.07,0.033353855492540246
406,3608.8199999999997,0.03188872771797155
407,3611.57,0.03447318994340286
408,3614.31,0.03193675390619623
409,3617.0600000000004,0.03342346613162753
410,3619.8,0.032424540094420896
411,3622.5499999999997,0.0370951623198522
412,3625.3,0.0372491945452835
413,3628.04,0.03585396850807687
414,3630.79,0.03263358073350817
415,3633.5299999999997,0.03313588469630155
416,3636.28,0.02987395692173285
417,3639.0299999999997,0.03654859914716416
418,3641.7699999999995,0.03205779310995752
419,3644.52,0.032191305335388824
420,3647.2700000000004,0.03291068756082013
421,3650.01,0.035212181523613495
422,3652.7599999999998,0.0353413837490448
423,3655.5,0.03363912771183817
424,3658.25,0.03251539993726947
425,3661.0,0.03333219216270077
426,3663.74,0.03413913612549414
427,3666.4900000000002,0.031239628350925447
428,3669.23,0.03483225231371882
429,3671.98,0.03543751453915012
430,3674.73,0.03268030676458142
431,3677.47,0.03204140072737479
432,3680.2200000000003,0.031896062952806094
433,3682.96,0.033310366915599465
434,3685.71,0.03481522914103077
435,3688.46,0.030735371366462073
436,3691.2,0.034302205329255445
437,3693.95,0.033926227554686744
438,3696.69,0.035476621517480114
439,3699.44,0.03405637374291142
440,3702.19,0.03279561596834272
441,3704.9300000000003,0.03149824993113609
442,3707.68,0.03320987215656739
443,3710.4199999999996,0.03623905611936076
444,3713.17,0.03803374834479206
445,3715.9199999999996,0.03702557057022337
446,3718.66,0.04358629453301673
447,3721.41,0.06724139675844804
448,3724.15,0.1052221207212414
449,3726.9,0.1380740929466727
450,3729.65,0.12047916517210402
451,3732.39,0.08061940913489739
452,3735.1400000000003,0.04972505136032869
453,3737.88,0.03577708532312206
454,3740.6299999999997,0.03629162754855336
455,3743.38,0.034825539773984664
456,3746.12,0.032662493736778035
457,3748.8700000000003,0.03258065596220933
458,3751.62,0.03341511818764064
459,3754.36,0.03630153215043401
460,3757.11,0.03696027437586531
461,3759.8500000000004,0.03703713833865868
462,3762.6,0.036919960564089985
463,3765.35,0.03688252278952129
464,3768.09,0.035153046752314655
465,3770.8399999999997,0.037331158977745964
466,3773.5800000000004,0.039101692940539334
467,3776.33,0.04041124516597063
468,3779.0800000000004,0.04185210739140194
469,3781.82,0.04198534135419531
470,3784.5699999999997,0.04148424357962661
471,3787.31,0.04078090754241998
472,3790.06,0.03778015976785128
473,3792.81,0.036114481993282585
474,3795.5499999999997,0.035774975956075955
475,3798.3,0.03577048818150726
476,3801.04,0.035286302144300626
477,3801.8939600000003,0.03599218306605693
478,3803.7900000000004,0.037561189632920364
479,3806.54,0.04125308317296961
480,3809.2799999999997,0.04412102924560049
481,3812.03,0.04208829278564973
482,3814.77,0.04167826885828062
483,3817.52,0.04042671239832986
484,3820.27,0.0406548959383791
485,3823.01,0.03964132201100998
486,3825.76,0.03844705555105922
487,3828.5000000000005,0.036427881623690095
488,3831.25,0.03395204516373934
489,3834.0,0.03442089870378859
490,3836.7400000000002,0.034493594776419466
491,3839.49,0.034872198316468705
492,3842.23,0.03604122438909959
493,3844.98,0.038670227929148836
494,3847.7299999999996,0.042396021469198075
495,3850.47,0.04220565754182896
496,3853.22,0.0426988310818782
497,3855.9700000000003,0.044210984621927435
498,3858.71,0.04287846069455832
499,3861.46,0.045058614234607566
500,3864.2,0.04777998030723844
501,3866.9500000000003,0.046757133847287684
502,3869.7,0.04501326738733693
503,3872.4399999999996,0.04508791345996781
504,3875.19,0.04251703700001705
505,3877.93,0.040324553072647935
506,3880.6800000000003,0.03995777661269718
507,3883.43,0.038302740152746415
508,3886.17,0.0399129662253773
509,3888.92,0.038903509765426544
510,3891.6600000000003,0.03739858583805742
511,3894.41,0.03991728937810666
512,3897.16,0.0403870829181559
513,3899.9,0.04102276899078679
514,3902.6499999999996,0.042056472530836025
515,3905.3900000000003,0.04345852860346691
516,3908.14,0.04408016214351615
517,3910.8900000000003,0.04442006568356539
518,3913.63,0.04397662175619628
519,3916.3799999999997,0.043985635296245516
520,3919.12,0.0423909613688764
521,3921.87,0.04191293490892564
522,3924.62,0.04003967844897489
523,3927.3599999999997,0.03657036452160577
524,3930.11,0.03537898806165501
525,3932.85,0.03489731413428589
526,3935.6000000000004,0.03704358767433513
527,3938.35,0.03869374121438437
528,3941.0899999999997,0.041152947287015254
529,3943.84,0.04108270082706449
530,3946.58,0.04240310689969538
531,3949.33,0.04215141043974462
532,3952.08,0.043211843979793864
533,3954.82,0.04160190005242474
534,3957.57,0.03901527359247399
535,3960.32,0.035597357132523225
536,3963.06,0.03295600320515411
537,3965.81,0.032444086745203354
538,3968.55,0.03350375281783423
539,3971.2999999999997,0.03369661635788347
540,3974.05,0.035439889897932716
541,3976.79,0.037714775970563594
542,3979.54,0.040617859510612836
543,3982.28,0.04357462558324372
544,3985.0299999999997,0.043523949123292965
545,3987.78,0.0446182826633422
546,3990.52,0.04568657873597309
547,3993.27,0.04481032227602233
548,3996.0099999999998,0.04567520834865321
549,3998.76,0.04642671188870245
550,4001.5099999999998,0.04637889542875169
551,4004.2499999999995,0.045533891501382574
552,4007.0,0.04665258504143181
553,4009.74,0.048449531114062694
554,4012.4900000000002,0.048517264654111936
555,4015.24,0.04782865819416118
556,4017.98,0.04838748426679206
557,4020.73,0.047330727806841305
558,4023.4700000000003,0.04627896387947219
559,4026.22,0.04747882741952143
560,4028.9700000000003,0.04577556095957067
561,4031.71,0.04598580703220155
562,4034.4600000000005,0.04755572057225079
563,4037.2000000000003,0.047677166644881676
564,4039.95,0.04567832018493091
565,4042.7000000000003,0.04668528372498016
566,4045.44,0.04643665979761104
567,4048.19,0.04653114333766028
568,4050.93,0.046033269410291164
569,4053.68,0.0446589829503404
570,4056.43,0.046155846490389646
571,4059.1699999999996,0.04414481256302053
572,4061.92,0.045966846103069774
573,4064.67,0.04609331964311902
574,4067.4100000000003,0.04758753571574989
575,4070.16,0.04567129925579914
