,lambda (Angstroms),Total Flux (erg/s/cm^2/Angstrom)
0,102.05000000000001,1.3831722977079617
1,103.95,1.3792304345953568
2,104.712855,1.377647819835572
3,105.88,1.3649273772646977
4,108.10000000000001,1.3407322339676198
5,110.11,1.3188267293904683
6,113.98,1.2766493459866837
7,117.99000000000001,1.2329462055996148
8,120.22644299999999,1.2085891686757126
9,121.01,1.2014355834552701
10,124.98,1.1651656498951062
11,127.01,1.1466186148231583
12,127.89,1.138579574637782
13,130.87,1.1113530104386666
14,132.07999999999998,1.1003046094262745
15,133.92,1.0834937960077602
16,137.04,1.0549981492450622
17,138.038426,1.0458766117324543
18,139.9,1.0337211071548043
19,143.16,1.012554972840726
20,146.84,0.9888104245161221
21,150.95000000000002,0.9619907055209801
22,154.82,0.9367473128861387
23,158.489319,0.9128147703798607
24,159.16,0.9095091343160906
25,162.12,0.8949194276808466
26,165.89,0.876349519830215
27,170.14999999999998,0.8553454125085463
28,172.91,0.8417480349635215
29,176.94000000000003,0.8218808499956044
30,179.82000000000002,0.8076845599964483
31,181.9,0.7974320708581687
32,181.970086,0.7970865552419965
33,186.14,0.7814113443555535
34,190.91,0.7634836721046456
35,194.01000000000002,0.7518385845594013
36,198.07999999999998,0.7365361004929034
37,202.22,0.7209778584279645
38,205.04000000000002,0.7103819187764843
39,208.929613,0.6957253747857384
40,209.81,0.6932310910118854
41,216.19,0.6752560546432523
42,220.20999999999998,0.6639091778655244
43,222.76000000000002,0.6566976365363685
44,226.89999999999998,0.645015478660798
45,230.05999999999997,0.6367032097509422
46,233.79,0.627223282626334
47,239.79,0.6108521147342024
48,239.88329199999998,0.6105840788957484
49,245.94000000000003,0.5971175872086824
50,252.25,0.5835007049146402
51,256.94,0.5726924397737437
52,259.92,0.5665983710722784
53,264.14,0.5575189578708748
54,269.05,0.5467558531412794
55,274.05,0.5357820541253981
56,275.42287,0.5327694835008554
57,279.15,0.526482466631074
58,283.68,0.5188579218407672
59,290.29,0.5075928859723501
60,295.69,0.4985410170964874
61,301.18,0.4892569770393603
62,308.2,0.4774717019007389
63,316.227766,0.4639988825538505
64,318.29999999999995,0.46139959523101465
65,327.96999999999997,0.4492114169848579
66,337.92999999999995,0.4366448400767171
67,348.2,0.4236886034264555
68,357.13,0.4124473321453613
69,363.078055,0.40498012622755514
70,366.3,0.40194745180685176
71,374.83000000000004,0.39387284949013224
72,385.33,0.3838678797051903
73,395.21,0.3746162901589782
74,405.35,0.3650659488352342
75,413.84,0.35703403579198123
76,416.86938299999997,0.3541627516919492
77,421.53000000000003,0.35077734921313114
78,430.35999999999996,0.34439220862238984
79,441.4,0.3364410404330597
80,450.64,0.32975441489416385
81,460.08,0.3229236502829975
82,469.71,0.3159716294031742
83,478.630092,0.3095520170888581
84,479.54999999999995,0.3090419558974237
85,489.59000000000003,0.30343075719008566
86,499.84000000000003,0.2977661827637696
87,505.63,0.29453923194051396
88,511.48,0.29146449791183593
89,519.8,0.2868460687599384
90,529.46,0.2814740586869419
91,540.55,0.2752775943847131
92,549.5408739999999,0.27035663192498205
93,550.6,0.26991515479896694
94,559.54,0.26620614785110375
95,569.94,0.2618646252696967
96,580.54,0.25734053408095514
97,589.97,0.25343927034512176
98,599.5600000000001,0.2493663649234205
99,609.3,0.2452223275462183
100,620.63,0.2406285360407048
101,630.71,0.23639723783103345
102,630.957344,0.23629300934392788
103,639.49,0.23343978174637886
104,649.88,0.23003627007105643
105,657.4000000000001,0.2275485472665882
106,665.0200000000001,0.2250502673237627
107,674.27,0.22194586902571348
108,685.22,0.21824361837559023
109,694.76,0.21529977837630485
110,704.4200000000001,0.21198122681099058
111,715.87,0.20836347146908096
112,724.43596,0.20552793317731105
113,725.8299999999999,0.20518602211696804
114,734.23,0.20312874595902713
115,744.4399999999999,0.2007481899872919
116,754.8000000000001,0.19825148395916478
117,765.3,0.1956774760117387
118,774.16,0.19364694354752965
119,784.93,0.19107823889859832
120,795.85,0.18843636619327517
121,805.0699999999999,0.18621578479372583
122,814.39,0.18395411802324857
123,825.72,0.18133080869712115
124,831.763771,0.1795525510553629
125,835.2800000000001,0.17873730431376694
126,844.95,0.17745376170292942
127,854.7399999999999,0.17568452871636278
128,864.63,0.1740109240833552
129,874.65,0.1723215637099744
130,884.77,0.17066828169015272
131,895.02,0.16890871392995777
132,905.3799999999999,0.16695621615867787
133,915.87,0.16677790364702472
134,924.34,0.19515330179347826
135,935.0400000000001,0.23614216162429918
136,945.87,0.3069152587147469
137,954.62,0.3690102896511659
138,954.992586,0.3698236664729998
139,965.6800000000001,0.39319753495075416
140,974.61,0.18768994682812312
141,985.9,0.34904182903366565
142,995.02,0.35876711775948916
143,1004.23,0.4549137481503702
144,1015.86,0.43752680997946314
145,1025.26,0.2628934172187988
146,1034.74,0.3383876726048522
147,1044.32,0.5251123631743028
148,1053.98,0.5128315018904712
149,1066.18,0.42708459426492806
150,1076.05,0.4805034968662305
151,1086.01,0.4008341411325904
152,1096.06,0.4891102270640078
153,1096.4782,0.48830096583529425
154,1106.2,0.4698065678589597
155,1113.87,0.45174852916146996
156,1124.17,0.41484009779456715
157,1134.57,0.49179947583186917
158,1145.07,0.45242806327337604
159,1155.67,0.4704663601190877
160,1163.68,0.47909393339589434
161,1174.44,0.3630866652883338
162,1185.31,0.4596825275253985
163,1196.28,0.34502609916666804
164,1204.57,0.2748503587752482
165,1215.72,0.2169969073440864
166,1224.1399999999999,0.33255533917813285
167,1235.47,0.4498983646745397
168,1244.03,0.4815905896744729
169,1255.55,0.45974751303886907
170,1258.92541,0.43824103707508577
171,1264.25,0.4045414466418476
172,1275.9499999999998,0.49254340220619125
173,1284.7900000000002,0.5090443152992509
174,1293.7,0.41703114761363563
175,1305.6699999999998,0.41000803446023343
176,1314.72,0.4884589052172684
177,1323.83,0.4674105495925821
178,1336.0800000000002,0.4199254133244804
179,1345.34,0.4807702417454909
180,1354.67,0.4650104893878264
181,1364.06,0.4214739106484407
182,1373.51,0.43592500552733365
183,1386.22,0.4369614669993685
184,1395.8300000000002,0.3892835915270046
185,1405.5,0.39877238967291934
186,1415.2500000000002,0.4020509526432057
187,1425.06,0.4083202892317708
188,1434.94,0.402874845041661
189,1441.5600000000002,0.41939363425840925
190,1445.43977,0.42169846619216234
191,1448.21,0.42343236868215667
192,1454.9,0.4114377970433707
193,1464.9799999999998,0.383309527668339
194,1475.14,0.3798067704411244
195,1485.3600000000001,0.38318359732477275
196,1495.66,0.3866184363562383
197,1506.03,0.3674521235170439
198,1512.9799999999998,0.33399211635866394
199,1516.46,0.35127569478871246
200,1523.46,0.3415448077227182
201,1534.0300000000002,0.3048357752530668
202,1544.6599999999999,0.3264567268942784
203,1555.3700000000001,0.3101458906833071
204,1566.15,0.31259540260167595
205,1573.38,0.3272206879606561
206,1584.2800000000002,0.33767516810075077
207,1595.26,0.3411339603886626
208,1606.32,0.33364266482439164
209,1613.74,0.3330932665344377
210,1624.92,0.31658293919189257
211,1636.18,0.3308474239971646
212,1643.74,0.33329582196589086
213,1655.1299999999999,0.31099903901136583
214,1659.58691,0.3190101809373359
215,1666.6000000000001,0.33177061493229765
216,1670.45,0.3024492589889193
217,1678.1599999999999,0.3317793316321798
218,1685.8999999999999,0.3418897578654919
219,1693.6799999999998,0.3232058222188728
220,1705.42,0.31110446045906454
221,1713.3000000000002,0.2975644701126174
222,1725.17,0.2948428072430327
223,1733.1399999999999,0.30910607766674036
224,1745.15,0.3013104982173965
225,1753.2,0.3166390448812417
226,1765.36,0.29329163338215586
227,1773.51,0.2982149253461731
228,1785.8,0.3008472127373108
229,1794.0400000000002,0.3162725654714828
230,1806.48,0.3121530208128785
231,1814.82,0.29180801884722257
232,1823.19,0.29512247047161816
233,1835.83,0.28444321641335785
234,1844.3000000000002,0.26428561333792544
235,1857.0900000000001,0.2645640272299231
236,1865.66,0.2703615694546627
237,1874.2700000000002,0.28610064979947114
238,1882.9199999999998,0.2670513682643484
239,1895.9699999999998,0.25788907993679316
240,1904.73,0.26834652823185956
241,1905.46072,0.2676341803021091
242,1913.52,0.2598885264521817
243,1926.78,0.25430053644276707
244,1935.6799999999998,0.2571848432991932
245,1944.61,0.26781191692030387
246,1953.5900000000001,0.2537333018158888
247,1967.1299999999999,0.27140913494353036
248,1976.2099999999998,0.27561134238806395
249,1985.33,0.263351238852177
250,1994.4899999999998,0.25636102433586944
251,2003.6999999999998,0.2607374210940362
252,2012.95,0.2528798068717824
253,2026.9,0.25986265245011325
254,2036.26,0.24970538303170292
255,2045.66,0.25677320263287207
256,2055.1,0.24582561125362062
257,2064.58,0.24591630889394867
258,2074.11,0.25951981780875094
259,2078.89,0.2522347556484944
260,2083.69,0.2596368379980276
261,2093.2999999999997,0.2470932249519888
262,2102.9700000000003,0.24672684543531917
263,2112.67,0.24818523268333412
264,2127.32,0.24901663610430516
265,2137.14,0.23395849041105846
266,2147.0,0.2392399337373912
267,2156.91,0.2451488883381982
268,2166.87,0.23716605421347955
269,2176.87,0.23505020910834035
270,2186.92,0.2325057752776754
271,2187.7616199999998,0.2331324156007767
272,2197.01,0.24013142919654645
273,2207.15,0.23370568839809688
274,2217.3399999999997,0.22291776978505934
275,2222.45,0.21755087713416416
276,2232.71,0.23004476958070333
277,2243.02,0.2210333842126545
278,2253.37,0.2120560765929353
279,2263.77,0.21451979115862804
280,2274.2200000000003,0.2190316279097328
281,2284.7200000000003,0.2236702868462495
282,2295.26,0.21215852353109585
283,2305.86,0.21351982683843654
284,2316.5,0.20488540789410684
285,2327.19,0.1713110111351891
286,2332.56,0.19098127384843624
287,2343.32,0.18407168814909525
288,2354.1400000000003,0.19755526907224868
289,2365.0099999999998,0.18232177218081413
290,2375.92,0.18738825303770912
291,2386.8900000000003,0.17429720051709846
292,2392.39,0.18306274091241675
293,2403.44,0.17706304388846533
294,2414.53,0.18033162461284347
295,2425.67,0.19047892752263362
296,2436.87,0.1844752970549181
297,2442.49,0.19258707069522518
298,2453.76,0.19026295128708645
299,2465.09,0.18795609850144213
300,2476.4700000000003,0.18135056790120976
301,2482.17,0.182550597038176
302,2493.63,0.17331902193460283
303,2505.1400000000003,0.19097666901644164
304,2510.9199999999996,0.17049775365006706
305,2511.88643,0.17078630211911797
306,2516.7099999999996,0.17225790676554134
307,2522.51,0.16760396545311454
308,2534.15,0.17015552116403723
309,2545.85,0.1681725343786245
310,2557.6,0.1786791955129322
311,2563.5,0.17346865003994633
312,2575.33,0.1810724878458068
313,2587.2099999999996,0.17859657357138767
314,2593.18,0.17559149518601042
315,2605.15,0.17007276716708816
316,2617.1699999999996,0.16684728706788635
317,2623.21,0.17420897577011774
318,2635.31,0.18057127234246867
319,2647.48,0.19441933600242822
320,2653.58,0.19955028220832413
321,2665.83,0.18115262253983644
322,2671.98,0.18832011666545284
323,2684.31,0.18851273366851787
324,2696.7000000000003,0.17904980817524746
325,2702.9199999999996,0.1840612693884725
326,2715.39,0.1741926205667548
327,2727.9300000000003,0.17305743883264577
328,2734.21,0.17987145754953537
329,2746.83,0.15761575248697907
330,2753.1699999999996,0.16160112870753318
331,2765.8700000000003,0.1674718003165296
332,2772.25,0.1737282148728601
333,2785.05,0.16202808232129745
334,2797.8999999999996,0.13543529768945525
335,2804.35,0.14246137933339437
336,2817.2999999999997,0.1692435905409931
337,2823.79,0.1793175105207086
338,2836.8199999999997,0.17380059839986006
339,2843.3599999999997,0.16919636629929602
340,2856.49,0.1604018500178884
341,2863.0699999999997,0.17708735625310074
342,2876.2900000000004,0.1779124262271899
343,2882.92,0.1761330803821227
344,2884.0315,0.17608959377800437
345,2896.23,0.17568057084544247
346,2909.59,0.18959300626192793
347,2929.76,0.1815559611534333
348,2950.07,0.17794373333223718
349,2970.52,0.18087992279833953
350,2991.11,0.1803677295517404
351,3011.84,0.1819453535924398
352,3032.72,0.18107836044095899
353,3046.72,0.18131598917080902
354,3067.84,0.18185356851183992
355,3089.1000000000004,0.18238926514016932
356,3110.52,0.1822178100968399
357,3132.08,0.17887737234080894
358,3146.53,0.17911084949411846
359,3168.35,0.17962621527164185
360,3190.31,0.17023329833646375
361,3212.42,0.17545066420910552
362,3227.25,0.1663233311422252
363,3249.62,0.17687040054842132
364,3272.14,0.18309545276243724
365,3287.25,0.18080155427015396
366,3310.0299999999997,0.17990841001772423
367,3311.31121,0.17995825104514587
368,3325.3100000000004,0.18055773610988735
369,3332.98,0.18452727618872622
370,3340.66,0.17279632101343054
371,3348.36,0.1881895753298659
372,3356.0800000000004,0.18151333913803225
373,3363.82,0.16439341243792963
374,3371.5699999999997,0.16566429048369247
375,3379.34,0.18141947802118633
376,3387.1299999999997,0.18066257505041117
377,3394.94,0.17496678157136702
378,3402.77,0.18911069758405388
379,3410.61,0.17180931834260627
380,3418.48,0.1734835533387551
381,3426.36,0.17729099308076948
382,3434.25,0.18635803756864933
383,3442.17,0.1723517962941257
384,3450.11,0.17684046451133306
385,3458.06,0.17504813747440592
386,3466.0299999999997,0.1722521199292098
387,3474.02,0.17922651187574465
388,3482.0299999999997,0.17286741331401054
389,3490.06,0.1788068242440074
390,3498.1,0.16638963991986977
391,3506.17,0.17802376983332863
392,3514.25,0.169318204492653
393,3522.3500000000004,0.17831814864370837
394,3530.47,0.16823540228649475
395,3538.6099999999997,0.17860026542101212
396,3546.77,0.1818397380472605
397,3554.9399999999996,0.18216791541937435
398,3563.1400000000003,0.17779100702908474
399,3571.35,0.16605400338466061
400,3579.58,0.1650269092319675
401,3587.8300000000004,0.15394012457100537
402,3596.11,0.16761035414763975
403,3604.3999999999996,0.17512588847013963
404,3612.7,0.162919527538505
405,3621.03,0.1708932808444669
406,3628.1400000000003,0.1803829551548377
407,3630.89,0.18759866026785035
408,3633.63,0.17188226063499745
409,3636.37,0.1566137610021446
410,3639.1099999999997,0.15335586136929172
411,3641.86,0.16442236648230435
412,3644.6,0.16176176684945145
413,3647.34,0.1652665672165986
414,3650.08,0.17426466758374573
415,3652.8300000000004,0.15934727269675833
416,3655.57,0.18100657306390547
417,3658.3100000000004,0.1953273734310526
418,3661.05,0.17596287379819972
419,3663.7999999999997,0.16942947891121235
420,3666.54,0.17178217927835948
421,3669.2799999999997,0.18479097964550661
422,3672.0199999999995,0.18048778001265373
423,3674.77,0.18089828512566633
424,3677.5099999999998,0.1730110854928135
425,3680.25,0.1827557858599606
426,3683.0,0.17491039097297323
427,3685.7400000000002,0.16787649134012034
428,3688.48,0.1730559917072675
429,3691.2200000000003,0.1807740920744146
430,3693.97,0.16689129718742723
431,3696.7100000000005,0.16910539755457435
432,3699.4500000000003,0.18607149792172148
433,3702.19,0.1822268982888686
434,3704.94,0.16879220340188122
435,3707.68,0.16126770376902835
436,3710.4199999999996,0.1779137041361755
437,3713.16,0.1915411045033226
438,3715.91,0.18772760961633525
439,3718.65,0.19478440998348237
440,3721.39,0.20611851035062947
441,3724.13,0.2370899107177766
442,3726.88,0.31291321583078924
443,3729.6200000000003,0.45684421619793636
444,3732.36,0.5774157165650835
445,3735.1099999999997,0.5854299216780962
446,3737.85,0.47615722204524324
447,3740.5899999999997,0.3011670224123904
448,3743.3300000000004,0.2280002227795375
449,3746.08,0.20918932789255013
450,3748.8199999999997,0.18475822825969726
451,3751.56,0.18029502862684435
452,3754.2999999999997,0.17335722899399147
453,3757.05,0.1807970341070041
454,3759.79,0.18594443447415124
455,3762.53,0.19224393484129837
456,3765.27,0.2076633352084455
457,3768.0200000000004,0.20735914032145814
458,3770.76,0.20866654068860524
459,3773.5,0.19147814105575237
460,3776.2400000000002,0.1921349414228995
461,3778.99,0.20274264653591212
462,3781.73,0.21287144690305926
463,3784.47,0.2181256472702064
464,3787.2099999999996,0.22375314763735352
465,3789.96,0.23054205275036613
466,3792.7,0.24390285311751325
467,3795.44,0.22025045348466038
468,3798.19,0.210932958597673
469,3800.9300000000003,0.19714715896482013
470,3801.8939600000003,0.19043585145164965
471,3803.67,0.17807556591536378
472,3806.41,0.1839132359535242
473,3809.16,0.20566453836408669
474,3811.8999999999996,0.23408350840224712
475,3814.6400000000003,0.22443327844040756
476,3817.38,0.24730564847856798
477,3820.13,0.25909415088913046
478,3822.87,0.2317800209272909
479,3825.6099999999997,0.2154844909654513
480,3828.35,0.21791956100361173
481,3831.1,0.20551626341417423
482,3833.84,0.20078333345233465
483,3836.58,0.1812025034904951
484,3839.32,0.16098147352865552
485,3842.07,0.17424227593921798
486,3844.81,0.18519994597737843
487,3847.55,0.19726691601553883
488,3850.29,0.20426728605369932
489,3853.04,0.21990658846426178
490,3855.7799999999997,0.2388002585024222
491,3858.5199999999995,0.24320872854058262
492,3861.27,0.2351999309511451
493,3864.0099999999998,0.24689360098930554
494,3866.75,0.250832771027466
495,3869.49,0.2697691410656264
496,3872.2400000000002,0.25357904347618887
497,3874.98,0.2553955135143493
498,3877.7200000000003,0.25172928355250973
499,3880.46,0.24746575359067016
500,3883.2100000000005,0.23807035600123266
501,3885.9500000000003,0.21896952603939307
502,3888.69,0.20814599607755352
503,3891.4300000000003,0.21589296611571396
504,3894.18,0.2138149685262764
505,3896.9199999999996,0.20960473856443684
506,3899.66,0.21143180860259728
507,3902.3999999999996,0.2149441786407577
508,3905.15,0.2210474810513202
509,3907.89,0.23114115108948063
510,3910.63,0.23903762112764107
511,3913.38,0.23546622353820354
512,3916.1200000000003,0.23648259357636395
513,3918.86,0.2515256636145244
514,3921.6,0.24899003365268482
515,3924.35,0.2474453360632473
516,3927.0899999999997,0.24044040610140774
517,3929.8300000000004,0.23875817613956818
518,3932.57,0.2288946461777286
519,3935.3199999999997,0.20327544858829105
520,3938.06,0.20539051862645152
521,3940.7999999999997,0.19660418866461193
522,3943.54,0.20730585870277235
523,3946.29,0.22689186111333484
524,3949.03,0.23096953115149527
525,3951.77,0.2461939011896557
526,3954.5099999999998,0.23717307122781614
527,3957.26,0.23020967363837863
528,3960.0,0.22572214367653903
529,3962.7400000000002,0.21939991371469947
530,3965.48,0.21131758375285992
531,3968.23,0.19992768616342238
532,3970.97,0.1745654562015828
533,3973.7099999999996,0.16520322623974326
534,3976.46,0.17891192865030575
535,3979.2,0.18312829868846617
536,3981.94,0.20117926872662661
537,3984.68,0.22455293876478702
538,3987.4300000000003,0.2306775411753495
539,3990.17,0.23952321121350992
540,3992.91,0.25775558125167036
541,3995.65,0.2591667512898308
542,3998.3999999999996,0.25773925370039324
543,4001.1400000000003,0.25762502373855367
544,4003.88,0.26836949377671415
545,4006.6200000000003,0.27273516381487456
546,4009.37,0.26965436622543704
547,4012.1099999999997,0.25931083626359747
548,4014.85,0.2621726063017579
549,4017.5899999999997,0.26091707633991834
550,4020.34,0.2627642787504808
551,4023.08,0.26975404878864123
552,4025.82,0.26882911882680166
553,4028.57,0.26810562123736414
554,4031.31,0.2611967912755246
555,4034.05,0.257615961313685
556,4036.79,0.26724033135184544
557,4039.54,0.2656635337624079
558,4042.2799999999997,0.26634930380056837
559,4045.0199999999995,0.2732537738387288
560,4047.76,0.2677635438768892
561,4050.5099999999998,0.2597547462874517
562,4053.25,0.2618485163256121
563,4055.99,0.27149428636377254
564,4058.73,0.280297456401933
565,4061.48,0.27595785881249546
566,4064.2200000000003,0.2614970288506559
567,4066.96,0.25582549888881634
568,4069.7,0.2534499689269768
569,4072.4500000000003,0.26549447133753923
570,4075.19,0.27030824137569964
571,4077.9300000000003,0.2622474114138601
572,4080.67,0.25663988145202055
573,4083.4199999999996,0.258359083862583
574,4086.16,0.25726355390074346
575,4088.8999999999996,0.2529466239389039
576,4091.65,0.25031392634946636
