,lambda (Angstroms),Total Flux (erg/s/cm^2/Angstrom)
0,102.07000000000001,1.759274654527978
1,103.97,1.7542604150885415
2,104.712855,1.7522999939892747
3,105.9,1.7358426482517384
4,108.12,1.7050669038706991
5,109.88,1.6806687440926502
6,114.0,1.6235535524012166
7,118.01,1.567963229423411
8,120.22644299999999,1.5372425704458794
9,121.02999999999999,1.5279052380526674
10,125.0,1.4817648749885561
11,127.03,1.458171546908721
12,127.91,1.4479441137121423
13,130.89,1.4133094993891826
14,132.1,1.3992481524688867
15,133.94,1.3778631330496764
16,137.06,1.3416036925036245
17,138.038426,1.330232239777828
18,139.93,1.3145185641492831
19,142.86,1.2902010101067107
20,146.85999999999999,1.2570122198071925
21,150.98,1.2227899614069884
22,154.85,1.1906457029573794
23,158.489319,1.1604182126823743
24,158.82,1.158341908667179
25,162.15,1.1374326060683557
26,165.92,1.11376265330092
27,170.17999999999998,1.0870135729411645
28,172.94,1.0696848226925904
29,176.97,1.044380415061883
30,179.85000000000002,1.0262975295764143
31,181.93,1.0132377317702426
32,181.970086,1.0129860327824554
33,186.17000000000002,0.992869181364197
34,190.94,0.9700227381208774
35,194.04999999999998,0.9551276301180003
36,198.10999999999999,0.9356811738431832
37,201.79,0.9180563241571419
38,205.07000000000002,0.9023461561434964
39,208.929613,0.8838541247406646
40,209.85,0.8805389439999238
41,216.23,0.8575752680250277
42,220.25,0.843102493339278
43,222.8,0.8339201077378697
44,226.94,0.8190161279391127
45,230.09,0.8077944531726671
46,233.83,0.7945515510839348
47,239.83,0.7730677166335622
48,239.88329199999998,0.7728753929441633
49,245.98,0.7559113061913479
50,251.70999999999998,0.7400322496082274
51,256.97999999999996,0.7252819740640662
52,259.96,0.7171002897377661
53,264.18,0.7054096718716634
54,269.1,0.6917447721201881
55,274.1,0.677854701053242
56,275.42287,0.6741798348411085
57,279.19,0.6661468442626349
58,283.72999999999996,0.6564679463171403
59,289.67,0.643774324878762
60,295.74,0.6308451120824728
61,301.24,0.6191037808247151
62,308.25,0.6041689280789183
63,316.227766,0.5871699433917696
64,318.35,0.5837922643314833
65,328.02,0.5683889579977804
66,337.99,0.5525031837458652
67,348.26000000000005,0.5361408062757379
68,357.20000000000005,0.5219005237730175
69,363.078055,0.5125403839023737
70,366.36,0.508625656558791
71,374.89000000000004,0.4984444376639414
72,385.39,0.48589975141553343
73,395.28000000000003,0.47411381972431865
74,405.42,0.4620208992867132
75,413.90999999999997,0.45189007941528625
76,416.86938299999997,0.44835802059626395
77,421.60999999999996,0.44403520348899034
78,430.43,0.43599598909162135
79,441.46999999999997,0.42594281996906425
80,450.72,0.4175147403807804
81,460.16,0.40891205541511566
82,469.79,0.4001424663720699
83,478.630092,0.3920991727809996
84,479.63,0.39139951132966894
85,489.66999999999996,0.3843600959652331
86,499.93,0.377193121321696
87,505.71999999999997,0.373144454762624
88,511.57,0.36918659957288785
89,519.88,0.36337544752592954
90,529.5500000000001,0.3566111402172547
91,539.39,0.34970095448836536
92,549.42,0.3427374183957068
93,549.5408739999999,0.3426540015764559
94,559.64,0.3373607685364358
95,570.04,0.3318808696560111
96,580.64,0.3262283129394242
97,590.0699999999999,0.32128063810438523
98,599.66,0.31614832618041655
99,609.41,0.31098488176751826
100,619.31,0.30590088057749854
101,629.3700000000001,0.30057348489854907
102,630.957344,0.2997417417825268
103,639.6,0.2961695399321664
104,649.99,0.2918548104403152
105,657.5200000000001,0.2886860359991564
106,665.13,0.2856087460181182
107,674.38,0.2818001564695499
108,685.34,0.2771068775060572
109,694.8699999999999,0.2733854675679108
110,704.5400000000001,0.2691566049349751
111,715.99,0.2647259090397204
112,724.43596,0.261253932851157
113,725.95,0.2607966902793768
114,734.36,0.25826621476364925
115,744.5699999999999,0.2551872169722606
116,754.9300000000001,0.25206200574123344
117,765.43,0.2487329349665439
118,774.29,0.24628652713190105
119,785.0699999999999,0.2429471872698864
120,794.16,0.24033410382779796
121,805.1999999999999,0.23704885767041003
122,814.53,0.2342616097249001
123,825.86,0.2309385105842112
124,831.763771,0.228767592367954
125,835.4200000000001,0.2277132224042818
126,845.1,0.2261947446768611
127,854.88,0.22400160607622327
128,864.78,0.22196223062772485
129,874.79,0.21981988981868752
130,884.92,0.21767025216178965
131,895.17,0.21546867565703112
132,905.54,0.21309193630441206
133,916.02,0.2114992165912541
134,924.5,0.22759504634243927
135,935.2,0.24894008490820355
136,946.0300000000001,0.2840986131387856
137,954.79,0.3121863482449627
138,954.992586,0.31247026970993325
139,965.84,0.32772779786520745
140,974.78,0.22219238214338594
141,986.07,0.3110151332732109
142,995.1899999999999,0.30976847790598366
143,1004.4,0.3489343427160535
144,1016.03,0.3367345500712231
145,1025.43,0.250583187477809
146,1034.92,0.293511285061692
147,1044.49,0.3756225305809502
148,1054.1599999999999,0.3697539985194275
149,1063.91,0.3326390843932798
150,1076.23,0.3545654464410606
151,1086.1899999999998,0.3191997793952729
152,1096.24,0.35473933252678225
153,1096.4782,0.35445491557936193
154,1103.84,0.3459713297322813
155,1114.05,0.33904772969530755
156,1124.36,0.3199095167294702
157,1134.77,0.3510245908347692
158,1145.27,0.33276183330409104
159,1155.86,0.33831164413743564
160,1163.8700000000001,0.3406938285354611
161,1174.64,0.2864383760968512
162,1185.51,0.32809031072937767
163,1193.73,0.27879838797678963
164,1204.78,0.2461883593373616
165,1215.92,0.2069367890619564
166,1224.35,0.2638573691587548
167,1235.68,0.3133136643185086
168,1244.25,0.326880096314898
169,1255.76,0.3186656282026974
170,1258.92541,0.31020913540035133
171,1264.46,0.2957222545493605
172,1276.16,0.3308026179620057
173,1285.01,0.336640606953622
174,1293.92,0.3006438490909442
175,1305.89,0.29628810165926583
176,1314.94,0.32698936780323506
177,1324.05,0.3175982870929101
178,1336.31,0.2981591465321435
179,1345.5700000000002,0.32057414868608325
180,1354.9,0.31301336284334647
181,1364.29,0.2952142301463156
182,1373.74,0.29929945059499063
183,1386.4599999999998,0.29842571748463576
184,1396.0700000000002,0.272530879655193
185,1405.74,0.27453339497145623
186,1415.49,0.28198018114866064
187,1425.3,0.28144752047157084
188,1435.18,0.2797296717978046
189,1441.8,0.285225935540686
190,1445.43977,0.2856284411857597
191,1448.46,0.286084756796957
192,1455.14,0.2806057198074951
193,1465.2299999999998,0.268845861390778
194,1475.39,0.26677445004153655
195,1485.61,0.2669377218929886
196,1495.91,0.2671013046786985
197,1506.2800000000002,0.2587685345318842
198,1513.23,0.24404742194554285
199,1516.72,0.2511052114525456
200,1523.72,0.24637591820011548
201,1534.2900000000002,0.228676425388946
202,1544.9199999999998,0.23374771577846998
203,1555.63,0.22638421710225187
204,1566.41,0.2289730654935095
205,1573.64,0.23579504117707095
206,1584.5500000000002,0.23934891983649773
207,1595.53,0.24066204556340023
208,1606.59,0.23498138222456064
209,1614.01,0.23363107137698472
210,1625.2,0.2265433383063143
211,1636.46,0.23185715230311954
212,1644.02,0.231801935590495
213,1655.4099999999999,0.22186387985546946
214,1659.58691,0.22493893666670878
215,1666.89,0.2305203360691965
216,1670.73,0.21680846527532266
217,1678.4399999999998,0.23075225672824778
218,1686.1899999999998,0.23359352556873672
219,1693.97,0.2251752274498985
220,1705.71,0.21937129069987787
221,1713.5900000000001,0.21311203604994922
222,1725.46,0.210861575809511
223,1733.43,0.2169376202816009
224,1745.44,0.21281018089763606
225,1753.5,0.21841532449174456
226,1765.66,0.207641050311144
227,1773.8100000000002,0.20945899302727106
228,1786.1,0.20984449535625288
229,1794.3500000000001,0.2151100815412895
230,1806.78,0.21305510472674466
231,1815.1200000000001,0.20411119003379985
232,1823.5000000000002,0.20472795272841887
233,1836.14,0.19986010719858405
234,1844.62,0.1902884133621126
235,1853.13,0.190258252566314
236,1865.9800000000002,0.19181913832118921
237,1874.59,0.1973395209943002
238,1883.24,0.18828458105497492
239,1896.3,0.18327879809456016
240,1905.0500000000002,0.18765000162414444
241,1905.46072,0.18745188790790912
242,1913.84,0.18355687030121923
243,1927.11,0.18012118174576192
244,1936.0,0.1817202406562355
245,1944.94,0.18572609719837652
246,1953.92,0.17833183184585152
247,1967.46,0.18544437050139845
248,1976.54,0.1871722004122084
249,1985.6699999999998,0.18113672795468577
250,1994.83,0.1773717140761636
251,2004.04,0.1789659978293089
252,2013.2900000000002,0.1757285596877881
253,2027.2399999999998,0.17785259892300823
254,2036.6000000000001,0.17287097557115588
255,2046.0,0.17491323032463751
256,2055.4500000000003,0.1673779827097866
257,2064.9300000000003,0.16834949367393615
258,2074.47,0.17506612179608666
259,2079.25,0.17106535538349538
260,2084.04,0.17333810849723763
261,2093.66,0.16768999283005606
262,2103.3199999999997,0.16746675526820848
263,2113.0299999999997,0.16772871533802833
264,2122.79,0.1679921730395156
265,2132.58,0.1613398893200034
266,2147.37,0.16202346876723672
267,2157.28,0.16415241936372638
268,2167.23,0.16014034806555003
269,2177.24,0.15896535392537464
270,2187.29,0.15711166789053316
271,2187.7616199999998,0.1572509174147636
272,2197.38,0.16024029909470358
273,2207.53,0.1571270993572205
274,2212.62,0.1527145518928078
275,2222.83,0.1500069817726401
276,2233.09,0.15426348633356854
277,2243.4,0.15041307557559314
278,2253.75,0.14648021456249463
279,2264.15,0.14718586823049226
280,2274.61,0.14853967151580527
281,2285.1,0.14970499960977598
282,2295.65,0.14429815732106205
283,2306.25,0.14440304971344425
284,2316.89,0.14104696185070337
285,2327.59,0.12681279360527786
286,2332.95,0.13535115941878434
287,2343.72,0.13208862572689345
288,2354.54,0.13681622671609867
289,2365.41,0.13072918238640005
290,2376.33,0.13204112273779758
291,2387.29,0.126232182834072
292,2392.7999999999997,0.12974431269086692
293,2403.8399999999997,0.12695105227689518
294,2414.94,0.12749604148023883
295,2426.0899999999997,0.1307660553646786
296,2437.28,0.12772362899399528
297,2442.9,0.13064569314920169
298,2454.18,0.12903003120449147
299,2465.5099999999998,0.12779036394087734
300,2476.89,0.12496963135835937
301,2482.6,0.12550544993953885
302,2494.06,0.11972681684677469
303,2505.5699999999997,0.12715463843510671
304,2511.34,0.11954374663360154
305,2511.88643,0.11963715011912832
306,2517.13,0.12057690485794573
307,2522.94,0.11830812660245243
308,2534.5800000000004,0.11855030569127484
309,2546.28,0.1174828215795242
310,2552.15,0.12118281012345783
311,2563.93,0.11907704841094305
312,2575.76,0.1217142956979507
313,2587.65,0.12042940978438527
314,2593.62,0.11911421632736377
315,2605.5899999999997,0.11670439281303424
316,2617.62,0.11514815609813164
317,2623.65,0.11747298944053705
318,2635.7599999999998,0.11906707512487034
319,2647.93,0.12374109760863053
320,2654.03,0.12508246555036734
321,2666.2799999999997,0.11841474043336345
322,2672.4300000000003,0.12053906737462271
323,2684.7599999999998,0.12045372465685471
324,2697.1600000000003,0.1164054765384181
325,2703.37,0.11796935027910427
326,2715.8500000000004,0.11401823455990354
327,2722.1099999999997,0.11323243730011218
328,2734.68,0.11543740178005184
329,2747.2999999999997,0.10724356525951395
330,2753.63,0.10846564259905395
331,2766.3399999999997,0.11020669627765645
332,2772.7200000000003,0.11230968261671888
333,2785.5200000000004,0.10808285649446173
334,2791.94,0.09710339403314214
335,2804.83,0.09972663811002537
336,2817.77,0.10973337118643103
337,2824.27,0.11235752112434733
338,2837.31,0.10979554219979787
339,2843.85,0.1076001633373321
340,2856.97,0.10441807681201853
341,2863.56,0.1097155569490752
342,2876.7799999999997,0.10975376842280651
343,2883.4100000000003,0.10896683975948113
344,2884.0315,0.10894589187891687
345,2896.72,0.10860849839045192
346,2910.09,0.1130730526010005
347,2930.26,0.10975697182514152
348,2950.57,0.10799886632897412
349,2971.02,0.10819323611249834
350,2991.62,0.10757235012426358
351,3012.35,0.10743484046717101
352,3033.24,0.10681339398686887
353,3047.24,0.10644758195602971
354,3068.36,0.10598418129236375
355,3089.6299999999997,0.10551775485693884
356,3111.04,0.1050493337012055
357,3132.61,0.1033010557222626
358,3147.07,0.10293567532469586
359,3168.88,0.10277911211093856
360,3190.85,0.09906601207397167
361,3212.97,0.10026749626524578
362,3227.8,0.09703896696400688
363,3250.17,0.10019491486901602
364,3272.7000000000003,0.10175972595081556
365,3287.8,0.10074538826041046
366,3310.59,0.09978783200449443
367,3311.31121,0.09974797351179174
368,3318.2299999999996,0.09940011844742158
369,3325.88,0.09932676204722125
370,3333.54,0.10083416448832788
371,3341.23,0.09733260345335529
372,3348.93,0.10214509125968961
373,3356.65,0.0991908867486378
374,3364.39,0.09227596992019982
375,3372.1400000000003,0.09276563193306878
376,3379.92,0.09865641046985853
377,3387.71,0.09827045784795521
378,3395.52,0.09650907290866574
379,3403.35,0.09985413565199013
380,3411.19,0.09500710723662144
381,3419.06,0.09612931534517355
382,3426.94,0.09697166229503257
383,3434.84,0.10020159692750544
384,3442.76,0.09470341924259218
385,3450.69,0.09628593039898585
386,3458.6499999999996,0.0951492380793003
387,3466.6200000000003,0.09417396460092167
388,3474.61,0.0962088888051569
389,3482.6200000000003,0.09402343069200599
390,3490.65,0.09620761026146893
391,3498.7000000000003,0.09167717751354572
392,3506.7599999999998,0.09544499360692946
393,3514.84,0.09195478738292702
394,3522.9500000000003,0.09528821768284539
395,3531.07,0.09370429682407068
396,3539.21,0.09559158364790982
397,3547.3700000000003,0.09738012815436282
398,3555.54,0.09589843150212274
399,3563.7400000000002,0.09489671137380346
400,3571.96,0.09053721892809803
401,3580.1899999999996,0.08974826532369953
402,3588.44,0.08465584940191487
403,3596.71,0.09072656116274408
404,3605.01,0.09298983944749406
405,3613.3199999999997,0.088858126573551
406,3621.65,0.08877689138222175
407,3630.0,0.09771483387350638
408,3638.36,0.09312186520609793
409,3646.7500000000005,0.09259068306261027
410,3655.16,0.09341436860173646
411,3663.5800000000004,0.09756037298216959
412,3672.03,0.09432142388652348
413,3680.4900000000002,0.09241454363218432
414,3680.58,0.11018014320394667
415,3683.3199999999997,0.09639523572204486
416,3686.06,0.09202380824014306
417,3688.81,0.10256220959954816
418,3691.55,0.08454140211764635
419,3694.29,0.08063886463574454
420,3697.04,0.07606999599514967
421,3699.7799999999997,0.07544976851324786
422,3702.5200000000004,0.08781304103134605
423,3705.27,0.09456083239075115
424,3708.0099999999998,0.08952349490884935
425,3710.75,0.09629935742694753
426,3713.49,0.09609288994504574
427,3716.2400000000002,0.09574015130445085
428,3718.98,0.11357659382254903
429,3721.7200000000003,0.1855104363406472
430,3724.47,0.31112251770005234
431,3727.21,0.3719446202181505
432,3729.9500000000003,0.32643632273624873
433,3732.7,0.23588020409565386
434,3735.44,0.14625150661375202
435,3738.18,0.1084579991318502
436,3740.9300000000003,0.10760872049125533
437,3743.67,0.08781083300935352
438,3746.41,0.08350638552745171
439,3749.15,0.0785517580455499
440,3751.9,0.097987539404955
441,3754.6400000000003,0.1003974819230532
442,3757.38,0.10010434444115139
443,3760.1299999999997,0.10498831580055651
444,3762.87,0.1086079483186547
445,3765.6099999999997,0.0946181108367529
446,3768.36,0.09311873219615799
447,3771.1,0.09213208471425618
448,3773.84,0.10391613723235438
449,3776.59,0.10148680859175949
450,3779.3300000000004,0.10788045110985768
451,3782.07,0.10422225362795587
452,3784.81,0.11122668614605406
453,3787.56,0.11394735750545917
454,3790.2999999999997,0.10390579002355736
455,3793.04,0.10531095254165555
456,3795.79,0.09353904390106069
457,3798.5299999999997,0.08755600641915887
458,3801.27,0.08396081893725704
459,3801.8939600000003,0.08696345770926399
460,3804.02,0.09720192112260247
461,3806.76,0.11264043189937707
462,3809.5,0.11160038267615167
463,3812.25,0.1104218974338634
464,3814.99,0.114015708210638
465,3817.7299999999996,0.1106744989874126
466,3820.4700000000003,0.1190716397641872
467,3823.22,0.11363360452189895
468,3825.96,0.10245894529867355
469,3828.7,0.09959449607544815
470,3831.4500000000003,0.09750189083315988
471,3834.19,0.09340804160993449
472,3836.93,0.0854526323867091
473,3839.68,0.09195397714442083
474,3842.4199999999996,0.09780165792119544
475,3845.1600000000003,0.10415764869797002
476,3847.91,0.11942621345568177
477,3850.65,0.12452131423245637
478,3853.39,0.11753922500923097
479,3856.1299999999997,0.12421836578600558
480,3858.88,0.1241313205437173
481,3861.62,0.1157582713204919
482,3864.36,0.1204081220972665
483,3867.11,0.12735457685497825
484,3869.8500000000004,0.12549890763175284
485,3872.59,0.11308700840852745
486,3875.3399999999997,0.1191351231662392
487,3878.08,0.1072985039430138
488,3880.8199999999997,0.1057580347197884
489,3883.57,0.10474112947750014
490,3886.31,0.10173877025427473
491,3889.05,0.10308263103104932
492,3891.8,0.10853972578876107
493,3894.5400000000004,0.09100141656553568
494,3897.28,0.11136143734231027
495,3900.02,0.11188176811908487
496,3902.77,0.11012799287679662
497,3905.5099999999998,0.1200815536535712
498,3908.25,0.12448710443034583
499,3911.0,0.12485713918805756
500,3913.74,0.12634286996483216
501,3916.48,0.11927409074160676
502,3919.23,0.1178473454993185
503,3921.9700000000003,0.1159877162760931
504,3924.71,0.1093602370528677
505,3927.46,0.10606185181057942
506,3930.2,0.10022245258735404
507,3932.9399999999996,0.09264533336412864
508,3935.68,0.09811867414090325
509,3938.43,0.10111701889861498
510,3941.17,0.10933679967538958
511,3943.91,0.11013690045216418
512,3946.6600000000003,0.1066099752098759
513,3949.4,0.11135830598665052
514,3952.14,0.11513732676342511
515,3954.89,0.12045646152113686
516,3957.6299999999997,0.10789877229791146
517,3960.37,0.10132250307468606
518,3963.12,0.09534076783239781
519,3965.86,0.0963339186091724
520,3968.6,0.094040819385947
521,3971.3399999999997,0.0894701701627216
522,3974.09,0.09778801492043335
523,3976.83,0.11038554569720795
524,3979.57,0.11391630647398254
525,3982.3199999999997,0.10977861123169427
526,3985.0600000000004,0.12108765200846888
527,3987.8,0.12141886278524348
528,3990.5499999999997,0.11762001754295523
529,3993.29,0.11696613831972984
530,3996.0299999999997,0.11968519909650444
531,3998.78,0.11185932385421617
532,4001.52,0.12228965463099077
533,4004.26,0.12281394540776537
534,4007.0,0.11764835618453998
535,4009.7500000000005,0.1226207409422517
536,4012.4900000000002,0.1270381317190263
537,4015.23,0.11903939249580092
538,4017.98,0.12550520725351264
539,4020.72,0.12773563803028726
540,4023.46,0.12405556880706185
541,4026.21,0.12439801356477358
542,4028.95,0.12069432434154818
543,4031.69,0.11310934511832278
544,4034.44,0.13252701987603452
545,4037.1800000000003,0.12548585065280912
546,4039.92,0.12627028142958374
547,4042.6600000000003,0.11812574220635833
548,4045.41,0.11931539696407006
549,4048.1499999999996,0.12309835774084467
550,4050.89,0.11877600851761927
551,4053.64,0.11782997327533101
552,4056.38,0.1189650140521056
553,4059.12,0.11489088482888021
554,4061.8700000000003,0.12412676958659195
555,4064.61,0.12273997036336655
556,4067.35,0.12564823114014118
557,4070.1,0.1210257858978529
558,4072.8399999999997,0.12234208667462751
559,4075.58,0.1216566874514021
560,4078.3199999999997,0.11237339822817671
561,4081.07,0.11310993298588844
562,4083.81,0.11165221376266304
563,4086.5499999999997,0.11562823453943764
564,4089.3,0.10908298929714937
565,4092.04,0.11213696007392397
566,4094.78,0.11074229085069857
567,4097.53,0.10820046560841032
568,4100.2699999999995,0.11037178638518493
569,4103.01,0.11374889716195952
570,4105.76,0.10961909191967126
571,4108.5,0.10309405269644586
572,4111.24,0.10433544347322046
573,4113.98,0.11290200424999507
574,4116.7300000000005,0.1174133990077068
575,4119.47,0.11178283978448139
576,4122.21,0.110419680561256
577,4124.96,0.11510052531896774
578,4127.7,0.11791807609574234
579,4130.4400000000005,0.11449017687251695
580,4133.19,0.1184065616302287
581,4135.93,0.11731136240700328
582,4138.67,0.11785928318377788
583,4141.42,0.11340243794148963
584,4144.16,0.11398973871826423
