,lambda (Angstroms),Total Flux (erg/s/cm^2/Angstrom)
0,102.05000000000001,0.0007752157136659575
1,103.95,0.0009068133874419128
2,104.712855,0.000959650261050849
3,105.88,0.0008922005074947512
4,108.10000000000001,0.0007639059012229375
5,110.11,0.0006477484739799452
6,113.98,0.0004241007299029736
7,117.97999999999999,0.0001929404330962573
8,120.22644299999999,6.31281020671136e-05
9,121.01,6.103667279847713e-05
10,124.97,5.0455217268515066e-05
11,127.0,4.5031300196590056e-05
12,127.88000000000001,4.268074577437623e-05
13,130.86,3.471976092051587e-05
14,132.07,3.1490121212471956e-05
15,133.91,2.657603430693401e-05
16,137.03,1.8247590913630537e-05
17,138.038426,1.555560048644868e-05
18,139.9,1.538829194477128e-05
19,143.16,1.5129356813798406e-05
20,147.17,1.4817595221067964e-05
21,150.94,1.4504850228899941e-05
22,155.17,1.4157875968987283e-05
23,158.489319,1.3894759270877002e-05
24,159.14999999999998,1.380891442186223e-05
25,162.10999999999999,1.343163028233411e-05
26,165.89,1.2960632375774551e-05
27,170.14000000000001,1.2429471249087215e-05
28,172.91,1.2100489492163946e-05
29,176.93,1.1623462539156162e-05
30,179.81,1.129360428177745e-05
31,181.89000000000001,1.1058210045892827e-05
32,181.970086,1.104912979597572e-05
33,186.13000000000002,1.1375356636714711e-05
34,190.9,1.1786145157966397e-05
35,194.0,1.2059012199031432e-05
36,198.07000000000002,1.2428758872300693e-05
37,202.21,1.281795123036819e-05
38,205.03,1.3108130532240257e-05
39,208.929613,1.3483007214547144e-05
40,209.79999999999998,1.3772853560215038e-05
41,216.17999999999998,1.6012511958040694e-05
42,220.20000000000002,1.7431843682062516e-05
43,222.75,1.8364988096553958e-05
44,226.89000000000001,1.986422349890478e-05
45,230.04,2.3008514305041264e-05
46,233.78,2.7887113779628723e-05
47,239.78,3.3120033696079186e-05
48,239.88329199999998,3.315961266720446e-05
49,245.93,3.234940024280626e-05
50,252.24,3.2532422192552274e-05
51,256.93,2.934840896661072e-05
52,259.9,3.1722140122037934e-05
53,264.13,3.229748085855546e-05
54,269.04,3.2074566607089994e-05
55,274.04,3.183493875427384e-05
56,275.42287,3.1711996054210244e-05
57,279.13,3.317292914131388e-05
58,284.32,3.5527473401625206e-05
59,290.28000000000003,3.7260152436587745e-05
60,295.67,3.994254585914614e-05
61,301.17,4.084254282094042e-05
62,308.18,4.442812745770004e-05
63,316.227766,4.8407459055777324e-05
64,318.28000000000003,4.853550355041917e-05
65,327.95,4.842640068598961e-05
66,337.92,4.794730514737919e-05
67,348.19000000000005,4.7335156934587904e-05
68,357.12,4.717000399980445e-05
69,363.078055,4.7235400601248704e-05
70,366.28000000000003,4.831196675728212e-05
71,374.81,5.057199582423366e-05
72,385.31,5.206999940019981e-05
73,395.19,5.575068906977559e-05
74,405.33,5.869990715170861e-05
75,413.82,6.073010338598982e-05
76,416.86938299999997,6.132818854769392e-05
77,422.48,6.210864332441503e-05
78,430.34000000000003,6.306120435820519e-05
79,441.37999999999994,6.543689527589517e-05
80,450.62,6.691329267439657e-05
81,460.06,6.79181682416967e-05
82,469.68999999999994,6.923939656935562e-05
83,478.630092,7.083529529935858e-05
84,479.52000000000004,7.08182203067211e-05
85,489.56,6.959025553694439e-05
86,499.82,6.957575626026021e-05
87,505.6,7.096418966969153e-05
88,511.46,8.179502053115651e-05
89,519.77,8.086445711115208e-05
90,529.43,7.99166519442155e-05
91,540.52,7.705874248238045e-05
92,549.5408739999999,7.910961678906124e-05
93,550.57,7.94214419316211e-05
94,559.51,8.406174159390223e-05
95,569.92,8.630996962347121e-05
96,580.51,8.498399684087136e-05
97,589.9399999999999,8.831937929224844e-05
98,599.53,8.731420102169767e-05
99,610.68,8.756013571235033e-05
100,620.6,9.571581095282334e-05
101,630.68,9.683249547136853e-05
102,630.957344,9.688208351670774e-05
103,639.46,9.913109206928737e-05
104,649.85,0.000102766021449029
105,657.37,0.00010413721987402004
106,664.98,0.00010820635683069315
107,674.23,0.00011099764147579517
108,685.1899999999999,0.00011004371822285658
109,694.72,0.0001207776505220806
110,704.39,0.00011755865164836563
111,715.8299999999999,0.00013012718723106475
112,724.43596,0.00013300395473999605
113,725.7900000000001,0.00013342785985859856
114,734.1899999999999,0.00013683603153982592
115,744.41,0.0001431709570853192
116,754.76,0.00014776212219254578
117,765.26,0.00015011628679407996
118,774.1199999999999,0.00015926053692451737
119,784.89,0.0001660566606158053
120,795.81,0.00017177608380140085
121,805.0300000000001,0.00017693821271817662
122,814.3499999999999,0.0001822571412978241
123,825.6800000000001,0.00019204114310119387
124,831.763771,0.00018479773138275498
125,835.24,0.00018034940017716474
126,844.91,0.0002018366018390939
127,854.69,0.0002075520897660502
128,864.5899999999999,0.00021705535361849062
129,874.5999999999999,0.00022661910373595817
130,884.7299999999999,0.00023771922977890983
131,894.9699999999999,0.00024683594208688863
132,905.34,0.0002520296199808085
133,915.8199999999999,0.0003640193841397556
134,924.29,0.0017637935265468435
135,935.0,0.003953330852896302
136,945.82,0.010734551465510786
137,954.58,0.022877266808071128
138,954.992586,0.0231911452694979
139,965.63,0.03128419900769047
140,974.5600000000001,0.006887917860406317
141,985.85,0.0494587939463147
142,994.97,0.052751855966109616
143,1004.18,0.06429969711767881
144,1015.8000000000001,0.04789032502009293
145,1025.2,0.008164012338741195
146,1034.69,0.033060122789163746
147,1044.26,0.07659446046783011
148,1053.93,0.08244870718180125
149,1066.1299999999999,0.07247645948898303
150,1076.0,0.0835960842735637
151,1085.95,0.0719781982863882
152,1096.0,0.08534574133451746
153,1096.4782,0.0852090748012265
154,1106.14,0.08244759500054696
155,1113.81,0.08057122341859331
156,1124.11,0.07819726242848606
157,1134.52,0.08793675811712523
158,1145.01,0.08150327139030726
159,1155.61,0.08475535134223573
160,1166.3,0.0897777885767749
161,1174.38,0.0780155646156034
162,1185.25,0.08633105641536398
163,1196.22,0.05638873519580317
164,1204.51,0.039649364894056655
165,1215.65,0.009133151541649391
166,1224.08,0.039466114012852875
167,1235.41,0.0781927019237349
168,1243.97,0.09102340346982053
169,1255.48,0.09039759594592398
170,1258.92541,0.08458175468492146
171,1264.18,0.07571219320280304
172,1275.88,0.09531288832999925
173,1284.73,0.09934261733646818
174,1293.63,0.08813660645031829
175,1305.6000000000001,0.08573508215737287
176,1314.65,0.09843805159336654
177,1323.76,0.09575339115821759
178,1336.01,0.08854374746660679
179,1345.27,0.0988911773536014
180,1354.6,0.09619445739092965
181,1363.99,0.09039670755711533
182,1373.4399999999998,0.09335818785215842
183,1386.1499999999999,0.09553363514845448
184,1395.76,0.09207798578711736
185,1405.43,0.09444021655463765
186,1415.18,0.09207691749396782
187,1424.9899999999998,0.09292895856215541
188,1434.8600000000001,0.09207844975920042
189,1441.49,0.09487524399794493
190,1445.43977,0.09539662212056424
191,1448.1399999999999,0.09575305734767063
192,1454.82,0.09422269938822668
193,1464.91,0.09102388757523425
194,1475.06,0.08977603587039051
195,1485.29,0.08956871430974507
196,1495.58,0.09018983285724833
197,1505.95,0.08854350154894985
198,1512.9,0.08378379407617509
199,1516.3899999999999,0.08712808036682487
200,1523.39,0.08455858298417404
201,1533.95,0.07946218201834647
202,1544.5800000000002,0.08514448117869242
203,1555.29,0.0809397304832366
204,1566.07,0.07964554991395431
205,1573.3,0.08263378294587351
206,1584.2,0.08455907259288861
207,1595.1799999999998,0.086528612384102
208,1606.2399999999998,0.08301533231951368
209,1613.65,0.083399835675879
210,1624.84,0.08001354584561285
211,1636.1000000000001,0.08206671614152021
212,1643.65,0.08225492975023252
213,1655.0500000000002,0.07694200029848686
214,1659.58691,0.07934447438357993
215,1666.52,0.08301589973756072
216,1670.36,0.07783316028410532
217,1678.0700000000002,0.08093982177208937
218,1685.8200000000002,0.08320673378659996
219,1693.6000000000001,0.08019872619600539
220,1705.34,0.07783314073153497
221,1713.21,0.07571289432562504
222,1725.08,0.07519309057236576
223,1733.05,0.07783332548277211
224,1745.06,0.07588803357235559
225,1753.11,0.07909947953581496
226,1765.27,0.07331248959987283
227,1773.41,0.07659122674801684
228,1785.71,0.07676696865491749
229,1793.95,0.07873572711937775
230,1806.3799999999999,0.07819475073748954
231,1814.72,0.07554060051826608
232,1823.1,0.07571451082556913
233,1835.7399999999998,0.07382123720794506
234,1844.21,0.07033790869993276
235,1856.99,0.06969222692515148
236,1865.56,0.07049981973345543
237,1874.18,0.0736509431999175
238,1887.1699999999998,0.07017620418940038
239,1895.88,0.0681077788405471
240,1904.6299999999999,0.07082588401822032
241,1905.46072,0.07062858335940263
242,1913.42,0.06873796990433298
243,1926.68,0.06810799491577207
244,1935.5800000000002,0.06873690390535035
245,1944.5100000000002,0.07066190238590474
246,1953.49,0.06763732001808596
247,1967.03,0.07066153027863539
248,1976.1100000000001,0.0714796562140703
249,1985.23,0.06905310147080669
250,1994.39,0.06717122604884457
251,2003.6000000000001,0.06810574977850928
252,2012.84,0.06670934299915009
253,2026.8,0.068576676133365
254,2036.1499999999999,0.06670893748758489
255,2045.55,0.06732571799343161
256,2054.99,0.06503985782057979
257,2064.48,0.06564156679935484
258,2074.01,0.06732442509943135
259,2078.79,0.06609654399495767
260,2083.58,0.06701587272080935
261,2093.2000000000003,0.06474062949381418
262,2102.86,0.0653390955881205
263,2117.44,0.06518841820250827
264,2127.21,0.06579169243039364
265,2137.03,0.06312108580990584
266,2146.89,0.06399849851071954
267,2156.8,0.06459058036316007
268,2166.76,0.06268564136722744
269,2176.76,0.062253911692596295
270,2186.81,0.061825461169591985
271,2187.7616199999998,0.06198876810232095
272,2196.9,0.06355727864730641
273,2207.04,0.061826335821544905
274,2217.23,0.060003463672184974
275,2227.46,0.05850335206394629
276,2232.6,0.06140091159802774
277,2242.9,0.05931696093675126
278,2253.25,0.05783416095187635
279,2263.6600000000003,0.05823369177868332
280,2274.1,0.05918112301133124
281,2284.6,0.05986589505566105
282,2295.15,0.05783430777639242
283,2305.7400000000002,0.057582701038245046
284,2316.38,0.056424514976499245
285,2327.07,0.04905111959115502
286,2332.44,0.054416462236683685
287,2343.2,0.05222856779830165
288,2354.02,0.05458511417160151
289,2364.89,0.05191006122130293
290,2375.8,0.053140678812125614
291,2386.77,0.05030403721463018
292,2392.27,0.05244366161880293
293,2403.31,0.05091806096826969
294,2414.41,0.05140953112941834
295,2425.5499999999997,0.05299315183168824
296,2436.75,0.05109723334564003
297,2442.36,0.052904029237896236
298,2453.64,0.05219988183409054
299,2464.96,0.0516240749714061
300,2476.34,0.05047071892040354
301,2487.77,0.051667683545802555
302,2493.5099999999998,0.05027003119670285
303,2505.0099999999998,0.05266163676906405
304,2510.79,0.049841354961085604
305,2511.88643,0.04993060291013632
306,2516.58,0.05031256521948034
307,2522.38,0.048503154852395265
308,2534.02,0.04852443390879694
309,2545.7200000000003,0.048210612651056355
310,2557.47,0.050156621131530556
311,2563.36,0.04936486029323209
312,2575.2000000000003,0.051003638302492896
313,2587.08,0.05079118610232553
314,2593.05,0.05033608484517073
315,2605.0099999999998,0.048986692226147016
316,2617.04,0.048558389240624
317,2623.07,0.049357957669326935
318,2635.18,0.05006661426494757
319,2647.34,0.052811930598783
320,2653.45,0.05306765860862958
321,2665.69,0.05070251452360866
322,2678.0,0.05178627007208844
323,2684.17,0.05179767776779277
324,2696.56,0.0501779828974162
325,2702.78,0.0507703603313353
326,2715.25,0.04895635504210239
327,2727.79,0.04852901938637018
328,2734.07,0.04989993650614702
329,2746.69,0.04616372043155846
330,2753.03,0.04660220723719305
331,2765.73,0.047819070743748145
332,2772.1099999999997,0.04894337733995456
333,2784.9,0.04752278037529626
334,2797.76,0.04198689304413866
335,2804.2099999999996,0.04387397927384577
336,2817.15,0.04846221152383182
337,2823.6499999999996,0.04903440749175372
338,2836.68,0.04794082927052638
339,2843.2200000000003,0.046752775029020116
340,2856.34,0.04571112633657939
341,2862.9300000000003,0.0480964718332879
342,2876.14,0.04811962266963378
343,2882.77,0.04802041795691412
344,2884.0315,0.04803306426341797
345,2896.08,0.048153910061077915
346,2909.4500000000003,0.04998450862848417
347,2929.61,0.04854653646834282
348,2949.9199999999996,0.04780496429212898
349,2970.37,0.04795023210091416
350,2990.9599999999996,0.04776558989469836
351,3011.69,0.04791086767348158
352,3032.57,0.04783649543619232
353,3046.56,0.04775005393716565
354,3067.68,0.047567321674160425
355,3088.95,0.04738457939508271
356,3110.3599999999997,0.04731148710100402
357,3131.92,0.04669879479085284
358,3153.63,0.04651990246462919
359,3168.18,0.0466517809055986
360,3190.1400000000003,0.04520703855258748
361,3212.26,0.045977226182432385
362,3227.08,0.04474899459447133
363,3249.45,0.04625051219752876
364,3271.98,0.04714793978344222
365,3287.08,0.0467411581654792
366,3309.86,0.04635062572460518
367,3311.31121,0.046078033625809846
368,3325.14,0.043480437243698176
369,3332.81,0.04379364153329292
370,3340.49,0.041450655802404736
371,3348.1899999999996,0.044324910030550696
372,3355.91,0.0425366742177308
373,3363.65,0.039709608363945055
374,3371.4,0.03999519248967638
375,3379.17,0.04316376657444186
376,3386.96,0.04337527061824147
377,3394.7699999999995,0.04328764462107523
378,3402.6,0.04420516858294314
379,3410.44,0.041172512524328124
380,3418.3,0.04233725642474725
381,3426.18,0.04373597028420052
382,3434.08,0.04425432410268793
383,3441.99,0.042373027900692424
384,3449.93,0.04189968163724813
385,3457.8799999999997,0.04162255535332091
386,3465.85,0.041158109028427835
387,3473.84,0.043109672662568904
388,3481.8500000000004,0.041946656255744126
389,3489.88,0.043332619807953485
390,3497.92,0.041777403339679914
391,3505.99,0.04246792680995757
392,3514.07,0.041513650259752295
393,3522.17,0.04318264366858116
394,3530.29,0.04144154703644418
395,3538.4300000000003,0.04320745036334134
396,3546.58,0.04392129366975558
397,3554.76,0.044442536914721026
398,3562.95,0.04334421013920355
399,3571.17,0.041788743302237294
400,3579.3999999999996,0.04047471644478811
401,3587.65,0.03884349954637306
402,3595.92,0.04106149260699218
403,3604.21,0.04241884562664542
404,3611.71,0.03817589026444993
405,3614.46,0.06416877463164491
406,3617.21,0.050510988998839906
407,3619.96,0.02765860336603489
408,3622.71,0.030187357733229878
409,3625.4599999999996,0.03463602210042486
410,3628.2,0.02573683648810278
411,3630.95,0.03868472085529777
412,3633.7000000000003,0.050275365222492756
413,3636.45,0.05027532958968774
414,3639.2000000000003,0.03735723395688272
415,3641.95,0.06211310832407771
416,3644.7000000000003,0.0569920126912727
417,3647.45,0.020409797058467686
418,3650.1899999999996,0.039289741446145596
419,3652.94,0.035148795813340586
420,3655.6899999999996,0.03883278018053558
421,3658.44,0.04659706454773056
422,3661.19,0.05122078891492555
423,3663.94,0.05330321328212053
424,3666.69,0.05644659764931552
425,3669.44,0.03502839201651051
426,3672.19,0.02393213638370549
427,3674.9300000000003,0.0398283207713834
428,3677.68,0.04349017513857839
429,3680.4300000000003,0.04321888950577338
430,3683.18,0.06325292387296837
431,3685.93,0.05386972824016335
432,3688.68,0.04736930260735834
433,3691.43,0.03793419697455333
434,3694.1800000000003,0.06812272134174831
435,3696.92,0.05925832572942623
436,3699.67,0.047170300096621216
437,3702.42,0.06372329446381621
438,3705.17,0.042115548831011186
439,3707.92,0.03830935319820618
440,3710.6699999999996,0.04477507756540117
441,3713.42,0.05452177193259615
442,3716.1699999999996,0.03242159629979113
443,3718.9100000000003,0.04354401068746905
444,3721.66,0.048661195054664035
445,3724.4100000000003,0.11543600942185903
446,3727.16,0.135818203789054
447,3729.9100000000003,0.136077798156249
448,3732.66,0.10204639252344398
449,3735.4100000000003,0.06232066689063897
450,3738.16,0.03158472125783396
451,3740.91,0.033809525625028945
452,3743.65,0.04549848001270686
453,3746.3999999999996,0.05347630437990184
454,3749.15,0.046060158747096826
455,3751.9,0.020490433114291814
456,3754.65,0.0341039074814868
457,3757.4,0.04827333184868179
458,3760.15,0.04741145621587678
459,3762.9,0.04654380058307177
460,3765.64,0.04638915497074968
461,3768.39,0.04789157933794466
462,3771.14,0.04220681370513965
463,3773.89,0.058678048072334635
464,3776.64,0.052001582439529626
465,3779.3900000000003,0.060271796806724606
466,3782.14,0.05130029117391959
467,3784.8900000000003,0.05941659554111458
468,3787.63,0.061898529928792495
469,3790.3799999999997,0.05794225429598749
470,3793.13,0.053590658663182474
471,3795.8799999999997,0.05414274303037746
472,3798.63,0.046660217397572444
473,3801.3799999999997,0.042838641764767434
474,3801.8939600000003,0.043776135524100715
475,3804.13,0.0478548070862734
476,3806.88,0.04884551262713038
477,3809.63,0.05539105816798737
478,3812.37,0.05177943372505942
479,3815.1200000000003,0.05408887926591641
480,3817.87,0.0574958248067734
481,3820.6200000000003,0.06657882034763038
482,3823.37,0.06357578588848736
483,3826.12,0.05568063142934436
484,3828.87,0.058262276970201345
485,3831.62,0.04348008251105833
486,3834.36,0.03427986806813039
487,3837.11,0.038871873608987376
488,3839.86,0.044287239149844365
489,3842.61,0.04757203469070135
490,3845.3599999999997,0.05807573023155834
491,3848.11,0.06190685577241532
492,3850.8599999999997,0.05821512131327232
493,3853.61,0.05606239685412931
494,3856.35,0.057871952411201355
495,3859.1,0.059884167952058344
496,3861.85,0.055656653492915334
497,3864.6000000000004,0.05817770903377232
498,3867.35,0.07064941457462931
499,3870.1000000000004,0.07699585011548629
500,3872.85,0.07590598565634328
501,3875.6000000000004,0.07317420119720028
502,3878.35,0.06492892673805725
503,3881.0899999999997,0.06995409229512932
504,3883.84,0.0689565778359863
505,3886.5899999999997,0.06531484337684329
506,3889.34,0.06735302891770027
507,3892.09,0.06334097445855727
508,3894.84,0.07421882999941425
509,3897.59,0.07429476554027124
510,3900.34,0.07341460108112823
511,3903.08,0.07742310663820028
512,3905.83,0.08591358217905727
513,3908.58,0.08011337771991425
514,3911.33,0.08204478326077125
515,3914.08,0.08227942880162822
516,3916.83,0.06917279434248522
517,3919.58,0.056402829883342206
518,3922.33,0.0507729154241992
519,3925.07,0.04659472098127125
520,3927.82,0.05169650652212823
521,3930.5699999999997,0.05306235206298522
522,3933.32,0.048684787603842206
523,3936.0699999999997,0.0463117931446992
524,3938.82,0.06056297868555619
525,3941.5699999999997,0.05662404422641318
526,3944.32,0.05519464976727016
527,3947.0699999999997,0.06279056530812716
528,3949.8100000000004,0.0508105908651992
529,3952.56,0.05182245640605619
530,3955.3100000000004,0.06539168194691318
531,3958.06,0.04472177748777017
532,3960.81,0.054530043028627156
533,3963.56,0.04825276856948414
534,3966.31,0.03507018411034113
535,3969.06,0.04495730965119812
536,3971.7999999999997,0.041142675208270175
537,3974.55,0.05562283074912716
538,3977.2999999999997,0.057412856289984146
539,3980.05,0.05996372183084114
540,3982.8,0.05215801737169812
541,3985.5499999999997,0.06599751291255511
542,3988.3,0.0658060584534121
543,3991.0499999999997,0.07249588399426908
544,3993.79,0.07766823955134114
545,3996.54,0.07142557509219813
546,3999.29,0.07289432063305512
547,4002.04,0.0682301061739121
548,4004.79,0.058618951714769094
549,4007.54,0.06811939725562607
550,4010.2900000000004,0.06301177279648307
551,4013.04,0.061086048337340056
552,4015.7900000000004,0.07991093387819705
553,4018.53,0.0718795594352691
554,4021.2799999999997,0.06467405497612609
555,4024.03,0.06308882051698307
556,4026.7799999999997,0.06470089605784006
557,4029.53,0.04818152159869705
558,4032.2799999999997,0.06373219713955403
559,4035.03,0.06250384268041102
560,4037.78,0.065037388221268
561,4040.5200000000004,0.06978936377834007
562,4043.27,0.06345531931919705
563,4046.02,0.06766543486005404
564,4048.77,0.060487830400911026
565,4051.52,0.06291462594176801
566,4054.27,0.061549671482624996
567,4057.02,0.06523266702348199
568,4059.77,0.07094522256433897
