,lambda (Angstroms),Total Flux (erg/s/cm^2/Angstrom)
0,100.00999999999999,3.3513038459806634
1,102.10000000000001,3.340830858993227
2,104.0,3.3313095447582852
3,104.712855,3.327737507552445
4,105.94,3.2954318938877845
5,107.89999999999999,3.2438336965800665
6,109.91000000000001,3.19092392668164
7,114.03999999999999,3.0822008136132353
8,118.04,2.976900346346667
9,120.22644299999999,2.9193840722667033
10,121.07,2.9007825326075087
11,125.03999999999999,2.813178098671719
12,127.07,2.7683826074201687
13,127.95,2.7489659931953594
14,130.93,2.6832085332999807
15,132.14,2.656521377228368
16,133.98,2.6159221072855834
17,137.1,2.5470962455521664
18,138.038426,2.5263917448733144
19,139.97,2.4959354095702064
20,142.9,2.449919181145906
21,146.91,2.386998824283979
22,151.02,2.3222574767741238
23,154.9,2.261161946494504
24,158.489319,2.2046551924354456
25,158.86999999999998,2.2001274681763983
26,161.82,2.165047905775948
27,165.97,2.1157041203312477
28,169.84,2.0696934152635382
29,173.0,2.0321348395803445
30,177.03,1.984236393440069
31,179.89999999999998,1.9501390335759028
32,181.970086,1.925541944486487
33,181.99,1.9253616397916573
34,185.79999999999998,1.890885465863845
35,191.0,1.8438195611723418
36,194.11,1.8156898688953083
37,198.17000000000002,1.7789613005207887
38,201.85999999999999,1.7456160710473954
39,205.14000000000001,1.7159497496266012
40,208.929613,1.6816175635056714
41,209.91,1.6749498086689296
42,215.79000000000002,1.6352215810220192
43,219.81,1.6080090875797437
44,222.86,1.5873167887441868
45,227.01,1.5592258337876088
46,230.17,1.5401135914399495
47,233.91,1.5195234490284795
48,239.88329199999998,1.4829758314028452
49,239.91,1.4828543318285454
50,246.06,1.450165995840712
51,251.79,1.4214570695300963
52,257.06,1.3904617600088145
53,260.04,1.3780879551561735
54,264.27,1.3572084105499076
55,269.18,1.3317313250376699
56,274.18,1.3056935260231715
57,275.42287,1.2991750891627813
58,279.28000000000003,1.2836744149600283
59,283.82,1.2658267036451705
60,289.76,1.2412730350966559
61,295.83000000000004,1.2172354405193015
62,301.33,1.1942285685299365
63,308.35,1.166674672972601
64,316.227766,1.1357578096333603
65,317.72,1.1314295169494362
66,328.13,1.1003300349119651
67,338.1,1.070253237600381
68,348.37,1.039218337521147
69,357.31,1.0125662810451632
70,363.078055,0.9956164894756215
71,365.63,0.9900539260586743
72,375.01,0.968771440697565
73,384.63,0.9460482778218858
74,395.4,0.9226816731055592
75,404.60999999999996,0.9022756872339369
76,414.04,0.8807693661406257
77,416.86938299999997,0.8742062548295132
78,421.74,0.8655133390334125
79,429.58000000000004,0.8516438485087069
80,440.6,0.8328653765466846
81,450.86,0.8148669785130779
82,460.3,0.7980274497180243
83,469.94,0.7811603698891774
84,478.630092,0.7661874377566829
85,479.78,0.7646650508143407
86,489.82,0.7505612842752317
87,500.08,0.7372743066167398
88,505.87,0.7290298944293453
89,511.73,0.7227706591585106
90,520.04,0.7113077259672761
91,529.7099999999999,0.6977901185834928
92,539.56,0.6835225375565781
93,549.5408739999999,0.669787805428207
94,549.59,0.6697356882804414
95,559.8100000000001,0.6601794449018279
96,570.22,0.6498184974095224
97,579.48,0.6399465442895653
98,590.26,0.628825828260069
99,599.85,0.6181321253636989
100,609.59,0.6060885471144137
101,619.5,0.5983887041318249
102,629.56,0.587562465796321
103,630.957344,0.5861758671300746
104,639.79,0.5792673506772875
105,650.1899999999999,0.5703798344289615
106,657.72,0.5637303072991637
107,665.3299999999999,0.5579525149674561
108,674.59,0.5504658478463502
109,685.5500000000001,0.5406208251846528
110,695.09,0.5333592098568614
111,704.76,0.524392888575966
112,716.21,0.5159355765525685
113,724.43596,0.5091589071187531
114,726.17,0.5080895838151371
115,734.5799999999999,0.5028735337591925
116,744.8000000000001,0.4963498084593404
117,755.16,0.489865299936203
118,765.67,0.48212418153097353
119,774.53,0.4778266618287535
120,785.3100000000001,0.47068180363575896
121,794.4,0.46539814078099834
122,805.45,0.45873503280023853
123,814.78,0.45295961013413105
124,824.2099999999999,0.4471955508799624
125,831.763771,0.4418286211815582
126,835.6800000000001,0.4396362244241778
127,845.36,0.43612067636212143
128,855.15,0.4314603091175417
129,865.05,0.42698059269043853
130,875.0600000000001,0.4223566970808119
131,885.2,0.41761280243729415
132,895.45,0.412885858611253
133,905.8199999999999,0.4079546456770046
134,914.2,0.40418731795386065
135,924.7800000000001,0.4077666265802494
136,935.4899999999999,0.411404656172747
137,944.15,0.4149193105304526
138,954.992586,0.4138300931361929
139,955.0799999999999,0.4138221538872128
140,963.9200000000001,0.4127943524065755
141,975.0799999999999,0.3889248885916536
142,984.1,0.39842443253335635
143,995.5,0.3918975526148877
144,1004.71,0.39283104839128263
145,1014.0,0.38897046546649544
146,1025.75,0.37055495998035437
147,1035.24,0.37549738530261156
148,1044.8200000000002,0.3799813483360387
149,1054.48,0.37440115266828367
150,1064.24,0.36525632112405076
151,1074.0900000000001,0.36342908729098783
152,1084.03,0.352762921169095
153,1094.06,0.35500952275837205
154,1096.4782,0.3535165349914097
155,1104.18,0.34937060256141594
156,1114.3999999999999,0.34487843933713924
157,1124.71,0.3376641318672475
158,1135.1200000000001,0.3381280474577835
159,1145.62,0.3326309688027048
160,1156.22,0.3288440432080537
161,1164.23,0.32562461534832216
162,1175.01,0.31318709126244126
163,1185.8799999999999,0.3163190729309454
164,1194.1,0.3091943084981123
165,1205.1499999999999,0.3011971916753864
166,1216.3,0.28989264791308844
167,1224.73,0.2973543269071537
168,1236.06,0.29729688465362575
169,1244.63,0.29490495593229
170,1256.15,0.2898714424935749
171,1258.92541,0.28849244534475327
172,1264.85,0.28615647128860294
173,1273.6200000000001,0.2862238776663935
174,1285.4099999999999,0.2833061760009604
175,1294.32,0.27694380558204523
176,1306.29,0.2739709394637047
177,1315.3500000000001,0.27467399533403336
178,1324.46,0.27097433663411
179,1333.64,0.26647917953583383
180,1345.98,0.26557305759762817
181,1355.3100000000002,0.2624087167885958
182,1364.71,0.2579740175812106
183,1374.17,0.25549129688952293
184,1383.6899999999998,0.2529211247135328
185,1396.5,0.2444659078149578
186,1406.1799999999998,0.2415787950141612
187,1415.9199999999998,0.242945890729062
188,1425.74,0.23976562113155955
189,1435.62,0.2377913200497547
190,1442.25,0.23637725603433296
191,1445.43977,0.23543268494657663
192,1445.57,0.23540413705340366
193,1455.59,0.23287711542263528
194,1465.68,0.2298386393593165
195,1475.84,0.22796858886344762
196,1486.07,0.22621367393502834
197,1496.37,0.22400110457405883
198,1503.28,0.2217189313037385
199,1513.7,0.2181615586298256
200,1517.1899999999998,0.21817440477839034
201,1524.19,0.21675558152336247
202,1534.76,0.21240111220827046
203,1545.4,0.20943921846062816
204,1556.11,0.20718999028043558
205,1563.29,0.20717293705599277
206,1574.1299999999999,0.20614505778677822
207,1585.04,0.2044222540850134
208,1596.03,0.20252266817461972
209,1603.39,0.20056883498076186
210,1614.5100000000002,0.1983282379813462
211,1625.6999999999998,0.19587142654938033
212,1633.1999999999998,0.19516308449042197
213,1644.52,0.19299325196943407
214,1655.9199999999998,0.19044776723981735
215,1659.58691,0.19009476666021974
216,1663.57,0.1899234876027487
217,1671.24,0.18753969546568078
218,1675.1,0.18885957658053315
219,1686.7099999999998,0.18736058454515395
220,1694.4899999999998,0.185501446014986
221,1706.24,0.1834803722065703
222,1714.1200000000001,0.18166385240994767
223,1726.0,0.17999318195514102
224,1733.96,0.17987913114535475
225,1745.98,0.17798810891751168
226,1754.04,0.17762905684127087
227,1766.2,0.17508365284039132
228,1774.3500000000001,0.17397326462434126
229,1786.6499999999999,0.17282666885042533
230,1794.9,0.17259206936792068
231,1803.18,0.1715104445054797
232,1815.68,0.16858973619865453
233,1824.0600000000002,0.1679750000697589
234,1836.71,0.16597112486325186
235,1845.1899999999998,0.16315529746790167
236,1853.7,0.16262104469261507
237,1866.55,0.1619281569531988
238,1875.1699999999998,0.1615154477848122
239,1883.82,0.15931904323648913
240,1896.8799999999999,0.1576929278375182
241,1905.46072,0.15725632891097846
242,1905.64,0.15725317112613224
243,1914.43,0.1560799177299546
244,1923.27,0.15415623208465198
245,1936.6,0.15209087646792302
246,1945.54,0.1541347163243703
247,1954.52,0.15246799638151765
248,1968.0700000000002,0.15331532686863858
249,1977.15,0.15203395242753587
250,1986.28,0.15150152573730816
251,1995.45,0.1507154992477804
252,2004.66,0.14977422295895265
253,2013.9099999999999,0.14918401687082491
254,2023.21,0.1470476885335721
255,2037.2299999999998,0.14746783387891793
256,2046.63,0.1480026910434151
257,2056.08,0.1455408159587873
258,2065.5699999999997,0.14467484107485945
259,2075.11,0.14636009394180657
260,2079.89,0.1543881829254552
261,2084.68,0.15880848945927875
262,2094.31,0.15529547027780086
263,2103.97,0.15352370374684798
264,2113.68,0.15633872496677007
265,2123.44,0.15190714393756716
266,2133.2400000000002,0.14975135310906418
267,2143.09,0.15528057003143625
268,2152.98,0.1541944771545083
269,2162.92,0.14895330202845533
270,2172.9,0.14845381710310235
271,2182.93,0.1547076499286244
272,2187.7616199999998,0.15436199764395483
273,2193.0099999999998,0.15414142761506727
274,2203.13,0.15233658317441418
275,2213.3,0.14398328215055622
276,2223.52,0.14817615454349353
277,2233.7799999999997,0.15792517766986697
278,2244.09,0.15505644421303558
279,2254.4500000000003,0.1445012541729994
280,2264.85,0.14168314486639938
281,2275.31,0.1433866516599536
282,2285.81,0.15403332918694396
283,2296.36,0.1457297001307295
284,2306.96,0.15310386449131025
285,2317.61,0.14610599226868617
286,2322.95,0.13839329518241272
287,2333.67,0.13461721174330188
288,2344.45,0.12556590440434534
289,2355.27,0.1416328877988249
290,2366.14,0.12615219461009972
291,2377.06,0.13192582483816964
292,2382.54,0.12053380531892272
293,2393.54,0.12407619701386499
294,2404.58,0.12340699944224341
295,2415.68,0.1266690579707761
296,2426.83,0.14439364991610396
297,2432.43,0.14405985259716547
298,2443.66,0.15231130600936563
299,2454.94,0.15474425283836096
300,2466.27,0.14619638308415153
301,2477.65,0.13898827674673725
302,2483.36,0.1214403389447482
303,2494.82,0.12683706407420625
304,2506.34,0.1442989953038185
305,2511.88643,0.1172684600447791
306,2512.12,0.11613383182156392
307,2517.91,0.11100959887738164
308,2523.71,0.11299781597992789
309,2535.3599999999997,0.12648372041866307
310,2547.07,0.12785640513776936
311,2552.94,0.15773870256741535
312,2564.72,0.13962937761362135
313,2576.56,0.15333810294019853
314,2582.5,0.1454639206969442
315,2594.42,0.1389196763973496
316,2606.39,0.13102125233139766
317,2612.4,0.126403370415243
318,2624.46,0.1405389467698478
319,2636.58,0.18183027340482377
320,2642.65,0.21582556176904028
321,2654.8500000000004,0.26800561877784446
322,2667.1,0.20196787602029131
323,2673.25,0.21702840475833607
324,2685.59,0.23949472242133962
325,2697.9900000000002,0.1938368803647144
326,2704.21,0.22110908942985882
327,2716.69,0.1802788677470618
328,2722.9500000000003,0.15813925699912035
329,2735.52,0.18040382573688007
330,2748.1499999999996,0.136293134755011
331,2754.4800000000005,0.1582221243341692
332,2767.2000000000003,0.18402464377285688
333,2773.58,0.1904694935856578
334,2786.38,0.14278822339817365
335,2792.7999999999997,0.10701261339788865
336,2805.69,0.11225997363096127
337,2812.1600000000003,0.1740430438643189
338,2825.14,0.2201873745179483
339,2838.1800000000003,0.20886059545194882
340,2844.72,0.16726569601240618
341,2857.85,0.12516412736696347
342,2864.4399999999996,0.20477655816106347
343,2877.6600000000003,0.25699679993617747
344,2884.0315,0.24095577242612692
345,2884.3,0.24028341882229912
346,2897.61,0.2811002601055847
347,2910.99,0.35713622752634816
348,2931.16,0.32005353028246164
349,2951.48,0.2988498604760276
350,2971.94,0.30691164294454926
351,2992.5400000000004,0.3113966776880266
352,3013.2799999999997,0.31038226470645963
353,3027.19,0.3290742157395552
354,3048.18,0.3433879818204091
355,3069.31,0.36809330017621855
356,3090.58,0.3574773708069838
357,3111.9999999999995,0.40784076887520143
358,3133.57,0.37884439438087164
359,3148.0399999999995,0.37784875451378996
360,3169.8599999999997,0.413967159081881
361,3191.83,0.36847789108742446
362,3206.56,0.4022275054452605
363,3228.7900000000004,0.3500372916757217
364,3251.17,0.4719362053436354
365,3273.71,0.5433357216114985
366,3288.82,0.5343547921442141
367,3311.31121,0.5008660418662296
368,3311.6200000000003,0.5004091884066902
369,3319.2500000000005,0.46254673125743123
370,3326.8999999999996,0.4699921139321584
371,3334.57,0.5147484364308718
372,3342.26,0.48433159875357135
373,3349.96,0.518902030988264
374,3357.69,0.532842072958936
375,3365.43,0.3837727848416012
376,3373.1800000000003,0.38295566663625946
377,3380.96,0.48905995816689696
378,3388.76,0.5113993895215208
379,3396.5699999999997,0.44837489078813764
380,3404.4,0.5749169318787407
381,3412.2400000000002,0.49189884288133695
382,3420.11,0.5050544636199125
383,3427.9900000000002,0.525037154270481
384,3435.9,0.541448554657029
385,3443.82,0.4039467249555701
386,3451.7599999999998,0.5185339350780973
387,3459.7099999999996,0.5336386151126178
388,3467.69,0.5249052048831174
389,3475.68,0.5270394645656102
390,3483.69,0.5313752640720893
391,3491.73,0.5401863733145477
392,3499.78,0.46616725246899915
393,3507.8399999999997,0.5955163015354437
394,3515.93,0.49645656033786756
395,3524.03,0.5502518890522846
396,3532.16,0.5676318275026808
397,3540.3,0.5992518358650702
398,3548.46,0.6301911840514459
399,3556.64,0.5570763720618077
400,3564.84,0.5819593998961559
401,3573.06,0.4356279675544902
402,3581.3,0.47918627503681066
403,3589.55,0.3605063524311243
404,3597.16,0.495723755457879
405,3599.8999999999996,0.47029231134399047
406,3602.64,0.5549665672301018
407,3605.37,0.39446155320422016
408,3608.11,0.42797980909033156
409,3610.85,0.491281064976443
410,3613.5899999999997,0.4637169208625545
411,3616.32,0.7026997068366728
412,3619.06,0.5716002627227842
413,3621.8,0.5340410186088956
414,3624.54,0.49600927449500704
415,3627.2700000000004,0.5245440604691254
416,3630.01,0.5545230163552367
417,3632.75,0.5524303722413482
418,3635.4900000000002,0.5975514281274596
419,3638.22,0.602747714101578
420,3640.9599999999996,0.6083501699876894
421,3643.7000000000003,0.5680240258738009
422,3646.44,0.5411976817599122
423,3649.17,0.5813992677340306
424,3651.91,0.622485523620142
425,3654.6499999999996,0.6499973795062534
426,3657.39,0.7486725353923649
427,3660.1299999999997,0.7252639912784763
428,3662.86,0.6400102772525946
429,3665.6,0.5902367331387061
430,3668.34,0.6700865890248175
431,3671.08,0.701206444910929
432,3673.81,0.7085244308850472
433,3676.55,0.6138944867711587
434,3679.29,0.5941463426572701
435,3682.03,0.6203783985433815
436,3684.76,0.6117639845174998
437,3687.5,0.6277475404036112
438,3690.2400000000002,0.6394367962897226
439,3692.98,0.6505552521758341
440,3695.71,0.6746466381499524
441,3698.45,0.6918174940360639
442,3701.1899999999996,0.6477734499221753
443,3703.93,0.5968472058082868
444,3706.66,0.540015791782405
445,3709.4,0.5912009476685164
446,3712.14,0.6182631035546279
447,3714.8799999999997,0.5670717594407393
448,3717.62,0.6204411153268508
449,3720.35,0.6215104013009691
450,3723.09,0.6273836571870806
451,3725.83,0.6027936130731919
452,3728.57,0.6150073689593034
453,3731.3,0.6342278549334217
454,3734.04,0.5416328108195331
455,3736.78,0.4707801667056445
456,3739.52,0.4692928225917559
457,3742.2499999999995,0.5339628085658743
458,3744.9900000000002,0.4758083644519857
459,3747.73,0.46985972033809714
460,3750.4700000000003,0.5225664762242086
461,3753.2,0.5781811621983269
462,3755.94,0.5718807180844383
463,3758.68,0.5668656739705498
464,3761.4199999999996,0.5470944298566611
465,3764.15,0.5435175158307795
466,3766.89,0.6046169717168909
467,3769.63,0.7041282276030023
468,3772.37,0.6629085834891137
469,3775.1099999999997,0.6231704393752253
470,3777.84,0.7214632253493436
471,3780.58,0.737884581235455
472,3783.32,0.6763177371215664
473,3786.06,0.6035167930076778
474,3788.7900000000004,0.6424734789817961
475,3791.53,0.5965101348679075
476,3794.27,0.6001987907540189
477,3797.01,0.6053169466401304
478,3799.74,0.6160122326142488
479,3801.8939600000003,0.611797904445068
480,3802.4799999999996,0.6106551992845306
481,3805.2200000000003,0.6681124398417004
482,3807.96,0.5971627803988704
483,3810.69,0.5695044843116711
484,3813.43,0.528764424868841
485,3816.1699999999996,0.501910165426011
486,3818.91,0.49066520598318086
487,3821.64,0.46122530989598154
488,3824.38,0.41731515045315143
489,3827.12,0.4078282910103213
490,3829.86,0.4612739315674912
491,3832.6,0.36166547212466116
492,3835.33,0.36687317603746183
493,3838.07,0.42918411659463174
494,3840.81,0.5128913571518017
495,3843.55,0.5627688977089715
496,3846.28,0.5087338016217722
497,3849.0200000000004,0.6224086421789421
498,3851.76,0.576740282736112
499,3854.5,0.4957900232932819
500,3857.23,0.5780242272060826
501,3859.97,0.5256522677632525
502,3862.7099999999996,0.5894040083204224
503,3865.4500000000003,0.5845628488775922
504,3868.18,0.598532952790393
505,3870.92,0.503172093347563
506,3873.66,0.5200790339047328
507,3876.3999999999996,0.5680601744619027
508,3879.13,0.6118134783747035
509,3881.87,0.5697533189318733
510,3884.61,0.6410502594890432
511,3887.35,0.617585300046213
512,3890.09,0.5937052406033829
513,3892.82,0.6337695445161836
514,3895.56,0.6819696850733535
515,3898.3,0.7482113256305235
516,3901.04,0.6870662661876934
517,3903.7699999999995,0.7160177701004942
518,3906.51,0.724503010657664
519,3909.25,0.7239387512148339
520,3911.9900000000002,0.7653369917720038
521,3914.72,0.7008522956848044
522,3917.46,0.7061097362419744
523,3920.2,0.6976485767991443
524,3922.9399999999996,0.5663891173563143
525,3925.67,0.5044225212691149
526,3928.41,0.4274781618262848
527,3931.15,0.39190300238345466
528,3933.89,0.4194447429406246
529,3936.6200000000003,0.47354974685342527
530,3939.36,0.5565134874105951
531,3942.1,0.6386701279677651
532,3944.84,0.694651668524935
533,3947.58,0.7154146090821049
534,3950.3100000000004,0.7208484129949055
535,3953.05,0.6948643535520754
536,3955.79,0.6858844941092455
537,3958.53,0.6683738346664153
538,3961.2599999999998,0.525237338579216
539,3963.9999999999995,0.4192763791363859
540,3966.7400000000002,0.4636436196935558
541,3969.48,0.5150313602507257
542,3972.21,0.6108516641635263
543,3974.95,0.7131251047206962
544,3977.69,0.7970049452778661
545,3980.43,0.850795985835036
546,3983.16,0.9035536897478367
547,3985.9,0.9452979303050066
548,3988.64,0.9547627708621766
549,3991.38,0.9786956114193465
550,3994.11,0.9672416153321471
551,3996.85,0.969789555889317
552,3999.59,0.9706658964464869
553,4002.33,0.9726374370036569
554,4005.07,1.0165717775608267
555,4007.8,1.0192976814736274
556,4010.5400000000004,1.0537208220307974
557,4013.28,1.1014590625879672
558,4016.02,1.089193303145137
559,4018.75,1.0605627070579378
560,4021.49,1.0891649476151077
561,4024.2299999999996,1.0468681881722777
562,4026.9700000000003,1.0438245287294476
563,4029.7,1.0282782326422484
564,4032.44,0.9862119731994181
565,4035.18,1.017176913756588
566,4037.9199999999996,1.052983554313758
567,4040.65,1.0301747582265586
568,4043.39,1.0067839987837286
569,4046.13,0.9985531393408985
570,4048.87,0.9815607798980683
571,4051.6000000000004,1.000598883810869
572,4054.34,0.983952424368039
573,4057.08,0.9600430649252089
574,4059.82,0.9556743054823787
575,4062.5499999999997,0.9498689093951794
576,4065.29,0.9648674499523493
577,4068.03,0.9861486905095193
578,4070.7700000000004,0.9594727310666891
579,4073.51,0.9731454716238591
580,4076.24,1.0108016755366598
581,4078.98,1.0738728160938296
582,4081.72,1.1395380566509994
583,4084.4599999999996,1.1168962972081695
584,4087.19,1.09656670112097
585,4089.93,1.0681609416781401
586,4092.67,1.03860258223531
587,4095.41,1.01377112279248
588,4098.14,0.9849094267052805
589,4100.88,0.9907430672624504
590,4103.62,1.0168662078196202
591,4106.36,1.0310577483767902
592,4109.09,1.028538152289591
593,4111.83,1.0405391928467609
594,4114.570000000001,1.0745594334039308
