,lambda (Angstroms),Total Flux (erg/s/cm^2/Angstrom)
0,100.03,0.5109830027453994
1,101.89,0.5095633546137273
2,104.02,0.507936707848119
3,104.712855,0.5074078104778301
4,105.95,0.5024426992044452
5,107.92,0.49453681091864304
6,109.92999999999999,0.4864741071624187
7,114.05,0.46994058146891393
8,118.06,0.45384822738157055
9,120.22644299999999,0.445195639783819
10,121.09,0.44230686881694203
11,125.06,0.4289594887083226
12,127.09,0.42213329153315954
13,127.97,0.41917584566313815
14,130.95000000000002,0.40915409755329274
15,131.85999999999999,0.40610806111270253
16,134.0,0.3989111752787867
17,137.12,0.3884373037396198
18,138.038426,0.3853495956084049
19,139.98999999999998,0.3806617865052946
20,142.93,0.3737882650218492
21,146.93,0.36451999286954273
22,151.05,0.35464534590566704
23,154.92000000000002,0.3453813832825605
24,158.489319,0.33683835078985686
25,158.9,0.33609643807282263
26,161.85000000000002,0.3307679096962836
27,166.0,0.32327822833945774
28,169.86999999999998,0.3162851938980321
29,173.03,0.31057821600994295
30,177.06,0.3032956879311457
31,179.92999999999998,0.29811192077329257
32,181.970086,0.29442717561605697
33,182.01999999999998,0.29435854522810345
34,185.82999999999998,0.28912109719486406
35,191.02999999999997,0.28196586309175536
36,194.14000000000001,0.2776949739570113
37,198.20000000000002,0.2721109687457379
38,201.89,0.2670419554379549
39,205.17000000000002,0.26253032994214776
40,208.929613,0.2573165965063754
41,209.95,0.256252921504246
42,215.83,0.25024818192797804
43,219.84,0.24612070024246196
44,222.9,0.24294759433032254
45,227.04,0.23869103780213388
46,230.2,0.23623312370332317
47,233.94000000000003,0.23405348392181938
48,239.88329199999998,0.22874531567972686
49,239.94000000000003,0.22870823697829923
50,246.1,0.22344459516712842
51,251.83,0.21900952709602303
52,257.11,0.2138994335435909
53,260.08,0.2121295409203478
54,263.7,0.20938748199235455
55,269.22,0.20487143809662997
56,274.23,0.20076579005540174
57,275.42287,0.19978359021513378
58,278.68,0.19771054492696355
59,283.86,0.19445026639910346
60,289.81,0.19049964876575062
61,295.88,0.18675510786920416
62,300.68,0.18363632534145735
63,307.69,0.17928254254989381
64,316.227766,0.17397501142627028
65,317.77,0.1732570790668404
66,328.18,0.16832950379195225
67,338.15,0.16358245105990277
68,347.62,0.15906291817198817
69,357.35999999999996,0.15445782192824078
70,363.078055,0.15176175476500672
71,365.69,0.15083242942681732
72,375.07,0.1474696987838101
73,384.69000000000005,0.1439264745443933
74,394.56,0.14049888301704988
75,404.67999999999995,0.13691505820177988
76,414.11,0.13355196010118728
77,416.86938299999997,0.13255970973715192
78,421.8,0.13118880831571852
79,429.65000000000003,0.12902527254242685
80,440.67,0.126029604171513
81,450.93,0.12321422117100696
82,460.37,0.1206307145175199
83,470.01,0.11799814260866241
84,478.630092,0.11566245707149203
85,479.86,0.11540404080354688
86,489.9,0.11325877395616468
87,500.15999999999997,0.11112618210216654
88,505.95,0.10989160815531963
89,511.80999999999995,0.1087319364336404
90,520.13,0.10698559491071015
91,529.8,0.10493665930172748
92,539.65,0.1028386704146045
93,549.5408739999999,0.10076251860355083
94,549.6800000000001,0.10074000205549735
95,559.9,0.09914023529179052
96,570.31,0.0974960315285627
97,579.58,0.09598795076246068
98,590.35,0.09427966310540366
99,599.9399999999999,0.09271733165589793
100,609.69,0.09103867736469032
101,619.6,0.08961185823178083
102,629.67,0.08799817325716948
103,630.957344,0.08779568212284963
104,639.9000000000001,0.08667561064788898
105,650.3000000000001,0.0853533982549741
106,657.8299999999999,0.08438187868971939
107,665.44,0.08344360516759607
108,674.7,0.08227836741005838
109,685.66,0.08086894831906345
110,695.1999999999999,0.07969200921248575
111,704.8699999999999,0.07844245305099663
112,716.33,0.07703786297957307
113,724.43596,0.07602125259809805
114,726.29,0.07584728795115715
115,734.6999999999999,0.07505674623674569
116,744.9200000000001,0.07409336736560591
117,755.28,0.07312263623869715
118,765.79,0.07208087578775012
119,774.66,0.07130757803295466
120,785.44,0.07028930943873876
121,794.53,0.06945080608202055
122,805.58,0.06842857034453578
123,814.91,0.06755947304935636
124,824.3499999999999,0.06668266550321554
125,831.763771,0.06596847813055695
126,835.82,0.06567091895327222
127,845.49,0.06503157005887052
128,855.2800000000001,0.06434595692079476
129,865.1899999999999,0.06365751663904494
130,875.21,0.06296186344226055
131,885.34,0.0622575118304416
132,895.59,0.06154537367494861
133,905.9599999999999,0.060821012875781545
134,914.35,0.060325773047236526
135,924.9300000000001,0.06013275454663984
136,935.64,0.06002018087372959
137,944.3,0.060211797071917934
138,954.992586,0.06004726287030099
139,955.24,0.06004381917102458
140,964.07,0.05978982442283801
141,975.24,0.05693363323968471
142,984.26,0.058083545041650426
143,995.66,0.05728887705078668
144,1004.8700000000001,0.057452289402904665
145,1014.17,0.056657429699831625
146,1025.91,0.054086293167135126
147,1035.4099999999999,0.054488949674748696
148,1044.99,0.05541516846663687
149,1054.66,0.054657858203334034
150,1064.4099999999999,0.05330619422430587
151,1074.26,0.05309634085062096
152,1084.2,0.05166922542174504
153,1094.23,0.0518161929376781
154,1096.4782,0.051626452652313186
155,1104.3600000000001,0.0510563040851974
156,1114.58,0.05037115494665982
157,1124.89,0.04944048507891787
158,1135.3,0.04949357173428224
159,1145.8,0.048608029660442253
160,1153.75,0.04828293624739197
161,1164.42,0.04774754646283265
162,1175.2,0.04612382545369025
163,1186.07,0.04636149371534354
164,1194.29,0.045043196114680224
165,1205.34,0.0438442349179248
166,1213.7,0.04258696184961029
167,1224.93,0.04318484919444618
168,1236.26,0.043481340062388366
169,1244.83,0.04325787129259705
170,1256.35,0.04248933995444118
171,1258.92541,0.04223285181592202
172,1265.0600000000002,0.04171784946484725
173,1273.83,0.042020532916913884
174,1285.6100000000001,0.041665773559484545
175,1294.5300000000002,0.04064390588815435
176,1303.5,0.040240623509025235
177,1315.5600000000002,0.04034508858792185
178,1324.68,0.03982174208539592
179,1333.8600000000001,0.03911660253351126
180,1346.1999999999998,0.03906513304873385
181,1355.53,0.03858032037345238
182,1364.93,0.0378864113072524
183,1374.39,0.0376064091916937
184,1383.9199999999998,0.037236311685216496
185,1393.51,0.03639167512938057
186,1406.4099999999999,0.03593276751725507
187,1416.1499999999999,0.03571402883802233
188,1425.97,0.03533990142631128
189,1435.85,0.03494150996524152
190,1442.4799999999998,0.034789332511102604
191,1445.43977,0.034694860972892094
192,1445.81,0.034687385627946966
193,1455.83,0.03431717350007727
194,1465.92,0.03383378790325039
195,1476.08,0.03353053283746635
196,1486.3100000000002,0.03326714930272512
197,1496.62,0.03299462823203285
198,1503.5200000000002,0.0326578060062543
199,1510.46,0.03221013051250024
200,1517.4399999999998,0.03215071875077065
201,1524.44,0.03188609385505328
202,1535.01,0.031291973042520085
203,1545.65,0.0311038367610297
204,1556.36,0.030696944010582147
205,1563.55,0.030556821841981035
206,1574.3799999999999,0.0303826202876069
207,1585.3,0.03015740213028782
208,1596.29,0.029895662504011565
209,1603.65,0.02961848319651446
210,1614.77,0.029299420699317746
211,1625.9599999999998,0.02888181573316386
212,1633.47,0.02878667742075852
213,1644.79,0.02849154358368417
214,1656.1899999999998,0.028018124210658763
215,1659.58691,0.027999042790157656
216,1663.8400000000001,0.028009693812694338
217,1671.52,0.02762394717104399
218,1675.37,0.027856085499122912
219,1683.1,0.027770136601993067
220,1694.77,0.027393366373079046
221,1706.52,0.02710170033539784
222,1714.39,0.026891087522925405
223,1726.28,0.026665321569901618
224,1734.25,0.026672962246470193
225,1746.27,0.026386807229199716
226,1754.3300000000002,0.0264178252459052
227,1766.49,0.025935151313292146
228,1774.64,0.02587124067013454
229,1786.9399999999998,0.025708042822178902
230,1795.19,0.025787502668062304
231,1803.48,0.025572204109562117
232,1815.98,0.02516862523968849
233,1824.36,0.025051645021325217
234,1837.01,0.02473379738501311
235,1845.4799999999998,0.024268849506786743
236,1854.0,0.024273786373080874
237,1866.86,0.024220613863754892
238,1875.47,0.024148931070185942
239,1884.1299999999999,0.023856920021137495
240,1892.8300000000002,0.023751738567705443
241,1905.46072,0.023553157427257457
242,1905.9499999999998,0.023547946803073275
243,1914.74,0.023419494971733883
244,1923.58,0.023123958509954558
245,1936.92,0.02265638530858169
246,1945.8600000000001,0.023151217585922507
247,1954.84,0.022942662358911386
248,1968.3899999999999,0.023111421509690817
249,1977.47,0.02287952702179984
250,1982.03,0.02291468752567838
251,1995.77,0.02271629128078608
252,2004.98,0.022517666153751288
253,2014.24,0.022409740396276565
254,2023.53,0.02207065726053789
255,2032.87,0.022279493494359284
256,2046.9699999999998,0.022326117710299506
257,2056.41,0.022018452683241044
258,2065.91,0.021819777899654662
259,2075.44,0.022058159737804332
260,2080.23,0.023570970341659198
261,2085.02,0.02433197794551407
262,2094.65,0.023749587522783878
263,2104.31,0.023379639721789733
264,2114.03,0.023765915164267667
265,2123.79,0.023084426102393668
266,2133.59,0.022598081536167717
267,2143.44,0.023574121339501847
268,2153.33,0.023464436638484028
269,2163.27,0.02260809730702628
270,2173.25,0.022555584471216597
271,2183.29,0.023479128878878992
272,2187.7616199999998,0.023450256969313816
273,2193.36,0.023439302914750382
274,2203.49,0.023092736724074484
275,2213.66,0.021737609031164916
276,2223.88,0.022242562710463265
277,2234.14,0.02376942388752796
278,2244.4500000000003,0.023282439436800556
279,2254.81,0.02171023535828108
280,2265.22,0.021345859651969522
281,2275.68,0.021741880317865878
282,2286.18,0.023246379481528565
283,2296.73,0.022001033017399172
284,2307.33,0.0230622979254777
285,2312.65,0.02200583812840013
286,2323.33,0.020611533032011322
287,2334.05,0.02005473643338885
288,2344.83,0.01867317308141588
289,2355.65,0.02108886722720924
290,2366.52,0.018752865745210522
291,2377.4500000000003,0.0196336005098613
292,2382.93,0.017900202703849073
293,2393.93,0.01844579158959094
294,2404.97,0.01831778897309914
295,2416.08,0.018800158477698427
296,2427.23,0.021286713480064043
297,2432.82,0.021248867292909222
298,2444.05,0.02235115129080751
299,2455.33,0.02264969666091372
300,2466.67,0.021547734277669425
301,2472.35,0.020649225960488862
302,2483.77,0.018406134572777236
303,2495.23,0.01902809168283194
304,2506.75,0.02155914203953615
305,2511.88643,0.017859727352485064
306,2512.53,0.017397752650666967
307,2518.32,0.016636448496674994
308,2524.1200000000003,0.01689918421115626
309,2535.77,0.018554536982485017
310,2547.4799999999996,0.01881681896465323
311,2553.35,0.0224641407584472
312,2565.1400000000003,0.020196002688401365
313,2576.98,0.021877606960721746
314,2582.92,0.020900847833828423
315,2594.84,0.020046946053934752
316,2606.82,0.019026451484880545
317,2612.83,0.01838984643729993
318,2624.89,0.020281647816031673
319,2637.0,0.025037510537129628
320,2643.08,0.029299360568861718
321,2655.2799999999997,0.03480418010621887
322,2667.54,0.02705002885441548
323,2673.69,0.029040567965460267
324,2686.0299999999997,0.031233625661442832
325,2692.2200000000003,0.026388904246380594
326,2704.65,0.02938849075862235
327,2717.1299999999997,0.02477118661323032
328,2723.4,0.022678664145954035
329,2735.96,0.025097958948347952
330,2742.27,0.01931670295496464
331,2754.93,0.021746492442090995
332,2767.6499999999996,0.02460842214005681
333,2774.03,0.0255497482259862
334,2786.83,0.02002292687173797
335,2793.25,0.015392049431560336
336,2806.15,0.016069713762044534
337,2812.6200000000003,0.02375087066423312
338,2825.6,0.029265819942503272
339,2832.11,0.02842817431858483
340,2845.19,0.024284422281587413
341,2851.74,0.018938155131561954
342,2864.91,0.02866072291082373
343,2878.1299999999997,0.03348195903245172
344,2884.0315,0.03150093272820143
345,2884.77,0.031254553143190845
346,2898.08,0.03484006910527153
347,2911.46,0.04264571835941424
348,2931.64,0.038664857413868645
349,2951.96,0.036774393052447105
350,2972.42,0.038133245275149635
351,2993.0299999999997,0.038403724552270806
352,3006.84,0.03884455402908028
353,3027.68,0.04012719412297671
354,3048.67,0.04140868127129177
355,3069.7999999999997,0.04342960500373089
356,3091.08,0.042863145790588655
357,3112.51,0.04680674363186506
358,3126.88,0.04436351944517079
359,3148.55,0.04400972857351702
360,3170.3700000000003,0.047088544756281894
361,3192.35,0.042243598463759975
362,3207.09,0.045791471677965025
363,3229.32,0.04015749714280751
364,3251.7000000000003,0.051183039662068636
365,3266.71,0.057610765574227236
366,3289.35,0.05649655032114734
367,3311.31121,0.05412959473603797
368,3312.1600000000003,0.05403933930665181
369,3319.7900000000004,0.05149844117242125
370,3327.44,0.05185772287270123
371,3335.11,0.05782130440749175
372,3342.8,0.05289207577679281
373,3350.5099999999998,0.05621254698060439
374,3358.23,0.05761392310167125
375,3365.97,0.049873239057248636
376,3373.7299999999996,0.04304083484733657
377,3381.5099999999998,0.05253360047193503
378,3389.31,0.05626914593104403
379,3397.1200000000003,0.0503159363074083
380,3404.95,0.0580958365182831
381,3412.7999999999997,0.05270800656366845
382,3420.67,0.05474406644356432
383,3428.55,0.05524189124071546
384,3436.46,0.05499692078963241
385,3444.38,0.04108016525580463
386,3452.3199999999997,0.057897589556487376
387,3460.2699999999995,0.053637768774425394
388,3468.25,0.05412693274412922
389,3476.25,0.051745506548343576
390,3484.26,0.0547997852698132
391,3492.29,0.05208080382579337
392,3500.34,0.049235522216284064
393,3508.4100000000003,0.0586953204412853
394,3516.5,0.05021338850079707
395,3524.61,0.05327240639481938
396,3532.73,0.05836324920609695
397,3540.88,0.06116748676914033
398,3549.04,0.06387816924943898
399,3557.22,0.05689979156424816
400,3565.42,0.061799783713567875
401,3573.6400000000003,0.04587467569739813
402,3581.88,0.050726307515738915
403,3590.13,0.04050745425133498
404,3598.4100000000003,0.05878422573869684
405,3606.7,0.054509762143313975
406,3615.02,0.0527972332996969
407,3623.3500000000004,0.0493990593733351
408,3631.71,0.0714518801987391
409,3640.08,0.05978779594139838
410,3648.47,0.05708333151856819
411,3656.88,0.06862977693024853
412,3665.31,0.07101518217643941
413,3673.7599999999998,0.06556086725714083
414,3682.23,0.06180275217235279
415,3690.7200000000003,0.05645818692207527
416,3699.22,0.06639083658905304
417,3707.75,0.05695071100779659
418,3716.3,0.07196726526105068
419,3724.8700000000003,0.044247929348815315
420,3733.45,0.06195828835383522
421,3742.06,0.052174562110620916
422,3750.6800000000003,0.04499375078466189
423,3759.3300000000004,0.06749586421046866
424,3768.0000000000005,0.058896847470785975
425,3776.68,0.06619419564835856
426,3785.3900000000003,0.07625439857769693
427,3794.1200000000003,0.06010501134154586
428,3801.8939600000003,0.050703996808661965
429,3802.86,0.04953675197231638
430,3811.6299999999997,0.06632531791619385
431,3820.42,0.05741290404466398
432,3829.22,0.04637822526543043
433,3838.05,0.039199881763085864
434,3846.8999999999996,0.05908652844533394
435,3855.77,0.06392103531217468
436,3864.65,0.057737117271311734
437,3873.56,0.057130664507337774
438,3882.4900000000002,0.05664745192795645
439,3884.16,0.05444533234144282
440,3885.9300000000003,0.07801386367789243
441,3887.7099999999996,0.055567650106638375
442,3889.48,0.05456089144308799
443,3891.26,0.05995716787183394
444,3893.04,0.06624567430057987
445,3894.8100000000004,0.06681490563702949
446,3896.5899999999997,0.06092477206577543
447,3898.36,0.06083734340222505
448,3900.1400000000003,0.05347573983097099
449,3901.9199999999996,0.05583238625971693
450,3903.69,0.06287166759616655
451,3905.47,0.07974199402491249
452,3907.2400000000002,0.07027646536136212
453,3909.0200000000004,0.07345052179010804
454,3910.7999999999997,0.067973158218854
455,3912.57,0.08134311955530361
456,3914.35,0.07394670598404955
457,3916.1200000000003,0.07155696732049915
458,3917.9,0.0744817737492451
459,3919.68,0.05626530017799105
460,3921.4500000000003,0.060463541514440666
461,3923.2299999999996,0.059142917943186615
462,3925.0,0.048827979279636224
463,3926.78,0.04824713570838216
464,3928.56,0.044147172137128106
465,3930.3300000000004,0.03697071347357772
466,3932.1099999999997,0.03811328990232367
467,3933.88,0.03988339123877328
468,3935.6600000000003,0.03160096766751922
469,3937.44,0.051396504096265165
470,3939.21,0.04565667543271478
471,3940.99,0.050216501861460726
472,3942.76,0.05852350319791034
473,3944.5400000000004,0.06793744962665628
474,3946.3199999999997,0.06918443605540223
475,3948.09,0.06880785739185184
476,3949.87,0.06323368382059778
477,3951.6400000000003,0.0625860951570474
478,3953.42,0.07011047158579334
479,3955.2,0.07202214801453928
480,3956.9700000000003,0.06345182935098889
481,3958.7499999999995,0.05450891577973484
482,3960.52,0.04810150711618445
483,3962.3,0.0490620035449304
484,3964.08,0.04982930997367634
485,3965.8500000000004,0.032091001310125954
486,3967.6299999999997,0.031380627738871895
487,3969.4,0.034053789075321514
488,3971.1800000000003,0.04471651550406745
489,3972.96,0.0502119319328134
490,3974.73,0.066053043269263
491,3976.5099999999998,0.07111162969800897
492,3978.28,0.07415470103445856
493,3980.0600000000004,0.08360313746320451
494,3981.8399999999997,0.07393391389195046
495,3983.61,0.07825814522840008
496,3985.39,0.09085848165714601
497,3987.1600000000003,0.09223490299359563
498,3988.94,0.09258393942234157
499,3990.72,0.08351240585108752
500,3992.4900000000002,0.09061871718753713
501,3994.27,0.08920148361628306
502,3996.04,0.09393622495273268
503,3997.82,0.09295853138147864
504,3999.6,0.08886644781022457
505,4001.3700000000003,0.09772872914667419
506,4003.1499999999996,0.10352394557542013
507,4004.92,0.09709023691186974
508,4006.7000000000003,0.09632159334061569
509,4008.48,0.10338453976936163
510,4010.25,0.10230059110581124
511,4012.0299999999997,0.09612055753455719
512,4013.8,0.1022619988710068
513,4015.5800000000004,0.10430000529975274
514,4017.3599999999997,0.10547717172849869
515,4019.13,0.1171752630649483
516,4020.91,0.10975692949369426
517,4022.6800000000003,0.10846882083014385
518,4024.46,0.1104370872588898
519,4026.24,0.10232730368763575
520,4028.01,0.09515073502408536
521,4029.79,0.09666877145283131
522,4031.56,0.08563265278928092
523,4033.34,0.09243339921802686
524,4035.12,0.10565015564677281
525,4036.8900000000003,0.10202220698322241
526,4038.6699999999996,0.10257268341196836
527,4040.44,0.10922878474841798
528,4042.2200000000003,0.10474529117716393
529,4044.0,0.09079844760590987
530,4045.77,0.09571770894235947
531,4047.5499999999997,0.09548779537110541
532,4049.32,0.10249807670755504
533,4051.1000000000004,0.10159540313630097
534,4052.8799999999997,0.10349672956504691
535,4054.65,0.09998133090149654
536,4056.43,0.09302406733024247
537,4058.2000000000003,0.0955449486666921
538,4059.9800000000005,0.09762807509543803
539,4061.7599999999998,0.09869269152418397
540,4063.53,0.1006829228606336
541,4065.31,0.09493174928937954
542,4067.08,0.10104416062582915
543,4068.86,0.10527679705457509
544,4070.64,0.10191905348332103
545,4072.4100000000003,0.09486620481977065
546,4074.1899999999996,0.0960863112485166
547,4075.96,0.1006276525849662
548,4077.7400000000002,0.10521186901371216
549,4079.52,0.0982840554424581
550,4081.2900000000004,0.10220404677890771
551,4083.0699999999997,0.10456858320765365
552,4084.84,0.11092709454410327
553,4086.6200000000003,0.10870896097284921
554,4088.3999999999996,0.10807962740159516
555,4090.17,0.11165611873804476
556,4091.95,0.1037826651667907
557,4093.7200000000003,0.10289119650324033
558,4095.5000000000005,0.10595840293198627
559,4097.28,0.08976242936073221
560,4099.05,0.09180580069718182
561,4100.83,0.08186317712592776
562,4102.6,0.08778483846237739
563,4104.38,0.10012518489112332
564,4106.15,0.10317946622757294
565,4107.93,0.10295218265631888
566,4109.71,0.09978251908506483
567,4111.4800000000005,0.10728284042151445
568,4113.26,0.11128500685026038
569,4115.03,0.09589128818671
