,lambda (Angstroms),Total Flux (erg/s/cm^2/Angstrom)
0,100.08,0.004482492660223623
1,101.94,0.005386522832550641
2,104.07,0.006421783152963852
3,104.712855,0.006734234983861045
4,106.00999999999999,0.006208190988905543
5,107.98,0.005409277682228784
6,109.98,0.004598198925847714
7,114.11,0.002923320936556207
8,118.11999999999999,0.0012971087924219659
9,120.22644299999999,0.0004428853516608268
10,120.87,0.00043081625396359656
11,125.12,0.00035108270954900485
12,126.86,0.0003184410238963486
13,128.04,0.00029630476366316797
14,131.02,0.00024040173022310096
15,131.93,0.0002233448535939532
16,134.07,0.00018320246963310016
17,136.88,0.00013051976562001715
18,138.038426,0.00010879388355533111
19,140.07,0.00010746846367057427
20,143.0,0.00010591472661226264
21,147.0,0.00010428222789135935
22,151.12,0.00010185564625782898
23,155.0,9.96609330495528e-05
24,158.489319,9.773812828029599e-05
25,158.98,9.72932791614267e-05
26,161.92999999999998,9.465191391610383e-05
27,166.08,9.10189624523445e-05
28,169.95,8.767455527288704e-05
29,173.11,8.497983606433774e-05
30,177.15,8.159122396226845e-05
31,180.02,7.925931679817466e-05
32,181.970086,7.768263133206091e-05
33,182.11,7.775782616280552e-05
34,185.92000000000002,7.990991096051905e-05
35,191.13000000000002,8.288334722720867e-05
36,193.79,8.464168781826325e-05
37,197.85,8.712094787829391e-05
38,201.99,8.97920174222661e-05
39,204.8,9.175818117071099e-05
40,208.929613,9.405594150663202e-05
41,210.04999999999998,9.654171090134555e-05
42,215.94,0.00011127928224820836
43,219.95000000000002,0.00012110902487994349
44,223.01000000000002,0.00012838411374605557
45,227.16,0.00013876239809061926
46,229.79,0.0001571576224101862
47,234.06,0.00019298090965146026
48,239.88329199999998,0.00022362341539402337
49,240.07,0.00022392828794478464
50,246.22000000000003,0.00021480336948429582
51,251.96,0.00021602715692117298
52,257.23,0.00019694856428917687
53,260.21,0.00020717904727905393
54,263.83,0.00020979296057548164
55,268.74,0.00020654142214605073
56,273.73,0.00020258424500493868
57,275.42287,0.00020135443630210395
58,278.82,0.0002104005880968551
59,284.01,0.00022432346173637712
60,289.95,0.0002341404182717838
61,296.03000000000003,0.0002525078902810891
62,300.84,0.0002640280219200294
63,307.84,0.0002840280956149532
64,316.227766,0.00030815345140328436
65,317.93,0.00030788830601073414
66,328.34000000000003,0.00030299534493268676
67,338.32,0.0002971262042449911
68,347.8,0.00029097601749956465
69,356.72,0.00028533159916947987
70,363.078055,0.000281944279603338
71,365.87,0.000286829134133417
72,375.26,0.0003006283099380719
73,384.88,0.0003093656953737248
74,394.76,0.00032973830474007095
75,404.88000000000005,0.00034556322850398023
76,414.31,0.0003579016233748956
77,416.86938299999997,0.0003609501356772948
78,422.02000000000004,0.00036502381007139215
79,429.86,0.00037121536170320237
80,440.89000000000004,0.0003823313888076498
81,451.16,0.0003895142073355441
82,459.55,0.0003955616099109126
83,470.25,0.0004035232464492251
84,478.630092,0.0004111866519349367
85,480.09999999999997,0.00041049161094454444
86,490.15000000000003,0.0004010330620718681
87,500.41,0.0003971335327749866
88,506.21,0.0003936149448683675
89,512.07,0.0004182290339834039
90,520.39,0.0004146792809863227
91,530.0699999999999,0.00040826674048010313
92,539.92,0.00039630680153524125
93,549.5408739999999,0.0004058785378064395
94,549.96,0.0004065180299531207
95,560.18,0.00042370880509511234
96,570.6,0.00043788804687393355
97,579.87,0.0004326349804909846
98,590.65,0.00045595030221609915
99,600.25,0.00045503850078391906
100,610.0,0.00045803927432936113
101,619.91,0.0005119292611842669
102,629.98,0.0005262918613486363
103,630.957344,0.0005276301117450393
104,640.2199999999999,0.0005458843712020337
105,650.62,0.000582652366317759
106,658.16,0.0006005354102766599
107,664.25,0.0006359431727050028
108,675.04,0.0006614888338875678
109,684.4300000000001,0.0006573695784199391
110,695.5500000000001,0.0007713436878129069
111,705.23,0.0007458804686513897
112,716.6899999999999,0.0008751481792308332
113,724.43596,0.0009103766943226429
114,726.66,0.0009201605835520853
115,735.07,0.0009622708422851925
116,745.3,0.0010391274647393765
117,755.67,0.0011029143920951818
118,764.42,0.0011246393484465119
119,775.0500000000001,0.0012558885563338997
120,785.83,0.0013101054337587386
121,794.93,0.001406093252364122
122,804.14,0.0014912086819636365
123,815.3199999999999,0.0015692011448216795
124,824.76,0.0017035867610452862
125,831.763771,0.001540969632370313
126,834.3100000000001,0.0014802591977221666
127,845.92,0.0018360946375142657
128,855.7199999999999,0.0019029702998710762
129,865.63,0.0020543898492543407
130,875.6500000000001,0.002191203285664059
131,885.7900000000001,0.0023536353261026364
132,893.98,0.002486738551072257
133,904.34,0.0025370233655637423
134,914.8100000000001,0.0033129040670816816
135,925.4,0.01723330737262848
136,933.96,0.03670184112668708
137,944.7800000000001,0.06854803692328919
138,954.992586,0.09468874186323437
139,955.72,0.09655093363175254
140,964.56,0.109576735194364
141,975.7299999999999,0.01961923902404385
142,984.76,0.09370511772431325
143,993.87,0.09948237100885966
144,1005.38,0.14507357182171687
145,1014.6800000000001,0.14079844224392124
146,1024.07,0.06309801657343725
147,1035.93,0.10109510369250646
148,1045.51,0.1912119551596804
149,1055.19,0.18815599985720066
150,1064.95,0.1498229391389979
151,1074.81,0.17886657165114148
152,1084.75,0.14308279874756202
153,1094.79,0.18989111907432887
154,1096.4782,0.18874644518587588
155,1104.92,0.18302131615812933
156,1115.14,0.17680935076593166
157,1125.46,0.15904946418594343
158,1135.87,0.20299125853694364
159,1143.75,0.18556258893904565
160,1154.33,0.1974567472708019
161,1165.01,0.20392188441476755
162,1175.79,0.1411008003709426
163,1183.94,0.19927707356601004
164,1194.9,0.14012685138416206
165,1205.95,0.10294471013330256
166,1214.31,0.07091406883400975
167,1225.55,0.13947785732634815
168,1234.04,0.20817285848292758
169,1245.46,0.22929883883724292
170,1254.09,0.21999411033091554
171,1258.92541,0.20817236172996043
172,1265.6999999999998,0.1916111879124352
173,1274.47,0.24626322008279888
174,1286.26,0.25846069776678837
175,1295.1799999999998,0.20626043219776263
176,1304.16,0.2048397675329811
177,1316.2199999999998,0.2555018492860696
178,1325.35,0.24512518688189863
179,1334.53,0.2189878252312645
180,1343.79,0.2596459647862894
181,1356.22,0.25199255211555055
182,1365.62,0.22667439378047857
183,1375.09,0.23790193650035818
184,1384.6200000000001,0.241212380124482
185,1394.2199999999998,0.20721122480355741
186,1403.88,0.21449607038687707
187,1413.61,0.2256367170251483
188,1423.4099999999999,0.23089366471837114
189,1436.5800000000002,0.23142106319997774
190,1443.21,0.2434437631189642
191,1445.43977,0.24609246885897718
192,1446.54,0.24739941063973708
193,1456.5700000000002,0.2412097375063475
194,1466.6599999999999,0.2235714651318808
195,1473.43,0.22408705076368066
196,1483.6399999999999,0.22877597990705975
197,1493.93,0.23249411006233603
198,1504.28,0.22101144097653522
199,1511.23,0.19789012888510374
200,1518.2,0.2115551170466466
201,1525.2099999999998,0.20578980571413802
202,1535.78,0.17965693941105448
203,1546.43,0.1933899741198681
204,1553.57,0.1842640644316925
205,1564.34,0.1907346006583519
206,1575.1799999999998,0.2039054377704214
207,1586.1,0.21351307589438806
208,1593.42,0.2184840684829811
209,1604.46,0.21449870812479357
210,1615.5900000000001,0.2149894489049904
211,1626.78,0.20484739044411007
212,1634.29,0.21798238543595896
213,1645.6200000000001,0.22152072874589873
214,1653.22,0.20673972487613196
215,1659.58691,0.21666446249199647
216,1664.68,0.2246039758641796
217,1672.36,0.2015727852749704
218,1676.22,0.22772594182778977
219,1683.9499999999998,0.2362693558571404
220,1695.6299999999999,0.2225479347527181
221,1703.45,0.21499525709547646
222,1715.2600000000002,0.20438194799930975
223,1723.18,0.20344347957918776
224,1735.12,0.21698578249127662
225,1743.1299999999999,0.21253602238456232
226,1755.21,0.22564953822861872
227,1763.32,0.20866148735902412
228,1775.54,0.21303161613504804
229,1783.73,0.21699147265514918
230,1796.1,0.2303747152868526
231,1804.3899999999999,0.22931448104407343
232,1816.8999999999999,0.2130345366077444
233,1825.28,0.21749841067837292
234,1833.71,0.20963008936756128
235,1846.42,0.1938540634054716
236,1854.9399999999998,0.19519845040806763
237,1863.4999999999998,0.20112794110551158
238,1876.42,0.21600263454137322
239,1885.0800000000002,0.19974443447593682
240,1893.78,0.19252713810534827
241,1905.46072,0.20267051596339666
242,1906.91,0.2039287445052864
243,1915.7099999999998,0.19700509671128377
244,1924.55,0.19252644415458117
245,1933.4399999999998,0.19836888564450353
246,1946.84,0.20771299013999955
247,1955.8300000000002,0.1942979197231719
248,1964.85,0.21205904573431922
249,1973.92,0.21799596579209152
250,1983.03,0.2067555810871638
251,1996.78,0.20158334390903473
252,2006.0,0.20722474610668198
253,2015.2600000000002,0.20158134354162924
254,2024.56,0.2096216362138765
255,2033.8999999999999,0.1997311241234237
256,2043.2900000000002,0.20674770607959592
257,2052.7200000000003,0.19473448327306814
258,2066.95,0.1974440889425389
259,2071.71,0.2130243221812375
260,2076.49,0.20437955303858607
261,2086.0699999999997,0.2120450123719332
262,2095.7000000000003,0.2011094657519054
263,2105.38,0.2029672131785025
264,2115.1,0.2053174558423996
265,2124.86,0.20769279374359673
266,2134.67,0.1951755256914188
267,2144.52,0.1992600528765409
268,2154.42,0.20625717410828792
269,2164.3599999999997,0.199715290577335
270,2174.35,0.198799501093007
271,2184.39,0.19652030565530404
272,2187.7616199999998,0.1993012565646607
273,2194.4700000000003,0.20483584104236832
274,2204.6,0.1997155026997524
275,2214.78,0.1907288691037179
276,2225.0,0.18596203930494842
277,2235.27,0.19743431425276034
278,2245.59,0.1902958939471536
279,2255.95,0.18257567743881198
280,2266.37,0.18596366662636798
281,2276.83,0.19029925961118907
282,2287.34,0.1951794573425915
283,2292.61,0.18426415763226714
284,2303.19,0.18596346200888353
285,2313.82,0.17840797113208123
286,2324.5,0.14602638500186033
287,2335.23,0.16725160361822078
288,2346.01,0.16193852698116257
289,2356.84,0.17390475509068573
290,2367.7200000000003,0.16118108794679026
291,2373.18,0.1656896062734751
292,2384.13,0.15427094577479353
293,2395.14,0.16302009097200962
294,2406.19,0.1574837399664908
295,2417.3,0.1607690946568696
296,2422.87,0.1702837234260334
297,2434.05,0.16449678476162613
298,2445.29,0.17263175179311646
299,2456.5699999999997,0.1706472226218719
300,2462.24,0.16907636088419842
301,2473.6,0.16333003930748405
302,2485.02,0.16483212342666728
303,2496.4900000000002,0.15277011229243193
304,2502.2499999999995,0.1725795590986049
305,2511.88643,0.15721783524093155
306,2513.7999999999997,0.1541671035940355
307,2519.5899999999997,0.15775349086341897
308,2525.4,0.15274157739798166
309,2537.06,0.15521424899746553
310,2542.9,0.15308313442979707
311,2554.6400000000003,0.1640107030899978
312,2566.4300000000003,0.15953156991314654
313,2572.35,0.16742755240619497
314,2584.22,0.16511551629006058
315,2596.1499999999996,0.16284397796946384
316,2602.14,0.15767425789063952
317,2614.15,0.1551420166307597
318,2626.21,0.16206687353382787
319,2632.27,0.1685259508831308
320,2644.42,0.1818115044795055
321,2656.62,0.1873155562388282
322,2662.75,0.16927263101625842
323,2675.0400000000004,0.1764163794688876
324,2687.39,0.17762702571705444
325,2693.58,0.1680781982900223
326,2706.0099999999998,0.173170841598906
327,2712.25,0.1638595123348219
328,2724.7700000000004,0.1623410523370121
329,2737.35,0.16958789013473996
330,2743.66,0.14872905829878308
331,2756.3199999999997,0.1528840931572278
332,2762.6800000000003,0.158978159484219
333,2775.43,0.1649281910359702
334,2781.83,0.15463195589331982
335,2794.67,0.12832638413837752
336,2807.5699999999997,0.13591041017897285
337,2814.04,0.16225577246444972
338,2827.0299999999997,0.17145629519835157
339,2833.54,0.16563415601418688
340,2846.6200000000003,0.16036677544139516
341,2853.19,0.15209153405276812
342,2866.35,0.16945695054069332
343,2872.96,0.17180330768242474
344,2884.0315,0.17015319730672498
345,2886.22,0.16982709925844708
346,2892.88,0.1709962942507022
347,2912.9300000000003,0.1857490791748336
348,2933.1200000000003,0.17777626399369711
349,2946.66,0.17412005381278636
350,2967.09,0.1773355384511906
351,2987.65,0.17731342299184605
352,3008.36,0.17852410741971445
353,3029.21,0.17891199174231495
354,3050.21,0.17929987595212837
355,3071.35,0.18094046005667394
356,3092.64,0.18091694404843242
357,3106.92,0.18299683331110556
358,3128.46,0.17921871711488566
359,3150.1400000000003,0.17920200081339782
360,3171.98,0.1812515843916038
361,3186.62,0.17110107338358807
362,3208.71,0.17749725677381564
363,3230.9500000000003,0.16793764005125617
364,3253.34,0.18158332321590964
365,3268.36,0.1892486119221667
366,3291.0099999999998,0.1874876948913226
367,3306.21,0.18575378346223523
368,3311.31121,0.18589153903947536
369,3321.4700000000003,0.18616573360724328
370,3329.12,0.19225502364849648
371,3336.7999999999997,0.1940218132585389
372,3344.49,0.1827473027248444
373,3352.2000000000003,0.18064379190367605
374,3359.93,0.18698218079503387
375,3367.6699999999996,0.18568976954265476
376,3375.44,0.16702675785906487
377,3383.2200000000003,0.17130244603173805
378,3391.02,0.18824393391693742
379,3398.83,0.1891023216583998
380,3406.67,0.18394520896865146
381,3414.52,0.1852078961351662
382,3422.3900000000003,0.19571918301420707
383,3430.28,0.18950756960577408
384,3438.19,0.19213195590986726
385,3446.12,0.1677268419264866
386,3454.06,0.18688172779936899
387,3462.02,0.17280281338477754
388,3469.9999999999995,0.18135449868271225
389,3478.0,0.16807988369317314
390,3486.0200000000004,0.17680546841616016
391,3494.06,0.1747713528516733
392,3502.11,0.18640073714344957
393,3510.18,0.18214752114775196
394,3518.2799999999997,0.1771758047208436
395,3526.39,0.17433638815019828
396,3534.52,0.18550697129207913
397,3542.6600000000003,0.19513165429022308
398,3550.83,0.1942273368571562
399,3559.02,0.1871929191366155
400,3567.22,0.1854727012723379
401,3575.4399999999996,0.16953858312058645
402,3583.69,0.16340226453762421
403,3591.95,0.15894044581092506
404,3600.23,0.18887902679675206
405,3608.5299999999997,0.17586510749510517
406,3616.85,0.1791267879059845
407,3625.1800000000003,0.18929026817312686
408,3633.54,0.18754584800905846
409,3641.92,0.19591782755751622
410,3650.31,0.18200100696223706
411,3658.73,0.20324648593574712
412,3667.16,0.20091206476552023
413,3675.61,0.20369964330781953
414,3684.0899999999997,0.18534352141890803
415,3692.58,0.18964809938625962
416,3701.09,0.19450417706613737
417,3709.6200000000003,0.16979765445854128
418,3718.18,0.20178063141973437
419,3726.75,0.16822080823719057
420,3735.3399999999997,0.17614188476717296
421,3743.95,0.21968396100968146
422,3752.58,0.14549613696471608
423,3761.23,0.22067491263227693
424,3769.9,0.20264898801236386
425,3778.59,0.212186663104977
426,3787.3,0.2701850379101162
427,3796.03,0.22012351242778166
428,3801.8939600000003,0.1999128041300515
429,3804.7799999999997,0.18996579530146096
430,3813.55,0.2701440955097145
431,3822.35,0.2509476953766053
432,3831.1600000000003,0.21163429512970836
433,3839.99,0.13760959465523623
434,3848.84,0.24351349395318883
435,3857.7099999999996,0.26945429302356616
436,3866.6099999999997,0.2744481917525807
437,3875.52,0.25203029036780755
438,3884.45,0.23847278875545913
439,3893.41,0.14910428680174787
440,3902.3799999999997,0.24853148473424902
441,3911.3799999999997,0.2762787823253873
442,3920.4,0.2912847796889502
443,3929.43,0.2800913769387256
444,3938.4900000000002,0.1743196738471381
445,3947.57,0.2718058705279754
446,3956.67,0.2813423669812373
447,3965.79,0.2214319632069241
448,3974.93,0.13011055920503561
449,3984.1,0.27300395486178425
450,3993.28,0.30629175040474527
451,3994.6,0.30184733538477887
452,3997.35,0.3004735040931822
453,4000.09,0.3238592729153732
454,4002.8399999999997,0.3231865416237765
455,4005.59,0.3234465103321799
456,4008.33,0.31814007915437087
457,4011.0800000000004,0.3274735478627742
458,4013.82,0.3347519166849652
459,4016.5699999999997,0.3354869853933685
460,4019.31,0.33148415421555955
461,4022.06,0.3314081229239629
462,4024.81,0.31456399163236626
463,4027.5499999999997,0.30521326045455716
464,4030.3,0.32513842916296054
465,4033.04,0.32468739798515156
466,4035.7900000000004,0.3420167666935549
467,4038.53,0.3467920355157459
468,4041.2799999999997,0.3255559042241492
469,4044.03,0.3197437729325525
470,4046.77,0.33215564175474355
471,4049.52,0.32298281046314686
472,4052.2599999999998,0.3444276792853379
473,4055.01,0.34219044799374126
474,4057.75,0.3139972168159322
475,4060.5,0.30445948552433555
476,4063.25,0.30320735423273887
477,4065.99,0.3193389230549299
478,4068.7400000000002,0.32098369176333325
479,4071.48,0.3205790605855242
480,4074.23,0.3100215292939275
481,4076.98,0.3055477980023309
482,4079.72,0.3254397668245219
483,4082.4700000000003,0.30476573553292524
484,4085.21,0.30338760435511625
485,4087.96,0.3032130730635195
486,4090.7,0.29391434188571053
487,4093.4500000000003,0.2905821105941139
488,4096.2,0.27671627930251724
489,4098.94,0.25833234812470823
490,4101.6900000000005,0.2508401168331116
491,4104.43,0.25212118565530256
492,4107.18,0.2646127543637059
493,4109.92,0.2781195231858969
494,4112.67,0.29139899189430024
495,4115.42,0.3020710606027036
496,4118.16,0.30338702942489454
497,4120.91,0.3134333981332979
498,4123.65,0.3189965669554889
499,4126.4,0.31263393566389225
500,4129.14,0.3124667044860832
501,4131.889999999999,0.30841017319448655
502,4134.64,0.3118048419028899
503,4137.38,0.3141697107250809
504,4140.13,0.31251777943348424
505,4142.87,0.3253988482556752
506,4145.62,0.3291005169640786
507,4148.36,0.32182988578626953
508,4151.11,0.3170722544946729
509,4153.86,0.31367042320307625
510,4156.599999999999,0.31217639202526726
511,4159.35,0.32254136073367057
512,4162.09,0.32018982955586156
513,4164.84,0.3199573982642649
514,4167.59,0.31356576697266825
515,4170.33,0.31693293579485926
516,4173.08,0.3095564045032626
517,4175.82,0.3065385733254536
518,4178.57,0.3134618420338569
519,4181.3099999999995,0.3098297108560479
520,4184.06,0.30857757956445125
521,4186.81,0.3114971482728546
522,4189.55,0.3147021170950456
523,4192.3,0.32332308580344893
524,4195.04,0.3247202546256399
525,4197.79,0.31189152333404324
526,4200.53,0.31044379215623424
527,4203.28,0.3202756608646376
528,4206.03,0.32008962957304093
529,4208.77,0.32153899839523187
530,4211.52,0.31753456710363526
531,4214.26,0.31561183592582626
532,4217.01,0.3163006046342296
533,4219.75,0.3107159734564206
534,4222.5,0.3134500421648239
535,4225.25,0.3072092108732272
536,4227.99,0.30900607969541827
537,4230.74,0.3087968484038216
538,4233.4800000000005,0.3092149172260126
539,4236.2300000000005,0.31766198593441597
540,4238.98,0.3323145546428193
541,4241.72,0.32018262346501025
542,4244.47,0.3194460921734136
543,4247.21,0.3141916609956046
544,4249.96,0.30364582970400794
545,4252.7,0.3145046985261989
546,4255.45,0.3102975672346022
547,4258.2,0.3140109359430056
548,4260.94,0.3084262047651966
549,4263.69,0.31534957347359993
550,4266.43,0.31353674229579087
551,4269.18,0.29938691100419423
552,4271.92,0.29469457982638525
553,4274.67,0.3014382485347886
554,4277.42,0.3030889172431919
555,4280.16,0.30682688606538294
556,4282.91,0.2942298547737863
557,4285.65,0.2934658235959772
558,4288.4,0.2965998923043806
559,4291.14,0.2938542611265716
560,4293.89,0.28455402983497496
561,4296.64,0.27018419854337833
562,4299.38,0.2693736673655692
563,4302.13,0.2744256360739726
564,4304.87,0.28475130489616357
565,4307.62,0.28793167360456695
566,4310.36,0.28562644242675794
567,4313.11,0.31090541113516124
568,4315.860000000001,0.3078513798435646
569,4318.6,0.3123599486657556
570,4321.35,0.30176761737415897
571,4324.09,0.28257258619634995
572,4326.84,0.2823634549047533
573,4329.59,0.29120462361315663
574,4332.33,0.2926480924353476
575,4335.08,0.29324426114375096
576,4337.82,0.30329202996594196
577,4340.570000000001,0.2872069986743453
578,4343.31,0.29171546749653626
