,lambda (Angstroms),Total Flux (erg/s/cm^2/Angstrom)
0,101.98,2.0696724120804424
1,104.11999999999999,2.0630290998674603
2,104.712855,2.061188676393233
3,106.05,2.0393841370364068
4,108.02000000000001,2.0072597894905884
5,110.03,1.9744832701912025
6,113.9,1.9113761669732359
7,117.9,1.8461492468022973
8,120.22644299999999,1.8082149060651753
9,120.92999999999999,1.7985969569438651
10,124.89,1.7444590680590994
11,126.92,1.7167065279952802
12,128.09,1.7007113067331678
13,131.07,1.6599712572375567
14,131.98,1.6475317331629133
15,134.13,1.6181388547136466
16,136.94,1.5797251833564188
17,138.038426,1.5647086988829073
18,140.13,1.5442707589130906
19,143.06,1.515665990860471
20,147.07,1.4765438569627232
21,150.84,1.4397173345738918
22,155.07,1.3983985223654694
23,158.489319,1.365001593081553
24,159.04000000000002,1.3609359759397472
25,162.0,1.3390831265344683
26,166.16,1.3083744193973197
27,170.03,1.2798066040495393
28,173.19,1.256480682172282
29,176.80999999999997,1.229763705739475
30,180.10000000000002,1.205478854170431
31,181.970086,1.1916763983536458
32,182.19,1.1904385025566853
33,185.99999999999997,1.1689956374797594
34,191.20999999999998,1.1396721167711552
35,193.87,1.1247088154809655
36,197.93,1.101861003259097
37,202.08,1.0785112487330493
38,204.89000000000001,1.0627045694358939
39,208.929613,1.0399578237659548
40,210.14000000000001,1.034835381528732
41,216.03,1.0099682454715238
42,220.05,0.9929841644913918
43,223.11,0.9800451013289034
44,227.26,0.962518094797424
45,229.89,0.9517970818355467
46,234.16,0.9345838746643617
47,239.88329199999998,0.9109027811528905
48,240.17,0.909995168604272
49,245.76000000000002,0.8916925207032643
50,252.07,0.8713415947828066
51,256.76,0.8556312714061117
52,259.73,0.8463686710758805
53,263.95,0.832797743461882
54,268.86,0.8168300085792436
55,273.85,0.8006028136944444
56,275.42287,0.7954830531816462
57,278.95,0.7866804417772588
58,284.13,0.7737685581993209
59,290.08,0.758780289211149
60,296.15,0.7436930280551487
61,300.96999999999997,0.7316057049806968
62,307.98,0.7141586028433714
63,316.227766,0.6936328488052047
64,318.07,0.6902166778821776
65,327.72999999999996,0.6722221137481793
66,337.69,0.6536231734609512
67,347.95,0.6344454850204935
68,356.88,0.6177754375260209
69,363.078055,0.6062234120688512
70,366.03,0.6021089981710356
71,375.42,0.5889555631586836
72,385.04999999999995,0.5753384003025657
73,394.93,0.5616349659008578
74,405.06,0.5474817059535603
75,413.54,0.5355759058071552
76,416.86938299999997,0.5308910011268363
77,422.2,0.5251560687608369
78,430.05,0.5167251760883766
79,441.08000000000004,0.5049362103893655
80,451.36,0.49387664389472963
81,459.75,0.4848500645951192
82,470.46,0.47334924915664156
83,478.630092,0.4645959838273345
84,480.30999999999995,0.4632114092095969
85,490.36,0.4548494104676846
86,499.48,0.44735834355562093
87,506.43,0.44156714324653734
88,512.29,0.4368823972218999
89,519.4200000000001,0.4309679885263938
90,530.3,0.4219235656137566
91,540.16,0.4136707452241789
92,549.5408739999999,0.40588622148937337
93,550.2,0.40546795085822285
94,560.4300000000001,0.3991003155768648
95,569.53,0.3934017959864096
96,580.12,0.38666035132564885
97,589.55,0.3807216938874078
98,600.51,0.37370382533670554
99,610.27,0.3672010290506786
100,620.18,0.3613500921065674
101,630.26,0.3549275894832936
102,630.957344,0.3544901354593655
103,640.5,0.3497460476693669
104,649.41,0.3452425974926826
105,658.4399999999999,0.34065910648196884
106,664.54,0.33765824658547344
107,675.3299999999999,0.3322643573423282
108,684.73,0.32743594101002377
109,694.25,0.3227518178436899
110,705.5400000000001,0.3169666746254221
111,715.35,0.3121701176935172
112,724.43596,0.30760913159919134
113,725.3,0.30728626244836277
114,735.39,0.30353040230321326
115,745.62,0.2996900447913321
116,754.2600000000001,0.2964513950159018
117,764.75,0.29232814525151934
118,775.39,0.28856597937992456
119,784.3700000000001,0.2851547154281462
120,795.28,0.2811287095635693
121,804.4900000000001,0.27771288458073196
122,815.6800000000001,0.273541244982692
123,825.12,0.2700346619687959
124,831.763771,0.26743337133844763
125,834.68,0.26656371852968513
126,844.3399999999999,0.2640236615766891
127,854.12,0.2612820589596806
128,864.0100000000001,0.25853871915066085
129,874.02,0.2557566536776287
130,884.1400000000001,0.2529388550125851
131,894.37,0.2500909281555303
132,904.73,0.24718552316246206
133,915.21,0.2446549565053814
134,925.8,0.24486809965628947
135,934.3700000000001,0.24648599015140574
136,945.19,0.24924209544629006
137,953.94,0.2515445524453878
138,954.992586,0.25147493788840053
139,964.98,0.25087399990420417
140,973.9100000000001,0.23254011019135334
141,985.1899999999999,0.24240333039617343
142,994.3000000000001,0.24049093927701648
143,1005.82,0.24472250327342843
144,1015.12,0.24133674894761514
145,1024.52,0.2250338966182985
146,1034.0,0.22957511188617916
147,1045.97,0.24075149986682587
148,1055.65,0.2374295991276998
149,1065.42,0.2284873731854207
150,1075.27,0.23024471484033893
151,1085.22,0.22125105849175375
152,1095.26,0.22618652694001554
153,1096.4782,0.2256957005177083
154,1105.4,0.22253806717926417
155,1115.6299999999999,0.21912355811990294
156,1125.95,0.21388875276383165
157,1133.75,0.21869518371563829
158,1144.24,0.21350661868800386
159,1154.83,0.21279185444180287
160,1165.52,0.2111939509770353
161,1176.3,0.1990079912155578
162,1184.46,0.2058572569805247
163,1195.4199999999998,0.19433950462562743
164,1203.7,0.1867492153283144
165,1214.84,0.17850683037999723
166,1226.08,0.18696706621311343
167,1234.58,0.19514365263495403
168,1246.0,0.19554959587465037
169,1254.6399999999999,0.19217984139049776
170,1258.92541,0.18961575535623457
171,1266.2499999999998,0.18569861917390176
172,1275.03,0.19201441574787678
173,1283.86,0.19222091454607731
174,1295.74,0.1826831890220253
175,1304.73,0.18090130693774695
176,1313.77,0.186517377077694
177,1325.9299999999998,0.18295512000930417
178,1335.12,0.1775843768219273
179,1344.3700000000001,0.18168978830362081
180,1353.6899999999998,0.17908731689923
181,1366.22,0.17336585029010784
182,1375.69,0.17328952555839303
183,1385.22,0.17202858549574868
184,1394.82,0.16576483254701987
185,1404.49,0.16516404671220655
186,1414.23,0.16487877799130873
187,1424.03,0.16393872393948145
188,1433.8999999999999,0.16222956700156962
189,1440.5200000000002,0.1628223054890086
190,1445.43977,0.16240301222548603
191,1447.17,0.16233797999254423
192,1453.85,0.16056511037348598
193,1463.93,0.1569577990321525
194,1474.0700000000002,0.15569603077807298
195,1484.29,0.1550824933069988
196,1494.5800000000002,0.1543946277710542
197,1504.9399999999998,0.15150841417023928
198,1511.8899999999999,0.14759397344382386
199,1515.3700000000001,0.14897804250455393
200,1525.87,0.14695722277399828
201,1536.45,0.14217705382644788
202,1543.54,0.1433576969702917
203,1554.24,0.14079632419724925
204,1565.02,0.14020124220721208
205,1575.8600000000001,0.14061388330442884
206,1586.79,0.14057875403252662
207,1594.11,0.14037553067751066
208,1605.1599999999999,0.13849001758011634
209,1616.29,0.1372641452657273
210,1623.75,0.13496064578097058
211,1635.0,0.1353364696410895
212,1646.34,0.13442186313208934
213,1653.94,0.1315116375175919
214,1659.58691,0.1320111080205197
215,1665.3999999999999,0.13271706401223657
216,1673.0900000000001,0.12904793831283423
217,1676.95,0.1320976736184658
218,1684.69,0.13254327177017267
219,1696.3600000000001,0.12979303661906408
220,1704.1899999999998,0.12814511370276757
221,1716.01,0.1259208101049866
222,1723.9299999999998,0.12512720612068665
223,1735.8799999999999,0.12589414653578965
224,1743.8899999999999,0.12457543148348632
225,1755.98,0.12539513468169514
226,1764.0800000000002,0.12239742856138834
227,1776.3100000000002,0.12207507454270297
228,1784.51,0.12195044612461467
229,1796.8799999999999,0.12284867488903511
230,1805.17,0.12186974540294336
231,1813.5100000000002,0.11908048976796085
232,1826.08,0.11861693393681816
233,1834.51,0.11696534723383224
234,1842.9699999999998,0.11402110684151184
235,1855.75,0.11337501518502785
236,1864.3100000000002,0.1135839724949259
237,1872.9199999999998,0.11475049365593319
238,1885.9,0.11174200740388604
239,1894.61,0.11037794626711177
240,1903.3500000000001,0.11092918144100297
241,1905.46072,0.11064392186126187
242,1916.54,0.1093748785391429
243,1925.3899999999999,0.10813185291152032
244,1934.28,0.1077417566030949
245,1943.21,0.10917616961386668
246,1956.68,0.10693280535351907
247,1965.71,0.1088991366622838
248,1974.78,0.10870463729024574
249,1983.9,0.10730672206720414
250,1993.0500000000002,0.10617674133356045
251,2006.8700000000001,0.10588490611618821
252,2016.1299999999999,0.10475130851033679
253,2025.44,0.1045899750534818
254,2034.79,0.10369660091582404
255,2044.1799999999998,0.10446429609736346
256,2053.6099999999997,0.10251292059810008
257,2063.09,0.10203716924783314
258,2072.62,0.10356241204656272
259,2077.39,0.10702630586082715
260,2086.98,0.10980826763835248
261,2096.62,0.10706182356487431
262,2106.29,0.10621246398079402
263,2116.02,0.10728453337550953
264,2125.7799999999997,0.10548956725962293
265,2135.6,0.10286619012253209
266,2145.4500000000003,0.10601952747483911
267,2155.36,0.10610549380594196
268,2165.3,0.10287734462644267
269,2175.3,0.10238694442573917
270,2185.34,0.10507059354423287
271,2187.7616199999998,0.10507435755951727
272,2195.43,0.10522645870845419
273,2205.56,0.10383923286072472
274,2215.74,0.09877715518748814
275,2225.97,0.10007095568874452
276,2236.24,0.10583795672959528
277,2246.56,0.10361036594493897
278,2256.93,0.0979972533347756
279,2267.35,0.09687527889910519
280,2272.58,0.09859095195106715
281,2283.07,0.10413704095968684
282,2293.61,0.09902338814279947
283,2304.19,0.10260258586550648
284,2314.83,0.098028489397605
285,2325.51,0.09086062346929791
286,2336.25,0.09100976335038234
287,2347.0299999999997,0.08628256377106111
288,2352.44,0.09479127425119767
289,2363.3,0.08652858575106516
290,2374.21,0.08932928542542559
291,2385.17,0.08312344327427897
292,2396.18,0.0854115292976253
293,2407.24,0.08442088349546456
294,2412.79,0.08627348086418136
295,2423.92,0.09499626850631074
296,2435.11,0.09431242195783165
297,2446.35,0.09876296358384554
298,2457.6400000000003,0.09980830338435231
299,2463.31,0.09535013237185222
300,2474.68,0.09179952325154773
301,2486.1,0.0839460523057362
302,2497.58,0.08545499716931619
303,2503.34,0.09542024487090336
304,2511.88643,0.08416659317556434
305,2514.8900000000003,0.08024086917394982
306,2520.69,0.07832522039822241
307,2526.5,0.07851412672805409
308,2532.32,0.08468551816344486
309,2544.0099999999998,0.08521549656202186
310,2555.75,0.1005137104883943
311,2567.55,0.09117813504812128
312,2573.47,0.09864510753910297
313,2585.3500000000004,0.09442350294330268
314,2597.28,0.09105129387529784
315,2603.2699999999995,0.08707588210519318
316,2615.2799999999997,0.08457509388166105
317,2627.36,0.09180794139704257
318,2633.41,0.11241448026029244
319,2645.5699999999997,0.1298682686201467
320,2657.78,0.15594555250779638
321,2663.91,0.12027220221551899
322,2676.2000000000003,0.1287323869476414
323,2682.37,0.13912582707760035
324,2694.75,0.11746312775975458
325,2707.19,0.1310152790752634
326,2713.43,0.11092447494413596
327,2725.96,0.10018595220967656
328,2732.2400000000002,0.1114656485007855
329,2744.85,0.08768067661079884
330,2757.52,0.0976514353541667
331,2763.88,0.11007230248974836
332,2776.6400000000003,0.11357780718314807
333,2783.04,0.09115215474096611
334,2795.88,0.07204751027883852
335,2802.33,0.075365413364452
336,2815.2599999999998,0.10603182485235624
337,2821.75,0.12946441836020608
338,2834.78,0.1250138709037012
339,2847.8599999999997,0.10570652897499183
340,2854.43,0.0846684133273144
341,2867.6000000000004,0.1254299573486368
342,2874.21,0.15015408212319573
343,2884.0315,0.14273889778844845
344,2887.48,0.14016415787803355
345,2894.14,0.15961538607076847
346,2907.49,0.19728247884449382
347,2927.65,0.1781003517522319
348,2947.94,0.1684263090090774
349,2968.38,0.17435484820720074
350,2988.9500000000003,0.1759526717544315
351,3009.67,0.17665907724294008
352,3030.53,0.18500966587664128
353,3051.54,0.1904815364516203
354,3072.69,0.20272769017179196
355,3086.87,0.19942928302058788
356,3108.27,0.22304270664288922
357,3129.8199999999997,0.20995521220646837
358,3151.51,0.20938880091524015
359,3173.36,0.22552107036137492
360,3188.01,0.20083370662617464
361,3210.1000000000004,0.2178242471783539
362,3232.35,0.1896313684678962
363,3247.27,0.24897617222699603
364,3269.7799999999997,0.28342616221475314
365,3292.4500000000003,0.2782852329398733
366,3307.64,0.2633490041932732
367,3311.31121,0.26044227177445206
368,3322.91,0.2513268364591479
369,3330.5699999999997,0.27182266904719027
370,3338.25,0.2390130166028254
371,3345.95,0.27092377912605337
372,3353.66,0.24722299913307774
373,3361.3900000000003,0.24705103410769488
374,3369.14,0.24980618404990484
375,3376.9100000000003,0.2414476489597076
376,3384.69,0.23160107135330676
377,3392.4900000000002,0.2725685087144987
378,3400.3100000000004,0.2922258610432835
379,3408.1499999999996,0.26576112833966103
380,3416.0099999999998,0.2448797106036314
381,3423.88,0.30126905035139817
382,3431.7799999999997,0.2897123625505541
383,3439.69,0.2843139322335065
384,3447.6200000000003,0.21597751688405165
385,3455.56,0.2652084590183932
386,3463.53,0.22810877360412393
387,3471.5099999999998,0.2751260456736511
388,3479.52,0.21993819019456745
389,3487.54,0.2511313921992802
390,3495.58,0.2388513091715858
391,3503.64,0.2969083411114841
392,3511.71,0.2860661305351789
393,3519.81,0.28185669241026284
394,3527.92,0.2219138117691432
395,3536.05,0.27863874609561634
396,3544.21,0.3045163528734787
397,3552.38,0.3106181171351375
398,3560.57,0.29194379636438905
399,3568.77,0.235840033077437
400,3577.0,0.24714854224187416
401,3585.25,0.19689516637390414
402,3593.5099999999998,0.25276584798973045
403,3601.8,0.322419402056946
404,3610.1,0.260627513607958
405,3618.42,0.3008471401265628
406,3626.4,0.4077009121960899
407,3629.1400000000003,0.2869353627563035
408,3631.88,0.21147161331651707
409,3634.62,0.28845106387673064
410,3637.36,0.3620778144369442
411,3640.1099999999997,0.3737760224809542
412,3642.8500000000004,0.4035985730411678
413,3645.59,0.3419643236013814
414,3648.3300000000004,0.21032217416159496
415,3651.07,0.23429252472180856
416,3653.81,0.45218447528202216
417,3656.55,0.39190872584223574
418,3659.29,0.5542752764024493
419,3662.03,0.505494726962663
420,3664.77,0.4328439775228765
421,3667.5099999999998,0.2944698280830901
422,3670.25,0.34549787864330367
423,3672.99,0.38445582920351723
424,3675.73,0.38084637976373087
425,3678.47,0.4900040303239444
426,3681.2200000000003,0.4196325383679544
427,3683.96,0.38327918892816804
428,3686.7,0.34952953948838156
429,3689.44,0.20519909004859516
430,3692.18,0.15512094060880877
431,3694.92,0.32933959116902234
432,3697.66,0.25094124172923593
433,3700.3999999999996,0.2332587922894495
434,3703.14,0.3538940428496631
435,3705.8799999999997,0.36754489340987667
436,3708.6200000000003,0.2583356439700903
437,3711.36,0.19383599453030387
438,3714.1000000000004,0.30520544509051745
439,3716.84,0.347263695650731
440,3719.58,0.3591902462109446
441,3722.32,0.38755869677115823
442,3725.0699999999997,0.3951289048151682
443,3727.81,0.46521095537538176
444,3730.55,0.47240880593559537
445,3733.2900000000004,0.25235785649580894
446,3736.03,0.13521530705602253
447,3738.77,0.22894105761623612
448,3741.51,0.2111454081764497
449,3744.25,0.3033297587366633
450,3746.9900000000002,0.2803699092968769
451,3749.73,0.17440895985709046
452,3752.47,0.23290011041730405
453,3755.21,0.16580536097751764
454,3757.95,0.2605850115377312
455,3760.69,0.2732866620979448
456,3763.43,0.1488895126581584
457,3766.1699999999996,0.16828796321837197
458,3768.92,0.21453387126238194
459,3771.66,0.40362652182259556
460,3774.4,0.3365232723828091
461,3777.14,0.2405599229430227
462,3779.88,0.3298007735032363
463,3782.62,0.3246585240634499
464,3785.3599999999997,0.3772278746236635
465,3788.1,0.3750727251838771
466,3790.8399999999997,0.4548911757440906
467,3793.58,0.36659112630430424
468,3796.32,0.2841693768645178
469,3799.0600000000004,0.4321670274247314
470,3801.8,0.387740577984945
471,3801.8939600000003,0.3806039953742167
472,3804.54,0.17963916567220406
473,3807.28,0.22284074173320545
474,3810.02,0.35209161779420683
475,3812.77,0.41831669267294913
476,3815.5099999999998,0.33525326873395056
477,3818.2500000000005,0.37641704479495197
478,3820.9900000000002,0.44651912085595336
479,3823.73,0.45863129691695476
480,3826.4700000000003,0.38671477297795614
481,3829.21,0.19691084903895759
482,3831.9500000000003,0.254577225099959
483,3834.69,0.2555772011609604
484,3837.43,0.10817571722196179
485,3840.17,0.1729735532829632
486,3842.91,0.29246202934396465
487,3845.65,0.379215105404966
488,3848.39,0.21134748146596744
489,3851.1299999999997,0.2564388575269688
490,3853.88,0.3474487324057111
491,3856.62,0.37082090846671256
492,3859.36,0.26076988452771394
493,3862.1,0.19106536058871532
494,3864.84,0.34751243664971676
495,3867.58,0.48026381271071816
496,3870.3199999999997,0.28665418877171955
497,3873.06,0.22056366483272094
498,3875.7999999999997,0.19063084089372237
499,3878.54,0.2698857169547238
500,3881.2799999999997,0.2355202930157252
501,3884.0200000000004,0.3375132690767266
502,3886.76,0.319659245137728
503,3889.5,0.3292459211987294
504,3892.2400000000002,0.25147699725973083
505,3894.98,0.3125746733207322
506,3897.73,0.1779379481994745
507,3900.47,0.3246227242604759
508,3903.2099999999996,0.39360140032147733
509,3905.9500000000003,0.40202107638247875
510,3908.69,0.3249665524434801
511,3911.4300000000003,0.26880372850448153
512,3914.17,0.37915680456548295
513,3916.9100000000003,0.3991413806264843
514,3919.65,0.42073705668748573
515,3922.39,0.33729903274848716
516,3925.13,0.34818320880948855
517,3927.87,0.38601168487049
518,3930.61,0.36563216093149137
519,3933.35,0.44129053699249277
520,3936.0899999999997,0.3744945130534942
521,3938.83,0.3940784891144956
522,3941.58,0.1717640639932379
523,3944.32,0.27482784005423927
524,3947.06,0.2788410161152407
525,3949.8,0.2222427921762421
526,3952.54,0.3967775682372435
527,3955.2799999999997,0.2408933442982449
528,3958.02,0.2984988203592463
529,3960.7599999999998,0.34629849642024774
530,3963.5,0.3933491724812492
531,3966.24,0.3961605485422506
532,3968.9799999999996,0.44354222460325193
533,3971.7200000000003,0.36316960066425336
534,3974.46,0.17871237672525478
535,3977.2000000000003,0.17641175278625618
536,3979.94,0.1626506288472576
537,3982.69,0.18285210372599986
538,3985.43,0.3362249797870013
539,3988.1699999999996,0.3339418558480027
540,3990.91,0.41709803190900413
541,3993.65,0.4543952079700055
542,3996.3900000000003,0.41901958403100686
543,3999.13,0.5363918600920083
544,4001.8700000000003,0.6025490361530097
545,4004.61,0.4256424122140111
546,4007.35,0.4639497882750125
547,4010.09,0.3731530643360139
548,4012.83,0.46034154039701536
549,4015.57,0.5935982164580167
550,4018.31,0.5654594925190182
551,4021.0499999999997,0.5017550685800196
552,4023.79,0.6811846446410209
553,4026.54,0.5426535195197633
554,4029.28,0.47626709558076463
555,4032.02,0.5573942716417661
556,4034.76,0.6121606477027675
557,4037.5,0.5050444237637689
558,4040.24,0.6365940998247703
559,4042.98,0.5474259758857717
560,4045.72,0.547450651946773
561,4048.46,0.5150099280077745
562,4051.2,0.5930631040687758
563,4053.9399999999996,0.4616758801297773
564,4056.68,0.5012896561907787
565,4059.42,0.5504130322517801
566,4062.1600000000003,0.5257403083127815
567,4064.9,0.521227884373783
568,4067.6400000000003,0.5409251604347842
569,4070.39,0.5714706353135266
570,4073.1299999999997,0.5898355113745279
571,4075.87,0.48226628743552946
572,4078.6099999999997,0.4729640634965308
573,4081.3500000000004,0.48188023955753223
574,4084.09,0.49933071561853365
575,4086.8300000000004,0.5490636916795351
576,4089.57,0.5378020677405365
577,4092.31,0.5568374438015379
578,4095.05,0.5848689198625392
579,4097.79,0.6204766959235407
580,4100.53,0.5765929719845421
581,4103.2699999999995,0.5361489480455436
582,4106.01,0.5302170241065449
583,4108.75,0.5329414001675463
584,4111.5,0.4909361750462886
