,lambda (Angstroms),Total Flux (erg/s/cm^2/Angstrom)
0,100.04,0.005742399855803025
1,101.89999999999999,0.006905573280818338
2,104.03,0.008237594374478118
3,104.712855,0.008664626027532794
4,105.97,0.008008661271948863
5,107.94,0.006980736614679156
6,109.94,0.005937159352900747
7,114.07000000000001,0.0037821712834955547
8,118.08000000000001,0.0016897987428101694
9,120.22644299999999,0.000569825844813385
10,121.11,0.0005485008851168966
11,125.07000000000001,0.000452905925515433
12,127.10000000000001,0.0004039022502919556
13,127.99,0.00038241937929708153
14,130.97,0.00031048580596143474
15,131.87,0.00028877085913201107
16,134.02,0.00023687458263394368
17,137.14000000000001,0.0001615824719946088
18,138.038426,0.0001399003444908903
19,140.01,0.00013823999643664328
20,142.94,0.000135953250025125
21,146.95,0.00013298525184076036
22,151.06,0.00012967200162187294
23,154.94,0.00012660434248238796
24,158.489319,0.00012383998794843684
25,158.91,0.00012331990056326745
26,161.87,0.0001196903915451836
27,166.01999999999998,0.00011464565231037017
28,169.89000000000001,0.00010999749318537539
29,173.05,0.00010623309451742105
30,177.08,0.0001014870554725299
31,179.95000000000002,9.817716959688781e-05
32,181.970086,9.584442875764278e-05
33,182.04000000000002,9.588476963455162e-05
34,185.85,9.819948005251632e-05
35,191.06,0.0001013841451594969
36,194.16,0.00010337812011374635
37,198.23,0.00010605145363109968
38,201.91,0.00010869721349937004
39,205.19,0.00011094629459935013
40,208.929613,0.00011344080500088081
41,209.96999999999997,0.00011635992545034585
42,215.86,0.0001339846194693782
43,219.87,0.00014587989914956819
44,222.93,0.0001548584130202369
45,227.07000000000002,0.00016738249002172986
46,230.23,0.00018621631029340068
47,233.97,0.0002154316516908847
48,239.88329199999998,0.0002467845409165183
49,239.97,0.0002468393936295685
50,246.13,0.00023643123877237118
51,251.86,0.00023380699800423142
52,257.14,0.0002150983938409195
53,260.11,0.00022248249024905647
54,263.73,0.00022285058489466452
55,269.25,0.0002166025405421111
56,274.26,0.0002112750403416958
57,275.42287,0.00021013336768444625
58,278.72,0.0002212748310208232
59,283.9,0.00023874398031803072
60,289.84,0.0002539470866549831
61,295.90999999999997,0.00027607352511715494
62,300.72,0.0002894748137502765
63,307.72,0.0003148231128005571
64,316.227766,0.00034552292391303106
65,317.80999999999995,0.0003450597865877101
66,328.21999999999997,0.0003388807336682306
67,338.19,0.0003319021040229655
68,347.67,0.0003254580662058026
69,357.41,0.0003186440919084222
70,363.078055,0.00031686848691008776
71,365.73,0.0003238255262661042
72,375.11,0.0003433581873925226
73,384.74,0.0003576554651800929
74,394.6,0.00038573401429592294
75,404.73,0.000408761525405797
76,414.15,0.00042687687719799965
77,416.86938299999997,0.00043175232589261756
78,421.85,0.00043811720348494105
79,429.7,0.00044812121271254463
80,440.72,0.00046532605598492574
81,450.99,0.00047800444041390524
82,460.43,0.0004883249783895204
83,470.07,0.0005006669853900424
84,478.630092,0.0005127179908008422
85,479.90999999999997,0.0005122352190035616
86,489.96,0.0005020513854305436
87,500.21999999999997,0.0004993666932455521
88,506.01,0.0004954584915154254
89,511.87000000000006,0.0005227736035813074
90,520.19,0.0005172780719069283
91,529.86,0.0005089613491555767
92,539.71,0.000493110247593962
93,549.5408739999999,0.000496996667260112
94,549.75,0.000497222186679727
95,559.97,0.0005134342962181762
96,570.38,0.0005239784821570466
97,579.65,0.0005175865096933895
98,590.42,0.000531890740390953
99,600.02,0.0005269884006227644
100,609.77,0.0005160437211706978
101,619.67,0.0005606739020347533
102,629.74,0.0005651109512570804
103,630.957344,0.0005657681877334251
104,639.97,0.0005776087449441131
105,650.37,0.0005995407395153695
106,657.9,0.0006091578552962889
107,665.52,0.0006296806561263827
108,674.78,0.0006414958734080975
109,685.74,0.0006375826638408833
110,695.2800000000001,0.0007007672790533628
111,704.96,0.0006858253932312246
112,716.41,0.0007508397800428483
113,724.43596,0.0007662331647052293
114,726.38,0.0007695894555586878
115,734.7900000000001,0.0007854053397975103
116,745.01,0.0008265367567916561
117,755.3700000000001,0.0008531808630596945
118,764.1199999999999,0.00086151729267797
119,774.75,0.000920425349688515
120,785.53,0.0009556197237782305
121,794.6300000000001,0.0009863691265812372
122,805.6800000000001,0.0010168325514134594
123,815.01,0.0010420160937378606
124,824.45,0.0011022314419203202
125,831.763771,0.0010361720164898057
126,835.92,0.0009952911338934791
127,845.5999999999999,0.0011386449441401806
128,855.39,0.0011595127363215035
129,865.29,0.001211174210437448
130,875.31,0.001263666455754798
131,885.4499999999999,0.0013299045722735534
132,895.6999999999999,0.0013784940707269302
133,903.9899999999999,0.001387851672890686
134,914.46,0.001949618935213306
135,925.0400000000001,0.010676462579470547
136,935.7600000000001,0.023111215073462765
137,944.41,0.044504228289230736
138,954.992586,0.06178355137850751
139,955.3499999999999,0.06236730537694653
140,964.19,0.07358658539547405
141,975.35,0.013942653337416034
142,984.38,0.06915723680656802
143,995.78,0.07092788384403563
144,1004.99,0.09740586163483185
145,1014.2900000000001,0.09175250158645017
146,1026.04,0.038414968138226
147,1035.53,0.06758264154046878
148,1045.1100000000001,0.12429041710353367
149,1054.78,0.12315097482742067
150,1064.54,0.1012832247121298
151,1074.39,0.11897236675766103
152,1084.33,0.09762329096401437
153,1094.3700000000001,0.12485562646017007
154,1096.4782,0.12403186991873971
155,1104.49,0.12089985870760121
156,1114.71,0.11814917259846971
157,1125.03,0.10775955922799645
158,1135.44,0.13224392132231555
159,1145.94,0.12116715888142704
160,1153.89,0.1283329916047543
161,1164.56,0.13314778281958478
162,1175.34,0.09670570404693923
163,1186.21,0.12922358073908607
164,1194.4299999999998,0.09277979985679051
165,1205.49,0.06927799475238794
166,1213.8400000000001,0.04130433843034804
167,1225.07,0.08758738698166442
168,1236.41,0.13039669554550484
169,1244.98,0.14395585924851298
170,1253.61,0.13970900659471605
171,1258.92541,0.131842354530128
172,1265.21,0.1225431794059459
173,1273.98,0.1538864494633875
174,1285.77,0.16076467808108835
175,1294.68,0.132818750853244
176,1303.65,0.13160622478884842
177,1315.72,0.1596599588359773
178,1324.84,0.15388663568020391
179,1334.02,0.13939421368787938
180,1346.3600000000001,0.16114255297052812
181,1355.7,0.15711313408073388
182,1365.09,0.14329971616048034
183,1374.56,0.149703799791492
184,1384.08,0.15177988439204435
185,1393.6799999999998,0.13435937054386182
186,1406.57,0.13939442049145842
187,1416.3200000000002,0.14330160955189805
188,1426.1399999999999,0.1459571999696947
189,1436.03,0.14562889174484836
190,1442.65,0.15283532011203918
191,1445.43977,0.15461337086590915
192,1445.98,0.15495768299993054
193,1456.0,0.15144124607053508
194,1466.1,0.14199121044310056
195,1476.26,0.14166447579213673
196,1486.49,0.14363024228038865
197,1493.35,0.14563075392353708
198,1503.7,0.1393967223647304
199,1510.64,0.1262613353098397
200,1517.6200000000001,0.13404764890592955
201,1524.62,0.13100396282750953
202,1535.1899999999998,0.11649443484909539
203,1545.83,0.125970608009897
204,1556.55,0.11975638247265957
205,1563.73,0.12225809932365164
206,1574.5700000000002,0.12980267573935556
207,1585.49,0.1349818534570204
208,1596.48,0.13843853231390105
209,1603.85,0.1349820522570503
210,1614.96,0.1356021330668723
211,1626.16,0.12950051534140034
212,1633.66,0.13685133740023608
213,1644.99,0.1387551217904506
214,1656.39,0.12921020731988092
215,1659.58691,0.1340116917819297
216,1664.03,0.14068528740798716
217,1671.7199999999998,0.12743920136225684
218,1675.5700000000002,0.14330575893364023
219,1683.3000000000002,0.1480023776418983
220,1694.97,0.14004566461801368
221,1706.7199999999998,0.13560816110210588
222,1714.6,0.13161819763782046
223,1726.48,0.13131670957237493
224,1734.4499999999998,0.1397230568045634
225,1746.47,0.1365467853780773
226,1754.54,0.14564434449523675
227,1766.7,0.13344358970771003
228,1774.8500000000001,0.1384550583328463
229,1783.05,0.14069783290046806
230,1795.41,0.15110620188288335
231,1803.69,0.1490356859584819
232,1816.2,0.14102967276835368
233,1824.5800000000002,0.14266896872892323
234,1833.0,0.13783106944348122
235,1845.71,0.12686558002329495
236,1854.22,0.1298281914343268
237,1867.0800000000002,0.13562701984159706
238,1875.6999999999998,0.14300174432609702
239,1884.35,0.1343927723760883
240,1893.05,0.13194270636856506
241,1905.46072,0.13721116986684245
242,1906.17,0.13751207271833568
243,1914.97,0.13469702457066907
244,1923.81,0.13103137029505849
245,1937.15,0.12892992662575478
246,1946.0900000000001,0.14233185703028436
247,1955.07,0.13593978130687004
248,1968.6200000000001,0.14835850546586066
249,1977.71,0.15006601289060045
250,1982.2699999999998,0.1449709143049914
251,1996.01,0.14200920935624828
252,2005.22,0.14331919839715632
253,2014.4799999999998,0.1403808797781344
254,2023.78,0.14265965503116854
255,2033.12,0.14167692415625874
256,2047.2099999999998,0.14766646558800617
257,2056.66,0.14134531786125054
258,2066.15,0.14134486400655097
259,2075.69,0.15319360249192146
260,2085.27,0.16077273484934806
261,2094.9,0.1524863595468447
262,2104.57,0.15108947811639742
263,2114.28,0.15425469055800617
264,2124.04,0.154604395339685
265,2133.8399999999997,0.14329899399341992
266,2143.69,0.1517753849872249
267,2153.59,0.15566666832109996
268,2163.5299999999997,0.14900684552703106
269,2173.5099999999998,0.14866631660501825
270,2183.5499999999997,0.1517690784910895
271,2187.7616199999998,0.154758767040697
272,2193.63,0.15892615006478122
273,2203.75,0.15388198616303786
274,2213.92,0.14329452836849932
275,2224.14,0.1416573766811656
276,2234.41,0.15638293110103668
277,2244.7200000000003,0.14935069040667165
278,2255.08,0.13939265581951144
279,2265.49,0.14100732733955607
280,2275.95,0.1469765049668055
281,2286.45,0.1549834874798188
282,2297.0099999999998,0.14448067732147787
283,2307.61,0.15007377204890082
284,2312.93,0.14307502185549426
285,2323.61,0.11564552635444492
286,2334.33,0.12810983573915943
287,2345.11,0.11779615245251976
288,2355.93,0.13885907405164394
289,2366.81,0.1194385029794139
290,2377.73,0.12872223679294775
291,2383.21,0.11115880614259659
292,2394.21,0.12117864972765814
293,2405.2599999999998,0.11774709941992452
294,2416.3599999999997,0.12258905521939573
295,2427.52,0.14057811834751271
296,2433.11,0.13683120113301217
297,2444.34,0.1471312728112159
298,2455.63,0.14696115181806546
299,2466.96,0.14446453571067885
300,2472.65,0.13678753071058797
301,2484.06,0.1335266243747291
302,2495.5299999999997,0.12856652536751598
303,2507.05,0.15260793246750773
304,2511.88643,0.12736729544919154
305,2512.83,0.12244277860351353
306,2518.62,0.11890570489295253
307,2524.43,0.11734603023693191
308,2536.08,0.12444277950670121
309,2547.78,0.12575252641282147
310,2553.66,0.14411644844769217
311,2565.44,0.13529809157197392
312,2577.29,0.147159331387147
313,2583.2300000000005,0.14389635058563882
314,2595.15,0.14016008709170324
315,2607.1299999999997,0.13310032076138875
316,2613.14,0.12836963665077192
317,2625.2,0.14353096653861894
318,2637.32,0.1601236935900871
319,2643.4,0.18565470617036156
320,2655.6000000000004,0.20147242943999122
321,2667.86,0.16975174987324204
322,2674.01,0.1824159591444078
323,2686.35,0.1877642757958201
324,2692.54,0.16901178317606666
325,2704.97,0.18174699557291066
326,2717.46,0.16294540513337577
327,2723.7200000000003,0.1600824092045136
328,2736.29,0.17292791498314025
329,2742.6,0.13527741669062904
330,2755.2599999999998,0.14715131821468738
331,2767.98,0.16080811690236682
332,2774.36,0.17122681530074693
333,2787.1600000000003,0.1459369102065879
334,2793.59,0.10199850624131895
335,2806.48,0.1119772968925916
336,2812.9500000000003,0.16798729103640342
337,2825.94,0.19311827696037795
338,2832.4500000000003,0.1879760692132705
339,2845.53,0.17688835088267674
340,2852.0800000000004,0.15453414124465004
341,2865.2499999999995,0.19522731865948798
342,2871.8500000000004,0.20456760665781223
343,2884.0315,0.2001089325214491
344,2885.11,0.19971422975859485
345,2891.7599999999998,0.20450632332503763
346,2911.8100000000004,0.23743610392762074
347,2931.99,0.2235854844044351
348,2952.3100000000004,0.21844356474580615
349,2972.7799999999997,0.22762494494205934
350,2993.38,0.23074302501254376
351,3007.2,0.23644221164235418
352,3028.0499999999997,0.23912179147097556
353,3049.04,0.24464107116415362
354,3070.1699999999996,0.2514353507218884
355,3091.45,0.25489233013450524
356,3112.88,0.2619759094020044
357,3127.2499999999995,0.255789095499716
358,3148.93,0.25871197452535205
359,3170.75,0.2671431534155448
360,3192.7299999999996,0.24756533215094514
361,3207.4700000000003,0.2638178178906995
362,3229.7,0.24336819638423685
363,3252.09,0.2793811747229818
364,3267.1,0.3018695602015241
365,3289.75,0.3004610382887315
366,3311.31121,0.2991305583788964
367,3312.55,0.29905409451915904
368,3320.19,0.2958517532253084
369,3327.84,0.31432661174651816
370,3335.5099999999998,0.33165946989784867
371,3343.2000000000003,0.3006320276793001
372,3350.9100000000003,0.29809488509087223
373,3358.63,0.32261014231750484
374,3366.3700000000003,0.29309869917425824
375,3374.13,0.2620347556611324
376,3381.9100000000003,0.27904011177812743
377,3389.71,0.31986756752524326
378,3397.52,0.2987497230874195
379,3405.36,0.3174166780947769
380,3413.21,0.30899843291719475
381,3421.07,0.32906208755467303
382,3428.9599999999996,0.31813284163733246
383,3436.8700000000003,0.31546199535011277
384,3444.79,0.2619966488779535
385,3452.73,0.33542800203591494
386,3460.69,0.3068625548239972
387,3468.6699999999996,0.30851160724220034
388,3476.66,0.30033755947546387
389,3484.68,0.3169058111539086
390,3492.71,0.30357486264741373
391,3500.7599999999998,0.2914828137710397
392,3508.83,0.3242803645247864
393,3516.92,0.295302414908654
394,3525.03,0.3116036649226424
395,3533.15,0.3341414147516912
396,3541.3,0.3525773640259211
397,3549.46,0.3544828131152115
398,3557.6400000000003,0.33261246183462273
399,3565.85,0.35340150999921516
400,3574.0699999999997,0.288156257978868
401,3582.2999999999997,0.29172480577358123
402,3590.56,0.2596050530134757
403,3598.8399999999997,0.33313319988349094
404,3607.14,0.31475614638362703
405,3615.4500000000003,0.31499959269882344
406,3623.79,0.3066656384592012
407,3632.14,0.39443558403463924
408,3640.51,0.35426152924019816
409,3648.9,0.33470957407587787
410,3654.6400000000003,0.4957535679205503
411,3657.38,0.36221801724710123
412,3660.1099999999997,0.29129726675859174
413,3662.84,0.31874651627008227
414,3665.57,0.32093016578157285
415,3668.2999999999997,0.3167822152930634
416,3671.04,0.3806789646196143
417,3673.77,0.34202261413110485
418,3676.4999999999995,0.2972408636425954
419,3679.23,0.33147061315408594
420,3681.96,0.3169033626655765
421,3684.7000000000003,0.3153008119921274
422,3687.43,0.27814856150361794
423,3690.1600000000003,0.27737251101510846
424,3692.89,0.29710756052659903
425,3695.6299999999997,0.33709700985314994
426,3698.36,0.2997506593646405
427,3701.09,0.306579908876131
428,3703.8199999999997,0.3721401583876216
429,3706.55,0.3707092078991121
430,3709.29,0.35066975722566307
431,3712.02,0.32700540673715356
432,3714.75,0.34704375624864414
433,3717.48,0.38411190576013465
434,3720.21,0.30278375527162515
435,3722.95,0.39045430459817615
436,3725.6800000000003,0.5809483541096667
437,3728.41,0.7212388036211572
438,3731.14,0.6772943531326477
439,3733.8700000000003,0.5832910026441382
440,3736.61,0.47286175197068925
441,3739.3399999999997,0.3439500014821798
442,3742.07,0.34682505099367034
443,3744.7999999999997,0.30674950050516087
444,3747.54,0.3675652498317118
445,3750.27,0.29779679934320236
446,3753.0,0.3662802488546929
447,3755.73,0.3764572983661834
448,3758.46,0.38694964787767394
449,3761.2000000000003,0.3871541972042249
450,3763.93,0.3575707467157155
451,3766.66,0.283387096227206
452,3769.3900000000003,0.3895327457386965
453,3772.12,0.40795779525018705
454,3774.8599999999997,0.342153644576738
455,3777.59,0.40920589408822855
456,3780.3199999999997,0.440852043599719
457,3783.05,0.4900013931112096
458,3785.78,0.47254744262270015
459,3788.5200000000004,0.4128441919492511
460,3791.25,0.4064280414607416
461,3793.98,0.30700289097223216
462,3796.7099999999996,0.3251610404837227
463,3799.44,0.33632058999521325
464,3801.8939600000003,0.41084104057091486
465,3802.18,0.41952734042400125
466,3804.9100000000003,0.39211510045537395
467,3807.64,0.41654426048674664
468,3810.3700000000003,0.42074152051811936
469,3813.11,0.46728048040308684
470,3815.8399999999997,0.4484803404344595
471,3818.57,0.38477660046583223
472,3821.3,0.3528036604972049
473,3824.0299999999997,0.3874458205285777
474,3826.77,0.4112179804135452
475,3829.5,0.39564414044491786
476,3832.23,0.3481819004762906
477,3834.96,0.3265430605076633
478,3837.69,0.330825120539036
479,3840.4300000000003,0.38074868042400345
480,3843.16,0.4508575404553762
481,3845.8900000000003,0.45636480048674893
482,3848.62,0.44697696051812164
483,3851.35,0.47659772054949434
484,3854.09,0.45443508043446185
485,3856.82,0.47179294046583453
486,3859.5499999999997,0.45589160049720723
487,3862.28,0.48405676052857993
488,3865.0099999999998,0.5111304205599527
489,3867.75,0.5204558804449202
490,3870.48,0.4934925404762929
491,3873.21,0.4961373005076656
492,3875.94,0.43912896053903827
493,3878.68,0.47927572042400574
494,3881.4100000000003,0.40425528045537845
495,3884.14,0.36895884048675115
496,3886.87,0.38534620051812385
497,3889.6,0.3834057605494966
498,3892.34,0.3133322204344641
499,3895.0699999999997,0.4109869804658368
500,3897.8,0.4203514404972095
501,3900.5299999999997,0.44334940052858224
502,3903.26,0.4359144605599549
503,3906.0,0.4370770204449224
504,3908.7300000000005,0.4481637804762951
505,3911.46,0.4280536405076678
506,3914.19,0.5113838005390405
507,3916.92,0.45358716057041326
508,3919.66,0.45850982045538075
509,3922.39,0.46009918048675347
510,3925.1200000000003,0.3864007405181262
511,3927.85,0.3928176005494989
512,3930.5899999999997,0.4039508604344664
513,3933.32,0.30300972046583907
514,3936.0499999999997,0.32048858049721174
515,3938.78,0.3601523405285845
516,3941.5099999999998,0.4346401005599572
517,3944.2500000000005,0.4184454604449247
518,3946.98,0.4717550204762974
519,3949.71,0.4696205805076701
520,3952.44,0.4955297405390428
521,3955.17,0.4733089005704155
522,3957.91,0.465519860455383
523,3960.6400000000003,0.44762932048675574
524,3963.37,0.39993658051812847
525,3966.1000000000004,0.35027864054950114
526,3968.83,0.2980978005808739
527,3971.5699999999997,0.30548336046584135
528,3974.3,0.37591962049721406
529,3977.0299999999997,0.4078206805285868
530,3979.7599999999998,0.4499468405599595
531,3982.4900000000002,0.4911756005913322
532,3985.23,0.5010227604762997
533,3987.96,0.5312378205076723
534,3990.69,0.4557077805390451
535,3993.4199999999996,0.5237064405704178
536,3996.1600000000003,0.5389268004553853
537,3998.89,0.582835960486758
538,4001.6200000000003,0.5765899205181307
539,4004.35,0.5497963805495034
540,4007.08,0.5727944405808761
541,4009.82,0.5090638004658437
542,4012.5499999999997,0.5624583604972163
543,4015.2799999999997,0.504310120528589
544,4018.01,0.5828855805599618
545,4020.74,0.5870587405913344
546,4023.48,0.6010295004763019
547,4026.21,0.5562358605076746
548,4028.9399999999996,0.5325597205390473
549,4031.67,0.54404678057042
550,4034.4,0.5211953406017927
551,4037.1400000000003,0.5729497004867602
552,4039.87,0.5635619605181329
553,4042.6,0.5734481205495058
554,4045.33,0.5749284805808784
555,4048.0699999999997,0.5600433404658459
556,4050.8,0.5703054004972187
557,4053.53,0.5373985605285914
558,4056.2599999999998,0.5192776205599641
559,4058.9900000000002,0.5327055805913368
560,4061.73,0.5506914404763043
561,4064.4599999999996,0.551152900507677
562,4067.19,0.5652478605390496
563,4069.92,0.5446889205704223
564,4072.65,0.5285692806017951
565,4075.39,0.5288340404867625
566,4078.12,0.5111619005181353
567,4080.85,0.5110410605495079
568,4083.58,0.5405526205808806
569,4086.3100000000004,0.5568309806122534
570,4089.05,0.4993472404972209
