,lambda (Angstroms),Total Flux (erg/s/cm^2/Angstrom)
0,102.05000000000001,0.0004651302264503746
1,103.95,0.0005440889659695477
2,104.712855,0.0005757911689508745
3,105.88,0.0005353214374032508
4,108.10000000000001,0.0004583449183089626
5,110.11,0.00038865116459156716
6,113.98,0.0002544633292429842
7,117.97999999999999,0.0001157680543777544
8,120.22644299999999,3.788507366993559e-05
9,121.01,3.6631757071086284e-05
10,124.97,3.0286019137109047e-05
11,127.0,2.703344214595404e-05
12,127.88000000000001,2.5624158300625745e-05
13,130.86,2.0850657900309526e-05
14,132.07,1.8915265235483178e-05
15,133.91,1.596928953616041e-05
16,137.03,1.0978078188178326e-05
17,138.038426,9.364726082321856e-06
18,139.9,9.26774160286277e-06
19,143.16,9.131958408279046e-06
20,147.17,8.971681252640779e-06
21,150.94,8.801354297339967e-06
22,155.17,8.61417534139237e-06
23,158.489319,8.476451453816846e-06
24,159.14999999999998,8.428954453117339e-06
25,162.10999999999999,8.223477329400467e-06
26,165.89,7.971881625464733e-06
27,170.14000000000001,7.68740286945233e-06
28,172.91,7.519199975298369e-06
29,176.93,7.275505523493698e-06
30,179.81,7.112810849066471e-06
31,181.89000000000001,6.998145867535696e-06
32,181.970086,6.9937140421686785e-06
33,186.13000000000002,7.2422411820288275e-06
34,190.9,7.563934694779839e-06
35,194.0,7.77889931941886e-06
36,198.07000000000002,8.072625723380418e-06
37,202.21,8.384490338220915e-06
38,205.03,8.621997119344155e-06
39,208.929613,8.9240360546103e-06
40,209.79999999999998,9.115155336129024e-06
41,216.17999999999998,1.0631137174824417e-05
42,220.20000000000002,1.1594484609237512e-05
43,222.75,1.2238385257932375e-05
44,226.89000000000001,1.326802489934287e-05
45,230.04,1.605501458302476e-05
46,233.78,2.0509389867777235e-05
47,239.78,2.506173621764751e-05
48,239.88329199999998,2.508959888796625e-05
49,245.93,2.484438014568376e-05
50,252.24,2.5616997315531364e-05
51,256.93,2.2871209379966434e-05
52,259.9,2.552245207322276e-05
53,264.13,2.649303651513328e-05
54,269.04,2.6728903964253995e-05
55,274.04,2.69564672525643e-05
56,275.42287,2.6962737475166618e-05
57,279.13,2.8053853484788327e-05
58,284.32,2.9890652040975128e-05
59,290.28000000000003,3.102877146195265e-05
60,295.67,3.3173467515487684e-05
61,301.17,3.3524793692564254e-05
62,308.18,3.641107247462003e-05
63,316.227766,3.9587572420616494e-05
64,318.28000000000003,3.9865574130251504e-05
65,327.95,4.0463060411593766e-05
66,337.92,4.0712475088427514e-05
67,348.19000000000005,4.085075816075274e-05
68,357.12,4.133812239988267e-05
69,363.078055,4.183887546388241e-05
70,366.28000000000003,4.273284005436927e-05
71,374.81,4.45064174945402e-05
72,385.31,4.540562364011989e-05
73,395.19,4.852287344186535e-05
74,405.33,5.089382429102517e-05
75,413.82,5.243985003159389e-05
76,416.86938299999997,5.286403398332998e-05
77,422.48,5.3452513994649024e-05
78,430.34000000000003,5.4136134614923115e-05
79,441.37999999999994,5.6134077165537105e-05
80,450.62,5.729431560463795e-05
81,460.06,5.7976188945018026e-05
82,469.68999999999994,5.8967913941613375e-05
83,478.630092,6.025791546559196e-05
84,479.52000000000004,6.0280764184032675e-05
85,489.56,5.950322132216664e-05
86,499.82,5.9949013756156124e-05
87,505.6,6.159675380181492e-05
88,511.46,7.269048031869391e-05
89,519.77,7.213272626669124e-05
90,529.43,7.161829516652931e-05
91,540.52,6.925791348942827e-05
92,549.5408739999999,7.171348891942598e-05
93,550.57,7.204034115897266e-05
94,559.51,7.681118095634134e-05
95,569.92,7.921141377408273e-05
96,580.51,7.804007410452282e-05
97,589.9399999999999,8.151315157534906e-05
98,599.53,8.06480046130186e-05
99,610.68,8.10567494274102e-05
100,620.6,8.9357274571694e-05
101,630.68,9.062114528282112e-05
102,630.957344,9.067478305111622e-05
103,639.46,9.275643924157243e-05
104,649.85,9.61868688694174e-05
105,657.37,9.741005592441202e-05
106,664.98,0.0001013294100984159
107,674.23,0.0001039386328854771
108,685.1899999999999,0.00010276899093371395
109,694.72,0.00011331535031324836
110,704.39,0.00010990602298901938
111,715.8299999999999,0.00012224939233863885
112,724.43596,0.0001249567742186161
113,725.7900000000001,0.00012536551591515915
114,734.1899999999999,0.00012867961892389554
115,744.41,0.0001349000942511915
116,754.76,0.00013937535331552746
117,765.26,0.000141611932076448
118,774.1199999999999,0.0001506569621547104
119,784.89,0.00015733247636948318
120,795.81,0.0001629296102808405
121,805.0300000000001,0.00016798848763090597
122,814.3499999999999,0.00017320304477869445
123,825.6800000000001,0.00018286016586071632
124,831.763771,0.00017554862411112162
125,835.24,0.00017118516010629885
126,844.91,0.00019290844110345635
127,854.69,0.00019886269385963013
128,864.5899999999999,0.00020860765217109437
129,874.5999999999999,0.0002184157822415749
130,884.7299999999999,0.0002297632178673459
131,894.9699999999999,0.00023912992525213316
132,905.34,0.0002445767719884851
133,915.8199999999999,0.00035682239048385333
134,924.29,0.001756803315928106
135,935.0,0.003946602111737782
136,945.82,0.010728086879306473
137,954.58,0.022871016084842676
138,954.992586,0.023184904618971477
139,965.63,0.03127799940461429
140,974.5600000000001,0.0068817527162437905
141,985.85,0.04945267236778882
142,994.97,0.05274576957966577
143,1004.18,0.06429364627060728
144,1015.8000000000001,0.04788431901205576
145,1025.2,0.008158042603244717
146,1034.69,0.03305418967349825
147,1044.26,0.07658856428069807
148,1053.93,0.08244284830908075
149,1066.1299999999999,0.07247064769338982
150,1076.0,0.08359031056413821
151,1085.95,0.07197246297183292
152,1096.0,0.08534004480071047
153,1096.4782,0.08520338011268856
154,1106.14,0.08244201700032817
155,1113.81,0.08056573805115598
156,1124.11,0.07819190145709164
157,1134.52,0.08793152287027514
158,1145.01,0.08149816283418436
159,1155.61,0.08475037080534144
160,1166.3,0.08977293714606494
161,1174.38,0.07801081076936205
162,1185.25,0.08632643384921838
163,1196.22,0.0563842451174819
164,1204.51,0.03964497493643399
165,1215.65,0.009128896124989636
166,1224.08,0.03946196040771172
167,1235.41,0.07818868515424095
168,1243.97,0.09101949008189232
169,1255.48,0.09039382156755438
170,1258.92541,0.08457802191775286
171,1264.18,0.07570845592168182
172,1275.88,0.09530914099799956
173,1284.73,0.0993388624018809
174,1293.63,0.08813284387019098
175,1305.6000000000001,0.08573130929442373
176,1314.65,0.09843427095601992
177,1323.76,0.09574960269493055
178,1336.01,0.08853994847996406
179,1345.27,0.09888737041216084
180,1354.6,0.09619064243455779
181,1363.99,0.0903928845342692
182,1373.4399999999998,0.09335435671129505
183,1386.1499999999999,0.09552979308907268
184,1395.76,0.09207413547227042
185,1405.43,0.09443635793278259
186,1415.18,0.09207305049638069
187,1424.9899999999998,0.09292508313729324
188,1434.8600000000001,0.09207456585552025
189,1441.49,0.09487135439876695
190,1445.43977,0.09539272912833854
191,1448.1399999999999,0.09574916240860237
192,1454.82,0.094218799632936
193,1464.91,0.09101998054514054
194,1475.06,0.08977212152223431
195,1485.29,0.08956479258584704
196,1495.58,0.090185903714349
197,1505.95,0.08853956492936992
198,1512.9,0.08377985244570506
199,1516.3899999999999,0.08712413622009492
200,1523.39,0.08455463379050442
201,1533.95,0.07945822521100789
202,1544.5800000000002,0.08514051670721545
203,1555.29,0.08093575828994197
204,1566.07,0.07964156994837258
205,1573.3,0.0826297977675241
206,1584.2,0.08455507955573317
207,1595.1799999999998,0.0865246114304612
208,1606.2399999999998,0.0830113233917082
209,1613.65,0.0833958214055274
210,1624.84,0.08000952350736772
211,1636.1000000000001,0.08206268568491212
212,1643.65,0.0822508938501395
213,1655.0500000000002,0.07693795617909212
214,1659.58691,0.0793404269931122
215,1666.52,0.08301181584253643
216,1670.36,0.07782905617046319
217,1678.0700000000002,0.08093567706325362
218,1685.8200000000002,0.08320254827195997
219,1693.6000000000001,0.08019449971760323
220,1705.34,0.07782885243892099
221,1713.21,0.07570856459537503
222,1725.08,0.07518869834341944
223,1733.05,0.07782889128966326
224,1745.06,0.07588353614341335
225,1753.11,0.07909493972148898
226,1765.27,0.0733078857599237
227,1773.41,0.07658658004881011
228,1785.71,0.07676225719295049
229,1793.95,0.07873097227162665
230,1806.3799999999999,0.07818993044249373
231,1814.72,0.07553573631095965
232,1823.1,0.07570960249534148
233,1835.7399999999998,0.07381626232476704
234,1844.21,0.07033288921995966
235,1856.99,0.06968714015509088
236,1865.56,0.07049468784007325
237,1874.18,0.07364576591995049
238,1887.1699999999998,0.07017095851364022
239,1895.88,0.06810248730432826
240,1904.6299999999999,0.07082054641093219
241,1905.46072,0.07062324137815351
242,1913.42,0.0687326819425998
243,1926.68,0.06810279694946325
244,1935.5800000000002,0.06873176634321021
245,1944.5100000000002,0.07065682543154285
246,1953.49,0.06763230401085157
247,1967.03,0.07065660616718124
248,1976.1100000000001,0.07147479372844219
249,1985.23,0.06904830088248401
250,1994.39,0.06716648762930674
251,2003.6000000000001,0.06810107386710557
252,2012.84,0.06670472979949005
253,2026.8,0.068572157680019
254,2036.1499999999999,0.06670448249255093
255,2045.55,0.06732132679605896
256,2054.99,0.06503553069234788
257,2064.48,0.06563730407961291
258,2074.01,0.0673202270596588
259,2078.79,0.0660923783969746
260,2083.58,0.0670117396324856
261,2093.2000000000003,0.06473656169628851
262,2102.86,0.0653350933528723
263,2117.44,0.06518451492150497
264,2127.21,0.06578785545823618
265,2137.03,0.06311731548594351
266,2146.89,0.06399479510643172
267,2156.8,0.06458694421789604
268,2166.76,0.06268207282033647
269,2176.76,0.062250411015557776
270,2186.81,0.06182202870175519
271,2187.7616199999998,0.061985342093115056
272,2196.9,0.06355380318838386
273,2207.04,0.061822805492926944
274,2217.23,0.059999878203310986
275,2227.46,0.05849971123836777
276,2232.6,0.06139724295881664
277,2242.9,0.05931323656205076
278,2253.25,0.057830380571125814
279,2263.6600000000003,0.05822985506721
280,2274.1,0.059177229806798744
281,2284.6,0.05986194503339663
282,2295.15,0.05783030066583545
283,2305.7400000000002,0.05757863662294702
284,2316.38,0.05642039298589955
285,2327.07,0.04904693975469301
286,2332.44,0.05441225334201021
287,2343.2,0.05222430067898099
288,2354.02,0.0545807885029609
289,2364.89,0.05190567673278176
290,2375.8,0.05313623528727537
291,2386.77,0.05029953432877811
292,2392.27,0.05243912897128176
293,2403.31,0.05091346858096182
294,2414.41,0.051404878677651006
295,2425.5499999999997,0.05298843909901294
296,2436.75,0.051092460007384016
297,2442.36,0.052899225542737745
298,2453.64,0.05219501710045432
299,2464.96,0.05161914898284366
300,2476.34,0.05046573135224213
301,2487.77,0.05166263412748154
302,2493.5099999999998,0.05026495071802171
303,2505.0099999999998,0.052656494061438436
304,2510.79,0.049836180976651365
305,2511.88643,0.049925422992686284
306,2516.58,0.05030739513168821
307,2522.38,0.04849799691143716
308,2534.02,0.04851930034527817
309,2545.7200000000003,0.04820550359063381
310,2557.47,0.050151536678918335
311,2563.36,0.04935978817593926
312,2575.2000000000003,0.050998590981495735
313,2587.08,0.05078616366139532
314,2593.05,0.05033107490710244
315,2605.0099999999998,0.04898170733568821
316,2617.04,0.0485534295443744
317,2623.07,0.04935301060159616
318,2635.18,0.05006169255896854
319,2647.34,0.052807034359269804
320,2653.45,0.053062775165177746
321,2665.69,0.0506976567141652
322,2678.0,0.05178143804325306
323,2684.17,0.05179285866067566
324,2696.56,0.05017318973844972
325,2702.78,0.05076558019880118
326,2715.25,0.04895160102526143
327,2727.79,0.048524291631822106
328,2734.07,0.04989522190368821
329,2746.69,0.04615903225893508
330,2753.03,0.04659753234231583
331,2765.73,0.04781442244624889
332,2772.1099999999997,0.04893874240397274
333,2784.9,0.047518172225177756
334,2797.76,0.041982311826483196
335,2804.2099999999996,0.043869411564307466
336,2817.15,0.048457670914299096
337,2823.6499999999996,0.04902988049505223
338,2836.68,0.04793632956231583
339,2843.2200000000003,0.04674828901741207
340,2856.34,0.04570666780194763
341,2862.9300000000003,0.04809202709997274
342,2876.14,0.048115205601780266
343,2882.77,0.04801601477414847
344,2884.0315,0.048028663722588724
345,2896.08,0.04814951003664675
346,2909.4500000000003,0.049980109177090504
347,2929.61,0.04854213788100569
348,2949.9199999999996,0.047800566575277384
349,2970.37,0.0479458352605485
350,2990.9599999999996,0.04776119393681902
351,3011.69,0.047906472604088944
352,3032.57,0.047832101261715394
353,3046.56,0.047745660362299394
354,3067.68,0.047562929004496254
355,3088.95,0.04738018763704963
356,3110.3599999999997,0.04730709626060241
357,3131.92,0.04669440487451171
358,3153.63,0.04651551347877751
359,3168.18,0.04664739254335916
360,3190.1400000000003,0.04520265113155249
361,3212.26,0.04597283970945943
362,3227.08,0.0447446087566828
363,3249.45,0.04624612731851725
364,3271.98,0.04714355587006533
365,3287.08,0.046736774899287514
366,3309.86,0.04634624343476311
367,3311.31121,0.046073651398166555
368,3325.14,0.04347606634621891
369,3332.81,0.04378927691997575
370,3340.49,0.04144629748144284
371,3348.1899999999996,0.044320558018330417
372,3355.91,0.04253232853063848
373,3363.65,0.03970526901836703
374,3371.4,0.039990859493805826
375,3379.17,0.04315943994466512
376,3386.96,0.043370950370944884
377,3394.7699999999995,0.043283330772645144
378,3402.6,0.04420086114976589
379,3410.44,0.041168211514596875
380,3418.3,0.04233296185484835
381,3426.18,0.043731682170520314
382,3434.08,0.04425004246161276
383,3441.99,0.042368752740415454
384,3449.93,0.041895412982348876
385,3457.8799999999997,0.04161829321199255
386,3465.85,0.0411538534170567
387,3473.84,0.04310542359754135
388,3481.8500000000004,0.04194241375344648
389,3489.88,0.04332838388477209
390,3497.92,0.04177317400380795
391,3505.99,0.042463704085974545
392,3514.07,0.04150943415585138
393,3522.17,0.0431784342011487
394,3530.29,0.04143734422186651
395,3538.4300000000003,0.043203254218004805
396,3546.58,0.043917104201853345
397,3554.76,0.04443835414883261
398,3562.95,0.04334003408352213
399,3571.17,0.041784573981342374
400,3579.3999999999996,0.040470553866872865
401,3587.65,0.038839343727823834
402,3595.92,0.041057343564195305
403,3604.21,0.04241470337598725
404,3611.71,0.03817175415866996
405,3614.46,0.06416464077898695
406,3617.21,0.050506857399303946
407,3619.96,0.027654474019620935
408,3622.71,0.030183230639937924
409,3625.4599999999996,0.03463189726025492
410,3628.2,0.025732713892861667
411,3630.95,0.03868060051317866
412,3633.7000000000003,0.05027124713349565
413,3636.45,0.05027121375381264
414,3639.2000000000003,0.037353120374129634
415,3641.95,0.06210899699444662
416,3644.7000000000003,0.05698790361476362
417,3647.45,0.020405690235080612
418,3650.1899999999996,0.03928563686768736
419,3652.94,0.03514469348800436
420,3655.6899999999996,0.03882868010832134
421,3658.44,0.04659296672863834
422,3661.19,0.05121669334895533
423,3663.94,0.053299119969272314
424,3666.69,0.05644250658958931
425,3669.44,0.03502430320990631
426,3672.19,0.023928049830223296
427,3674.9300000000003,0.039824236462830044
428,3677.68,0.043486093083147034
429,3680.4300000000003,0.04321480970346403
430,3683.18,0.06324884632378101
431,3685.93,0.05386565294409801
432,3688.68,0.047365229564415
433,3691.43,0.037930126184732
434,3694.1800000000003,0.06811865280504899
435,3696.92,0.059254259437655735
436,3699.67,0.04716623605797273
437,3702.42,0.06371923267828972
438,3705.17,0.04211148929860671
439,3707.92,0.038305295918923704
440,3710.6699999999996,0.0447710225392407
441,3713.42,0.054517719159557686
442,3716.1699999999996,0.03241754577987468
443,3718.9100000000003,0.043539962412481426
444,3721.66,0.04865714903279842
445,3724.4100000000003,0.1154319656531154
446,3727.16,0.1358141622734324
447,3729.9100000000003,0.13607375889374942
448,3732.66,0.10204235551406639
449,3735.4100000000003,0.062316632134383376
450,3738.16,0.031580688754700374
451,3740.91,0.03380549537501737
452,3743.65,0.045494452007624114
453,3746.3999999999996,0.05347227862794111
454,3749.15,0.04605613524825809
455,3751.9,0.02048641186857509
456,3754.65,0.03409988848889208
457,3757.4,0.04826931510920907
458,3760.15,0.047407441729526066
459,3762.9,0.04653978834984306
460,3765.64,0.046385144982449805
461,3768.39,0.04788757160276679
462,3771.14,0.04220280822308379
463,3773.89,0.05867404484340078
464,3776.64,0.051997581463717774
465,3779.3900000000003,0.06026779808403476
466,3782.14,0.05129629470435176
467,3784.8900000000003,0.059412601324668746
468,3787.63,0.0618945379572755
469,3790.3799999999997,0.05793826457759249
470,3793.13,0.05358667119790948
471,3795.8799999999997,0.054138757818226475
472,3798.63,0.04665623443854346
473,3801.3799999999997,0.04283466105886046
474,3801.8939600000003,0.043772155239289956
475,3804.13,0.04785082825176404
476,3806.88,0.04884153557627823
477,3809.63,0.05538708290079242
478,3812.37,0.05177546023503565
479,3815.1200000000003,0.054084907559549845
480,3817.87,0.05749185488406404
481,3820.6200000000003,0.06657485220857823
482,3823.37,0.06357181953309242
483,3826.12,0.05567666685760662
484,3828.87,0.05825831418212081
485,3831.62,0.043476121506635
486,3834.36,0.03427590884087823
487,3837.11,0.038867916165392424
488,3839.86,0.04428328348990662
489,3842.61,0.04756808081442081
490,3845.3599999999997,0.05807177813893501
491,3848.11,0.0619029054634492
492,3850.8599999999997,0.05821117278796339
493,3853.61,0.056058450112477586
494,3856.35,0.05786800744672081
495,3859.1,0.05988022477123501
496,3861.85,0.0556527120957492
497,3864.6000000000004,0.058173769420263394
498,3867.35,0.07064547674477759
499,3870.1000000000004,0.07699191406929178
500,3872.85,0.07590205139380597
501,3875.6000000000004,0.07317026871832016
502,3878.35,0.06492499604283435
503,3881.0899999999997,0.06995016337707759
504,3883.84,0.06895265070159178
505,3886.5899999999997,0.06531091802610597
506,3889.34,0.06734910535062016
507,3892.09,0.06333705267513437
508,3894.84,0.07421490999964854
509,3897.59,0.07429084732416275
510,3900.34,0.07341068464867694
511,3903.08,0.07741919198292016
512,3905.83,0.08590966930743436
513,3908.58,0.08010946663194855
514,3911.33,0.08204087395646276
515,3914.08,0.08227552128097693
516,3916.83,0.06916888860549113
517,3919.58,0.05639892593000532
518,3922.33,0.05076901325451952
519,3925.07,0.04659082058876275
520,3927.82,0.05169260791327694
521,3930.5699999999997,0.05305845523779113
522,3933.32,0.048680892562305324
523,3936.0699999999997,0.04630789988681952
524,3938.82,0.06055908721133371
525,3941.5699999999997,0.05662015453584791
526,3944.32,0.0551907618603621
527,3947.0699999999997,0.06278667918487629
528,3949.8100000000004,0.05080670651911952
529,3952.56,0.05181857384363371
530,3955.3100000000004,0.06538780116814791
531,3958.06,0.044717898492662105
532,3960.81,0.05452616581717629
533,3963.56,0.04824889314169049
534,3966.31,0.03506631046620468
535,3969.06,0.04495343779071887
536,3971.7999999999997,0.041138805124962104
537,3974.55,0.0556189624494763
538,3977.2999999999997,0.05740898977399049
539,3980.05,0.05995985709850468
540,3982.8,0.05215415442301887
541,3985.5499999999997,0.06599365174753306
542,3988.3,0.06580219907204726
543,3991.0499999999997,0.07249202639656145
544,3993.79,0.07766438373080468
545,3996.54,0.07142172105531887
546,3999.29,0.07289046837983307
547,4002.04,0.06822625570434726
548,4004.79,0.05861510302886146
549,4007.54,0.06811555035337565
550,4010.2900000000004,0.06300792767788985
551,4013.04,0.061082205002404036
552,4015.7900000000004,0.07990709232691823
553,4018.53,0.07187571966116145
554,4021.2799999999997,0.06467021698567565
555,4024.03,0.06308498431018984
556,4026.7799999999997,0.06469706163470404
557,4029.53,0.04817768895921823
558,4032.2799999999997,0.06372836628373241
559,4035.03,0.06250001360824661
560,4037.78,0.0650335609327608
561,4040.5200000000004,0.06978553826700404
562,4043.27,0.06345149559151823
563,4046.02,0.06766161291603243
564,4048.77,0.060484010240546615
565,4051.52,0.0629108075650608
566,4054.27,0.061545854889575
567,4057.02,0.0652288522140892
568,4059.77,0.07094140953860338
569,4062.5099999999998,0.07011160687284662
