,lambda (Angstroms),Total Flux (erg/s/cm^2/Angstrom)
0,100.03,0.06793084457335481
1,101.89,0.08170583164456005
2,104.02,0.0974804136132448
3,104.712855,0.10261163332695776
4,105.96,0.09490509745319096
5,107.92,0.08279358651265245
6,109.92999999999999,0.0703731084578496
7,114.05999999999999,0.04485242469468571
8,118.07,0.020073262015019598
9,120.22644299999999,0.006747862603035186
10,121.09,0.006500947566879823
11,125.06,0.005365813777264494
12,127.09,0.004785380136359149
13,127.97,0.0045337635970987685
14,130.95000000000002,0.0036816984847508893
15,131.85999999999999,0.003421504183877396
16,134.01,0.0028067592538316703
17,137.13,0.0019146644780992025
18,138.038426,0.001654920218794652
19,140.0,0.0016351118790044713
20,142.93,0.0016055268161392646
21,146.93,0.0015651425789691977
22,151.05,0.0015235423386333986
23,154.93,0.0014843673998770639
24,158.489319,0.001448432137032938
25,158.9,0.001442060998322809
26,161.85000000000002,0.0013962973639019645
27,166.01000000000002,0.0013317654167713164
28,169.86999999999998,0.001271890476675331
29,173.03,0.001222875721660223
30,177.06,0.001160370388094595
31,179.94,0.001115705535801839
32,181.970086,0.0010842223126812031
33,182.01999999999998,0.001084471905216688
34,185.82999999999998,0.0011035311941533675
35,191.04,0.0011295991209746537
36,194.14000000000001,0.0011451186958262828
37,198.20999999999998,0.0011654985191743893
38,201.89,0.0011839444049053553
39,205.17000000000002,0.001200382858326434
40,208.929613,0.0012192260807092105
41,209.95,0.0012501850163964092
42,215.83,0.0014286682908526919
43,219.85000000000002,0.0015506981087564768
44,222.91,0.0016435833108041332
45,227.04999999999998,0.0017692902379274336
46,230.21,0.001865873026608021
47,233.95,0.0019807357177996014
48,239.88329199999998,0.00216217163482015
49,239.95,0.002160522641281897
50,246.11,0.0020071381480222298
51,251.84,0.001865281387553416
52,257.11,0.0017332757215585387
53,260.09000000000003,0.001660349892705647
54,263.71,0.0015710901022803249
55,269.23,0.0014342173695930896
56,274.23,0.0013103694527459575
57,275.42287,0.0012808662414144991
58,278.69,0.0013687897515477054
59,283.87,0.001508185643347741
60,289.82,0.0016677444935234572
61,295.88,0.0018311242120385568
62,300.69,0.001960461089424304
63,307.7,0.0021497505635977117
64,316.227766,0.0023802643930032827
65,317.78000000000003,0.0023505098619218223
66,328.19,0.002150722831275119
67,338.15999999999997,0.0019594445275337526
68,347.63,0.0017781471107302664
69,357.37,0.0015917637687803243
70,363.078055,0.0014834201867432626
71,365.7,0.001524837972944539
72,375.08,0.00167170095161067
73,384.7,0.0018210873189207102
74,394.57,0.0019784088606514903
75,404.69,0.0021384867468030085
76,414.11999999999995,0.002286642344353287
77,416.86938299999997,0.0023296683478905957
78,421.81000000000006,0.00237685777928697
79,429.65999999999997,0.0024524129985159116
80,440.68,0.002559867336554504
81,450.94,0.002658617050935262
82,460.39,0.0027486202231280657
83,470.03000000000003,0.0028422191937353277
84,478.630092,0.0029265156041047504
85,479.87,0.00291245840713198
86,489.92,0.00279520248048989
87,500.17,0.0026801681192380068
88,505.97,0.0026171842855540143
89,511.83,0.002600845500487085
90,520.14,0.002511350333950193
91,529.8100000000001,0.002407038536066708
92,539.66,0.002289803484034412
93,549.5408739999999,0.0022225171888352125
94,549.6899999999999,0.0022227079921657974
95,559.91,0.0022278720234656687
96,570.32,0.0022288384288308024
97,579.5899999999999,0.0021934353898043655
98,590.37,0.0022244106762439554
99,599.96,0.002211072983011643
100,609.7099999999999,0.002241422562676394
101,619.61,0.0022996147481821397
102,629.68,0.002325374473641016
103,630.957344,0.0023240801481274253
104,639.9100000000001,0.0023970569026728304
105,650.3100000000001,0.0025651325491321854
106,657.8399999999999,0.0026762293537320827
107,665.4599999999999,0.0027854527850801874
108,674.72,0.0028741377260622664
109,685.6800000000001,0.0029478202611771254
110,695.22,0.0033164210964869564
111,704.89,0.0033402729148775292
112,716.34,0.003705388040065954
113,724.43596,0.0038374733764543214
114,726.3100000000001,0.0038637982751896873
115,734.7199999999999,0.003998507261501042
116,744.94,0.0043175326229876135
117,755.3,0.004551623085316463
118,765.81,0.004771085584262046
119,774.68,0.005102068616198042
120,785.46,0.005432958381053739
121,794.55,0.005666584000027605
122,805.6,0.005927939030793418
123,814.93,0.006165436108354053
124,824.37,0.0066599414794336256
125,831.763771,0.00624642297293106
126,835.84,0.005979643271624134
127,845.52,0.007009087253566075
128,855.31,0.007196740360302811
129,865.21,0.00762765359183434
130,875.23,0.008080681686778375
131,885.36,0.008672804906517203
132,895.62,0.009122915728286243
133,905.99,0.009186620674850076
134,914.37,0.013474413636489898
135,924.9599999999999,0.08644091183264332
136,935.67,0.19377112689220927
137,944.33,0.37864701053514493
138,954.992586,0.5436096728496578
139,955.26,0.5477483491838933
140,964.0999999999999,0.6286329306050651
141,975.26,0.09988014891505138
142,984.2900000000001,0.5477155043486693
143,995.6800000000001,0.5921763554105638
144,1004.9,0.8872400448566278
145,1014.1999999999999,0.8670780517816163
146,1025.94,0.3733451418138062
147,1035.43,0.6171188527512407
148,1045.01,1.2212883708524656
149,1054.68,1.2156603961174803
150,1064.44,0.9681779285462856
151,1074.29,1.174430168138881
152,1084.23,0.9353392148952666
153,1094.26,1.2699215688154424
154,1096.4782,1.2617239842463823
155,1104.3899999999999,1.2324677378589808
156,1114.6100000000001,1.1988957430965779
157,1124.9199999999998,1.088491457773645
158,1135.33,1.4115148496056786
159,1145.8300000000002,1.2933389508771826
160,1153.78,1.3952902846970354
161,1164.45,1.4576078371319827
162,1175.23,1.0134330344373934
163,1186.1,1.444186941182274
164,1194.32,0.992632603320537
165,1205.3700000000001,0.7128008289443577
166,1213.73,0.47784283909957403
167,1224.96,1.0086294836023348
168,1236.29,1.5687319052600623
169,1244.86,1.7519292374407087
170,1256.38,1.6885400456928732
171,1258.92541,1.6209589368218957
172,1265.0900000000001,1.4573092435845358
173,1273.86,1.9207672575059638
174,1285.65,2.039153964932832
175,1294.56,1.6163080110035188
176,1303.53,1.6088800708524595
177,1315.5900000000001,2.0485658402814697
178,1324.71,1.9791999345760447
179,1333.89,1.7599680426488737
180,1346.24,2.125556878672777
181,1355.5700000000002,2.077113021191241
182,1364.97,1.8641761797843333
183,1374.43,1.9836933521556799
184,1383.9499999999998,2.0206345383052797
185,1393.55,1.7721587428258854
186,1406.4399999999998,1.8599147028540732
187,1416.19,1.916405941820313
188,1426.01,1.988187196861182
189,1435.8899999999999,1.988213465680305
190,1442.52,2.115818988177348
191,1445.43977,2.154525462534084
192,1445.85,2.1599637377308483
193,1455.87,2.110925668909994
194,1465.96,1.956542613580411
195,1476.12,1.9655345717420993
196,1486.35,2.0206695433950594
197,1496.6499999999999,2.0724495285392908
198,1503.56,1.9745528603205178
199,1510.5,1.7599941978837186
200,1517.48,1.8944765431562172
201,1524.48,1.8471308922833647
202,1535.05,1.6126269294653577
203,1545.69,1.796833980138622
204,1556.4,1.7042050443031578
205,1563.59,1.7478984300494707
206,1574.42,1.8814775173419005
207,1585.3400000000001,1.9882346219802507
208,1596.33,2.0486087401098723
209,1603.7,2.0159751605480265
210,1614.8100000000002,2.039255301805542
211,1626.0,1.9341654584816537
212,1633.51,2.0771559059023508
213,1644.83,2.1256320876336807
214,1656.23,1.9700922847836069
215,1659.58691,2.057814914027916
216,1663.88,2.170006974246025
217,1671.56,1.9386457837615088
218,1675.4099999999999,2.200329202594141
219,1683.1499999999999,2.303891096558964
220,1694.81,2.175145507880649
221,1706.56,2.096398045876344
222,1714.44,2.002197136889626
223,1726.3200000000002,2.00222385785889
224,1734.29,2.1501810755461825
225,1746.3100000000002,2.1111099935639057
226,1754.3700000000001,2.2672693379252076
227,1766.53,2.0822224529913904
228,1774.6899999999998,2.1502099381015918
229,1786.99,2.200478250216234
230,1795.2399999999998,2.3630708620004444
231,1803.5200000000002,2.3523615160093256
232,1816.0200000000002,2.1852691096217667
233,1824.4099999999999,2.241363918454437
234,1837.0500000000002,2.160298709115337
235,1845.53,1.9932036446220172
236,1854.05,2.016283636428257
237,1866.8999999999999,2.0870547226618466
238,1875.52,2.2674298552169856
239,1884.18,2.1015170440716844
240,1892.8700000000001,2.025522275151054
241,1905.46072,2.1502687357679697
242,1905.99,2.1555110361946133
243,1914.7900000000002,2.087081070627636
244,1923.63,2.0585370324899
245,1936.97,2.121023830141778
246,1945.9099999999999,2.2310356105771443
247,1954.8899999999999,2.101465318441752
248,1968.4399999999998,2.3093817350971455
249,1977.5200000000002,2.3795382615348553
250,1982.08,2.256800988468331
251,1995.8200000000002,2.205559060412619
252,2005.03,2.2776593509953624
253,2014.29,2.210607550864657
254,2023.5900000000001,2.3200296781631926
255,2032.93,2.210561732890969
256,2047.02,2.303959169841116
257,2056.47,2.2003480249993053
258,2065.96,2.2257408075867358
259,2075.5,2.3957504994607173
260,2080.2799999999997,2.2827918272550183
261,2085.07,2.36839213690663
262,2094.7,2.251500665496404
263,2104.3700000000003,2.277466121515419
264,2114.08,2.303842504963675
265,2123.8399999999997,2.352103797698482
266,2133.64,2.19515601786253
267,2143.4900000000002,2.25648414731313
268,2153.38,2.3465802041929704
269,2163.32,2.282648170359362
270,2173.31,2.2720680458123055
271,2183.34,2.240984848694489
272,2187.7616199999998,2.289663337144835
273,2193.42,2.35197601155061
274,2203.54,2.2984656501617913
275,2213.71,2.200176361098126
276,2223.9300000000003,2.1401891443596157
277,2234.2000000000003,2.2875539999462586
278,2244.51,2.1943379133930256
279,2254.87,2.1193128991649464
280,2265.28,2.173271957262021
281,2275.74,2.2336570876842496
282,2286.24,2.2903652759666016
283,2296.79,2.1719435365741075
284,2307.39,2.181349869506768
285,2312.71,2.0975115649031597
286,2323.39,1.6852510135560663
287,2334.11,1.9748185200690962
288,2344.89,1.9206251133723107
289,2355.71,2.0717657645356486
290,2366.58,1.924201488024141
291,2377.5099999999998,1.9822922983028177
292,2382.9900000000002,1.8497612251397024
293,2393.99,1.972341136673595
294,2405.04,1.9007131205326417
295,2416.14,1.9445221767168424
296,2427.29,2.0544853052261973
297,2432.89,1.9800304056434517
298,2444.12,2.0871366498730533
299,2455.4,2.0627299664278085
300,2466.73,2.0527823553077176
301,2472.42,1.9875085859102493
302,2483.83,2.047327090510405
303,2495.29,1.914792667435715
304,2506.81,2.1329653311512096
305,2511.88643,1.9563023709218115
306,2512.59,1.9318162803398924
307,2518.38,1.9856190388965387
308,2524.19,1.9092277862564893
309,2535.8399999999997,1.9308582641813472
310,2547.54,1.9039167141144664
311,2553.42,2.020961422285983
312,2565.2000000000003,1.9883288274323196
313,2577.04,2.09091719898857
314,2582.9800000000005,2.07626787357
315,2594.9100000000003,2.0567061947411207
316,2606.8799999999997,2.00023649351885
317,2612.89,1.9771641289118453
318,2624.95,2.060214377304445
319,2637.07,2.1028065921069583
320,2643.15,2.2527041883115193
321,2655.3500000000004,2.28337035832725
322,2667.61,2.1109954947528946
323,2673.76,2.2001100517690215
324,2686.1000000000004,2.194434143407884
325,2692.29,2.1100016780306197
326,2704.72,2.158456719284352
327,2717.2000000000003,2.075202732546346
328,2723.4599999999996,2.079704227980647
329,2736.04,2.1719281852591634
330,2742.3399999999997,1.9356546583000735
331,2755.0,1.9665245707918075
332,2767.7200000000003,2.0304204496934553
333,2774.1,2.116019877947583
334,2786.9,2.0296377120624487
335,2793.33,1.688084112324838
336,2806.22,1.7999248960545735
337,2812.69,2.1142352739235717
338,2825.67,2.1879190072681776
339,2832.19,2.108551357145437
340,2845.26,2.0741560401049126
341,2851.8199999999997,2.026658367588781
342,2864.9799999999996,2.165999000163127
343,2878.21,2.150552593549039
344,2884.0315,2.158963728814781
345,2884.84,2.1601323252077878
346,2898.1600000000003,2.1396081725986185
347,2911.5299999999997,2.281501019416592
348,2931.71,2.2132867882114087
349,2952.0400000000004,2.191969555287654
350,2972.5,2.22148732087447
351,2993.1000000000004,2.225803084857286
352,3006.92,2.2455289265195444
353,3027.7599999999998,2.2445566877526457
354,3048.75,2.243576447267175
355,3069.8799999999997,2.2478822051777043
356,3091.16,2.262341961369662
357,3112.59,2.2509977158430474
358,3126.9599999999996,2.229686551203876
359,3148.63,2.2439623029275473
360,3170.46,2.242986052818075
361,3192.43,2.1558318011046027
362,3207.1699999999996,2.2105406322262873
363,3229.4,2.1442863775339576
364,3251.78,2.2287301211230557
365,3266.79,2.274647949151311
366,3289.44,2.26310968964698
367,3311.31121,2.262171279267991
368,3312.2400000000002,2.2621312356450476
369,3319.88,2.287929562359182
370,3327.53,2.2980928868831505
371,3335.2,2.3619992070267903
372,3342.89,2.2294935227901003
373,3350.59,2.3342438363632456
374,3358.32,2.2494231433658967
375,3366.06,2.2130694481783832
376,3373.82,2.1327427486105397
377,3381.6000000000004,2.217555044662367
378,3389.39,2.31097933852403
379,3397.21,2.258010625815198
380,3405.0399999999995,2.247253910916202
381,3412.89,2.205827191636876
382,3420.75,2.2828324701673854
383,3428.64,2.2773507421274006
384,3436.54,2.287320011897251
385,3444.4700000000003,2.144252275096607
386,3452.4100000000003,2.350630536105798
387,3460.36,2.208562794924825
388,3468.3399999999997,2.2185180471733577
389,3476.34,2.1927182950415607
390,3484.35,2.2126515407195986
391,3492.38,2.2275137820173074
392,3500.43,2.1614540189346867
393,3508.5,2.2013182514717364
394,3516.59,2.145809479628457
395,3524.7000000000003,2.2208507034048472
396,3532.8199999999997,2.261701924991073
397,3540.97,2.292768140006805
398,3549.1299999999997,2.3349743528323716
399,3557.3100000000004,2.2814285612776097
400,3563.81,2.4835041376705242
401,3566.47,2.5394015550867017
402,3569.1299999999997,2.3711379725028796
403,3571.8,2.548777387728892
404,3574.46,2.5300198051450695
405,3577.12,2.3963472225612468
406,3579.79,2.1315266377872595
407,3582.45,2.0777870552034368
408,3585.11,2.3519834726196143
409,3587.7799999999997,2.0883348878456274
410,3590.4399999999996,2.209312305261805
411,3593.1000000000004,2.4108077226779825
412,3595.77,2.415489137903995
413,3598.4300000000003,2.1614295553201726
414,3601.1,2.3584169705461853
415,3603.7599999999998,2.596459387962363
416,3606.42,2.0420188053785404
417,3609.0899999999997,2.229626220604553
418,3611.7500000000005,2.3421996380207304
419,3614.4100000000003,2.098302055436908
420,3617.08,2.3050624706629206
421,3619.7400000000002,2.389101888079098
422,3622.4,2.1741293054952755
423,3625.07,2.1457827207212885
424,3627.73,2.288844138137466
425,3630.39,2.3597905555536434
426,3633.0600000000004,2.303886970779656
427,3635.7200000000003,2.282393388195833
428,3638.38,2.283569805612011
429,3641.05,2.0918412208380235
430,3643.71,2.303499638254201
431,3646.37,2.2327560556703783
432,3649.04,2.2706614708963913
433,3651.7,2.369749888312569
434,3654.37,2.3216643035385816
435,3657.03,2.148123720954759
436,3659.69,2.4578891383709363
437,3662.36,2.222969553596949
438,3665.02,2.2982159710131267
439,3667.68,2.2563963884293043
440,3670.35,2.4957928036553167
441,3673.0099999999998,2.2880522210714944
442,3675.6699999999996,2.3974986384876718
443,3678.34,2.2882420537136845
444,3681.0,2.371891471129862
445,3683.6600000000003,2.222974888546039
446,3686.33,2.1989283037720524
447,3688.99,2.35156572118823
448,3691.65,2.2067531386044075
449,3694.3199999999997,2.3726675538304196
450,3696.9800000000005,2.2841399712465975
451,3699.65,2.1690213864726102
452,3702.31,2.3980728038887875
453,3704.9700000000003,2.261859221304965
454,3707.64,2.3609356365309777
455,3710.3,2.1442040539471554
456,3712.96,2.424459471363333
457,3715.6299999999997,2.4246458865893454
458,3718.2900000000004,2.8495213040055227
459,3720.9500000000003,3.8691027214217004
460,3723.6200000000003,5.640883136647713
461,3726.28,7.538355554063891
462,3728.94,7.883504971480067
463,3731.61,6.2856163867060815
464,3734.27,4.5318098041222585
465,3736.93,3.1997412215384355
466,3739.6000000000004,2.9022806367644485
467,3742.26,2.773690054180626
468,3744.92,2.915579471596803
469,3747.59,2.636685886822816
470,3750.25,2.5592983042389936
471,3752.92,2.5415047194650064
472,3755.58,2.849121136881184
473,3758.24,2.8350545542973613
474,3760.9100000000003,2.8930869695233743
475,3763.57,2.8690543869395517
476,3766.23,2.7303008043557293
477,3768.9,2.811005219581742
478,3771.56,2.626324636997919
479,3774.22,2.633560054414097
480,3776.89,2.7922424696401094
481,3779.5499999999997,3.0295028870562866
482,3782.2099999999996,3.395555304472464
483,3784.88,3.3990607196984772
484,3787.54,3.236466137114655
485,3790.2000000000003,3.063512554530832
486,3792.87,2.9130179697568446
487,3795.5299999999997,2.698827387173022
488,3798.2,2.4576548023990346
489,3800.8599999999997,2.547948219815212
490,3801.8939600000003,2.6674446163534613
491,3803.5200000000004,2.855368711435222
492,3806.19,3.028317248505859
493,3808.85,3.132487787310313
494,3811.51,3.4019963261147677
495,3814.18,3.462372863185404
496,3816.84,3.4281774019898585
497,3819.5,3.208906940794313
498,3822.1699999999996,3.2348884778649496
499,3824.8300000000004,3.276716016669404
500,3827.4900000000002,2.9968615554738585
501,3830.1600000000003,2.6933430925444948
502,3832.82,2.5434506313489496
503,3835.48,2.333559170153404
504,3838.15,2.3399997072240404
505,3840.81,2.594067246028495
506,3843.47,2.9138007848329495
507,3846.1400000000003,3.0955433219035857
508,3848.8,3.4168408607080405
509,3851.4700000000003,3.380282397778677
510,3854.13,3.3107149365831314
511,3856.79,3.4228984753875857
512,3859.46,3.4043210124582224
513,3862.12,3.5690765512626768
514,3864.7799999999997,3.6165730900671313
515,3867.4500000000003,3.7689986271377673
516,3870.11,3.9384451659422224
517,3872.77,3.5905797047466765
518,3875.44,3.4785842418173134
519,3878.1,3.4690137806217676
520,3880.7599999999998,3.3353433194262223
521,3883.43,3.0539088564968586
522,3886.0899999999997,2.976912395301313
523,3888.7500000000005,2.9390039341057674
524,3891.42,2.9817934711764043
525,3894.08,3.1551470099808583
526,3896.7400000000002,3.213587548785313
527,3899.41,3.375785085855949
528,3902.07,3.537609624660404
529,3904.74,3.68847216173104
530,3907.3999999999996,3.706848700535495
531,3910.0600000000004,3.9202682393399493
532,3912.73,3.907746776410586
533,3915.3900000000003,3.9423453152150403
534,3918.05,3.988278854019495
535,3920.72,3.9972543910901313
536,3923.38,3.9286649298945857
537,3926.04,3.87707646869904
538,3928.71,3.4500420057696766
539,3931.3700000000003,3.137550544574131
540,3934.03,3.056060083378586
541,3936.7000000000003,3.242101620449222
542,3939.36,3.5725841592536765
543,3942.02,3.651545698058131
544,3944.69,3.647038235128768
545,3947.35,3.6917977739332217
546,3950.02,3.6489863110038585
547,3952.6800000000003,3.724038849808313
548,3955.34,3.6275003886127677
549,3958.01,3.4494489256834036
550,3960.67,3.1099874644878582
551,3963.33,2.972993003292313
552,3966.0,2.8082335403629495
553,3968.66,2.5832940791674037
554,3971.3199999999997,2.608117617971858
555,3973.9900000000002,2.7046521550424947
556,3976.65,2.8670616938469493
557,3979.31,2.9384002326514036
558,3981.98,3.27785676972204
559,3984.64,3.5262583085264945
560,3987.2999999999997,3.584502847330949
561,3989.97,3.7009683844015853
562,3992.6299999999997,3.77758492320604
563,3995.2900000000004,3.7467124620104943
564,3997.96,3.6855289990811313
565,4000.62,3.5917265378855854
566,4003.29,3.648781074956222
567,4005.95,3.6593406137606763
568,4008.61,3.823119152565131
569,4011.2799999999997,3.824474689635767
570,4013.9399999999996,3.757057228440222
571,4016.6000000000004,3.7232527672446762
572,4019.27,3.791055304315313
573,4021.9300000000003,3.857899843119767
574,4024.59,3.784813381924222
575,4027.2599999999998,3.8176339189948583
576,4029.92,3.831125457799313
577,4032.58,3.974188996603767
578,4035.25,4.077754533674403
579,4037.9100000000003,4.099064072478859
580,4040.57,3.943895611283313
581,4043.2400000000002,3.854961148353949
582,4045.9,3.848518687158404
