,lambda (Angstroms),Total Flux (erg/s/cm^2/Angstrom)
0,101.99,0.00675524474796946
1,103.89,0.007907728604898327
2,104.712855,0.008408464342963782
3,106.07000000000001,0.007748848415539707
4,108.03999999999999,0.006802906021830821
5,110.05,0.005877013187640525
6,113.91,0.004045940281185536
7,117.92,0.0021440450229253
8,120.22644299999999,0.0018313146026397195
9,120.94000000000001,0.0020733844012225003
10,124.89999999999999,0.002286374779709933
11,126.92999999999999,0.0023581341050456627
12,128.10999999999999,0.0024237351168171703
13,131.09,0.0025229300279011467
14,132.0,0.002868088104775784
15,134.14000000000001,0.0029287083295139417
16,136.95000000000002,0.003487089577885074
17,138.038426,0.003540345710233238
18,140.14000000000001,0.0036898793172792602
19,143.07999999999998,0.009233096266855475
20,147.09,0.020931612640257048
21,150.86,0.021960615283080968
22,155.09,0.023357083659512053
23,158.489319,0.024682475498905915
24,159.06,0.02490473448223968
25,162.02,0.025949734154005692
26,166.18,0.027788593692703867
27,170.04999999999998,0.0290893057635601
28,172.81,0.03031369545750408
29,176.83999999999997,0.031732767510617946
30,180.12,0.03276595714689919
31,181.79000000000002,0.03352550946171313
32,181.970086,0.03358519350988492
33,186.03,0.03493743757866567
34,190.8,0.03666844648037004
35,193.9,0.03804118356533515
36,197.96,0.03937633684435396
37,202.1,0.04095002230621059
38,204.91,0.04199970272838863
39,208.929613,0.04192747656559113
40,210.17000000000002,0.0419077200237548
41,216.06,0.045849079284304
42,220.07999999999998,0.04746235013785371
43,223.14000000000001,0.04791075571294379
44,226.76000000000002,0.04971152936713532
45,229.92,0.07517259924206493
46,234.19,0.12496310084521352
47,239.88329199999998,0.15592549856161236
48,240.2,0.15764647219110633
49,245.79,0.14611702262537507
50,252.1,0.15440082409947803
51,256.79,0.12580928573395395
52,259.76,0.14812120877327026
53,263.98,0.15579671625674324
54,268.89,0.15436733515339074
55,273.89,0.15223087293001752
56,275.42287,0.15128894288310432
57,278.98,0.1491179308390457
58,284.17,0.14879068189150974
59,290.12,0.14048446585339044
60,296.19,0.13985700764307382
61,301.0,0.1345101422408295
62,308.02,0.1351342251672837
63,316.227766,0.13514917568306822
64,318.11,0.1351455978925007
65,327.77,0.13206959532399576
66,337.72999999999996,0.12728072062603416
67,347.98999999999995,0.12266707379861588
68,356.92,0.12125142007845553
69,363.078055,0.12237014526729552
70,366.08000000000004,0.12292391591412626
71,374.6,0.11932238068150076
72,385.1,0.11009737740185667
73,394.97999999999996,0.11423531260158203
74,405.10999999999996,0.11504145486607778
75,413.59,0.11192297050308901
76,416.86938299999997,0.11002234339172645
77,422.25,0.10690126363375489
78,430.1,0.10352074862270834
79,441.14,0.10329188445430657
80,451.41,0.10026135284112848
81,459.8,0.09532588577836663
82,470.51000000000005,0.09273887841934644
83,478.630092,0.09274169182608263
84,480.37000000000006,0.09273933128100936
85,490.43,0.08655300090357064
86,499.53999999999996,0.08856055845441886
87,506.49,0.08399743308431955
88,512.36,0.09377840125374645
89,519.48,0.09081348162279579
90,530.36,0.08612556892830936
91,540.22,0.07836957179893105
92,549.5408739999999,0.07557574812966363
93,550.27,0.07535767629248584
94,560.5,0.08017797906679776
95,569.6,0.08204007721403514
96,580.19,0.07889436677219382
97,589.62,0.07780942113795739
98,600.58,0.07097433433506967
99,610.34,0.062402134919359434
100,620.26,0.07328681518535887
101,630.34,0.06951179513306797
102,630.957344,0.06960893877097657
103,640.58,0.07113024015261331
104,649.4900000000001,0.06825526721620609
105,658.53,0.06444396938847081
106,664.6199999999999,0.06716948101779517
107,675.4200000000001,0.06717479927669551
108,684.81,0.06086472981846164
109,694.3399999999999,0.06402037970802832
110,705.62,0.05668681144510201
111,715.4399999999999,0.06228568426939843
112,724.43596,0.0615207907302493
113,725.3900000000001,0.06143949788051435
114,735.48,0.0604638515200406
115,745.71,0.058153668926616775
116,754.35,0.056701942835983156
117,764.8399999999999,0.05032835295279489
118,775.48,0.05453989924858867
119,784.46,0.05079570516364772
120,795.38,0.05197771899354134
121,804.59,0.05185940038303953
122,815.78,0.05115450933510086
123,825.23,0.050572778610970336
124,831.763771,0.04571551399763414
125,834.78,0.04347090854147346
126,844.45,0.04818983393520472
127,854.23,0.04687658148956788
128,864.12,0.046978911204562934
129,874.12,0.04633268308018989
130,884.25,0.04558880660019998
131,894.48,0.04485756753896636
132,904.8399999999999,0.04353427012211588
133,915.32,0.04313114960777292
134,925.92,0.0778123359959375
135,934.49,0.1126591897833498
136,945.3100000000001,0.14244530049277815
137,954.0500000000001,0.1601741048920761
138,954.992586,0.16101563285819054
139,965.1,0.17004386924881487
140,974.0300000000001,0.08183004708301606
141,985.31,0.13856198961042807
142,994.4300000000001,0.13324433165386754
143,1005.94,0.159064975066147
144,1015.25,0.16090380131882484
145,1024.64,0.11084932092276088
146,1034.1200000000001,0.14080593304686245
147,1046.1,0.18345103739778407
148,1055.78,0.17641493290003124
149,1065.55,0.15086232092244398
150,1075.41,0.16276080146502217
151,1085.36,0.13918687452776593
152,1095.4,0.1638873401106752
153,1096.4782,0.1630654473129091
154,1105.54,0.15615619337424896
155,1115.77,0.15154703237758888
156,1126.09,0.13476654797040105
157,1133.89,0.15543361905799163
158,1144.39,0.14707628782974816
159,1154.98,0.14673403319097691
160,1165.66,0.14405905514167788
161,1173.74,0.10343135339651528
162,1184.6,0.1363138285261606
163,1195.56,0.11656837764410842
164,1203.8500000000001,0.09991620127438096
165,1214.99,0.07865334357127314
166,1226.23,0.11234659985646778
167,1234.73,0.13197998886217543
168,1246.16,0.13504711572514472
169,1254.79,0.1307651709156456
170,1258.92541,0.12846598881101792
171,1266.41,0.12430683370481763
172,1275.1799999999998,0.13787039596692385
173,1284.02,0.1391449595241666
174,1295.9,0.11981767932733901
175,1304.8899999999999,0.11926644565987436
176,1313.93,0.13442851291750724
177,1326.0900000000001,0.12838033790122577
178,1335.28,0.11899370793415123
179,1344.54,0.12897277926221323
180,1353.8600000000001,0.12516955170039223
181,1366.38,0.11548748334481299
182,1375.8500000000001,0.1154887585582846
183,1385.3899999999999,0.11416483506689275
184,1395.0000000000002,0.09090891287063742
185,1404.66,0.08884380159947962
186,1414.4,0.10582177180847786
187,1424.2099999999998,0.10341065331261265
188,1434.0800000000002,0.10557333592686448
189,1440.7,0.10704285840977704
190,1445.43977,0.10704244718160924
191,1447.3500000000001,0.10704227576776831
192,1454.03,0.1034119794981295
193,1464.1100000000001,0.09740819602538109
194,1474.26,0.09740899363962749
195,1484.47,0.09785615218558372
196,1494.76,0.09696365197381972
197,1505.13,0.0921749930043355
198,1512.0700000000002,0.08484838077210595
199,1515.56,0.0876295349665611
200,1526.06,0.08622666801578152
201,1536.6399999999999,0.0752847423072817
202,1543.74,0.07140513255961169
203,1554.44,0.07010397871453154
204,1565.21,0.07546244595644619
205,1576.06,0.07919621444064062
206,1583.33,0.08085366733281513
207,1594.31,0.0810357978357142
208,1605.3600000000001,0.07883034942560806
209,1616.4899999999998,0.07757154225778169
210,1623.95,0.07528552810037066
211,1635.21,0.07828703295124895
212,1646.54,0.07811009888912201
213,1654.14,0.0752859469057006
214,1659.58691,0.07662728202558602
215,1665.61,0.07811109451671809
216,1673.3,0.07157574657584938
217,1677.15,0.07974783317242357
218,1684.89,0.07993222090164023
219,1696.57,0.07599025543358476
220,1704.41,0.07357985450297219
221,1716.22,0.0699506237771387
222,1724.14,0.06883825191866275
223,1736.0900000000001,0.07207834706906832
224,1744.1100000000001,0.0704378465507631
225,1756.2,0.07258034757740775
226,1764.3,0.06868120613123915
227,1776.53,0.06805314303412285
228,1784.73,0.069001502928125
229,1792.97,0.07142301735819546
230,1805.4,0.07077317694142068
231,1813.73,0.06575557157764482
232,1826.3,0.0666656270371091
233,1834.73,0.06485404301350399
234,1843.2,0.0599808335259672
235,1855.98,0.06025661279979007
236,1864.5400000000002,0.06166239351840695
237,1873.15,0.06426646990710921
238,1886.13,0.0597119518612736
239,1894.8400000000001,0.057953839590146626
240,1903.59,0.06068153185508795
241,1905.46072,0.06035140661554974
242,1916.78,0.058350959390146444
243,1925.63,0.05598794573199083
244,1934.5200000000002,0.05689614622679271
245,1943.4499999999998,0.06025675087455209
246,1956.92,0.056241601882986436
247,1965.9499999999998,0.060952901913139526
248,1975.0300000000002,0.06151062463448948
249,1984.14,0.05983706297055755
250,1993.3000000000002,0.058608753997822484
251,2007.1200000000001,0.05955898384463485
252,2016.38,0.058605480254293504
253,2025.69,0.05860409935514902
254,2035.04,0.05767201260896202
255,2044.43,0.05969376001573252
256,2053.87,0.05457099011369986
257,2063.35,0.05558074436462471
258,2072.87,0.060797732768507036
259,2077.65,0.07108240404692695
260,2087.24,0.07992977221848488
261,2096.88,0.07494121308123967
262,2106.56,0.07408466809695197
263,2116.28,0.07864515726562174
264,2126.0499999999997,0.07442098912548838
265,2135.86,0.0710736051383125
266,2145.7200000000003,0.07955552384233348
267,2155.62,0.08028634669931196
268,2165.57,0.07373796224748728
269,2175.57,0.07390244048685948
270,2185.61,0.08310025287918918
271,2187.7616199999998,0.08305972929871519
272,2195.7,0.08291230354299167
273,2205.83,0.08121394414466551
274,2216.0099999999998,0.06929458057359342
275,2226.24,0.07493300282977539
276,2236.52,0.08986772091321144
277,2246.84,0.08622180365845072
278,2257.21,0.07239790223094408
279,2262.42,0.0692993394308178
280,2272.8599999999997,0.07357244616146685
281,2283.35,0.08945372871936998
282,2293.89,0.07702831710452716
283,2304.48,0.08822397131693842
284,2315.12,0.07773509135660374
285,2325.8,0.0642289360580723
286,2336.54,0.06276670775224576
287,2347.32,0.05174464410822246
288,2352.73,0.07322145461711244
289,2363.59,0.05393163029669565
290,2374.5,0.06148034180353293
291,2385.46,0.04752416913762427
292,2396.47,0.05331050229896968
293,2407.54,0.05282125245301997
294,2413.09,0.05738005927822133
295,2424.22,0.0810029064249765
296,2435.41,0.08137519056443655
297,2446.65,0.09341614053115066
298,2452.3,0.09826309901086017
299,2463.61,0.08539714713572998
300,2474.99,0.07771085341875547
301,2486.41,0.05517252436358422
302,2492.14,0.06090235216690023
303,2503.64,0.08737604243533549
304,2511.88643,0.06061789458620825
305,2515.2000000000003,0.04986543405425274
306,2526.81,0.04686423037341987
307,2532.64,0.06494324740535307
308,2544.3300000000004,0.06706211011603902
309,2556.0699999999997,0.11276557057142422
310,2567.87,0.08595913832044852
311,2573.7900000000004,0.10744407129284038
312,2585.67,0.09620635543338349
313,2597.6,0.08754520731862586
314,2603.59,0.07767884713359668
315,2615.6099999999997,0.07150231495929771
316,2627.68,0.092078810529698
317,2633.74,0.1555770671872478
318,2645.9,0.20504581869810673
319,2652.0,0.2909162435514159
320,2664.24,0.18065379145379365
321,2676.5299999999997,0.20502313710087067
322,2682.7000000000003,0.2397477587967588
323,2695.09,0.17250769993323434
324,2707.53,0.2156400388144091
325,2713.77,0.1555249573528762
326,2726.29,0.12046699262556979
327,2732.58,0.15408730890873615
328,2745.19,0.09161041012188839
329,2757.8599999999997,0.12184226862867974
330,2764.22,0.15838448175442504
331,2776.98,0.16775490620167507
332,2783.3799999999997,0.10347041752317976
333,2796.23,0.05434482791088844
334,2802.67,0.06310263742815256
335,2815.61,0.1477904637563199
336,2822.1000000000004,0.21406457101828325
337,2835.13,0.20069548328690925
338,2848.21,0.1417745933002345
339,2854.78,0.08429480695371667
340,2867.96,0.19929050245644045
341,2874.57,0.2808093043056821
342,2884.0315,0.2611021487634563
343,2887.8399999999997,0.25316967401947765
344,2894.5,0.3194214678716
345,2907.8500000000004,0.4388471555481514
346,2928.0099999999998,0.37870023693835947
347,2948.31,0.3461522181993329
348,2968.7400000000002,0.36243749934030267
349,2989.3199999999997,0.3674522803428067
350,3010.04,0.3665790612160761
351,3030.91,0.3963972419508798
352,3051.92,0.41313202255644876
353,3073.07,0.4592512030327831
354,3087.26,0.4456828899339266
355,3108.66,0.5296398701794847
356,3130.2000000000003,0.4852406502958082
357,3151.9,0.4885638302644349
358,3166.4500000000003,0.5418576168332607
359,3188.4,0.4622422965711112
360,3210.5,0.5138359761704959
361,3232.75,0.4283584556314151
362,3247.68,0.620504341849461
363,3270.19,0.732343621070373
364,3292.86,0.7172805001435881
365,3308.05,0.6647265861216267
366,3311.31121,0.6570862109261203
367,3323.32,0.6289517712015937
368,3330.99,0.6555751358551858
369,3338.66,0.5869903005087778
370,3346.3599999999997,0.6911886646329836
371,3354.07,0.6676830285807273
372,3361.81,0.6089345919990848
373,3369.56,0.6216858552409803
374,3377.3199999999997,0.6019454183064137
375,3385.11,0.6074845808424609
376,3392.9100000000003,0.680001243202046
377,3400.73,0.757732005208707
378,3408.57,0.6768809668624438
379,3416.43,0.6004907281632565
380,3424.31,0.7628929891111451
381,3432.2000000000003,0.8061988498825716
382,3440.11,0.6893590103010739
383,3448.04,0.5488490703666521
384,3455.99,0.6643968300793063
385,3463.96,0.5526130894390362
386,3471.94,0.706949748622304
387,3479.95,0.5277149072761856
388,3487.9700000000003,0.6286223657536052
389,3496.0099999999998,0.5852646238781006
390,3504.07,0.7858634816496719
391,3512.15,0.711735239068319
392,3520.2400000000002,0.7894140963105042
393,3528.3599999999997,0.510888653023303
394,3536.49,0.7350277095596398
395,3538.4700000000003,0.9359471746201499
396,3541.17,0.827284626975391
397,3543.87,0.7759123793306318
398,3546.58,0.9399816315094108
399,3549.28,0.9476758838646517
400,3551.98,0.7545559362198928
401,3554.6899999999996,0.7750486883986718
402,3557.3900000000003,0.8001720407539127
403,3560.09,0.7585365931091537
404,3562.7999999999997,0.6392183452879328
405,3565.5,0.7297013976431737
406,3568.2000000000003,0.7279813499984147
407,3570.91,0.6214123021771937
408,3573.6099999999997,0.7026965545324346
409,3576.31,0.7694028068876756
410,3579.02,0.6241557590664545
411,3581.72,0.6180244114216956
412,3584.4199999999996,0.5505673637769366
413,3587.13,0.5249485159557155
414,3589.83,0.5937629683109564
415,3592.5299999999997,0.7288418206661975
416,3595.2400000000002,0.8442812728449764
417,3597.94,0.8042599252002174
418,3600.64,0.7573526775554584
419,3603.3500000000004,0.7865062297342374
420,3606.05,0.7014589820894784
421,3608.75,0.7378252344447194
422,3611.46,0.7509482866234982
423,3614.1600000000003,0.7046327389787393
424,3616.86,0.7014062913339804
425,3619.5699999999997,0.7875819435127592
426,3622.2700000000004,0.8124363958680002
427,3624.9700000000003,0.8460592482232413
428,3627.68,0.9041001004020202
429,3630.38,0.8347609527572611
430,3633.0800000000004,0.8238421051125021
431,3635.79,0.7930688572912812
432,3638.49,0.8519212096465222
433,3641.19,0.8350850620017631
434,3643.9,0.799201314180542
435,3646.6,0.7498194665357831
436,3649.2999999999997,0.819807418891024
437,3652.0099999999998,0.822547871069803
438,3654.71,0.943371323425044
439,3657.41,0.909213575780285
440,3660.12,0.9185165279590639
441,3662.82,1.060696180314305
442,3665.52,0.942512032669546
443,3668.23,0.9222820848483249
444,3670.93,0.9024337372035659
445,3673.63,0.8743545895588068
446,3676.34,0.8377175417375858
447,3679.04,0.8753749940928268
448,3681.7400000000002,0.8768828464480678
449,3684.4500000000003,0.8363726986268467
450,3687.15,0.8593980509820878
451,3689.85,0.9152920033373287
452,3692.56,1.0196496555161079
453,3695.26,1.0289576078713487
454,3697.96,1.0445595602265898
455,3700.6699999999996,0.9992613124053686
456,3703.3700000000003,0.8965158647606096
457,3706.07,0.8917836171158506
458,3708.7799999999997,0.8491753692946296
459,3711.4799999999996,0.8524583216498706
460,3714.1800000000003,0.9077604740051115
461,3716.89,0.9317494261838905
462,3719.5899999999997,0.8391171785391316
463,3722.29,0.7014049308943725
464,3725.0,0.7832771830731514
465,3727.7,0.8214725354283925
466,3730.3999999999996,0.7421272877836335
467,3733.11,0.6755272399624124
468,3735.81,0.6895149923176533
469,3738.5099999999998,0.6345382446728944
470,3741.2200000000003,0.7356691968516733
471,3743.92,0.6952709492069143
472,3746.62,0.7118407015621553
473,3749.3300000000004,0.6953771537409343
474,3752.03,0.7677856060961753
475,3754.73,0.8080251584514162
476,3757.44,0.7747236106301951
477,3760.1400000000003,0.7519699629854363
478,3762.84,0.8209356153406772
479,3765.5499999999997,0.8370709675194561
480,3768.25,0.8390090198746971
481,3770.9500000000003,0.8875868722299382
482,3773.66,0.9434221244087171
483,3776.36,0.981079676763958
484,3779.0600000000004,0.9777462291191991
485,3781.77,0.969996281297978
486,3784.47,0.986028833653219
487,3787.18,0.9049038858319979
488,3789.88,0.8366404381872389
489,3792.58,0.82733539054248
490,3795.29,0.7626718427212589
491,3797.99,0.7300199950764998
492,3800.69,0.7936600474317408
493,3801.8939600000003,0.8214531984402941
494,3803.4,0.8562198051479237
495,3806.1,0.9238943674305177
496,3808.8,0.8927492297131115
497,3811.51,0.7839203918560114
498,3814.21,0.7778968541386052
499,3816.91,0.8124879164211991
500,3819.6200000000003,0.7153326785640989
501,3822.32,0.6502429408466929
502,3825.02,0.6567532031292868
503,3827.7299999999996,0.5601364652721866
504,3830.4300000000003,0.5138152275547805
505,3833.13,0.5648185898373743
506,3835.8399999999997,0.5872487519802742
507,3838.5399999999995,0.5704121142628681
508,3841.2400000000002,0.5423323765454621
509,3843.95,0.6763318386883618
510,3846.6499999999996,0.6567519009709557
511,3849.3500000000004,0.6939247632535496
512,3852.06,0.6964507253964494
513,3854.7599999999998,0.7072106876790433
514,3857.4599999999996,0.6509968499616372
515,3860.17,0.6921471121045369
516,3862.87,0.7107072743871309
517,3865.5699999999997,0.6800456366697248
518,3868.28,0.7656836988126247
519,3870.98,0.7427148610952184
520,3873.68,0.7367450233778124
521,3876.3900000000003,0.7356126855207122
522,3879.09,0.7128589478033062
523,3881.79,0.6973136100859001
524,3884.5,0.7164618722287999
525,3887.2000000000003,0.7640173345113938
526,3889.9,0.8578359967939877
527,3892.61,0.9040421589368874
528,3895.31,0.9440129212194813
529,3898.01,0.9365370835020753
530,3900.72,0.941213845644975
531,3903.42,0.957461407927569
532,3906.1200000000003,0.9746770702101629
533,3908.83,1.0308892323530627
534,3911.5299999999997,1.0507941946356567
535,3914.23,1.0697321569182505
536,3916.94,1.0379361190611502
537,3919.64,0.9730616813437442
538,3922.34,0.8829037436263381
539,3925.0499999999997,0.7397006057692379
540,3927.75,0.6868220680518319
541,3930.45,0.5542200303344258
542,3933.16,0.42604269247732557
543,3935.86,0.47097765475991943
544,3938.56,0.5531440170425134
545,3941.27,0.6468516791854131
546,3943.97,0.8046315414680071
547,3946.67,0.911468603750601
548,3949.38,0.9949540658935008
549,3952.08,1.0088346281760947
550,3954.7799999999997,1.0030805904586886
551,3957.4900000000002,0.9294325526015883
552,3960.19,0.8841393148841822
553,3962.89,0.7554645771667762
554,3965.6000000000004,0.646044439309676
555,3968.3,0.5895615015922699
556,3971.0,0.6315221638748637
557,3973.7099999999996,0.7339980260177636
558,3976.4100000000003,0.8862910883003575
559,3979.11,1.0738192505829514
560,3981.8199999999997,1.1640832127258511
561,3984.5199999999995,1.2463901750084452
562,3987.2200000000003,1.316863137291039
563,3989.93,1.2807620994339388
564,3992.6299999999997,1.3421980617165328
565,3995.3300000000004,1.3468800239991265
566,3998.04,1.3271869861420265
567,4000.74,1.3789929484246204
568,4003.4399999999996,1.4440869107072143
569,4006.15,1.427728872850114
570,4008.85,1.498738835132708
571,4011.5499999999997,1.588631797415302
572,4014.26,1.5461297595582015
573,4016.96,1.5274117218407954
574,4019.66,1.5264456841233893
575,4022.37,1.5349396462662892
576,4025.07,1.5111116085488832
577,4027.77,1.479052570831477
578,4030.48,1.4263835329743768
579,4033.1800000000003,1.4424164952569707
580,4035.89,1.4722134573998706
581,4038.59,1.4847504196824646
