,lambda (Angstroms),Total Flux (erg/s/cm^2/Angstrom)
0,101.98,4.758438956083836
1,104.11,4.743241626564018
2,104.712855,4.7389410363020525
3,106.05,4.688814637796201
4,108.02000000000001,4.614966396812403
5,110.03,4.539628848418277
6,113.9,4.394562948273764
7,117.9,4.244624912450675
8,120.22644299999999,4.157659502635854
9,120.92,4.135935558784367
10,124.88000000000001,4.011553468868859
11,126.91,3.947779075824546
12,128.09,3.910717247801743
13,131.07,3.817094892462801
14,131.98,3.7886053693774184
15,134.12,3.721374248332675
16,136.93,3.633242418058033
17,138.038426,3.5984248301223296
18,140.12,3.5517003911406024
19,143.06,3.487505326358138
20,147.06,3.401655420477233
21,150.84,3.3170550808997787
22,155.06,3.222673640715424
23,158.489319,3.146034495348965
24,159.04000000000002,3.1367463929349024
25,162.0,3.0867942650236864
26,166.15,3.0168907257022166
27,170.02,2.9515843931831593
28,173.18,2.8982885394130764
29,176.80999999999997,2.83704830972466
30,180.10000000000002,2.7814781222963134
31,181.970086,2.7499364331791925
32,182.18,2.747241307952393
33,185.99999999999997,2.698173295726492
34,191.20999999999998,2.6311925149419513
35,193.87,2.5971669307218206
36,197.93,2.544927722701622
37,202.07,2.491785382749991
38,204.88,2.4557103499084247
39,208.929613,2.4031611419440613
40,210.14000000000001,2.3913474827596297
41,216.03,2.335189752379573
42,220.04,2.2966375817812654
43,223.1,2.266966845115225
44,227.25,2.2271086579374257
45,229.88000000000002,2.2093553450512537
46,234.16,2.182945965335355
47,239.88329199999998,2.1361860069044
48,240.16,2.1345436634596116
49,245.76000000000002,2.0889536101134127
50,252.06,2.0440996388489396
51,256.75,2.0004694057964985
52,259.71999999999997,1.984460855057533
53,263.94,1.954908235893076
54,268.84999999999997,1.9173928446377484
55,273.85,1.8791114609357853
56,275.42287,1.8670753571966998
57,278.94,1.846301528589834
58,284.12,1.8160446917898168
59,290.07,1.7791578491141216
60,296.15,1.743929430900974
61,300.96000000000004,1.7148839360152435
62,307.97,1.6743097443418613
63,316.227766,1.626653656920821
64,318.06,1.618751636229742
65,327.72,1.5760827380638278
66,337.68,1.5317074745511468
67,347.94,1.4861064356916978
68,356.87000000000006,1.4468484868695843
69,363.078055,1.4199119275029624
70,366.02000000000004,1.410326050504964
71,375.40999999999997,1.3788700186314744
72,385.03999999999996,1.3454191078602598
73,394.92,1.3139447799039148
74,405.05,1.28078542476244
75,413.53000000000003,1.2523890970428238
76,416.86938299999997,1.2411519664751365
77,422.19,1.227300507314555
78,430.04,1.2070557096153764
79,441.07,1.1792677767336006
80,451.34000000000003,1.152933529807414
81,459.74,1.1311260781930061
82,470.44,1.103930265660368
83,478.630092,1.0833552721534856
84,480.29,1.0801286089817876
85,490.35,1.059795814826167
86,499.46999999999997,1.042375711834193
87,506.42,1.0283048283370195
88,512.28,1.0181807138487555
89,519.41,1.0040181669372672
90,530.28,0.9824070424172278
91,540.14,0.9623031587219574
92,549.5408739999999,0.9437291224471052
93,550.18,0.9427532499366659
94,560.41,0.9282406424627824
95,569.52,0.9150421409195686
96,580.11,0.8989852476108271
97,589.53,0.8849719482653745
98,600.49,0.8679286995152509
99,610.25,0.8515160235479877
100,620.1700000000001,0.8392111638763431
101,630.24,0.8239084401068412
102,630.957344,0.8228701325074926
103,640.4799999999999,0.8119366020224387
104,649.39,0.8011140798741959
105,658.43,0.7901025284016804
106,664.52,0.78332739390305
107,675.3199999999999,0.7707366231173012
108,684.71,0.7589611311563583
109,694.24,0.7482634330000449
110,705.52,0.7342440524015963
111,715.33,0.7234981018545411
112,724.43596,0.7127866496912989
113,725.28,0.7120427822100844
114,735.37,0.7032172030622823
115,745.6,0.6940631069391888
116,754.24,0.6864062421783357
117,764.73,0.6762003739582721
118,775.37,0.6678964658361104
119,784.35,0.6596215855638348
120,795.26,0.6503977484178963
121,804.47,0.6424334588290702
122,815.66,0.6327210997325486
123,825.1,0.624522082827172
124,831.763771,0.618120046052329
125,834.66,0.6159590138051921
126,844.3199999999999,0.6103702251994103
127,854.1,0.603891359753805
128,865.9799999999999,0.5962454226112908
129,876.01,0.5897359922493868
130,884.11,0.584397090561309
131,894.35,0.5777406642297139
132,904.7099999999999,0.5709185090582958
133,915.1800000000001,0.5649376182837061
134,925.78,0.5652470994326412
135,934.35,0.5678552096219216
136,945.1700000000001,0.5703104615645138
137,953.9100000000001,0.5719077107307111
138,954.992586,0.5714822684915941
139,964.96,0.5677019490740604
140,973.89,0.5359943871081312
141,985.1600000000001,0.5476902386696069
142,994.28,0.5424334998533389
143,1005.79,0.5462528743407024
144,1015.1,0.5398239286740953
145,1024.49,0.5136084506494509
146,1033.97,0.5180179362220143
147,1045.94,0.5309000046506626
148,1055.6200000000001,0.5230957193281324
149,1065.3899999999999,0.5070077776028102
150,1075.25,0.5069012894746957
151,1085.2,0.4906812649437892
152,1095.24,0.4957765340100906
153,1096.4782,0.4947075912641831
154,1105.37,0.48803273788565016
155,1115.6000000000001,0.48071200094028105
156,1125.92,0.47040941416841325
157,1133.73,0.47569668478001337
158,1144.22,0.4663685561136476
159,1154.8,0.4625447476207831
160,1165.49,0.4574453137844201
161,1176.27,0.4372744701215582
162,1184.43,0.4455841691856626
163,1195.39,0.428275755869803
164,1203.67,0.416246441831909
165,1214.81,0.4032751988630518
166,1226.05,0.41210939830919563
167,1234.55,0.4198666635843046
168,1245.97,0.4171881633774508
169,1254.61,0.41053463003356155
170,1258.92541,0.406403456588117
171,1266.22,0.40048587164778043
172,1274.99,0.40641273164111197
173,1283.83,0.40478008278604366
174,1295.7099999999998,0.3900842925147528
175,1304.69,0.3864344959628847
176,1313.7299999999998,0.3918876575409597
177,1325.89,0.38505452187606926
178,1335.08,0.37640323877900167
179,1344.34,0.37996412683353414
180,1353.65,0.37487260999635247
181,1366.1799999999998,0.3653256961327772
182,1375.6499999999999,0.3632212276421101
183,1385.18,0.359765317281386
184,1394.79,0.3490370910939192
185,1404.4499999999998,0.3460609900147383
186,1414.1899999999998,0.34546200310881453
187,1423.99,0.3422906943328338
188,1433.8600000000001,0.3387107967084532
189,1440.48,0.33797470704549487
190,1445.43977,0.336475961063408
191,1447.13,0.3361503381229627
192,1453.8100000000002,0.3329718900866537
193,1463.8899999999999,0.32723472298994793
194,1474.03,0.3245793558509998
195,1484.25,0.32244295532239525
196,1494.54,0.3200202130778414
197,1504.9,0.3151800991173382
198,1511.8500000000001,0.3095027458909388
199,1515.33,0.31060861344088564
200,1525.84,0.3069797543747767
201,1536.41,0.2997096652664254
202,1543.4999999999998,0.2991082686081274
203,1554.2,0.2950668277415845
204,1564.98,0.2933862634853852
205,1575.82,0.29246920918694364
206,1586.75,0.29092841982513856
207,1594.07,0.28946807467157837
208,1605.12,0.2858139852252888
209,1616.25,0.28284156238934277
210,1623.7099999999998,0.2793084738038839
211,1634.96,0.27825973088345324
212,1646.3,0.2756188728996592
213,1653.89,0.2715236625560086
214,1659.58691,0.2712001904456498
215,1665.36,0.27131029838502385
216,1673.0500000000002,0.26641411004208393
217,1676.9,0.2694970892982193
218,1684.64,0.2690774952313332
219,1696.3200000000002,0.26490063211747905
220,1704.15,0.26225038974748954
221,1715.96,0.2583903957513751
222,1723.88,0.2566465450782822
223,1735.83,0.2562734070551182
224,1743.8400000000001,0.25407268807892197
225,1755.93,0.2535100060287083
226,1764.04,0.24965970560461956
227,1776.27,0.24776721952735623
228,1784.46,0.24679936394495333
229,1796.8300000000002,0.24625797384064044
230,1805.13,0.24449199366555574
231,1813.46,0.2404256340561033
232,1826.03,0.2387363810560052
233,1834.46,0.2361038999986602
234,1842.93,0.2322733663621581
235,1855.7,0.2300089404662748
236,1864.27,0.22916084538188017
237,1872.8700000000001,0.2294907908631177
238,1885.8500000000001,0.22490378892666
239,1894.5600000000002,0.22228751981521566
240,1903.3,0.22217708126940366
241,1905.46072,0.22160644966595347
242,1916.4999999999998,0.21921404084508894
243,1925.3400000000001,0.2173650097011243
244,1934.23,0.21684941160498805
245,1943.1599999999999,0.21683438594711435
246,1956.63,0.21324154703204617
247,1965.6599999999999,0.214283367469829
248,1974.73,0.21367242034587441
249,1983.8500000000001,0.2111190362697481
250,1993.0,0.2092129740223187
251,2006.82,0.20807336644204838
252,2016.0800000000002,0.20603924089984116
253,2025.3899999999999,0.2056020884054622
254,2034.7299999999998,0.2032083877397802
255,2044.13,0.20286571073149207
256,2053.56,0.19996796555190094
257,2063.04,0.198960383420138
258,2072.56,0.19965294372663778
259,2077.34,0.19977186509901887
260,2086.93,0.20059849967247823
261,2096.56,0.1975885966842001
262,2106.2400000000002,0.19639410674375016
263,2115.96,0.1960306292415629
264,2125.73,0.1943075147872039
265,2135.54,0.19146934277110747
266,2145.4,0.19188079380283934
267,2155.3,0.19111634727283378
268,2165.25,0.18834867379065648
269,2175.24,0.18680247274674183
270,2185.28,0.18689405475065532
271,2187.7616199999998,0.18670059293147834
272,2195.37,0.1864272321546411
273,2205.5,0.18494651308075558
274,2215.68,0.18133513850305027
275,2225.9100000000003,0.1810895484215252
276,2236.1800000000003,0.18378235193694425
277,2246.5099999999998,0.1816677808477797
278,2256.88,0.17777137335555926
279,2267.29,0.176447719460283
280,2272.52,0.176991989760735
281,2283.01,0.17952860305934712
282,2293.55,0.17544469085413944
283,2304.13,0.176597702245876
284,2314.77,0.17314583903302883
285,2325.45,0.16748208941712583
286,2336.19,0.16815961519663905
287,2346.97,0.16481074457309655
288,2352.38,0.1689949010597973
289,2363.2400000000002,0.1637542276301431
290,2374.15,0.1643858986966692
291,2385.11,0.16020577425937543
292,2396.12,0.160944704318262
293,2407.18,0.1595377188733287
294,2412.72,0.15986720705009813
295,2423.86,0.1639156887990532
296,2435.05,0.16262531504418853
297,2446.29,0.16467279578550412
298,2457.58,0.1644888010229999
299,2463.25,0.1611065708898379
300,2474.62,0.15823870332122206
301,2486.04,0.15275895024878644
302,2497.51,0.15227578167253103
303,2503.2700000000004,0.15787737963249343
304,2511.88643,0.1512710818918651
305,2514.83,0.1490801834082326
306,2520.62,0.14803785571402364
307,2526.4300000000003,0.1475684080105082
308,2532.26,0.1510717302976864
309,2543.94,0.1505100348627363
310,2555.69,0.16088717439521377
311,2567.4799999999996,0.1538182039090784
312,2573.4,0.15894164115437764
313,2585.2799999999997,0.1555889156263634
314,2597.2099999999996,0.1528894450750831
315,2603.2,0.15009223728780988
316,2615.22,0.14782909169465064
317,2627.29,0.15190734107822534
318,2633.35,0.16704324825837968
319,2645.5,0.17780240760472868
320,2657.7099999999996,0.20002329692315848
321,2663.84,0.1706437990707403
322,2676.13,0.1756291183519444
323,2682.3,0.18449890048091339
324,2694.68,0.1661939047202386
325,2707.12,0.17649785893164452
326,2713.36,0.16100213602804103
327,2725.8900000000003,0.15047882519756806
328,2732.17,0.15874126227535176
329,2744.78,0.1435933314076531
330,2757.4500000000003,0.14993718051203517
331,2763.81,0.15857667755259316
332,2776.56,0.15997160661974957
333,2782.96,0.14431079364169472
334,2795.8100000000004,0.13091433266231897
335,2802.2599999999998,0.13299451466099813
336,2815.19,0.15253295364439673
337,2828.1800000000003,0.16692396259987602
338,2834.7,0.16201190956598271
339,2847.79,0.14573780847492993
340,2854.35,0.1329019854224237
341,2867.5299999999997,0.15789491928949206
342,2874.14,0.17965433121371976
343,2884.0315,0.1746298881258797
344,2887.4100000000003,0.17297876711482157
345,2894.06,0.19137173434227078
346,2907.42,0.22331017325335673
347,2927.5699999999997,0.2060313531229961
348,2947.8700000000003,0.1953769541331042
349,2968.2999999999997,0.197652951464952
350,2988.8799999999997,0.1979930599372685
351,3009.5899999999997,0.19499306473132463
352,3030.46,0.20342005807521413
353,3051.4599999999996,0.20633101774084325
354,3072.61,0.2199613385469411
355,3086.79,0.21481048502592304
356,3108.19,0.23942324106613558
357,3129.74,0.22475525824681689
358,3151.4300000000003,0.22611659915860238
359,3173.28,0.2402397386202212
360,3187.92,0.21688240592997407
361,3210.02,0.22885368062570755
362,3232.27,0.20473291646190983
363,3247.1899999999996,0.2581013312338711
364,3269.7,0.28844093971355256
365,3292.3599999999997,0.28408130933370285
366,3307.56,0.2667647715678725
367,3311.31121,0.2643814939953196
368,3322.83,0.25721861836555526
369,3330.49,0.270936330095714
370,3338.16,0.2437149141649461
371,3345.86,0.2725195152513981
372,3353.57,0.2572837886769234
373,3361.2999999999997,0.2469505067805954
374,3369.05,0.251228969562414
375,3376.8199999999997,0.2290076770223792
376,3384.6,0.23841225682141776
377,3392.3999999999996,0.2712298812986029
378,3400.23,0.288147422793008
379,3408.06,0.2663687642874131
380,3415.92,0.25619502279903816
381,3423.8,0.2954612259888098
382,3431.69,0.28602750151765477
383,3439.6,0.2765398217246464
384,3447.5299999999997,0.21738868660978466
385,3455.48,0.2633514961730695
386,3463.44,0.22722887807542771
387,3471.42,0.2726824046559325
388,3479.43,0.2213525482536573
389,3487.4500000000003,0.24883646419045535
390,3495.49,0.23582232480540005
391,3503.55,0.28954133009849137
392,3511.62,0.28117100773065606
393,3519.7200000000003,0.27581500238004064
394,3527.83,0.21703806936849854
395,3535.96,0.27161898103510307
396,3544.1099999999997,0.29143093737985426
397,3552.29,0.2970988107418253
398,3560.47,0.27795928410379644
399,3568.6800000000003,0.22856977448298746
400,3576.91,0.24286690954032514
401,3585.1499999999996,0.19331511693673614
402,3593.42,0.24769804135036705
403,3601.7,0.30875183810307133
404,3610.01,0.2502738518729955
405,3618.3300000000004,0.289624437981993
406,3626.67,0.2973382687691371
407,3630.14,0.3078146704275772
408,3632.89,0.29302476367273866
409,3635.64,0.26994385691790007
410,3638.38,0.28337337782398814
411,3641.13,0.2776499710691496
412,3643.88,0.29001386431431103
413,3646.62,0.28818908522039915
414,3649.37,0.2658784784655606
415,3652.12,0.27980067171072204
416,3654.87,0.3094611649558835
417,3657.61,0.33676428586197155
418,3660.3599999999997,0.342273779107133
419,3663.11,0.34714967235229444
420,3665.85,0.3522808932583826
421,3668.6000000000004,0.354166686503544
422,3671.35,0.3190773797487054
423,3674.0899999999997,0.34598020065479357
424,3676.84,0.31089329389995496
425,3679.5899999999997,0.32135408714511643
426,3682.33,0.3077948080512045
427,3685.08,0.286457201296366
428,3687.8300000000004,0.30657739454152744
429,3690.57,0.31135371544761553
430,3693.3199999999997,0.330146108692777
431,3696.07,0.33071440193793844
432,3698.8199999999997,0.33832699518309983
433,3701.56,0.336033716089188
434,3704.31,0.31316050933434936
435,3707.06,0.3034030025795108
436,3709.7999999999997,0.30470272348559896
437,3712.55,0.3131794167307604
438,3715.3,0.3029051099759218
439,3718.0400000000004,0.3181972308820099
440,3720.79,0.29788072412717137
441,3723.54,0.2946177173723328
442,3726.28,0.2981903382784209
443,3729.0299999999997,0.28991773152358236
444,3731.78,0.27523432476874377
445,3734.5299999999997,0.26016331801390524
446,3737.27,0.25842453891999334
447,3740.02,0.25457123216515476
448,3742.7700000000004,0.27308752541031617
449,3745.51,0.25055284631640434
450,3748.2599999999998,0.2504218395615658
451,3751.01,0.2754478328067272
452,3753.75,0.27056965371281533
453,3756.5,0.2901046469579768
454,3759.25,0.2902953402031382
455,3761.9900000000002,0.29143796110922626
456,3764.74,0.29611125435438773
457,3767.49,0.29686204759954915
458,3770.23,0.3086826685056373
459,3772.98,0.3093650617507987
460,3775.73,0.3303087549959602
461,3778.48,0.33946714824112156
462,3781.2200000000003,0.3356533691472097
463,3783.97,0.33794476239237115
464,3786.7200000000003,0.3415030556375326
465,3789.46,0.3149649765436207
466,3792.2099999999996,0.29915636978878213
467,3794.96,0.28988296303394356
468,3797.7,0.2855850839400317
469,3800.4500000000003,0.2921183771851931
470,3801.8939600000003,0.2942928198754784
471,3803.2,0.29627198191517046
472,3805.94,0.2955020414329362
473,3808.69,0.30648316832120476
474,3811.44,0.29284449520947337
475,3814.18,0.29050355472723915
476,3816.93,0.28879468161550775
477,3819.68,0.2676834085037763
478,3822.43,0.2521114353920449
479,3825.17,0.24874159490981068
480,3827.92,0.23580232179807928
481,3830.67,0.22242224868634783
482,3833.41,0.21627760820411362
483,3836.1600000000003,0.21834443509238222
484,3838.91,0.22853256198065078
485,3841.6499999999996,0.2416940214984166
486,3844.4,0.26052034838668514
487,3847.1499999999996,0.2679184752749537
488,3849.8900000000003,0.26557493479271954
489,3852.64,0.2612181616809881
490,3855.3900000000003,0.25989198856925666
491,3858.13,0.25794614808702243
492,3860.8799999999997,0.253705974975291
493,3863.63,0.2651610018635596
494,3866.3799999999997,0.2809033287518282
495,3869.12,0.270765388269594
496,3871.87,0.27143341515786257
497,3874.62,0.2689162420461312
498,3877.36,0.2726719015638969
499,3880.11,0.2701876284521655
500,3882.86,0.27688895534043406
501,3885.6000000000004,0.2801936148581999
502,3888.35,0.28416844174646844
503,3891.1,0.30381306863473706
504,3893.84,0.3246527281525028
505,3896.5899999999997,0.3285159550407714
506,3899.34,0.34216018192903996
507,3902.0899999999997,0.3476451088173086
508,3904.8300000000004,0.3423116683350743
509,3907.58,0.34835409522334293
510,3910.3300000000004,0.3596163221116115
511,3913.07,0.3695627816293773
512,3915.8199999999997,0.3643037085176459
513,3918.57,0.3414338354059145
514,3921.31,0.32882799492368026
515,3924.06,0.3032518218119488
516,3926.81,0.2793406487002174
517,3929.55,0.24894120821798318
518,3932.3,0.21826943510625174
519,3935.0499999999997,0.21021826199452034
520,3937.79,0.22956002151228616
521,3940.54,0.2516981484005547
522,3943.29,0.2733193752888233
523,3946.04,0.29169200217709185
524,3948.78,0.32905036169485763
525,3951.5299999999997,0.3464701885831262
526,3954.28,0.3526646154713948
527,3957.02,0.35516117498916056
528,3959.7700000000004,0.3265645018774292
529,3962.52,0.29328522876569774
530,3965.2599999999998,0.26250838828346357
531,3968.01,0.24291491517173214
532,3970.7599999999998,0.2444977420600007
533,3973.5,0.26963220157776646
534,3976.25,0.3086565284660351
535,3978.9999999999995,0.35414225535430366
536,3981.74,0.38955491487206945
537,3984.49,0.40770944176033797
538,3987.2400000000002,0.4220376686486066
539,3989.99,0.4355043955368752
540,3992.73,0.445957855054641
541,3995.48,0.4509104819429095
542,3998.23,0.4560911088311781
543,4000.97,0.4606911683489439
544,4003.7200000000003,0.4656691952372125
545,4006.47,0.47556292212548107
546,4009.2100000000005,0.46630238164324683
547,4011.96,0.4697093085315154
548,4014.71,0.480059135419784
549,4017.4500000000003,0.4916783949375498
550,4020.2,0.5016988218258184
551,4022.9500000000003,0.49633824871408694
552,4025.69,0.49194290823185277
553,4028.4399999999996,0.48179323512012134
554,4031.19,0.4614063620083899
555,4033.9399999999996,0.4577182888966585
556,4036.6800000000003,0.4734677484144243
557,4039.43,0.47773617530269286
558,4042.1800000000003,0.4815738021909614
559,4044.92,0.4569575617087272
560,4047.67,0.4793942885969958
561,4050.42,0.47266551548526436
562,4053.1600000000003,0.45907177500303015
563,4055.91,0.47403360189129873
564,4058.66,0.4644667287795673
565,4061.4,0.4504928882973331
566,4064.15,0.4571686151856017
567,4066.9,0.46022084207387026
568,4069.65,0.4554177689621388
569,4072.3900000000003,0.4540377284799046
570,4075.14,0.4579260553681732
571,4077.8900000000003,0.46564068225644184
572,4080.63,0.47652494177420757
573,4083.3799999999997,0.4871028686624762
574,4086.13,0.5067269955507447
575,4088.87,0.5062339550685105
576,4091.6200000000003,0.507841681956779
577,4094.37,0.48656790884504764
578,4097.11,0.4834648683628135
579,4099.860000000001,0.451016495251082
580,4102.61,0.4504705221393506
581,4105.349999999999,0.45405688165711644
582,4108.1,0.464508208545385
583,4110.849999999999,0.4750861354336536
584,4113.59,0.4784193949514194
585,4116.34,0.4767076218396879
586,4119.09,0.48381414872795653
587,4121.84,0.46988887561622505
588,4124.58,0.4730952351339909
