,lambda (Angstroms),Total Flux (erg/s/cm^2/Angstrom)
0,100.09,0.013813414409081745
1,101.94999999999999,0.0165962891194468
2,104.08000000000001,0.01978312950776108
3,104.712855,0.02072998769823424
4,106.02000000000001,0.019098182179175256
5,107.99,0.016638885999863164
6,110.0,0.014129655263358179
7,114.13,0.008973872710446435
8,117.87,0.004304956792185402
9,120.22644299999999,0.001363250861523608
10,120.89000000000001,0.0013249255110588448
11,125.14000000000001,0.0010794406765907308
12,126.88,0.0009789381375267746
13,128.05,0.0009113589079394576
14,131.03,0.0007392347054254395
15,131.94,0.0006866843075597494
16,134.09,0.0005625033441539973
17,136.89,0.000400802294594182
18,138.038426,0.00033447457253360253
19,140.07999999999998,0.00033032773933960554
20,143.02,0.0003246776942343777
21,147.02,0.0003175252447918909
22,151.14000000000001,0.0003094435716961295
23,155.02,0.0003019305929069173
24,158.489319,0.00029528061750202155
25,159.0,0.0002937428257702971
26,161.95000000000002,0.0002849006471978572
27,166.11,0.0002725390058414674
28,169.98,0.00026109633844982605
29,173.14,0.0002518109745925684
30,177.17,0.00024004732984106577
31,180.05,0.00023173526836356507
32,181.970086,0.0002262058003822379
33,182.13,0.00022640784478802087
34,185.95000000000002,0.000231371349293444
35,191.16,0.00023819993534665197
36,193.81,0.00024200825739098997
37,197.87,0.00024756669099099463
38,202.02,0.0002534750876264674
39,204.83,0.0002576832157338598
40,208.929613,0.00026308789334310886
41,210.07999999999998,0.000270490946346915
42,215.97000000000003,0.0003106383487840952
43,219.98,0.00033774822988309186
44,223.04000000000002,0.00035813952897609214
45,227.19,0.00038653953879176205
46,229.82,0.00041982917539783724
47,234.09,0.00048189919125637016
48,239.88329199999998,0.0005433721678617949
49,240.1,0.0005432506758999309
50,246.26,0.0005149475906379036
51,251.98999999999998,0.0005016526080808554
52,257.27,0.00046225384928483184
53,260.25,0.0004687382119340458
54,263.87,0.0004632158007898024
55,268.77000000000004,0.0004465648420586441
56,273.77,0.00042909047804725854
57,275.42287,0.0004233940811857504
58,278.86,0.00044740948012998786
59,284.03999999999996,0.0004834391270857881
60,289.99,0.0005163254445350187
61,296.06,0.0005624556456975108
62,300.88,0.0005947939415135258
63,307.88,0.0006459074914537969
64,316.227766,0.0007084481481390641
65,317.96999999999997,0.0007052397245903513
66,327.63,0.0006828283339720516
67,338.37,0.0006547386593094701
68,347.85,0.000630490266031884
69,356.77,0.000607777086703185
70,363.078055,0.0005923484931630296
71,365.92,0.0006053646216673718
72,375.31,0.0006450024313799348
73,384.93,0.0006761093874432849
74,394.81,0.0007276619828596982
75,404.94,0.0007723607199617497
76,414.37,0.0008096093203440147
77,416.86938299999997,0.000818661470110795
78,422.07,0.0008310899644289175
79,429.92,0.0008515195866586517
80,440.95000000000005,0.0008831646907597942
81,451.22,0.0009065434482501598
82,459.61,0.0009256089957033406
83,470.31000000000006,0.0009517133177234878
84,478.630092,0.0009741063353286856
85,480.16,0.0009716903654155827
86,490.21000000000004,0.0009454876819727736
87,500.48,0.0009309059881461419
88,506.27,0.0009140481239537177
89,512.14,0.0009250981378035397
90,520.46,0.0009089752541971544
91,530.13,0.0008855535250536756
92,539.99,0.0008556249687605316
93,549.5408739999999,0.0008420842688034761
94,550.0300000000001,0.0008421901507460104
95,560.26,0.0008518178006810286
96,569.36,0.0008619426213465871
97,579.9399999999999,0.0008481403759225884
98,589.37,0.0008606788723925023
99,600.32,0.0008475469604461139
100,610.08,0.0008136010327203834
101,619.99,0.0008717692212693599
102,630.0699999999999,0.000872415154929671
103,630.957344,0.0008723618405555497
104,640.3000000000001,0.0008890983166331061
105,650.71,0.0009192592120509342
106,658.2399999999999,0.0009377698706961065
107,664.33,0.0009616605109549513
108,675.13,0.0009758523488524099
109,684.52,0.0009736701562465891
110,695.64,0.0010624616315632316
111,705.3199999999999,0.0010519028884935463
112,716.7800000000001,0.001128805959818072
113,724.43596,0.0011507788771435367
114,726.75,0.001156360075679561
115,735.17,0.0011782275705681086
116,745.39,0.0012389590581881747
117,755.76,0.0012806496618692005
118,764.5200000000001,0.001287815879829257
119,775.15,0.0013763609246826133
120,784.13,0.001422507992865411
121,795.0300000000001,0.001467092626628495
122,804.24,0.0015121885927714311
123,815.4300000000001,0.0015502080109190378
124,824.87,0.0016396530750221123
125,831.763771,0.0015112142452233124
126,834.4200000000001,0.0014566171816358937
127,844.0799999999999,0.0016787971003609493
128,855.83,0.0016910994901145103
129,865.74,0.0017655568001109182
130,875.76,0.001842865082266721
131,885.9,0.001950615152232773
132,894.1,0.0020226159859331305
133,904.4499999999999,0.0019869441845671186
134,914.9300000000001,0.0029575919866622097
135,925.52,0.019236968760916698
136,934.08,0.0420104129580478
137,944.9000000000001,0.08268258749227193
138,954.992586,0.12114494962447783
139,955.84,0.1243753444817269
140,964.6899999999999,0.1269702002283401
141,975.86,0.017533792509658693
142,984.89,0.08834541074603353
143,994.0,0.1091123923111913
144,1005.51,0.1876336937398374
145,1014.8100000000001,0.19067865571085466
146,1024.2,0.08535162892675274
147,1036.06,0.11877732741882423
148,1045.65,0.26857682895667967
149,1055.32,0.266119813823318
150,1065.0900000000001,0.1902257778509351
151,1074.94,0.2427307252073351
152,1084.89,0.17471525172471383
153,1094.9299999999998,0.2648917594869733
154,1096.4782,0.26342888456504365
155,1105.06,0.2553162396044009
156,1115.29,0.23719236735655108
157,1125.61,0.20852393640857353
158,1136.02,0.29646524676046826
159,1143.89,0.26424881376041176
160,1154.48,0.29306400671205113
161,1165.1599999999999,0.3026466409635627
162,1175.94,0.1906097099927102
163,1184.09,0.29643449437003416
164,1195.05,0.1758580459989262
165,1206.11,0.11129473240545418
166,1214.47,0.09519280981581346
167,1225.71,0.203251648822086
168,1234.2,0.3410677114433719
169,1245.6200000000001,0.380000963049389
170,1254.26,0.3530303278371288
171,1258.92541,0.32780257942893065
172,1265.8600000000001,0.29030930665760474
173,1274.6399999999999,0.4118772139814852
174,1286.43,0.4423299609460125
175,1295.3500000000001,0.31249297476480675
176,1304.33,0.3074979913671355
177,1316.39,0.42732125085756806
178,1325.52,0.406230274418733
179,1334.71,0.33715090076343246
180,1343.9599999999998,0.44437752989166635
181,1356.39,0.4292890065472283
182,1365.8000000000002,0.3671122430982209
183,1375.26,0.3978934819688255
184,1384.8,0.4043747245508095
185,1394.4,0.3481904699163279
186,1404.06,0.36375471806538084
187,1413.79,0.36712046946189075
188,1423.5900000000001,0.3897434241058575
189,1433.46,0.3843990819972812
190,1443.3999999999999,0.41473024313616175
191,1445.43977,0.42186003834073926
192,1446.73,0.42636988800274606
193,1453.3999999999999,0.4099924477094153
194,1463.48,0.3679656401896591
195,1473.62,0.37137213500609484
196,1483.84,0.38617933293745316
197,1494.12,0.39790263320500335
198,1504.48,0.37051773658747617
199,1511.42,0.3168504068070091
200,1518.4,0.35060667858400335
201,1525.41,0.33406865152909354
202,1535.98,0.2785418630882381
203,1546.6299999999999,0.32572037776230517
204,1553.77,0.3053938557691445
205,1564.5400000000002,0.3082190751155955
206,1575.38,0.3325403971876037
207,1586.3,0.3596029223745345
208,1593.6200000000001,0.36712750738994965
209,1604.67,0.3629298376386296
210,1615.79,0.3679727706128668
211,1623.25,0.34185196107939647
212,1634.5000000000002,0.37309259911538284
213,1645.8300000000002,0.3808805402662918
214,1653.4299999999998,0.3450144361839359
215,1659.58691,0.3671357658598681
216,1664.8899999999999,0.3861906838261717
217,1672.58,0.32873567044848173
218,1676.4299999999998,0.38797476518136775
219,1684.17,0.41668156602098794
220,1695.8400000000001,0.38620168434119045
221,1703.6699999999998,0.367142510771969
222,1715.48,0.34108286890064016
223,1723.3999999999999,0.3403004209225771
224,1735.35,0.3713988188597168
225,1743.36,0.36211879647281214
226,1755.44,0.39702443137495835
227,1763.5400000000002,0.3538867345792121
228,1775.7700000000002,0.36547591213328895
229,1783.96,0.375712540928701
230,1796.33,0.41193695829124644
231,1804.6200000000001,0.410042915521279
232,1812.95,0.36886558412515963
233,1825.52,0.3809243583569459
234,1833.94,0.36214565255198494
235,1846.6599999999999,0.3272769694357018
236,1855.1799999999998,0.3257806920653612
237,1863.74,0.34033932606886885
238,1876.66,0.3818528998218266
239,1885.3200000000002,0.3450775622599546
240,1894.03,0.33031753891539284
241,1905.46072,0.3515801001785003
242,1907.1599999999999,0.3547398663679186
243,1915.9599999999998,0.3380062409442155
244,1924.8000000000002,0.3341377008594956
245,1933.69,0.34666544244850467
246,1947.09,0.36298433100786587
247,1956.08,0.33799173594433285
248,1965.11,0.38092552621978304
249,1974.18,0.3943098018342163
250,1983.29,0.3688618627876328
251,1997.04,0.3563434230630967
252,2006.25,0.3714107473639711
253,2015.52,0.35307234967332024
254,2024.82,0.3765649409869068
255,2034.16,0.3522577176394765
256,2043.5500000000002,0.3722506759657751
257,2052.9900000000002,0.35387021596580276
258,2067.22,0.3530525003090647
259,2071.98,0.38532745564806165
260,2076.76,0.3629359036565502
261,2086.35,0.38179078867776467
262,2095.98,0.3579496590379624
263,2105.65,0.3587741147371432
264,2115.37,0.363754552110053
265,2125.13,0.37051317482194596
266,2134.94,0.3379274792075678
267,2144.8,0.3514016652669187
268,2154.7,0.3687997366652528
269,2164.64,0.35546509340257
270,2174.63,0.3522051318136161
271,2184.67,0.34419015189839125
272,2187.7616199999998,0.3504403173202359
273,2194.75,0.36457296094121316
274,2204.89,0.35301282413289053
275,2215.06,0.3317510960914072
276,2225.29,0.31902268558360236
277,2235.56,0.34658498676491656
278,2245.88,0.3287177025576296
279,2256.24,0.31034593003946165
280,2266.66,0.3212470750549723
281,2277.12,0.33253483175960197
282,2287.63,0.3442171030756304
283,2292.91,0.3227579460393441
284,2303.49,0.32143683781133087
285,2314.12,0.3022229441947165
286,2324.7999999999997,0.22062956518950091
287,2335.53,0.27465510079568406
288,2346.31,0.26669535101326614
289,2357.14,0.2945798158422469
290,2362.58,0.2644529055624367
291,2373.48,0.2745065908473759
292,2384.44,0.2522363936659936
293,2395.44,0.2741562081737304
294,2406.5,0.2607587402151457
295,2417.61,0.2706735868679598
296,2423.18,0.2914277145777865
297,2434.37,0.2784662846088387
298,2445.6,0.29920526632900996
299,2456.89,0.29457826558285977
300,2462.56,0.2919533225154841
301,2473.92,0.27961604222529224
302,2485.34,0.2889224794687789
303,2496.81,0.2716647313236644
304,2502.57,0.3076771145568066
305,2511.88643,0.27480598704054177
306,2514.1200000000003,0.26692438446170014
307,2519.92,0.2770020284821609
308,2525.73,0.2621901713716224
309,2537.38,0.2690496537575479
310,2543.23,0.2623939921230127
311,2554.97,0.2884985643299453
312,2566.77,0.2775759297508827
313,2572.68,0.2988605613303522
314,2584.5600000000004,0.29356481770329595
315,2596.4900000000002,0.28836386842124373
316,2602.4700000000003,0.2767429920837187
317,2614.48,0.2724693337536728
318,2626.55,0.2887490686376317
319,2632.61,0.30382028325211313
320,2644.7599999999998,0.33559560908807834
321,2656.9700000000003,0.3491714281380483
322,2663.09,0.30423543596653446
323,2675.38,0.3239048459685108
324,2687.73,0.323339349184492
325,2693.93,0.3053495479649845
326,2706.3599999999997,0.3191701421329719
327,2712.6,0.29728223638946766
328,2725.12,0.29540082037846227
329,2737.7000000000003,0.3145048975814616
330,2744.01,0.2635206839209629
331,2756.6800000000003,0.27167025094496944
332,2763.03,0.2852000327604739
333,2775.7900000000004,0.30155868960548754
334,2782.19,0.28087676576599596
335,2795.03,0.220733813563016
336,2807.9300000000003,0.23992685457404078
337,2814.4,0.2979307228175548
338,2827.3900000000003,0.32013835364958676
339,2833.91,0.3065316162381047
340,2846.99,0.2956251368911438
341,2853.55,0.2804694949556649
342,2866.73,0.32069360429871197
343,2873.33,0.32674585783923626
344,2884.0315,0.3226851741997583
345,2886.6000000000004,0.32171084155534685
346,2893.25,0.3218067261631547
347,2913.31,0.3605313797319705
348,2926.75,0.3429397486235401
349,2947.0400000000004,0.3362117016599944
350,2967.47,0.34593485437240257
351,2988.04,0.3478443067607646
352,3008.75,0.35381705882508047
353,3029.6099999999997,0.354958810542204
354,3050.61,0.3552830619352815
355,3071.7499999999995,0.35972961300431266
356,3093.0400000000004,0.36339646372615164
357,3107.32,0.3669827306734443
358,3128.86,0.3606312808166294
359,3150.5499999999997,0.3626370306126222
360,3172.39,0.3654956800614227
361,3187.03,0.34212404617545383
362,3209.12,0.3602332950456005
363,3231.37,0.3373071435454087
364,3246.28,0.36921640903449365
365,3268.78,0.388785056955648
366,3291.44,0.38469120450646394
367,3306.6299999999997,0.3823007693474566
368,3311.31121,0.38077171652685976
369,3321.8999999999996,0.37731258999504796
370,3329.55,0.398871351509098
371,3337.23,0.38635831169575224
372,3344.92,0.38120137143994115
373,3352.6299999999997,0.3709254302991995
374,3360.36,0.38673498827352726
375,3368.11,0.3851044453629244
376,3375.8700000000003,0.34493750200985623
377,3383.65,0.35308605777185753
378,3391.46,0.39173751220646286
379,3399.27,0.4009917666410682
380,3407.1099999999997,0.38130971974827776
381,3414.96,0.38498987241302196
382,3422.8399999999997,0.40978592375037026
383,3430.73,0.3969314746452533
384,3438.64,0.40258102465520573
385,3446.5600000000004,0.3451953742226929
386,3454.51,0.39101552246278415
387,3462.4700000000003,0.3567409702604102
388,3470.45,0.3823696171731055
389,3478.4500000000003,0.3488646632008703
390,3486.47,0.37221060834370456
391,3494.51,0.36554815260160817
392,3502.56,0.39180989641704644
393,3510.64,0.3865768389050889
394,3518.73,0.37530718095066606
395,3526.84,0.3677420221113126
396,3534.9700000000003,0.39597926238702863
397,3543.1200000000003,0.41861610177781394
398,3551.2899999999995,0.4177814402836688
399,3559.48,0.407505077904593
400,3567.68,0.3974563150830519
401,3575.91,0.36013295093411496
402,3584.1499999999996,0.3370023863427127
403,3592.41,0.35300152086637987
404,3600.6899999999996,0.4110312545051164
405,3608.9900000000002,0.37589548725892236
406,3617.3100000000004,0.39191921912779776
407,3625.65,0.4067825501117426
408,3627.3,0.46142117710496905
409,3630.04,0.4026478558694785
410,3632.7799999999997,0.4282045346339879
411,3635.52,0.47935591339849737
412,3638.25,0.33400979260547214
413,3640.9900000000002,0.5051806713699816
414,3643.73,0.398402450134491
415,3646.47,0.20441582889900042
416,3649.21,0.4773481076635099
417,3651.95,0.37061918642801933
418,3654.69,0.48728236519252877
419,3657.43,0.2943271439570382
420,3660.1699999999996,0.33321222272154766
421,3662.91,0.3532368014860571
422,3665.6499999999996,0.21312848025056655
423,3668.3900000000003,0.40905605901507597
424,3671.13,0.5021073377795854
425,3673.8700000000003,0.3159131165440949
426,3676.61,0.4244881953086043
427,3679.35,0.45550517407311375
428,3682.09,0.4431057528376232
429,3684.83,0.3010826316021326
430,3687.57,0.3845596103666421
431,3690.31,0.5098792891311515
432,3693.0499999999997,0.46596976789566097
433,3695.79,0.5265630466601704
434,3698.5299999999997,0.47742082542467984
435,3701.27,0.3247162041891893
436,3704.0099999999998,0.4231593829536987
437,3706.7499999999995,0.36878826171820817
438,3709.49,0.2942863404827176
439,3712.2300000000005,0.39183841924722707
440,3714.9700000000003,0.4412836980117365
441,3717.71,0.5077920767762459
442,3720.4500000000003,0.6962075555407554
443,3723.19,1.152553434305265
444,3725.9300000000003,1.3506373130697744
445,3728.67,1.1675301918342835
446,3731.41,0.9415754705987932
447,3734.15,0.6216593493633027
448,3736.89,0.4548570281278121
449,3739.63,0.44135800689232146
450,3742.37,0.34437068565683093
451,3745.1099999999997,0.49470856442134037
452,3747.85,0.5052875431858499
453,3750.5899999999997,0.46012682195035925
454,3753.3300000000004,0.4376790007148687
455,3756.07,0.41788567947937816
456,3758.8100000000004,0.38781635824388755
457,3761.55,0.527961637008397
458,3764.29,0.4325215157729065
459,3767.03,0.4781368945374159
460,3769.77,0.5165856733019254
461,3772.51,0.4798049520664348
462,3775.2400000000002,0.44575663127340953
463,3777.98,0.318256110037919
464,3780.7200000000003,0.5774088888024284
465,3783.46,0.5843856675669379
466,3786.2000000000003,0.5421823463314474
467,3788.94,0.6213556250959568
468,3791.68,0.5827545038604661
469,3794.42,0.5760806826249756
470,3797.16,0.44632416138948505
471,3799.9,0.5207954401539946
472,3801.8939600000003,0.637655962380763
473,3802.64,0.6813793257964641
474,3805.3799999999997,0.6174110298218316
475,3808.12,0.5672069338471992
476,3810.8599999999997,0.7318100378725668
477,3813.6,0.6393271418979345
478,3816.3399999999997,0.663329345923302
479,3819.0800000000004,0.5809327499486696
480,3821.82,0.45007665397403723
481,3824.5600000000004,0.47931145799940483
482,3827.3,0.4234956620247724
483,3830.04,0.60152186605014
484,3832.78,0.3217265700755076
485,3835.52,0.4419614741008752
486,3838.26,0.38087497812624277
487,3841.0,0.5456675821516104
488,3843.74,0.5278837861769781
489,3846.48,0.5931029902023456
490,3849.22,0.47513919422771317
491,3851.96,0.5821063982530807
492,3854.7,0.4826467022784484
493,3857.4399999999996,0.5968184063038159
494,3860.18,0.6131988103291836
495,3862.92,0.6038708143545511
496,3865.6600000000003,0.5924194183799187
497,3868.4,0.5989790224052864
498,3871.1400000000003,0.6453149264306539
499,3873.88,0.6156628304560215
500,3876.62,0.5975755344813891
501,3879.36,0.5854415385067567
502,3882.1,0.5586332425321243
503,3884.84,0.4592116465574919
504,3887.58,0.5659891505828595
505,3890.3199999999997,0.49758465460822715
506,3893.06,0.5266297586335947
507,3895.7999999999997,0.4573151626589623
508,3898.54,0.5574947666843298
509,3901.2799999999997,0.5992046707096975
510,3904.0200000000004,0.5425168747350652
511,3906.76,0.6080771787604327
512,3909.49,0.6039849831360727
513,3912.23,0.6119855871614402
514,3914.97,0.5077479911868079
515,3917.7099999999996,0.5617813952121754
516,3920.45,0.6273799992375431
517,3923.1899999999996,0.6688246032629106
518,3925.9300000000003,0.5689475072882783
519,3928.67,0.47301401131364584
520,3931.4100000000003,0.5041069153390134
521,3934.15,0.467818919364381
522,3936.8900000000003,0.4711177233897486
523,3939.63,0.49978372741511623
524,3942.37,0.5726246314404838
525,3945.11,0.5409247354658515
526,3947.85,0.622031839491219
527,3950.59,0.6529730435165867
528,3953.33,0.6091393475419542
529,3956.0699999999997,0.5547643515673218
530,3958.81,0.4981142555926894
531,3961.5499999999997,0.492160959618057
532,3964.29,0.4678931636434246
533,3967.0299999999997,0.3548131676687922
534,3969.7700000000004,0.38818867169415977
535,3972.51,0.4141246757195274
536,3975.25,0.47085017974489496
537,3977.9900000000002,0.5906716837702626
538,3980.73,0.6595689877956302
539,3983.4700000000003,0.6326848918209977
540,3986.21,0.5873343958463654
541,3988.95,0.633632499871733
542,3991.69,0.6562316038971006
543,3994.43,0.6522879079224682
544,3997.17,0.6682892119478357
545,3999.91,0.6247969159732034
546,4002.6499999999996,0.6892197199985709
547,4005.39,0.7026426240239386
548,4008.1299999999997,0.7196298280493061
549,4010.8700000000003,0.7520497320746737
550,4013.61,0.7617186361000413
551,4016.3500000000004,0.769150540125409
552,4019.09,0.7472715441507765
553,4021.83,0.7537553481761442
554,4024.57,0.7628555522015117
555,4027.31,0.7253921562268794
556,4030.05,0.7514418602522469
557,4032.79,0.7436305642776145
558,4035.5299999999997,0.7388146683029821
559,4038.27,0.6161871723283497
560,4041.0099999999998,0.6324539763537174
561,4043.75,0.7285383803790849
562,4046.48,0.7532645847547249
563,4049.2200000000003,0.7023780887800924
564,4051.96,0.72057869280546
565,4054.7,0.7036289968308276
566,4057.44,0.7077620008561952
567,4060.18,0.7595203048815629
568,4062.92,0.7643357089069305
569,4065.66,0.6919495129322981
570,4068.3999999999996,0.6833419169576657
571,4071.14,0.6877023209830333
572,4073.8799999999997,0.7043483250084008
573,4076.6200000000003,0.6350335290337684
