,lambda (Angstroms),Total Flux (erg/s/cm^2/Angstrom)
0,100.05999999999999,12.323247425601952
1,101.92,12.288965782952866
2,104.05,12.249707772817823
3,104.712855,12.237490698511765
4,105.99000000000001,12.113843523511893
5,107.96,11.923117384604486
6,109.97,11.728518633929303
7,114.09,11.329639602679128
8,118.1,10.941410254683422
9,120.22644299999999,10.735538046516899
10,121.13000000000001,10.662196811739472
11,125.10000000000001,10.33995404472515
12,127.13000000000001,10.175180035497162
13,128.01,10.103750909271385
14,131.0,9.861054217218596
15,131.9,9.78800170640688
16,134.05,9.61348736365471
17,136.85,9.386212881717697
18,138.038426,9.289748984940754
19,140.04000000000002,9.173620459997368
20,142.97,9.003626095104783
21,146.98,8.770971915598702
22,151.1,8.531935404196178
23,154.97,8.307403585902822
24,158.489319,8.103217812038412
25,158.95,8.083010928751348
26,161.9,7.953614886360165
27,166.06,7.7711445832370725
28,169.93,7.601394596754024
29,173.08,7.463226031785914
30,177.11999999999998,7.286019404542979
31,179.99,7.160132559820567
32,181.970086,7.073280030103541
33,182.07999999999998,7.069601949412507
34,185.89000000000001,6.9421070039885935
35,191.1,6.767763558254559
36,194.2,6.664027623767435
37,197.81,6.543225537695109
38,201.95999999999998,6.404353339468394
39,204.76999999999998,6.310321908900425
40,208.929613,6.17112783915867
41,210.02,6.143695780060727
42,215.9,5.995767267787415
43,219.92000000000002,5.8946323544398656
44,222.98,5.817648933568
45,227.12,5.71349525278724
46,229.75,5.647337622406877
47,234.01999999999998,5.53992731890264
48,239.88329199999998,5.392430242630066
49,240.03,5.389586317210503
50,246.18,5.270356419284989
51,251.92,5.159082240087178
52,257.19,5.056905778351122
53,260.16999999999996,4.999142877699785
54,263.79,4.928968122355204
55,268.69,4.833975271684147
56,273.69,4.737043388646332
57,275.42287,4.703449366049971
58,278.78,4.653502095027203
59,283.96000000000004,4.57643457380758
60,289.90999999999997,4.487907026055446
61,295.98,4.397599474255907
62,300.79,4.326034991814115
63,307.79,4.2218910983521925
64,316.227766,4.096356694316073
65,317.88,4.077997250612587
66,328.28999999999996,3.962320010390589
67,338.27000000000004,3.851420171143753
68,347.74,3.746187129932578
69,356.66,3.647066940887311
70,363.078055,3.5757498721078598
71,365.81,3.553016253445432
72,375.2,3.4748747578001784
73,384.82000000000005,3.3948135023164356
74,394.69,3.3126844382778153
75,404.82,3.2283873235261202
76,414.24999999999994,3.1499114324480866
77,416.86938299999997,3.128112653716239
78,421.95000000000005,3.095824348548093
79,429.79,3.046000078811065
80,440.82000000000005,2.975906898261394
81,451.08000000000004,2.9107028965733956
82,459.47,2.8573818394066013
83,470.17,2.78938200785479
84,478.630092,2.735619682017385
85,480.02000000000004,2.7288268286315414
86,490.07,2.679701922675763
87,500.33,2.629560086591058
88,506.13,2.6012113216016535
89,511.99,2.572611609546842
90,520.3,2.5319982299878854
91,529.98,2.4846870564021204
92,539.83,2.4365349731977006
93,549.5408739999999,2.3890963064245567
94,549.87,2.3878700110160054
95,560.09,2.3497968065808195
96,570.5,2.3110102002656254
97,579.77,2.2764433074304815
98,590.5500000000001,2.236292083401586
99,600.15,2.200501466538007
100,609.9,2.1641648682796837
101,619.8100000000001,2.1272996662803
102,629.88,2.0897824343398583
103,630.957344,2.0857686336394092
104,640.11,2.058742516261075
105,650.52,2.0280303006302867
106,658.0500000000001,2.0058045369976414
107,665.67,1.9833381685275546
108,674.93,1.9560048738418583
109,684.32,1.9282428144354122
110,695.4399999999999,1.8955665653759155
111,705.11,1.8669403603863168
112,716.5699999999999,1.8332834387187058
113,724.43596,1.8100970979238078
114,726.54,1.8054978693281947
115,734.95,1.7871210940095672
116,745.17,1.7648365922680251
117,755.54,1.7422012855743074
118,764.29,1.7230535753640825
119,774.9200000000001,1.6999614817532607
120,785.7,1.676409037190264
121,794.8,1.6566208820916306
122,805.86,1.6325218046179066
123,815.1899999999999,1.6121922615926043
124,824.63,1.591733925602373
125,831.763771,1.5757842688197543
126,834.1800000000001,1.5717208849536455
127,845.78,1.5533743469578263
128,855.5699999999999,1.5374583442527343
129,865.48,1.521514381533892
130,875.5,1.5053603188857796
131,885.64,1.4890599502239168
132,895.9,1.4725018305483044
133,904.1899999999999,1.4590261965150852
134,914.6600000000001,1.4433611590654105
135,925.25,1.4532385146019862
136,935.96,1.4747614231248118
137,944.62,1.525687523965864
138,954.992586,1.5645491793162014
139,955.5600000000001,1.5666951397081803
140,964.4,1.579017761733707
141,975.57,1.3763552175736529
142,984.6,1.5129857102535738
143,995.9999999999999,1.5082373495172612
144,1005.21,1.59199193965924
145,1014.51,1.5688579085322483
146,1023.9,1.3904172561362855
147,1035.76,1.450106942247455
148,1045.34,1.6290057005058873
149,1055.01,1.6079713374953482
150,1064.78,1.509868806408175
151,1074.63,1.557726700859694
152,1084.57,1.4632509740422428
153,1094.6100000000001,1.5508695791481566
154,1096.4782,1.5451770206452178
155,1104.73,1.522433112589507
156,1114.96,1.494922082649567
157,1125.27,1.4444647459261284
158,1135.69,1.528217387375378
159,1146.19,1.476109422041129
160,1154.14,1.4940701354309116
161,1164.82,1.4949915798337896
162,1175.6,1.343661040757294
163,1183.74,1.4611000255362665
164,1194.7,1.3157826961968977
165,1205.75,1.2189402217260925
166,1214.1100000000001,1.1413831628504427
167,1225.3400000000001,1.2776179981167646
168,1233.84,1.4219005023699918
169,1245.25,1.4534330473734411
170,1253.89,1.4215851147555443
171,1258.92541,1.3870089147931874
172,1265.49,1.344408750993428
173,1274.2600000000002,1.4609384729256973
174,1286.05,1.478192629776491
175,1294.96,1.3509994261751819
176,1303.94,1.3404916598070837
177,1316.01,1.4461841655907204
178,1325.1299999999999,1.414551973689044
179,1334.31,1.3454916851301197
180,1343.56,1.4309596338044062
181,1355.99,1.4035269596445554
182,1365.3899999999999,1.3369132166757223
183,1374.86,1.3543223109401
184,1384.39,1.3528019085472296
185,1393.98,1.2688257094971116
186,1403.6499999999999,1.2771965815706632
187,1413.3799999999999,1.2919623569869665
188,1426.45,1.2938985518164716
189,1436.3400000000001,1.2858239694801141
190,1442.97,1.3092267388542247
191,1445.43977,1.3135546106636853
192,1446.3000000000002,1.3153053365180583
193,1456.3200000000002,1.2935019061624358
194,1466.4199999999998,1.2470572745664494
195,1476.5800000000002,1.2427474170401893
196,1483.4,1.248898036299137
197,1493.68,1.253017726912331
198,1504.0300000000002,1.2189950539402057
199,1510.98,1.1609720836835618
200,1517.95,1.1884402381168262
201,1524.96,1.1718531419299087
202,1535.53,1.1036539405467822
203,1546.17,1.1308094755783369
204,1553.31,1.1053483898758276
205,1564.08,1.1130529353917904
206,1574.9199999999998,1.1370425173224346
207,1585.83,1.1529826356677597
208,1596.83,1.1571651151176754
209,1604.2,1.1443568633491186
210,1615.3200000000002,1.1393539909384878
211,1626.51,1.1087147549425385
212,1634.02,1.1351653760033444
213,1645.35,1.1370974128367575
214,1656.75,1.0943975860848516
215,1659.58691,1.1086975385762186
216,1664.4,1.1339015600497362
217,1672.08,1.0759725866183818
218,1675.9399999999998,1.1382798421593936
219,1683.6699999999998,1.1558876743697621
220,1695.34,1.1173472311478991
221,1703.17,1.0961845746417134
222,1714.98,1.0682683272166746
223,1726.8600000000001,1.061737027690048
224,1734.83,1.0921571669806867
225,1746.8600000000001,1.075028984379229
226,1754.92,1.1057897138249686
227,1763.0199999999998,1.0596591277840872
228,1775.2399999999998,1.0666531466211766
229,1783.44,1.0734399718637406
230,1795.8,1.1032777864976544
231,1804.0900000000001,1.0957049018953198
232,1816.59,1.051211212326058
233,1824.98,1.0579860390071691
234,1833.4,1.0365566290733144
235,1846.11,0.9909542831992888
236,1854.6299999999999,0.9923871845488799
237,1863.19,1.0059380704118492
238,1876.11,1.03576266823306
239,1884.77,0.9938349653794754
240,1893.4699999999998,0.9735318470392691
241,1905.46072,0.9931976517920154
242,1906.59,0.9951879232274528
243,1915.3899999999999,0.9766291057151038
244,1924.23,0.9628140663049716
245,1933.1200000000001,0.96957954952261
246,1946.52,0.9944057137651698
247,1955.5,0.9609797977127956
248,1969.05,1.0021914298386676
249,1978.1399999999999,1.012469303567389
250,1982.7,0.985763907220081
251,1996.4499999999998,0.968436129857036
252,2005.6599999999999,0.9780620378924072
253,2014.92,0.9611020685555491
254,2024.2199999999998,0.9765400773209079
255,2033.5600000000002,0.9525860641884829
256,2042.95,0.9690740736838289
257,2057.11,0.935698021868504
258,2066.61,0.9381039211449456
259,2076.15,0.9759140985236037
260,2085.73,0.9726991540044785
261,2095.36,0.9421468321131241
262,2105.0299999999997,0.9412213883239864
263,2114.74,0.944987722637065
264,2124.51,0.9476300241034685
265,2134.31,0.9097943591465345
266,2144.16,0.9211682168173714
267,2154.06,0.935334897115979
268,2164.0,0.915659555516803
269,2173.9900000000002,0.9100125365453979
270,2184.03,0.9020901402017636
271,2187.7616199999998,0.9094234701295366
272,2194.11,0.9225882325574845
273,2204.23,0.9074079493602187
274,2214.41,0.8802779453139573
275,2224.63,0.8660157607016986
276,2234.9,0.8958346253819437
277,2245.22,0.8743843393546924
278,2255.58,0.8504872727614439
279,2265.99,0.8577023554606992
280,2276.45,0.8695016874524579
281,2286.96,0.8806023687367204
282,2297.51,0.8485201694549857
283,2302.81,0.8538329944603702
284,2313.44,0.8323991340466413
285,2324.12,0.7420615229254162
286,2334.84,0.7946459312381937
287,2345.62,0.7771341187019759
288,2356.45,0.8117359554582616
289,2367.33,0.7714590415070508
290,2372.7799999999997,0.7844486143899463
291,2383.73,0.7479458094482405
292,2394.74,0.7710949836575394
293,2405.79,0.754781777300841
294,2416.9,0.7624981500951469
295,2422.47,0.790306381280051
296,2433.65,0.773114463083862
297,2444.88,0.7935205941801766
298,2456.17,0.7859900044274957
299,2467.5,0.7795078341088177
300,2473.19,0.7625658235957304
301,2484.6099999999997,0.765898822003559
302,2496.08,0.731421569703891
303,2507.6,0.7850131666967268
304,2511.88643,0.7438115700856107
305,2513.38,0.7295416568323168
306,2519.17,0.7359516084294608
307,2524.98,0.7222649771305671
308,2536.63,0.727632040188724
309,2542.4799999999996,0.7230543430977554
310,2554.22,0.7502522831237434
311,2566.01,0.7359050659096376
312,2577.85,0.757302791455438
313,2583.7900000000004,0.7504075713323006
314,2595.7200000000003,0.7416649738459324
315,2607.7,0.7264042191194704
316,2613.71,0.7180001588602019
317,2625.7799999999997,0.7378233811015711
318,2637.9,0.7527305461028465
319,2643.98,0.7907845457074467
320,2656.1800000000003,0.8022414791245722
321,2662.31,0.7528894214890787
322,2674.59,0.7718255233220541
323,2686.94,0.7709242850188984
324,2693.13,0.7459359786952924
325,2705.5600000000004,0.7584177088079864
326,2718.05,0.7309106902325683
327,2724.32,0.7299083523248122
328,2736.8900000000003,0.7481994021652439
329,2743.2000000000003,0.685382798465413
330,2755.86,0.6951814252736759
331,2762.2200000000003,0.7111374643337511
332,2774.97,0.7288078681098455
333,2787.78,0.6956351231978272
334,2794.2,0.61687971356979
335,2807.1000000000004,0.6367304456256029
336,2813.57,0.7166255787574718
337,2826.5600000000004,0.7422908877811161
338,2833.0699999999997,0.7256283551209102
339,2846.15,0.7124116411123858
340,2852.71,0.6908877512120859
341,2865.88,0.7339161141713926
342,2872.49,0.7328586670309991
343,2884.0315,0.7291849260284611
344,2885.74,0.7287259902490626
345,2892.4,0.7258988075389052
346,2912.45,0.7641362974279959
347,2932.63,0.7429266579248464
348,2952.96,0.7320072998921887
349,2966.59,0.7403125028442239
350,2987.16,0.7391683751643534
351,3007.86,0.7424551180922427
352,3028.71,0.7401826424906238
353,3049.71,0.7390037483594969
354,3070.84,0.7412117248361296
355,3092.13,0.7422910882146205
356,3113.5600000000004,0.7410980276322372
357,3127.94,0.7315946379367322
358,3149.6200000000003,0.7326122131385021
359,3171.4500000000003,0.732508569810764
360,3193.43,0.7035080079535179
361,3208.17,0.7194726137871935
362,3230.4100000000003,0.6930316931454668
363,3252.8,0.7213652539742319
364,3267.82,0.7370683118861592
365,3290.47,0.7310876139304439
366,3311.31121,0.7288206539783718
367,3313.28,0.7286751024236233
368,3320.92,0.7269437563765209
369,3328.57,0.7369882641958486
370,3336.24,0.7496892797480377
371,3343.93,0.7137088030330876
372,3351.6400000000003,0.7235057340509983
373,3359.37,0.7287869728017703
374,3367.1099999999997,0.7211993654189727
375,3374.88,0.6783288196354664
376,3382.6600000000003,0.6929021277183908
377,3390.45,0.7312353896677456
378,3398.27,0.725913813216392
379,3406.1000000000004,0.7136818906314687
380,3413.9599999999996,0.7200608296458371
381,3421.8199999999997,0.7373264686602053
382,3429.71,0.7235981692738651
383,3437.6200000000003,0.7325374776203859
384,3445.5400000000004,0.6719769398333371
385,3453.4900000000002,0.7398608636455798
386,3461.45,0.6936852413242531
387,3469.43,0.7055452267357873
388,3477.42,0.684746866013752
389,3485.44,0.6986606668910083
390,3493.48,0.6935478755011254
391,3501.5299999999997,0.6963268379776731
392,3509.6,0.6979986081870817
393,3517.69,0.6828436861293514
394,3525.8,0.6945261718044821
395,3533.9300000000003,0.7182695652124738
396,3542.0800000000004,0.7345792663533263
397,3550.2400000000002,0.7315278213606095
398,3558.42,0.7176606841007536
399,3566.63,0.7278901084401891
400,3574.85,0.6741812866460551
401,3583.0899999999997,0.6702997725847823
402,3591.35,0.6401962662563703
403,3599.6299999999997,0.7098753676608193
404,3607.93,0.6805563767981294
405,3610.12,0.7141797735464076
406,3612.86,0.6751929329483629
407,3615.59,0.6976962384838878
408,3618.3199999999997,0.7118571440194126
409,3621.05,0.6895761495549375
410,3623.79,0.6830396089568929
411,3626.5199999999995,0.6904776144924177
412,3629.25,0.6991062200279425
413,3631.98,0.7193423255634674
414,3634.7200000000003,0.7415267849654228
415,3637.45,0.7037165905009477
416,3640.1800000000003,0.7237513960364725
417,3642.92,0.7301878554384279
418,3645.6499999999996,0.7452592609739528
419,3648.38,0.7386825665094776
420,3651.11,0.7456215720450025
421,3653.8500000000004,0.7229079314469578
422,3656.58,0.7524055369824827
423,3659.31,0.7304572425180076
424,3662.04,0.7080186480535324
425,3664.78,0.7326629074554878
426,3667.5099999999998,0.7129906129910126
427,3670.2400000000002,0.7181177185265375
428,3672.98,0.7065914779284929
429,3675.71,0.7228970834640178
430,3678.44,0.7264659889995426
431,3681.17,0.7178933945350675
432,3683.9100000000003,0.7148145539370228
433,3686.64,0.6965340594725478
434,3689.3700000000003,0.6924783650080726
435,3692.1,0.6994436705435975
436,3694.8399999999997,0.7197111299455528
437,3697.57,0.7235951354810776
438,3700.3,0.7207213410166025
439,3703.0299999999997,0.7274503465521274
440,3705.77,0.7190929059540827
441,3708.5,0.7189064114896077
442,3711.23,0.6990503170251324
443,3713.97,0.7430578764270879
444,3716.7,0.7338813819626127
445,3719.4300000000003,0.7702943874981375
446,3722.16,0.8907789930336625
447,3724.9,1.0595792524356178
448,3727.63,1.4052282579711428
449,3730.3599999999997,1.7051652635066676
450,3733.09,1.5409782690421925
451,3735.83,1.1527749284441478
452,3738.5600000000004,0.8836036339796727
453,3741.29,0.7858039395151974
454,3744.0299999999997,0.7708021989171528
455,3746.76,0.7890074044526777
456,3749.49,0.7716987099882026
457,3752.22,0.7296343155237275
458,3754.96,0.7511358749256828
459,3757.69,0.7927661804612076
460,3760.42,0.8148844859967325
461,3763.15,0.8113803915322573
462,3765.89,0.8025499509342127
463,3768.62,0.7971726564697377
464,3771.35,0.7609118620052625
465,3774.0800000000004,0.7512101675407873
466,3776.82,0.7996382269427427
467,3779.5499999999997,0.8655866324782675
468,3782.28,0.9139925380137924
469,3785.02,0.9423651974157478
470,3787.7499999999995,0.9441837029512727
471,3790.48,0.9227871084867976
472,3793.21,0.8773614140223224
473,3795.9500000000003,0.8279044734242776
474,3798.68,0.7907248789598026
475,3801.41,0.7634104844953274
476,3801.8939600000003,0.7651279052876268
477,3804.14,0.7731535087375627
478,3806.88,0.8382284088192862
479,3809.61,0.9085680096306384
480,3812.34,0.9254749104419907
481,3815.08,0.9210269105237141
482,3817.81,0.9326728113350664
483,3820.54,0.9345670121464187
484,3823.2699999999995,0.8974281129577709
485,3826.01,0.8745010130394943
486,3828.74,0.8451092138508466
487,3831.4700000000003,0.8087318146621989
488,3834.2,0.7677586154735512
489,3836.9399999999996,0.7290052155552746
490,3839.67,0.7409572163666268
491,3842.4,0.7899114171779791
492,3845.13,0.8425161179893312
493,3847.87,0.8957380180710548
494,3850.6,0.937207918882407
495,3853.33,0.9659675196937594
496,3856.0699999999997,0.9859247197754828
497,3858.8,0.9873113205868351
498,3861.53,0.9971453213981872
499,3864.2599999999998,1.0120476222095394
500,3867.0,1.025728322291263
501,3869.73,1.0207160231026153
502,3872.4599999999996,1.0117380239139675
503,3875.19,0.9959147247253197
504,3877.93,0.9603468248070431
505,3880.6600000000003,0.9274186256183955
506,3883.39,0.8882664264297477
507,3886.1299999999997,0.8411352265114712
508,3888.86,0.8145970273228235
509,3891.5899999999997,0.7956483281341757
510,3894.32,0.813089128945528
511,3897.06,0.8340098290272514
512,3899.7900000000004,0.8657892298386036
513,3902.52,0.912047430649956
514,3905.25,0.9485190314613081
515,3907.9900000000002,0.9722580315430317
516,3910.72,0.9826959323543839
517,3913.45,0.9971956331657361
518,3916.1800000000003,1.0179368339770882
519,3918.92,1.0197474340588117
520,3921.6499999999996,1.008546034870164
521,3924.38,0.9826121356815163
522,3927.12,0.9575399357632399
523,3929.85,0.897921636574592
524,3932.58,0.8546199373859443
525,3935.3100000000004,0.8130165381972966
526,3938.05,0.81237683827902
527,3940.7799999999997,0.8784359390903723
528,3943.51,0.9297276399017246
529,3946.24,0.9659278407130768
530,3948.9800000000005,0.9814732407948003
531,3951.71,0.9928128416061526
532,3954.44,1.0010887424175048
533,3957.1800000000003,0.9513572424992283
534,3959.91,0.9018757433105805
535,3962.64,0.8569372441219327
536,3965.37,0.8056081449332849
537,3968.11,0.7445326450150085
538,3970.84,0.7091443458263608
539,3973.57,0.7255519466377129
540,3976.2999999999997,0.7665139474490652
541,3979.04,0.8145891475307887
542,3981.77,0.8896558483421408
543,3984.5000000000005,0.9481693491534932
544,3987.23,0.9652075499648454
545,3989.97,0.993664850046569
546,3992.7000000000003,1.0198595508579211
547,3995.43,1.0288794516692734
548,3998.1699999999996,1.043741951750997
549,4000.9,1.047780852562349
550,4003.63,1.0442041533737014
551,4006.36,1.0526199541850536
552,4009.1,1.0623438542667771
553,4011.83,1.0730356550781295
554,4014.56,1.0495878558894816
555,4017.29,1.0840900567008338
556,4020.03,1.0663271567825572
557,4022.76,1.0924256575939095
558,4025.49,1.0734421584052618
559,4028.23,1.0616317584869854
560,4030.96,1.0620817592983376
561,4033.6899999999996,1.0655955601096898
562,4036.42,1.064732560921042
563,4039.16,1.0633391610027654
564,4041.8900000000003,1.0829597618141178
565,4044.62,1.07938296262547
566,4047.35,1.0806207634368223
567,4050.09,1.0826413635185457
568,4052.8199999999997,1.054641664329898
569,4055.55,1.0733868651412504
570,4058.28,1.0791767659526024
571,4061.02,1.0685918660343259
572,4063.75,1.0447938668456782
573,4066.48,1.0472572676570304
574,4069.2200000000003,1.044025667738754
575,4071.95,1.0301457685501063
576,4074.68,1.0563055693614585
577,4077.4100000000003,1.0255219701728107
578,4080.15,1.009431270254534
579,4082.8799999999997,1.0058193710658863
580,4085.61,1.0278121718772386
581,4088.3399999999997,1.0008190726885908
582,4091.0800000000004,0.9816032727703143
583,4093.81,0.9381791735816667
584,4096.54,0.9222069743930188
585,4099.28,0.8932749744747424
586,4102.01,0.8699144752860946
587,4104.74,0.8886155760974468
588,4107.469999999999,0.8793134769087991
589,4110.21,0.8986322769905226
590,4112.94,0.9239252778018747
591,4115.67,0.937917178613227
592,4118.4,0.9663002794245793
593,4121.139999999999,0.9969808795063029
594,4123.87,0.996782980317655
595,4126.6,1.0016009811290072
596,4129.34,1.0108874812107307
