,lambda (Angstroms),Total Flux (erg/s/cm^2/Angstrom)
0,101.99,0.02336206211789311
1,103.89,0.02734885011714415
2,104.712855,0.029077070768383555
3,106.07000000000001,0.026728246954388975
4,108.03999999999999,0.02333028982640787
5,110.05,0.01990259515674184
6,113.91,0.01326706698414938
7,117.92,0.00637401483023855
8,120.22644299999999,0.0031905066334255447
9,120.94000000000001,0.0033914804042787516
10,124.89999999999999,0.003376401728984766
11,126.92999999999999,0.003331246867659819
12,128.10999999999999,0.0033288879088600957
13,131.09,0.003256455097654014
14,132.0,0.0035492033667152444
15,134.14000000000001,0.003486574153298796
16,136.95000000000002,0.00388311852259776
17,138.038426,0.0038736887236501946
18,140.14000000000001,0.004018947610477411
19,143.07999999999998,0.009556184433994162
20,147.09,0.021246544240899664
21,150.86,0.02226787849078339
22,155.09,0.023655742808292187
23,158.489319,0.024974220240836956
24,159.06,0.02519469568783888
25,162.02,0.026230444539019918
26,166.18,0.02805630292446353
27,170.04999999999998,0.029344920172460355
28,172.81,0.030560684101264293
29,176.83999999999997,0.031967161287162794
30,180.12,0.032990100014147185
31,181.79000000000002,0.03374443311599594
32,181.970086,0.03380355434549346
33,186.03,0.03515988152532987
34,190.8,0.036895687681295156
35,193.9,0.038271542478673024
36,197.96,0.039610778955238866
37,202.1,0.04118862807173704
38,204.91,0.042241134549360196
39,208.929613,0.04217295096635128
40,210.17000000000002,0.042160770083141785
41,216.06,0.046138102495064
42,220.07999999999998,0.047775925482487984
43,223.14000000000001,0.048243019995303255
44,226.76000000000002,0.05006590278497362
45,229.92,0.0755462723472273
46,234.19,0.1253628529582473
47,239.88329199999998,0.15636002243269823
48,240.2,0.15807940266887216
49,245.79,0.14652182918881274
50,252.1,0.15477388434817316
51,256.79,0.12615875006883887
52,259.76,0.1484557307064459
53,263.98,0.1561100068986014
54,268.89,0.15465592303686762
55,273.89,0.15249430525506133
56,275.42287,0.15154466316797707
57,278.98,0.14939275793665996
58,284.17,0.14909338662028407
59,290.12,0.1408191304868666
60,296.19,0.14022427675075835
61,301.0,0.13490324784290322
62,308.02,0.13556503808549306
63,316.227766,0.13562407589861783
64,318.11,0.13561309262375235
65,327.77,0.13249908363398513
66,337.72999999999996,0.12767102219111953
67,347.98999999999995,0.12301700829515559
68,356.92,0.12156622027459438
69,363.078055,0.12266071713709002
70,366.08000000000004,0.1232237056994419
71,374.6,0.11964833238525267
72,385.1,0.11045557090649832
73,394.97999999999996,0.1146238441055371
74,405.10999999999996,0.11546109203127221
75,413.59,0.11236864676081156
76,416.86938299999997,0.11047808947932777
77,422.25,0.10736692271814213
78,430.1,0.1040008701794792
79,441.14,0.10379234559007301
80,451.41,0.10078073494394969
81,459.8,0.09586072522428321
82,470.51000000000005,0.09329344946771254
83,478.630092,0.09331122295168472
84,480.37000000000006,0.09330465948353275
85,490.43,0.08709402816249721
86,499.53999999999996,0.08907957959046602
87,506.49,0.08449966579511839
88,512.36,0.09426645438811257
89,519.48,0.09128433567978522
90,530.36,0.08657014124908274
91,540.22,0.07879032629625865
92,549.5408739999999,0.07597398711671816
93,550.27,0.07575534202370043
94,560.5,0.08056760173379214
95,569.6,0.082422545249123
96,580.19,0.07926850870267835
97,589.62,0.07817614898285087
98,600.58,0.07133244517274384
99,610.34,0.06275257221775803
100,620.26,0.07362945314875605
101,630.34,0.06984650796573792
102,630.957344,0.06994316623341797
103,640.58,0.0714746655341466
104,649.4900000000001,0.06860913525672131
105,658.53,0.06480741785964786
106,664.6199999999999,0.0675393835622831
107,675.4200000000001,0.06755614746843429
108,684.81,0.06125602936461573
109,694.3399999999999,0.06442177897809913
110,705.62,0.05710016505785703
111,715.4399999999999,0.0627094449428945
112,724.43596,0.061954085161601176
113,725.3900000000001,0.06187336758180023
114,735.48,0.060903805320142106
115,745.71,0.0585997912431587
116,754.35,0.05715327492594104
117,764.8399999999999,0.050786010334782104
118,775.48,0.055003972370060356
119,784.46,0.051265193072767
120,795.38,0.052453791477394686
121,804.59,0.05234102634063836
122,815.78,0.051642882672853
123,825.23,0.05106685013839617
124,831.763771,0.04621352527812268
125,834.78,0.0439649548951571
126,844.45,0.04867116877321652
127,854.23,0.04734506021348757
128,864.12,0.04743438921597026
129,874.12,0.0467750157806646
130,884.25,0.04601782310069995
131,894.48,0.04527313638638225
132,904.8399999999999,0.043936220427405574
133,915.32,0.04351932362720524
134,925.92,0.07818657598578123
135,934.49,0.11302216424172427
136,945.3100000000001,0.14279405172472354
137,954.0500000000001,0.16051136712226635
138,954.992586,0.16135165602977572
139,965.1,0.17037779237085207
140,974.0300000000001,0.08216211479055618
141,985.31,0.13889171363649822
142,994.4300000000001,0.13357216078853643
143,1005.94,0.1593904127315145
144,1015.25,0.16122730461588688
145,1024.64,0.11117087322966307
146,1034.1200000000001,0.1411255156640186
147,1046.1,0.18376813089224425
148,1055.78,0.1767300151501094
149,1065.55,0.15117537322855387
150,1075.41,0.16307180512757763
151,1085.36,0.13949581084718074
152,1095.4,0.1641941903873632
153,1096.4782,0.16337207356855443
154,1105.54,0.15645692680987133
155,1115.77,0.15184111332156114
156,1126.09,0.13505391789640367
157,1133.89,0.1557159167029707
158,1144.39,0.14735175740411857
159,1154.98,0.1470026161684192
160,1165.66,0.14432069299587252
161,1173.74,0.10368773688780347
162,1184.6,0.13656314984156218
163,1195.56,0.11681057175437944
164,1203.8500000000001,0.10015300446033336
165,1214.99,0.078882902499456
166,1226.23,0.1125688494976372
167,1234.73,0.13219671101761407
168,1246.16,0.13525640503800654
169,1254.79,0.13096884820475954
170,1258.92541,0.12866697687427703
171,1266.41,0.1245081679668617
172,1275.1799999999998,0.13807213588423348
173,1284.02,0.13934710833458316
174,1295.9,0.12002037764568656
175,1304.8899999999999,0.11946955980956027
176,1313.93,0.1346320452112753
177,1326.0900000000001,0.12858443265429023
178,1335.28,0.11919822776952933
179,1344.54,0.1291777274177463
180,1353.8600000000001,0.12537493095137286
181,1366.38,0.11569344170684548
182,1375.8500000000001,0.11569515495399608
183,1385.3899999999999,0.11437167273412457
184,1395.0000000000002,0.09111619504723095
185,1404.66,0.08905153059817868
186,1414.4,0.10602995132967254
187,1424.2099999999998,0.10361928659414428
188,1434.0800000000002,0.10578242574402565
189,1440.7,0.10725225443421962
190,1445.43977,0.1072520624435271
191,1447.3500000000001,0.10725196518718909
192,1454.03,0.10362192824345322
193,1464.1100000000001,0.09761853608883381
194,1474.26,0.09761972773869619
195,1484.47,0.098067282649543
196,1494.76,0.097175181908369
197,1505.13,0.09238692551517423
198,1512.0700000000002,0.0850605827023708
199,1515.56,0.08784187238296387
200,1526.06,0.08643941305523531
201,1536.6399999999999,0.07549789807548596
202,1543.74,0.07161856395864093
203,1554.44,0.07031782550086041
204,1565.21,0.07567671084756168
205,1576.06,0.07941090054224217
206,1583.33,0.08106863566485296
207,1594.31,0.08125119242499967
208,1605.3600000000001,0.0790461729896282
209,1616.4899999999998,0.07778779790223593
210,1623.95,0.07550207335129734
211,1635.21,0.07850401532937129
212,1646.54,0.07832752111192705
213,1654.14,0.07550366416995209
214,1659.58691,0.07684521074565398
215,1665.61,0.07833073080851331
216,1673.3,0.07179756301547283
217,1677.15,0.07997074110348247
218,1684.89,0.08015732315574081
219,1696.57,0.07621866901754666
220,1704.41,0.07381049076040266
221,1716.22,0.07018460821998548
222,1724.14,0.06907448171531959
223,1736.0900000000001,0.07231796474173913
224,1744.1100000000001,0.07067973792767088
225,1756.2,0.07282566652092713
226,1764.3,0.06892882145933701
227,1776.53,0.06830422561942998
228,1784.73,0.06925491024843751
229,1792.97,0.07167876075368412
230,1805.4,0.07103244429497238
231,1813.73,0.06601720052175687
232,1826.3,0.06693081962988184
233,1834.73,0.06512162554726399
234,1843.2,0.06025081734088519
235,1855.98,0.06053021979926524
236,1864.5400000000002,0.06193842731442434
237,1873.15,0.06454494467488225
238,1886.13,0.05999410651445761
239,1894.8400000000001,0.05823846356551318
240,1903.59,0.060968636492807815
241,1905.46072,0.060639041610375616
242,1916.78,0.058634457865512545
243,1925.63,0.05626821006196792
244,1934.5200000000002,0.0571731617937745
245,1943.4499999999998,0.0605305030609323
246,1956.92,0.05651043159045251
247,1965.9499999999998,0.06121843169598834
248,1975.0300000000002,0.061772836220713175
249,1984.14,0.060095945396951414
250,1993.3000000000002,0.05886428899237868
251,2007.1200000000001,0.05980946845622198
252,2016.38,0.05885258089002727
253,2025.69,0.05884779774302157
254,2035.04,0.05791229413136708
255,2044.43,0.0599306100550638
256,2053.87,0.05480439039794953
257,2063.35,0.05581068027618648
258,2072.87,0.06102418968977463
259,2077.65,0.07130711416424432
260,2087.24,0.08015097776469708
261,2096.88,0.07515889578433887
262,2106.56,0.07429881333933187
263,2116.28,0.07885575042967609
264,2126.0499999999997,0.0746280119392093
265,2135.86,0.07127704298409374
266,2145.7200000000003,0.07975535844816718
267,2155.62,0.08048256344759185
268,2165.57,0.07393054286620551
269,2175.57,0.07409136670400819
270,2185.61,0.08328551007716209
271,2187.7616199999998,0.0832442002083376
272,2195.7,0.08309908740047085
273,2205.83,0.0814036795063293
274,2216.0099999999998,0.06948728200757698
275,2226.24,0.07512868490421389
276,2236.52,0.09006639819624003
277,2246.84,0.08642348780457755
278,2257.21,0.07260260780830431
279,2262.42,0.06950556300786231
280,2272.8599999999997,0.073781711565134
281,2283.35,0.08966605051779492
282,2293.89,0.07724370986584507
283,2304.48,0.08844244960928446
284,2315.12,0.07795666974811306
285,2325.8,0.06445362620325307
286,2336.54,0.06299452713286015
287,2347.32,0.051975604378778614
288,2352.73,0.07345399115989354
289,2363.59,0.054167331038434775
290,2374.5,0.06171922131236524
291,2385.46,0.04776624198168494
292,2396.47,0.05355578304639388
293,2407.54,0.05306975858556989
294,2413.09,0.05763018247377467
295,2424.22,0.08125627248741775
296,2435.41,0.08163181697552793
297,2446.65,0.09367604185902732
298,2452.3,0.09852464653801057
299,2463.61,0.0856619899750549
300,2474.99,0.07797901196564415
301,2486.41,0.05544401027254478
302,2492.14,0.061175507584150794
303,2503.64,0.0876525485236742
304,2511.88643,0.06089680337668448
305,2515.2000000000003,0.050143969189884584
306,2526.81,0.04714145630696956
307,2532.64,0.06521981591873574
308,2544.3300000000004,0.06733736040613657
309,2556.0699999999997,0.11303949699998476
310,2567.87,0.08623173412156984
311,2573.7900000000004,0.10771599952494133
312,2585.67,0.09647694401684224
313,2597.6,0.08781445061519055
314,2603.59,0.0779474149675884
315,2615.6099999999997,0.07176952735754201
316,2627.68,0.09234466185394302
317,2633.74,0.15584223515536721
318,2645.9,0.20530961544337353
319,2652.0,0.29117935242995563
320,2664.24,0.1809155200882778
321,2676.5299999999997,0.20528347985304735
322,2682.7000000000003,0.24000740578865581
323,2695.09,0.17276594976632018
324,2707.53,0.21589688585043187
325,2713.77,0.15578110073506668
326,2726.29,0.12072172418949426
327,2732.58,0.15434133118057647
328,2745.19,0.09186301042660934
329,2757.8599999999997,0.12209344020037907
330,2764.22,0.15863493614048763
331,2776.98,0.1680039217058627
332,2783.3799999999997,0.10371871133112917
333,2796.23,0.05459167268810954
334,2802.67,0.06334875599853394
335,2815.61,0.1480351231471196
336,2822.1000000000004,0.2143084985639914
337,2835.13,0.2009379415041824
338,2848.21,0.14201557655082075
339,2854.78,0.08453504933800839
340,2867.96,0.19952925859754156
341,2874.57,0.2810473150698871
342,2884.0315,0.26133909260126165
343,2887.8399999999997,0.25340660906817186
344,2894.5,0.31965838755059994
345,2907.8500000000004,0.43908404441853005
346,2928.0099999999998,0.3789370792842582
347,2948.31,0.34638901369766506
348,2968.7400000000002,0.36267424769105927
349,2989.3199999999997,0.3676889811998234
350,3010.04,0.36681571425626625
351,3030.91,0.3966338468280791
352,3051.92,0.4133685789475706
353,3073.07,0.45948771061474086
354,3087.26,0.44591936476874294
355,3108.66,0.5298762956281965
356,3130.2000000000003,0.48547702603532866
357,3151.9,0.4888001559255222
358,3166.4500000000003,0.5420939089164124
359,3188.4,0.46247853799888916
360,3210.5,0.514072166596736
361,3232.75,0.42859459470995287
362,3247.68,0.6207404464731137
363,3270.19,0.7325796737463053
364,3292.86,0.7175165005025581
365,3308.05,0.6649625514256936
366,3311.31121,0.657322168704091
367,3323.32,0.6291871992055779
368,3330.99,0.65581022549315
369,3338.66,0.587225051780722
370,3346.3599999999997,0.6914230762154424
371,3354.07,0.6679171000325456
372,3361.81,0.609168321996797
373,3369.56,0.6219192433434311
374,3377.3199999999997,0.602178464072448
375,3385.11,0.6077172829486132
376,3392.9100000000003,0.6802336012071611
377,3400.73,0.7579640182304745
378,3408.57,0.6771126340185535
379,3416.43,0.6007220485713979
380,3424.31,0.7631239618890079
381,3432.2000000000003,0.8064294745890006
382,3440.11,0.6895892860537588
383,3448.04,0.5490789962832825
384,3455.99,0.6646264052775718
385,3463.96,0.5528423130366265
386,3471.94,0.7071786201780639
387,3479.95,0.5279434254666497
388,3487.9700000000003,0.6288505301376182
389,3496.0099999999998,0.5854924335733522
390,3504.07,0.7860909357738517
391,3512.15,0.7119623367391167
392,3520.2400000000002,0.7896408370867645
393,3528.3599999999997,0.5111150355815606
394,3536.49,0.7352537334587393
395,3538.4700000000003,0.9361731111705246
396,3541.17,0.8275104444138681
397,3543.87,0.7761380776572115
398,3546.58,0.9402072102829379
399,3549.28,0.9479013435262813
400,3551.98,0.7547812767696248
401,3554.6899999999996,0.7752739093953511
402,3557.3900000000003,0.8003971426386945
403,3560.09,0.7587615758820381
404,3562.7999999999997,0.6394432085077645
405,3565.5,0.7299261417511079
406,3568.2000000000003,0.7282059749944514
407,3570.91,0.6216368076201777
408,3573.6099999999997,0.7029209408635212
409,3576.31,0.7696270741068647
410,3579.02,0.6243799067325909
411,3581.72,0.6182484399759345
412,3584.4199999999996,0.550791273219278
413,3587.13,0.5251723058450042
414,3589.83,0.5939866390883477
415,3592.5299999999997,0.7290653723316912
416,3595.2400000000002,0.8445047049574175
417,3597.94,0.804483238200761
418,3600.64,0.7575758714441045
419,3603.3500000000004,0.7867293040698309
420,3606.05,0.7016819373131744
421,3608.75,0.7380480705565179
422,3611.46,0.7511710031822441
423,3614.1600000000003,0.7048553364255876
424,3616.86,0.7016287696689312
425,3619.5699999999997,0.7878043022946574
426,3622.2700000000004,0.8126586355380009
427,3624.9700000000003,0.8462813687813444
428,3627.68,0.9043221014070706
429,3630.38,0.8349828346504141
430,3633.0800000000004,0.8240638678937576
431,3635.79,0.7932905005194839
432,3638.49,0.8521427337628275
433,3641.19,0.835306467006171
434,3643.9,0.7994225996318972
435,3646.6,0.7500406328752408
436,3649.2999999999997,0.8200284661185843
437,3652.0099999999998,0.8227687987443105
438,3654.71,0.943592131987654
439,3657.41,0.9094342652309976
440,3660.12,0.9187370978567238
441,3662.82,1.0609166311000673
442,3665.52,0.9427323643434108
443,3668.23,0.922502296969137
444,3670.93,0.9026538302124806
445,3673.63,0.8745745634558241
446,3676.34,0.8379373960815504
447,3679.04,0.8755947293248938
448,3681.7400000000002,0.8771024625682373
449,3684.4500000000003,0.8365921951939637
450,3687.15,0.8596174284373072
451,3689.85,0.9155112616806507
452,3692.56,1.019868794306377
453,3695.26,1.0291766275497203
454,3697.96,1.044778460793064
455,3700.6699999999996,0.9994800934187902
456,3703.3700000000003,0.8967345266621337
457,3706.07,0.8920021599054773
458,3708.7799999999997,0.8493937925312034
459,3711.4799999999996,0.852676625774547
460,3714.1800000000003,0.9079786590178904
461,3716.89,0.9319674916436168
462,3719.5899999999997,0.8393351248869604
463,3722.29,0.7016227581303037
464,3725.0,0.7834948907560301
465,3727.7,0.8216901239993736
466,3730.3999999999996,0.7423447572427171
467,3733.11,0.6757445898684433
468,3735.81,0.6897322231117868
469,3738.5099999999998,0.6347553563551304
470,3741.2200000000003,0.7358861889808566
471,3743.92,0.6954878222242001
472,3746.62,0.7120574554675436
473,3749.3300000000004,0.6955937880932699
474,3752.03,0.7680021213366134
475,3754.73,0.8082415545799568
476,3757.44,0.7749398872056832
477,3760.1400000000003,0.7521861204490268
478,3762.84,0.8211516536923702
479,3765.5499999999997,0.8372868863180964
480,3768.25,0.83922481956144
481,3770.9500000000003,0.8878025528047835
482,3773.66,0.9436376854305097
483,3776.36,0.9812951186738532
484,3779.0600000000004,0.9779615519171968
485,3781.77,0.9702114845429229
486,3784.47,0.9862439177862665
487,3787.18,0.9051188504119928
488,3789.88,0.8368552836553363
489,3792.58,0.8275501168986797
490,3795.29,0.7628864495244061
491,3797.99,0.7302344827677496
492,3800.69,0.7938744160110931
493,3801.8939600000003,0.8216675139063278
494,3803.4,0.856434068017733
495,3806.1,0.9241085360068118
496,3808.8,0.8929633039958904
497,3811.51,0.7841343714960397
498,3814.21,0.7781107394851183
499,3816.91,0.812701707474197
500,3819.6200000000003,0.7155463749743464
501,3822.32,0.650456542963425
502,3825.02,0.6569667109525037
503,3827.7299999999996,0.560349878452653
504,3830.4300000000003,0.5140285464417316
505,3833.13,0.5650318144308103
506,3835.8399999999997,0.5874618819309596
507,3838.5399999999995,0.5706251499200383
508,3841.2400000000002,0.542545317909117
509,3843.95,0.6765446854092663
510,3846.6499999999996,0.656964653398345
511,3849.3500000000004,0.6941374213874235
512,3852.06,0.6966632888875729
513,3854.7599999999998,0.7074231568766516
514,3857.4599999999996,0.6512092248657302
515,3860.17,0.6923593923658795
516,3862.87,0.7109194603549582
517,3865.5699999999997,0.680257728344037
518,3868.28,0.7658956958441862
519,3870.98,0.7429267638332648
520,3873.68,0.7369568318223436
521,3876.3900000000003,0.7358243993224928
522,3879.09,0.7130705673115715
523,3881.79,0.6975251353006502
524,3884.5,0.7166733028007994
525,3887.2000000000003,0.7642286707898781
526,3889.9,0.8580472387789568
527,3892.61,0.9042533062791062
528,3895.31,0.9442239742681847
529,3898.01,0.9367480422572635
530,3900.72,0.9414247097574128
531,3903.42,0.9576721777464914
532,3906.1200000000003,0.9748877457355701
533,3908.83,1.0310998132357194
534,3911.5299999999997,1.0510046812247982
535,3914.23,1.0699425492138768
536,3916.94,1.038146416714026
537,3919.64,0.9732718847031048
538,3922.34,0.8831138526921833
539,3925.0499999999997,0.7399106201923327
540,3927.75,0.6870319881814114
541,3930.45,0.55442985617049
542,3933.16,0.42625242367063937
543,3935.86,0.471187291659718
544,3938.56,0.5533535596487967
545,3941.27,0.6470611271489459
546,3943.97,0.8048408951380247
547,3946.67,0.9116778631271034
548,3949.38,0.9951632306272526
549,3952.08,1.0090436986163314
550,3954.7799999999997,1.0032895666054098
551,3957.4900000000002,0.9296414341055592
552,3960.19,0.8843481020946379
553,3962.89,0.7556732700837167
554,3965.6000000000004,0.646253037583866
555,3968.3,0.5897700055729446
556,3971.0,0.6317305735620232
557,3973.7099999999996,0.7342063410621726
558,3976.4100000000003,0.8864993090512512
559,3979.11,1.07402737704033
560,3981.8199999999997,1.1642912445404792
561,3984.5199999999995,1.246598112529558
562,3987.2200000000003,1.3170709805186367
563,3989.93,1.2809698480187857
564,3992.6299999999997,1.3424057160078644
565,3995.3300000000004,1.3470875839969432
566,3998.04,1.3273944514970926
567,4000.74,1.3792003194861713
568,4003.4399999999996,1.44429418747525
569,4006.15,1.4279360549753992
570,4008.85,1.4989459229644777
571,4011.5499999999997,1.5888387909535564
572,4014.26,1.5463366584537057
573,4016.96,1.5276185264427844
574,4019.66,1.526652394431863
575,4022.37,1.5351462619320124
576,4025.07,1.5113181299210912
577,4027.77,1.4792589979101696
578,4030.48,1.426589865410319
579,4033.1800000000003,1.4426227333993977
580,4035.89,1.4724196008995472
581,4038.59,1.4849564688886259
