,lambda (Angstroms),Total Flux (erg/s/cm^2/Angstrom)
0,102.00000000000001,0.015202122866714657
1,103.89,0.017779881638378566
2,104.712855,0.018902742936698694
3,106.07000000000001,0.017366903441228924
4,108.03999999999999,0.01514070322196294
5,110.05,0.012884575469919956
6,113.91999999999999,0.008518208183747671
7,117.92,0.004004560506050189
8,120.22644299999999,0.0016273709843683207
9,120.95,0.0016651618052914297
10,124.91,0.0015482078982933054
11,126.94,0.0014785242116250748
12,128.10999999999999,0.0014463450754665388
13,131.1,0.0013444489719502775
14,132.01,0.0013967157882714158
15,134.15,0.0013246379486310145
16,136.96,0.0013534299045237592
17,138.038426,0.0013232835921680856
18,140.15,0.0013712778291007333
19,143.07999999999998,0.0026926620902330855
20,147.09,0.005149797365707738
21,150.87,0.00548981241590579
22,155.09,0.005906775027502556
23,158.489319,0.006316673062127581
24,159.07000000000002,0.006386114929004349
25,162.02999999999997,0.0067098689850394605
26,166.18,0.007240513357521121
27,170.06,0.00769416949854012
28,172.82,0.008074620753491777
29,176.83999999999997,0.008547664755269193
30,180.13000000000002,0.008911220983092005
31,181.8,0.00917055582213884
32,181.970086,0.00918972058559008
33,186.03,0.009662478674243299
34,190.81,0.010317967083206168
35,193.91,0.010774351176885017
36,197.97,0.011275856022154737
37,202.10999999999999,0.01185441426339036
38,204.92,0.012266512296692803
39,208.929613,0.01239721027074073
40,210.17999999999998,0.012443787427965642
41,216.07000000000002,0.013779023479891921
42,220.09,0.014404880853193046
43,223.15,0.014718489600034204
44,226.76999999999998,0.015384448378977011
45,229.93,0.02303095427440775
46,234.2,0.037849454519182826
47,239.88329199999998,0.04809511047873862
48,240.21,0.048680769451838996
49,245.80999999999997,0.04605899787135748
50,252.11,0.04896201359331578
51,256.8,0.040020908519662515
52,259.77,0.04760407750287143
53,263.99,0.050271009526151426
54,268.90000000000003,0.05024820474755067
55,273.90000000000003,0.04988003690783504
56,275.42287,0.04973748224364098
57,278.99,0.04943741654056707
58,284.18,0.049573487556666955
59,290.13,0.04727553257512443
60,296.2,0.04752522559395415
61,301.02,0.04573428360890625
62,308.03000000000003,0.04640161263065195
63,316.227766,0.047049269481123444
64,318.12,0.047182700259006886
65,327.79,0.04650443349118829
66,337.75,0.04531664587924691
67,348.01,0.044053241532006085
68,356.93999999999994,0.04352133071125944
69,363.078055,0.04363458592513417
70,366.09000000000003,0.04370940744796335
71,374.62,0.042742261338446504
72,385.12,0.04012190351313267
73,394.99,0.04098411095733768
74,405.13,0.04082372471460603
75,413.61,0.039836958547114484
76,416.86938299999997,0.03937535992460377
77,422.27,0.03860446521783752
78,430.12,0.03757788842517714
79,441.15000000000003,0.03717232614198683
80,451.43,0.036106143361279985
81,459.82,0.0347518841268315
82,470.53,0.03391362403136747
83,478.630092,0.033549194928684196
84,480.39,0.03346317942377253
85,490.45,0.03188572119562198
86,499.56,0.03186657638861887
87,506.51,0.030786151360224605
88,512.38,0.03242153622113478
89,519.51,0.03153344454452311
90,530.38,0.030247731399394243
91,540.25,0.02829830185547319
92,549.5408739999999,0.027343956829426724
93,550.29,0.02726812118447774
94,560.52,0.027886814000966632
95,569.63,0.027880040106363874
96,580.22,0.026877154722846512
97,589.65,0.026445181317127087
98,600.61,0.02486348056138107
99,610.37,0.021690980472322572
100,620.28,0.024625692799928135
101,630.3599999999999,0.023576923199752967
102,630.957344,0.02357964933044611
103,640.61,0.023639956697124747
104,649.52,0.022856650643238635
105,658.55,0.02190072060209479
106,664.65,0.022257237916493748
107,675.4499999999999,0.021966629063298455
108,684.84,0.020579267060381434
109,694.37,0.020964780405663738
110,705.65,0.019380545603437545
111,715.47,0.020193949312847015
112,724.43596,0.01983695937882599
113,725.42,0.019797368644193368
114,735.5100000000001,0.019448388786314306
115,745.75,0.01884956143798114
116,754.38,0.018393928487188644
117,764.88,0.016555274155401714
118,775.52,0.01767528683252429
119,784.5000000000001,0.01678997640400556
120,795.41,0.016871267598310757
121,804.62,0.01672592368442908
122,815.8100000000001,0.01643475889655329
123,825.26,0.016220656997945053
124,831.763771,0.015123661731157482
125,834.82,0.014602819565034324
126,844.4799999999999,0.01549973563743171
127,854.26,0.015077167810107326
128,864.1500000000001,0.014964488074704647
129,874.16,0.0147864144395802
130,884.2800000000001,0.01451120889637746
131,894.52,0.01427293945345295
132,904.88,0.013913676110806667
133,915.36,0.014670078868438614
134,925.9599999999999,0.02963857772634879
135,934.53,0.0476275808878856
136,945.3499999999999,0.07157533592963919
137,954.0899999999999,0.08981038523323683
138,954.992586,0.09057024169331804
139,965.14,0.09912324955913251
140,974.0699999999999,0.03302464698074679
141,985.35,0.0859722389869964
142,994.4699999999999,0.08636466039630457
143,1005.98,0.11297576880870996
144,1015.29,0.10864680420571207
145,1024.69,0.055225932544253405
146,1034.1699999999998,0.0830538357197185
147,1046.14,0.13482545694443548
148,1055.82,0.13145932221221
149,1065.59,0.10814177042152368
150,1075.45,0.1232669015723766
151,1085.3999999999999,0.09955780566476875
152,1095.45,0.1258362108033156
153,1096.4782,0.12529034926637375
154,1105.58,0.12045461654057249
155,1115.81,0.11610144788928403
156,1126.14,0.10445581991589109
157,1133.94,0.12610099279174153
158,1144.43,0.11555226990298142
159,1155.02,0.12014968769211684
160,1165.71,0.12181054615914776
161,1173.79,0.08769978293310565
162,1184.65,0.11606211055255897
163,1195.61,0.0858927588499078
164,1203.8999999999999,0.06610861104744628
165,1215.04,0.04434926256500704
166,1226.28,0.08183054476046332
167,1234.78,0.1133911723815824
168,1246.21,0.12203869186504017
169,1254.8500000000001,0.11708646643521296
170,1258.92541,0.11068087704933816
171,1263.55,0.10341504395277692
172,1275.24,0.12632073721729947
173,1284.08,0.13044941022485973
174,1295.9599999999998,0.10656151150651313
175,1304.94,0.10485739042143295
176,1313.9899999999998,0.12574067229003252
177,1326.15,0.12008808538640503
178,1335.3400000000001,0.10754527316236416
179,1344.59,0.12373166347004881
180,1353.91,0.11953825673141326
181,1366.4399999999998,0.10804268544009314
182,1375.9099999999999,0.11132328503077138
183,1385.45,0.1118282875751294
184,1395.05,0.09631106265121295
185,1404.72,0.09855188068097626
186,1414.4599999999998,0.10271651166441935
187,1424.27,0.10389872560154223
188,1434.14,0.10319344207039062
189,1440.76,0.10730252140410655
190,1445.43977,0.10800067313756376
191,1447.41,0.1082945886430868
192,1454.0900000000001,0.10510052520985876
193,1464.1699999999998,0.0976565521848679
194,1474.3200000000002,0.09698015163887018
195,1484.54,0.09765700357186556
196,1494.8300000000002,0.09832541798385407
197,1505.1899999999998,0.09326737487483569
198,1512.1399999999999,0.08391443100343823
199,1515.6200000000001,0.08867188424481044
200,1526.1299999999999,0.08625954644792018
201,1536.71,0.07567447113002304
202,1543.8,0.08033123221661181
203,1554.5,0.07619902114841717
204,1565.28,0.07778963291335751
205,1576.13,0.08201090715729097
206,1583.4,0.08488669461843348
207,1594.3799999999999,0.0860650034662113
208,1605.4299999999998,0.08372486479298226
209,1616.56,0.0833414789528882
210,1624.02,0.07923548314272631
211,1635.28,0.08334134190647663
212,1646.6100000000001,0.08372670314922004
213,1654.21,0.0779722722970444
214,1659.58691,0.08076052884113032
215,1665.6799999999998,0.08392152853025611
216,1673.3700000000001,0.07533566734251212
217,1677.22,0.08411734304175603
218,1684.97,0.08647027737140285
219,1696.65,0.081273498090148
220,1704.4799999999998,0.07816345310964924
221,1716.29,0.07431603744940783
222,1724.2099999999998,0.0736393257449953
223,1736.1699999999998,0.0776346888782309
224,1744.1799999999998,0.07552790044990458
225,1756.27,0.07962584720415362
226,1764.38,0.07331152463814535
227,1776.6100000000001,0.07467336759963962
228,1784.81,0.07553745830971755
229,1793.05,0.0796345693647227
230,1805.47,0.07873020146462122
231,1813.81,0.07298816838194437
232,1826.3799999999999,0.07400335927531992
233,1834.81,0.07117496946872932
234,1843.28,0.0653841500070659
235,1856.06,0.06568770521130932
236,1864.62,0.06752377902573213
237,1873.2299999999998,0.07184051577131396
238,1886.21,0.06645382270019341
239,1894.9199999999998,0.06406148530809326
240,1903.67,0.06722437826092033
241,1905.46072,0.06689609152873233
242,1916.86,0.0647995512256595
243,1925.7099999999998,0.06303757091747209
244,1934.6,0.0636153172745584
245,1943.53,0.06736651029691844
246,1957.0000000000002,0.06331671982784673
247,1966.03,0.0686074995133911
248,1975.11,0.06955498253052762
249,1984.2299999999998,0.06658445221293786
250,1993.3899999999999,0.06477356856062184
251,2007.2,0.06596920474637684
252,2016.47,0.06402686442356356
253,2025.77,0.06551059409970561
254,2035.12,0.0634362171074398
255,2044.52,0.06580498344676615
256,2053.96,0.062418846451366236
257,2063.44,0.06255853612124004
258,2072.96,0.06701483245638759
259,2077.74,0.06952065895659822
260,2087.33,0.0741341219559748
261,2096.96,0.06967399162062508
262,2106.64,0.06951172461686755
263,2116.37,0.07161351094470217
264,2126.14,0.07030723393781052
265,2135.9500000000003,0.0660780135961926
266,2145.81,0.07078721658616684
267,2155.71,0.07193040624141481
268,2165.6600000000003,0.06791441922825495
269,2175.6600000000003,0.06744364554668723
270,2185.7,0.07093679853039325
271,2187.7616199999998,0.07127287452921831
272,2195.79,0.07258643513060908
273,2205.9300000000003,0.07061442026085533
274,2216.11,0.0638308660227791
275,2226.34,0.06531664507429973
276,2236.61,0.07411404475749787
277,2246.94,0.07095852038821225
278,2257.31,0.06341917665060413
279,2262.51,0.06255853876867913
280,2272.96,0.06506113629442602
281,2283.45,0.0729908044518504
282,2293.99,0.06583788589887167
283,2304.58,0.07054654063548979
284,2315.21,0.06481529600378542
285,2325.9,0.05273222731959731
286,2336.6400000000003,0.056371281925006074
287,2347.42,0.05004544716209233
288,2352.83,0.06223630509647421
289,2363.69,0.05087131159691547
290,2374.6,0.0553885713869536
291,2385.56,0.04664860446658861
292,2396.58,0.05113909349373987
293,2407.64,0.04976257315256863
294,2413.19,0.05234158829782176
295,2424.33,0.06480020922000553
296,2435.52,0.06363561343178616
297,2446.76,0.07073429093316366
298,2452.4,0.07221802999969117
299,2463.7200000000003,0.06635399876442367
300,2475.09,0.06152985081875306
301,2486.52,0.0518214888205987
302,2492.25,0.05351717180840058
303,2503.75,0.06763452841568184
304,2511.88643,0.05379094356673114
305,2515.31,0.04796470883574194
306,2526.92,0.04571971453271677
307,2532.74,0.05441825583817701
308,2544.43,0.05505374330567362
309,2556.1800000000003,0.07767480460106158
310,2562.07,0.06495194870572839
311,2573.9,0.07627931177163813
312,2585.7799999999997,0.07089077969412398
313,2597.7099999999996,0.06664315247318597
314,2603.7,0.06094523629100502
315,2615.7200000000003,0.05769027981190401
316,2627.79,0.06837293818937913
317,2633.85,0.09850783480640475
318,2646.0099999999998,0.12368043392571687
319,2652.1099999999997,0.16448610642800338
320,2664.35,0.1115634473178373
321,2676.6499999999996,0.12344798203556256
322,2682.82,0.14042444733705564
323,2695.2,0.1065939738253027
324,2707.64,0.12754409414144108
325,2713.88,0.09770845224214073
326,2726.4100000000003,0.08058071330011614
327,2732.69,0.09773503728607667
328,2745.3100000000004,0.06601175908588909
329,2757.98,0.08098635574227762
330,2764.34,0.09959036149875997
331,2777.1,0.10501284889698552
332,2783.5,0.07272809053872875
333,2796.3500000000004,0.04442608867879131
334,2802.79,0.049938086205795436
335,2815.73,0.09475057508769502
336,2822.22,0.12657910747127527
337,2835.2500000000005,0.11789426709501186
338,2841.7799999999997,0.088067265363853
339,2854.9,0.0610058457294266
340,2868.08,0.11526928992289155
341,2874.6899999999996,0.15507480996225448
342,2884.0315,0.14688725970966382
343,2887.96,0.1434444407459882
344,2894.62,0.17563432672517917
345,2907.98,0.23472259859935213
346,2928.13,0.2054612561790366
347,2948.4300000000003,0.18875961344293712
348,2968.8700000000003,0.19499297041210592
349,2989.4500000000003,0.19821512708654296
350,3010.1699999999996,0.19601418346624833
351,3031.04,0.21153153953016968
352,3052.05,0.2205489952993593
353,3073.2,0.24299795077381725
354,3087.39,0.2353425209006521
355,3108.79,0.2765495758488034
356,3130.3399999999997,0.2540628304811707
357,3152.04,0.25590288479775397
358,3166.59,0.28258175416670733
359,3188.5400000000004,0.24453080795698398
360,3210.6400000000003,0.2694287614314766
361,3232.89,0.2288982145901853
362,3247.81,0.3233133831802048
363,3270.3300000000004,0.3781989357705023
364,3293.0,0.3722786880450158
365,3308.1899999999996,0.34513265606662413
366,3311.31121,0.34059309789852
367,3323.4599999999996,0.3229231605820224
368,3331.13,0.34051625191190443
369,3338.81,0.30847034283934816
370,3346.5,0.3517465333643537
371,3354.22,0.3429852226820446
372,3361.9500000000003,0.2590751115972972
373,3369.7,0.3231479997076734
374,3377.4700000000003,0.3079351870131732
375,3385.25,0.3144171739162347
376,3393.06,0.3527913596119815
377,3400.88,0.3877452449052901
378,3408.7200000000003,0.3496362293937223
379,3416.5800000000004,0.31383371307727803
380,3424.45,0.39417899635839554
381,3432.35,0.4156542784321984
382,3440.2599999999998,0.357946960103563
383,3448.19,0.2863705409700511
384,3456.14,0.34827082103166285
385,3464.11,0.2971785002883981
386,3472.0899999999997,0.38371127914269515
387,3480.1,0.3000000567896775
388,3488.12,0.34924153403422165
389,3496.16,0.32225721047388933
390,3504.2200000000003,0.40475558610868057
391,3512.2999999999997,0.37090816093859535
392,3520.39,0.40859863536607194
393,3528.51,0.2688191085862338
394,3536.64,0.3823079814039575
395,3544.8,0.41252255301436647
396,3552.97,0.42023422422233725
397,3561.16,0.37980899462543155
398,3569.37,0.2881949642236495
399,3577.6000000000004,0.3355020330169909
400,3585.84,0.2376095014078941
401,3594.1099999999997,0.33098506859148263
402,3602.39,0.45371943537263293
403,3610.7,0.33183250094646854
404,3619.02,0.40824066611786597
405,3627.36,0.4394977304843869
406,3635.73,0.3243953936435932
407,3644.1099999999997,0.49208395640036123
408,3652.5099999999998,0.3615416183522529
409,3660.93,0.533497979499268
410,3669.3700000000003,0.5002608398414067
411,3677.82,0.5167046997811072
412,3686.3,0.46592805851349306
413,3694.7999999999997,0.5192199164410024
414,3703.32,0.5500346735636353
415,3711.86,0.3544378298813919
416,3720.4100000000003,0.4650859857967101
417,3728.99,0.44524024050471367
418,3737.59,0.2397754944078408
419,3746.2000000000003,0.4061872479085297
420,3754.8399999999997,0.34659060020190396
421,3763.49,0.36970725209283994
422,3772.17,0.3836140027764613
423,3780.8599999999997,0.48407155305764443
424,3789.5800000000004,0.44768690213151285
425,3798.32,0.3724496504005048
426,3798.9,0.48586042705908783
427,3800.62,0.48880915783971324
428,3801.8939600000003,0.4909578278909252
429,3802.35,0.4917269920419234
430,3804.0800000000004,0.5142782369266443
431,3805.81,0.5730730818113654
432,3807.54,0.5790001266960862
433,3809.27,0.45744837158080726
434,3811.0,0.4774737164655282
435,3812.7299999999996,0.5076721613502492
436,3814.46,0.45360490623497013
437,3816.19,0.3597056511196911
438,3817.92,0.37501479600441207
439,3819.65,0.3848982408891331
440,3821.3799999999997,0.353672085773854
441,3823.11,0.373049430658575
442,3824.8399999999997,0.35799907554329596
443,3826.57,0.3599996204280169
444,3828.3,0.3288495653127379
445,3830.0299999999997,0.2703316101974589
446,3831.76,0.26921685508217985
447,3833.49,0.2799693999669008
448,3835.22,0.2768229448516218
449,3836.9399999999996,0.28807279005492814
450,3838.67,0.3956983349396492
451,3840.4,0.4036486798243701
452,3842.13,0.35718822470909106
453,3843.86,0.355091769593812
454,3845.5899999999997,0.427438814478533
455,3847.32,0.39686075936325393
456,3849.05,0.35790390424797497
457,3850.7799999999997,0.43898234913269596
458,3852.51,0.3691322940174169
459,3854.24,0.3103661389021379
460,3855.9700000000003,0.3219099837868588
461,3857.7,0.3536982286715798
462,3859.43,0.4201181735563007
463,3861.1600000000003,0.39341761844102174
464,3862.89,0.3772234633257427
465,3864.6200000000003,0.3708662082104637
466,3866.35,0.37952015309518466
467,3868.08,0.3915025979799056
468,3869.8100000000004,0.3597502428646266
469,3871.54,0.3432032877493475
470,3873.26,0.35237383295265395
471,3874.99,0.3318042778373749
472,3876.7200000000003,0.35562372272209586
473,3878.45,0.3363219676068168
474,3880.18,0.3434431124915378
475,3881.9100000000003,0.3897391573762588
476,3883.64,0.4470276022609797
477,3885.3700000000003,0.4845156471457007
478,3887.1,0.3873085920304217
479,3888.83,0.42037393691514263
480,3890.56,0.5274196817998636
481,3892.29,0.46059852668458456
482,3894.0200000000004,0.4861357715693056
483,3895.75,0.5305274164540266
484,3897.48,0.4541075613387475
485,3899.21,0.43383370622346845
486,3900.94,0.5196395511081894
487,3902.6699999999996,0.5077635959929103
488,3904.4,0.4866391408776314
489,3906.1299999999997,0.4663272857623524
490,3907.86,0.4904893306470733
491,3909.5800000000004,0.5356461758503798
492,3911.31,0.5709635207351007
493,3913.04,0.48517326561982166
494,3914.77,0.4321949105045426
495,3916.5,0.45350725538926356
496,3918.2299999999996,0.45945610027398454
497,3919.96,0.4094401451587055
498,3921.69,0.38050159004342643
499,3923.42,0.36918583492814744
500,3925.15,0.32538667981286845
501,3926.8799999999997,0.34998952469758937
502,3928.61,0.2680987695823104
503,3930.34,0.21433841446703134
504,3932.0699999999997,0.2409892593517523
505,3933.8,0.22447070423647325
506,3935.5299999999997,0.27035704912119424
507,3937.26,0.3485678940059152
508,3938.99,0.3685840388906362
509,3940.72,0.5252434837753571
510,3942.4500000000003,0.5583491286600781
511,3944.18,0.46838427354479906
512,3945.9,0.45593861874810543
513,3947.6299999999997,0.47768936363282644
514,3949.36,0.5103280085175473
515,3951.0899999999997,0.4714929534022684
516,3952.82,0.4767363982869893
517,3954.55,0.4980867431717103
518,3956.2799999999997,0.4450608880564313
519,3958.01,0.40769593294115225
520,3959.74,0.35889067782587325
521,3961.4700000000003,0.2734840227105942
522,3963.2000000000003,0.2642466675953152
523,3964.93,0.2622263124800361
524,3966.6600000000003,0.2553433573647571
525,3968.39,0.2836158022494781
526,3970.12,0.357182947134199
527,3971.85,0.48254889201892
528,3973.58,0.517637136903641
529,3975.3100000000004,0.48841998178836193
530,3977.04,0.5070273266730829
531,3978.77,0.5977132715578038
532,3980.5,0.6379682164425248
533,3982.2200000000003,0.6227086616458312
534,3983.95,0.6323753065305522
535,3985.68,0.6443170514152732
536,3987.4100000000003,0.6497419962999942
537,3989.14,0.6209563411847151
538,3990.8700000000003,0.628208286069436
539,3992.6,0.672638230954157
540,3994.33,0.7059126758388781
541,3996.06,0.689671420723599
542,3997.79,0.6762672656083198
543,3999.5199999999995,0.6881835104930408
544,4001.25,0.7018218553777619
545,4002.98,0.6880683002624829
546,4004.71,0.6805679451472039
547,4006.44,0.6973326900319248
548,4008.1699999999996,0.7180566349166457
549,4009.9,0.7332008798013667
550,4011.63,0.7567845246860877
551,4013.36,0.7730056695708087
552,4015.09,0.7868189144555295
553,4016.8199999999997,0.8168042593402506
554,4018.55,0.7899540042249715
555,4020.2700000000004,0.741698549428278
556,4022.0,0.7543072943129989
557,4023.73,0.78463963919772
558,4025.46,0.7596442840824408
559,4027.19,0.6962765289671619
560,4028.9199999999996,0.6805942738518828
561,4030.65,0.6718451187366038
562,4032.3799999999997,0.6830432636213248
563,4034.11,0.7318390085060457
564,4035.84,0.7636296533907667
565,4037.5699999999997,0.7492530982754877
566,4039.3,0.7348800431602086
567,4041.0299999999997,0.7537703880449296
568,4042.76,0.7046722329296505
569,4044.4900000000002,0.7022394778143715
570,4046.22,0.7408073226990926
571,4047.9500000000003,0.7339040675838135
572,4049.68,0.7459730124685344
573,4051.41,0.7493676573532554
574,4053.14,0.7163561022379764
