,lambda (Angstroms),Total Flux (erg/s/cm^2/Angstrom)
0,102.03,2.6640140952125653
1,103.92,2.6564615183027134
2,104.712855,2.6532932235837605
3,106.1,2.624175545819491
4,108.07000000000001,2.58282319308819
5,110.08,2.540631540688493
6,113.95,2.4593964292218367
7,117.95,2.37543252235414
8,120.22644299999999,2.3276532569197594
9,120.97999999999999,2.314393453873228
10,124.94,2.244704523946206
11,126.97,2.2089799878827328
12,127.85,2.193493830833394
13,131.13,2.135771307815861
14,132.04,2.119759177311545
15,133.88,2.0873786574229287
16,137.0,2.0324755055752757
17,138.038426,2.014201375777169
18,139.87,1.9911630687812256
19,143.13,1.950194493274713
20,147.13,1.8999571742213233
21,150.91,1.8524216134218698
22,155.14,1.79922798299391
23,158.489319,1.7571115757797666
24,159.12,1.751116653534634
25,162.07,1.7230758386909153
26,165.85,1.6871501426884548
27,170.1,1.6467522563322488
28,172.87,1.6204261524410275
29,176.9,1.5821217005823196
30,180.18,1.550945118992354
31,181.85,1.5350755948886214
32,181.970086,1.5339342353358263
33,186.09,1.5040661821923762
34,190.85999999999999,1.4694892928503887
35,193.96,1.4470193559727862
36,198.02,1.417588438290507
37,202.17,1.3875072705640397
38,204.98,1.3671402022066004
39,208.929613,1.3384959514413548
40,210.24,1.3313520773082186
41,216.13,1.2992883780804085
42,220.15,1.2773923537913088
43,223.21,1.260717538227964
44,226.84,1.2409530974587026
45,229.98999999999998,1.2241101215523185
46,234.27,1.2014491894166601
47,239.73000000000002,1.1721140091389275
48,239.88329199999998,1.171275929477067
49,245.88,1.145994142888989
50,252.18,1.1196535245044799
51,256.87,1.0995886186293453
52,259.85,1.087383039444292
53,264.07,1.069766805618478
54,268.97999999999996,1.0491434401457893
55,273.97999999999996,1.0281315841104648
56,275.42287,1.0220680789587633
57,279.07,1.0103064511906958
58,284.26,0.9935794827138454
59,290.21000000000004,0.9742907464504039
60,296.28999999999996,0.9547182631576777
61,301.1,0.9391550720741229
62,308.12,0.9165497974927183
63,316.227766,0.8904367267723938
64,318.21000000000004,0.8856709180036763
65,327.88,0.8623658739239705
66,337.84000000000003,0.8383409937901678
67,348.11,0.8135643719433654
68,357.04,0.7920373882430786
69,363.078055,0.7774921496101718
70,366.2,0.7718604974243737
71,374.73,0.7564377758235056
72,385.23,0.7373864650111829
73,395.10999999999996,0.7196027885344449
74,405.23999999999995,0.7013137752288421
75,413.73,0.6859548835205923
76,416.86938299999997,0.6802709498481159
77,422.39,0.6726300479055818
78,430.24,0.6617755461008332
79,441.28000000000003,0.646539348761416
80,450.52000000000004,0.6337569482816865
81,459.96000000000004,0.6207001071508808
82,469.59000000000003,0.6073912592515521
83,478.630092,0.5949131089117505
84,480.52,0.5929057931140804
85,489.46000000000004,0.5833649656765446
86,499.71000000000004,0.572493913907558
87,505.48999999999995,0.5663283298573392
88,512.53,0.5589481114501522
89,519.66,0.5513548960888961
90,530.54,0.5397685236414252
91,540.4,0.5292347646734048
92,549.5408739999999,0.5195170579833794
93,550.4499999999999,0.5187790546357925
94,559.39,0.5115771659915407
95,569.79,0.5031691034188093
96,580.38,0.49455627810196046
97,589.81,0.486921715591301
98,599.4,0.4790987013487534
99,610.54,0.46994363314103904
100,620.4599999999999,0.4620758317639721
101,630.54,0.4538860616550169
102,630.957344,0.453548493012316
103,639.32,0.4481856223576793
104,649.7,0.44150678375594904
105,658.74,0.4356776250739028
106,664.84,0.4317840705738492
107,675.64,0.42484632780326304
108,685.04,0.418753741262197
109,694.57,0.4126951000498185
110,704.23,0.4064220231661273
111,715.6700000000001,0.3991502470906173
112,724.43596,0.3935186278771879
113,725.63,0.3929487415328402
114,735.73,0.38813161452223405
115,744.24,0.38407711169646586
116,754.6,0.3791394325172698
117,765.0999999999999,0.3740605078626793
118,775.74,0.3690763937326942
119,784.72,0.3647836535252444
120,795.64,0.3595973354444702
121,804.85,0.35521581924172935
122,814.1700000000001,0.3507760257368927
123,825.5,0.34540359162103457
124,831.763771,0.34233007326847703
125,835.06,0.3411086702439407
126,844.73,0.3377893073620271
127,854.51,0.33429992416294596
128,864.4,0.33080337864669723
129,874.4100000000001,0.3272615347844474
130,884.5400000000001,0.3236802745761968
131,894.78,0.3200510460507785
132,905.14,0.31634881717935914
133,915.62,0.31298729896193883
134,924.09,0.31545360954003526
135,934.7900000000001,0.31916519468827975
136,945.6199999999999,0.32758254546168997
137,954.3699999999999,0.33471802023245073
138,954.992586,0.33479047167178777
139,965.4200000000001,0.3360840245982655
140,974.3499999999999,0.29869508097171066
141,985.63,0.3238377896539573
142,994.7499999999999,0.32179528492896514
143,1003.96,0.33389920726260797
144,1015.5799999999999,0.3269737086108089
145,1024.98,0.29475778584601436
146,1034.46,0.30583570935556204
147,1044.04,0.3329129007080375
148,1056.1299999999999,0.32733987891799865
149,1065.9,0.3110076051720366
150,1075.76,0.31658041848470964
151,1085.71,0.30085187885601755
152,1095.76,0.31177542707025324
153,1096.4782,0.3113431794111779
154,1105.8999999999999,0.3062668235083344
155,1116.13,0.3010153723078294
156,1123.8700000000001,0.2929288057690309
157,1134.27,0.3026869281458392
158,1144.76,0.2935374930047544
159,1155.35,0.2937421517326775
160,1166.05,0.292441955716509
161,1174.13,0.27119003633233696
162,1184.99,0.284299902506581
163,1195.96,0.2627373839367335
164,1204.25,0.2488178136774778
165,1215.3899999999999,0.23404480868494362
166,1223.81,0.25258602645539796
167,1235.14,0.26945101781397846
168,1243.7,0.2728838950010437
169,1255.21,0.2667493513238382
170,1258.92541,0.2619526231752364
171,1263.91,0.25592501968755194
172,1275.6000000000001,0.26830498765030286
173,1284.44,0.2694682233381317
174,1296.33,0.25274224672368417
175,1305.3200000000002,0.24984895147861413
176,1314.36,0.26108196258924454
177,1326.53,0.2554344555667192
178,1335.72,0.24624546574445072
179,1344.98,0.2545389708201628
180,1354.3,0.25026336152271533
181,1363.6899999999998,0.24140054712324838
182,1376.31,0.24141187730202657
183,1385.8500000000001,0.2400628719696608
184,1395.45,0.22985161226413547
185,1405.1299999999999,0.22984501672773086
186,1414.8700000000001,0.2290760368181666
187,1424.67,0.22818182253544286
188,1434.55,0.22562569242183975
189,1441.1699999999998,0.22722783991657128
190,1445.43977,0.2269180121197423
191,1447.82,0.2268912642906658
192,1454.51,0.2240761750402833
193,1464.5900000000001,0.2180216125374648
194,1474.74,0.21619204772559902
195,1484.9599999999998,0.21552884060468586
196,1495.26,0.21473165370200425
197,1505.6200000000001,0.2101518819629964
198,1512.57,0.20343853842186663
199,1516.06,0.20608760044222016
200,1526.57,0.20305938661239653
201,1533.61,0.1957336558167773
202,1544.24,0.19805510231430107
203,1554.95,0.19384463903005644
204,1565.7299999999998,0.19305405343676452
205,1576.58,0.19425228553442517
206,1583.86,0.1952893053935007
207,1594.8300000000002,0.19468312781850877
208,1605.89,0.1918163229890274
209,1613.3,0.19064898570272934
210,1624.48,0.18635000120059533
211,1635.74,0.18746839691669298
212,1643.3,0.18698224753957915
213,1654.69,0.1815193561103031
214,1659.58691,0.18256889532825643
215,1666.1599999999999,0.18425684201308792
216,1673.8500000000001,0.17812145742914787
217,1677.7,0.1832284087492819
218,1685.45,0.1842673175105907
219,1693.23,0.1802858379445239
220,1704.97,0.17708798916488072
221,1716.78,0.1736494209546945
222,1724.71,0.1724424197517498
223,1736.6599999999999,0.17405334268047756
224,1744.68,0.1719446064954061
225,1756.77,0.17351863056304784
226,1764.88,0.1685598493958497
227,1773.03,0.1689153171254841
228,1785.32,0.16834291567728862
229,1793.56,0.17032548842479628
230,1805.99,0.16851882811551477
231,1814.3300000000002,0.16417517310510382
232,1826.8999999999999,0.1635672639347363
233,1835.34,0.16093978116640678
234,1843.81,0.15644001007070168
235,1856.59,0.15545679260870507
236,1865.1599999999999,0.1557667037550814
237,1873.77,0.1578528337982902
238,1886.75,0.1531369608204564
239,1895.46,0.1507493931057467
240,1904.21,0.1519878142878695
241,1905.46072,0.15164395878693107
242,1913.0,0.14977119597961008
243,1926.26,0.14786971066790805
244,1935.1499999999999,0.1478763828458092
245,1944.09,0.1494494874094128
246,1953.0600000000002,0.1461053894044379
247,1966.6,0.1486127734526698
248,1975.6699999999998,0.14876961021909985
249,1984.79,0.1459946093712324
250,1993.9599999999998,0.14416621090906742
251,2003.1599999999999,0.14426713987832393
252,2017.04,0.14201436814933266
253,2026.3600000000001,0.14267704684427512
254,2035.71,0.1402803829706391
255,2045.1,0.14112036900556504
256,2054.54,0.13835311742619347
257,2064.03,0.13784629823252434
258,2073.56,0.13983128894741725
259,2078.33,0.13918948054343394
260,2083.13,0.1407443795708721
261,2092.74,0.13765440010288899
262,2107.25,0.13659864443374897
263,2116.97,0.13657547221431132
264,2126.75,0.1358635948577166
265,2136.56,0.1322939049325434
266,2146.42,0.13326632739307265
267,2156.33,0.1337120722393044
268,2166.2799999999997,0.13115672699409814
269,2176.2799999999997,0.13014568413459437
270,2186.33,0.12979193366079303
271,2187.7616199999998,0.12990632555211037
272,2196.42,0.1308019106183097
273,2206.56,0.12904568519089804
274,2216.7400000000002,0.1257862609452323
275,2226.98,0.12475313347218542
276,2237.26,0.12772615718088445
277,2247.58,0.1254407120713294
278,2252.76,0.12253254010742483
279,2263.16,0.12236322736136163
280,2273.61,0.12298680359248074
281,2284.1,0.1246624410053458
282,2294.64,0.12125078739539327
283,2305.2400000000002,0.12189379055805959
284,2315.88,0.1191170849024718
285,2326.57,0.11164809822406642
286,2337.31,0.11454291052284346
287,2342.69,0.11213446446766842
288,2353.51,0.11590083912993723
289,2364.37,0.111092154973952
290,2375.2799999999997,0.11218760979514913
291,2386.25,0.10816088138896512
292,2397.2599999999998,0.10979905416452704
293,2402.79,0.10846560504089918
294,2413.88,0.1089273901799529
295,2425.02,0.11214731429618902
296,2436.21,0.11057178738960752
297,2447.46,0.11247781725564487
298,2453.1,0.11220798388181827
299,2464.42,0.110338398315911
300,2475.7999999999997,0.10804821952262258
301,2487.23,0.10598765970651652
302,2492.96,0.10469416649161822
303,2504.47,0.10941124903900404
304,2510.2400000000002,0.10246232700585162
305,2511.88643,0.10236380951357837
306,2516.03,0.1021678601039347
307,2527.64,0.10101229174521198
308,2533.47,0.10266044573045284
309,2545.1600000000003,0.10217248349845724
310,2556.91,0.10696385086150703
311,2562.81,0.10397157770763416
312,2574.63,0.10658624793157018
313,2586.52,0.10493544101639248
314,2592.4799999999996,0.10353681745756498
315,2604.45,0.10136775666911438
316,2616.4700000000003,0.0999212722098683
317,2622.5,0.10262748151192704
318,2634.6000000000004,0.10787372317940808
319,2646.77,0.11374928770777537
320,2652.87,0.11999098987072038
321,2665.11,0.1090556572599739
322,2677.41,0.11162938424427285
323,2683.59,0.11386074253394499
324,2695.97,0.10710966564497104
325,2702.19,0.11075881699800677
326,2714.66,0.10432630950160085
327,2727.19,0.10144149160024032
328,2733.48,0.10494250581416228
329,2746.1000000000004,0.09560207730536978
330,2752.4300000000003,0.09841796458265531
331,2765.13,0.10183172220058999
332,2777.89,0.10328534941357001
333,2784.3,0.0961915728175827
334,2797.15,0.08683694942313075
335,2803.6,0.08867327589050701
336,2816.54,0.0998389818886231
337,2823.03,0.10641922141936293
338,2836.0600000000004,0.10412909681004706
339,2842.6,0.09883163266999137
340,2855.72,0.09222001745324357
341,2862.2999999999997,0.10401363637655144
342,2875.51,0.10905814055237163
343,2882.1400000000003,0.10647967580488396
344,2884.0315,0.107012485751311
345,2895.45,0.11035193612995048
346,2908.81,0.12061968890214066
347,2928.9700000000003,0.1147927600314336
348,2949.28,0.1116187461244862
349,2969.7200000000003,0.11290968518613045
350,2990.31,0.11280510921153433
351,3011.03,0.11283394620552986
352,3031.9,0.11407155816328504
353,3052.92,0.11508227508479983
354,3067.01,0.11745148068062017
355,3088.27,0.11637004154415034
356,3109.6800000000003,0.12096498737144012
357,3131.23,0.11711004716490558
358,3152.94,0.11659547291971462
359,3167.4900000000002,0.12007686440439778
360,3189.45,0.1126842950988062
361,3211.56,0.11687021075697424
362,3226.3799999999997,0.1091683491764247
363,3248.74,0.1232450997741921
364,3271.2599999999998,0.1313342363333031
365,3286.3599999999997,0.12966941268510485
366,3309.14,0.1258509651813992
367,3311.31121,0.12540051787078094
368,3324.42,0.12277995185858909
369,3332.08,0.12423176465525602
370,3339.7599999999998,0.11704495054016491
371,3347.46,0.13004581951331573
372,3355.18,0.12656486157470853
373,3362.91,0.10671727018022228
374,3370.66,0.116874581873978
375,3378.43,0.12386051665597567
376,3386.22,0.12267911452621527
377,3394.03,0.12326176548469683
378,3401.8500000000004,0.13492938298729937
379,3409.69,0.12301679357814385
380,3417.56,0.11694103380135126
381,3425.43,0.1271383140245587
382,3433.33,0.13609889388012902
383,3441.25,0.12270010682394128
384,3449.18,0.11825932631187458
385,3457.13,0.12497989888804978
386,3465.1,0.11750759455246693
387,3473.0899999999997,0.12964859330512604
388,3481.09,0.12014548860190613
389,3489.12,0.12671662353104915
390,3497.1600000000003,0.11954617500431312
391,3505.22,0.13213419956581907
392,3513.2999999999997,0.12337292721556695
393,3521.4,0.1335176079535568
394,3529.52,0.11243098177978858
395,3537.6600000000003,0.1296383286942623
396,3545.81,0.13151406215285705
397,3553.98,0.1340580486996937
398,3562.18,0.1271140748788933
399,3570.39,0.11386321760221385
400,3578.6200000000003,0.11913601341377636
401,3586.87,0.10533652231358084
402,3595.14,0.12320096430162725
403,3603.4300000000003,0.1364954893779156
404,3611.73,0.11502088099832496
405,3620.06,0.1283740822510972
406,3628.4,0.13964511004799046
407,3629.2200000000003,0.13103959666591042
408,3631.96,0.1339071597550576
409,3634.7000000000003,0.11839281284420478
410,3637.45,0.12366403247747294
411,3640.1899999999996,0.1334800855666201
412,3642.93,0.1283914186557673
413,3645.6699999999996,0.1256649017449145
414,3648.4100000000003,0.12451697483406166
415,3651.16,0.1299318444673298
416,3653.9,0.127188097556477
417,3656.64,0.12903645064562416
418,3659.3799999999997,0.13769156373477137
419,3662.12,0.12374241682391854
420,3664.8599999999997,0.1318841099130657
421,3667.61,0.13718400954633386
422,3670.35,0.13852852263548104
423,3673.09,0.1278496357246282
424,3675.83,0.1306271488137754
425,3678.5699999999997,0.13160766190292258
426,3681.32,0.13086138153619073
427,3684.06,0.12499109462533793
428,3686.8,0.12114767771448509
429,3689.54,0.1311553208036323
430,3692.28,0.13152661389277948
431,3695.03,0.13301413352604763
432,3697.7700000000004,0.1399699366151948
433,3700.51,0.12700552970434198
434,3703.25,0.11606992279348916
435,3705.9900000000002,0.12518097588263633
436,3708.73,0.12162108897178352
437,3711.4799999999996,0.12830038860505166
438,3714.22,0.13304922169419886
439,3716.96,0.13980580478334603
440,3719.7000000000003,0.1417538078724932
441,3722.44,0.1679344409616404
442,3725.19,0.20040949059490856
443,3727.93,0.2207565236840557
444,3730.6699999999996,0.1888375567732029
445,3733.41,0.1509182898623501
446,3736.1499999999996,0.12127126295149729
447,3738.9,0.12125111258476542
448,3741.64,0.11673143567391261
449,3744.38,0.11832305876305979
450,3747.12,0.11507542185220695
451,3749.8599999999997,0.10857290494135415
452,3752.6,0.12819009803050133
453,3755.35,0.12780592766376947
454,3758.09,0.13279423075291666
455,3760.83,0.13395865384206385
456,3763.57,0.12638139693121103
457,3766.31,0.1268159100203582
458,3769.0600000000004,0.13279784965362634
459,3771.8,0.13907547274277354
460,3774.54,0.14459063583192072
461,3777.28,0.1507341689210679
462,3780.02,0.15657500201021507
463,3782.7699999999995,0.15312165164348324
464,3785.51,0.1462628847326304
465,3788.2500000000005,0.14153631782177759
466,3790.9900000000002,0.13192641091092477
467,3793.73,0.12754466400007194
468,3796.4700000000003,0.12997925708921912
469,3799.22,0.13210855672248728
470,3801.8939600000003,0.14219098940959085
471,3801.9599999999996,0.14244035119508658
472,3804.7,0.1427418631857898
473,3807.44,0.14715287517649303
474,3810.1800000000003,0.14064958716719622
475,3812.93,0.14122636890969037
476,3815.67,0.1399819809003936
477,3818.41,0.13187902289109682
478,3821.1499999999996,0.13329175488180003
479,3823.89,0.12418878687250326
480,3826.64,0.11593203861499737
481,3829.38,0.11514927060570061
482,3832.12,0.10680302259640384
483,3834.86,0.10516197458710705
484,3837.6,0.11323966657781029
485,3840.3399999999997,0.11536313856851352
486,3843.09,0.12599976031100762
487,3845.83,0.13378051230171087
488,3848.57,0.1401129642924141
489,3851.31,0.1402172762831173
490,3854.05,0.13754360827382056
491,3856.8,0.13598816001631467
492,3859.5400000000004,0.13799670200701789
493,3862.28,0.13741129399772112
494,3865.02,0.14713080598842435
495,3867.76,0.14596681797912758
496,3870.5099999999998,0.1406449997216217
497,3873.2499999999995,0.13841201171232492
498,3875.9900000000002,0.13842622370302812
499,3878.73,0.13666450569373134
500,3881.4700000000003,0.1349890076844346
501,3884.21,0.1330223096751378
502,3886.96,0.13430797141763196
503,3889.7,0.13619006340833517
504,3892.4399999999996,0.1386449653990384
505,3895.18,0.14245437738974162
506,3897.92,0.14209118938044485
507,3900.67,0.14207987112293896
508,3903.41,0.14753298311364219
509,3906.15,0.14905679510434539
510,3908.89,0.14936600709504863
511,3911.6299999999997,0.15518891908575186
512,3914.38,0.15833280082824597
513,3917.12,0.1511514128189492
514,3919.86,0.1427937248096524
515,3922.6,0.13514480680035565
516,3925.34,0.1319366787910589
517,3928.08,0.12113056078176211
518,3930.8300000000004,0.11044270252425623
519,3933.57,0.10548355451495946
520,3936.31,0.11481032650566267
521,3939.05,0.12265430849636591
522,3941.79,0.13239683048706913
523,3944.5400000000004,0.13914247222956325
524,3947.28,0.14612048422026647
525,3950.02,0.1450695962109697
526,3952.76,0.14462970820167292
527,3955.5,0.14007482019237616
528,3958.25,0.13608828193487027
529,3960.99,0.1249776039255735
530,3963.7299999999996,0.11703942591627672
531,3966.4700000000003,0.10952845790697995
532,3969.21,0.10696975989768319
533,3971.96,0.1173592816401773
534,3974.7,0.12848113363088054
535,3977.44,0.14235025562158374
536,3980.18,0.156194367612287
537,3982.9199999999996,0.1578408796029902
538,3985.66,0.1624855915936934
539,3988.41,0.16714477333618755
540,3991.15,0.17355968532689076
541,3993.89,0.170786497317594
542,3996.63,0.17329500930829722
543,3999.37,0.18100492129900048
544,4002.1200000000003,0.17691480304149457
545,4004.86,0.17918001503219777
546,4007.6,0.18008512702290103
547,4010.34,0.18055723901360426
548,4013.08,0.1828781510043075
549,4015.8300000000004,0.1849586327468016
550,4018.57,0.18374874473750483
551,4021.31,0.18515005672820806
552,4024.05,0.18634436871891127
553,4026.79,0.1866421807096145
554,4029.53,0.18363719270031773
555,4032.2799999999997,0.18015237444281185
556,4035.0200000000004,0.17878918643351505
557,4037.76,0.1825200984242183
558,4040.5,0.18504021041492152
559,4043.2400000000002,0.17804842240562474
560,4045.99,0.18156390414811888
561,4048.73,0.1865495161388221
562,4051.47,0.1838798281295253
563,4054.2099999999996,0.18316034012022855
564,4056.95,0.18082775211093177
565,4059.7,0.17525093385342588
566,4062.44,0.17963314584412912
567,4065.18,0.17813775783483232
568,4067.92,0.17966356982553555
569,4070.66,0.1794690818162388
570,4073.3999999999996,0.17853689380694204
571,4076.15,0.18471147554943615
572,4078.89,0.18195548754013938
573,4081.63,0.18146779953084258
574,4084.37,0.18593051152154583
575,4087.11,0.18664982351224907
576,4089.86,0.18495620525474316
577,4092.6,0.18247041724544638
578,4095.34,0.1734632292361496
579,4098.08,0.16653854122685283
580,4100.82,0.16637085321755607
581,4103.570000000001,0.16728853496005017
582,4106.31,0.1702741469507534
583,4109.05,0.17461425894145666
584,4111.79,0.18237207093215985
585,4114.53,0.1905379829228631
586,4117.27,0.1826897949135663
587,4120.0199999999995,0.18089857665606046
