,lambda (Angstroms),Total Flux (erg/s/cm^2/Angstrom)
0,102.05000000000001,0.0030185888991662957
1,103.95,0.0035310371245365012
2,104.712855,0.00373684008882077
3,105.88,0.0034747344019739517
4,108.10000000000001,0.0029763107777221747
5,110.11,0.0025259442827239484
6,113.98,0.0016577073356228815
7,117.99000000000001,0.0007581011323527834
8,120.22644299999999,0.00027329971982608216
9,121.01,0.00027148217626070143
10,124.98,0.0002369694944782214
11,127.01,0.00021837381374309938
12,127.89,0.00021136646790718446
13,130.87,0.00018418620269010873
14,132.07999999999998,0.00017983034466572583
15,133.92,0.0001632674088269945
16,137.04,0.0001448279863178414
17,138.038426,0.00013623413263155819
18,139.9,0.00013889559890018776
19,143.16,0.0002642174950903217
20,146.84,0.0005541964262497366
21,150.95000000000002,0.0005773869477348442
22,154.82,0.0006094346606660769
23,158.489319,0.000641660501015788
24,159.16,0.0006474185503181631
25,162.12,0.0006723000347526836
26,165.89,0.00071624259330611
27,170.14999999999998,0.0007452924979314673
28,172.91,0.0007750309023366283
29,176.94000000000003,0.0008054101649282221
30,179.82000000000002,0.0008287194173509989
31,181.9,0.0008459408496563376
32,181.970086,0.0008464651061042809
33,186.14,0.0008807688030176733
34,190.91,0.0009233435554317775
35,194.01000000000002,0.0009570328886568766
36,198.07999999999998,0.0009876526593749905
37,202.22,0.0010262287482627037
38,205.04000000000002,0.0010542087088094068
39,208.929613,0.0010511880634159853
40,209.81,0.0010513157850539525
41,216.19,0.0011528131921717613
42,220.20999999999998,0.0011958526806691888
43,222.76000000000002,0.0012092582368056172
44,226.89999999999998,0.0012570141279447593
45,230.05999999999997,0.0018980127308432348
46,233.79,0.0029863412462898535
47,239.79,0.0036150483783755666
48,239.88329199999998,0.00361133793004786
49,245.94000000000003,0.0033582603698289423
50,252.25,0.0035073782099199397
51,256.94,0.00293089446824431
52,259.92,0.0033380429458150186
53,264.14,0.003465051387207096
54,269.05,0.003413683687499774
55,274.05,0.0033479671867794863
56,275.42287,0.0033304724107544007
57,279.15,0.0032899811081779145
58,283.68,0.003257540918310799
59,290.29,0.003070609113670262
60,295.69,0.0030689311522392637
61,301.18,0.0029859185247844157
62,308.2,0.0029658915749241174
63,316.227766,0.0029472972125511344
64,318.29999999999995,0.002939013646674397
65,327.96999999999997,0.0028416544536721384
66,337.92999999999995,0.0027284961359573
67,348.2,0.0026132844780324613
68,357.13,0.002537578258434719
69,363.078055,0.0025074826532667277
70,366.3,0.0024952578422356916
71,374.83000000000004,0.0024172026951620107
72,385.33,0.0022555793675801054
73,395.21,0.0022661101069601794
74,405.35,0.0022216290763239395
75,413.84,0.002148764740021999
76,416.86938299999997,0.0021174107753268337
77,421.53000000000003,0.002068139434360669
78,430.35999999999996,0.0020036293410902774
79,441.4,0.001955038806582335
80,450.64,0.001882527174439818
81,460.08,0.0018090391087011428
82,469.71,0.0017502992810461172
83,478.630092,0.0017158065064182431
84,479.54999999999995,0.001711541732240604
85,489.59000000000003,0.0016206733506073866
86,499.84000000000003,0.0015918943265296496
87,505.63,0.0015484806134164694
88,511.48,0.0016902737167477121
89,519.8,0.0016464609303743685
90,529.46,0.001585844377926472
91,540.55,0.0014870357840706572
92,549.5408739999999,0.001509558822027836
93,550.6,0.0015125237993420997
94,559.54,0.001555017998428278
95,569.94,0.0015776578251057113
96,580.54,0.0015016552446038647
97,589.97,0.0015575118461008067
98,599.5600000000001,0.0015088677218543245
99,609.3,0.0014520362922233823
100,620.63,0.001612664025517163
101,630.71,0.0016112463036814448
102,630.957344,0.001610811026832134
103,639.49,0.0015986407995182577
104,649.88,0.0016546130265989599
105,657.4000000000001,0.001670770775169401
106,665.0200000000001,0.0017096676693325336
107,674.27,0.0016851756366565468
108,685.22,0.0016288680790563243
109,694.76,0.0018614935685991442
110,704.4200000000001,0.0017593630328531947
111,715.87,0.0019540322032164325
112,724.43596,0.0019706402760884356
113,725.8299999999999,0.0019732280632331093
114,734.23,0.0019917820958873264
115,744.4399999999999,0.002134348296292035
116,754.8000000000001,0.0021978328365655692
117,765.3,0.0022186126273833406
118,774.16,0.002377586768968622
119,784.93,0.0024703929715502782
120,795.85,0.0025270995140007605
121,805.0699999999999,0.0025849888712712226
122,814.39,0.0026265051217875678
123,825.72,0.0028030953265461723
124,831.763771,0.002518390340364478
125,835.2800000000001,0.002351532662939206
126,844.95,0.002851128252295795
127,854.7399999999999,0.0028871613443124454
128,864.63,0.003037262688545813
129,874.65,0.0031955801606609138
130,884.77,0.0034084158849927316
131,895.02,0.0035389377372062824
132,905.3799999999999,0.0034968134668582227
133,915.87,0.0052528463243918955
134,924.34,0.035190103887147876
135,935.0400000000001,0.07815203287433665
136,945.87,0.15092217098940716
137,954.62,0.21463069305836996
138,954.992586,0.21551277436101643
139,965.6800000000001,0.24081690342049222
140,974.61,0.03692216822886686
141,985.9,0.20031314445356446
142,995.02,0.21168560213020238
143,1004.23,0.30949565642864924
144,1015.86,0.2942092198912916
145,1025.26,0.12127356705800178
146,1034.74,0.1984800112218754
147,1044.32,0.38693495163220337
148,1053.98,0.37639878903969487
149,1066.18,0.2928553311071272
150,1076.05,0.3480568606321728
151,1086.01,0.27018638677902734
152,1096.06,0.36027760954769084
153,1096.4782,0.35954387968468243
154,1106.2,0.34248625174124003
155,1113.87,0.32556175067590504
156,1124.17,0.2901755406403183
157,1134.57,0.3686719188568133
158,1145.07,0.33085228532538996
159,1155.67,0.3504571400460483
160,1163.68,0.36026849903779107
161,1174.44,0.24585143496178005
162,1185.31,0.3440537579630589
163,1196.28,0.2310185692164195
164,1204.57,0.16206799531399096
165,1215.72,0.10586238542109855
166,1224.1399999999999,0.2226651962463762
167,1235.47,0.34168266520723084
168,1244.03,0.37463995958542284
169,1255.55,0.3544994062252327
170,1258.92541,0.33349177697056953
171,1264.25,0.3003536541782554
172,1275.9499999999998,0.3895893519460007
173,1284.7900000000002,0.4070224258149639
174,1293.7,0.3159488002688622
175,1305.6699999999998,0.3101879002927863
176,1314.72,0.3895930759165552
177,1323.83,0.369505352041697
178,1336.0800000000002,0.32331195440536203
179,1345.34,0.38513323178393655
180,1354.67,0.3703573097474463
181,1364.06,0.3278108882123291
182,1373.51,0.34325846717858494
183,1386.22,0.34563517338611005
184,1395.8300000000002,0.2989706536893607
185,1405.5,0.3094791344939844
186,1415.2500000000002,0.3137858159671055
187,1425.06,0.3210895979415997
188,1434.94,0.3166859805010291
189,1441.5600000000002,0.3339028358191893
190,1445.43977,0.3366167819399929
191,1448.21,0.3385545876678112
192,1454.9,0.3270524345867054
193,1464.9799999999998,0.29966610528064463
194,1475.14,0.29691117653564686
195,1485.3600000000001,0.30104024821144637
196,1495.66,0.30523322044830886
197,1506.03,0.2868301931761015
198,1512.9799999999998,0.2538817419184505
199,1516.46,0.2714214663246914
200,1523.46,0.2622058154177047
201,1534.0300000000002,0.2262747895481549
202,1544.6599999999999,0.2486781640994023
203,1555.3700000000001,0.23315563921171273
204,1566.15,0.2363986148149533
205,1573.38,0.25155606552102283
206,1584.2800000000002,0.2628128419658579
207,1595.26,0.267079818971756
208,1606.32,0.26040259653871706
209,1613.74,0.26039934857731123
210,1624.92,0.24471192698586683
211,1636.18,0.25980520595548545
212,1643.74,0.2628100589759399
213,1655.1299999999999,0.2413516388572859
214,1659.58691,0.2496908323817477
215,1666.6000000000001,0.26281312930238954
216,1670.45,0.2336904264867863
217,1678.1599999999999,0.26341832136774707
218,1685.8999999999999,0.27392811778520965
219,1693.6799999999998,0.2556456162513413
220,1705.42,0.24415001753570956
221,1713.3000000000002,0.23101662112351382
222,1725.17,0.22890742906605654
223,1733.1399999999999,0.24358193726336616
224,1745.15,0.2364060523762506
225,1753.2,0.25214996467089834
226,1765.36,0.22942998746629173
227,1773.51,0.23477380488261215
228,1785.8,0.23804023433617993
229,1794.0400000000002,0.2538907563620057
230,1806.48,0.2504130934980825
231,1814.82,0.23049842064558093
232,1823.19,0.23424474932958114
233,1835.83,0.2242176967090032
234,1844.3000000000002,0.20449713051467608
235,1857.0900000000001,0.20543548557660712
236,1865.66,0.2116752245039526
237,1874.2700000000002,0.22785856547996716
238,1882.9199999999998,0.20925560850465078
239,1895.9699999999998,0.20076667688293068
240,1904.73,0.2116761255414542
241,1905.46072,0.21100148145937328
242,1913.52,0.2035597309014967
243,1926.78,0.19847175549048215
244,1935.6799999999998,0.20169166792200335
245,1944.61,0.2126554783729566
246,1953.5900000000001,0.19891548552296337
247,1967.1299999999999,0.21710189162664836
248,1976.2099999999998,0.2216464921747621
249,1985.33,0.2097302900821186
250,1994.4899999999998,0.20308548534871793
251,2003.6999999999998,0.20780917731437074
252,2012.95,0.20030036663926631
253,2026.9,0.20780924567518996
254,2036.26,0.1980049277380032
255,2045.66,0.20542720716005927
256,2055.1,0.19483558394135814
257,2064.58,0.1952837580818998
258,2074.11,0.20924662892149493
259,2078.89,0.20214181335100856
260,2083.69,0.20972489646014356
261,2093.2999999999997,0.19754366201822426
262,2102.9700000000003,0.19754192361516917
263,2112.67,0.19936608323154617
264,2127.32,0.20074991605421866
265,2137.14,0.18606206774832404
266,2147.0,0.1917153168016722
267,2156.91,0.19799796255407384
268,2166.87,0.19039070500552902
269,2176.87,0.18865194481622696
270,2186.92,0.1864864813259784
271,2187.7616199999998,0.18714485786976634
272,2197.01,0.1943807125645477
273,2207.15,0.18821464629763532
274,2217.3399999999997,0.1776876826625429
275,2222.45,0.17245165163454265
276,2232.71,0.18520829168399816
277,2243.02,0.17646093436527363
278,2253.37,0.1677486791520051
279,2263.77,0.17047872657055646
280,2274.2200000000003,0.17525817662092782
281,2284.7200000000003,0.18016572930311914
282,2295.26,0.16892388409076642
283,2305.86,0.17055664203659765
284,2316.5,0.16219470208788486
285,2327.19,0.128894064770992
286,2332.56,0.14870184742845557
287,2343.32,0.14206781379611064
288,2354.1400000000003,0.15582848332194968
289,2365.0099999999998,0.1408733554796087
290,2375.92,0.14621922974272367
291,2386.8900000000003,0.13340910716402257
292,2392.39,0.14231549666421803
293,2403.44,0.1365987782964289
294,2414.53,0.14015136203409573
295,2425.67,0.15058394840358252
296,2436.87,0.14486713793125322
297,2442.49,0.15312283374781657
298,2453.76,0.15108732696003527
299,2465.09,0.14907062333043788
300,2476.4700000000003,0.14275652233266048
301,2482.17,0.14410252236013577
302,2493.63,0.13516442557327027
303,2505.1400000000003,0.15311683141822474
304,2510.9199999999996,0.13278593565661198
305,2511.88643,0.13309923336210408
306,2516.7099999999996,0.13466258826181984
307,2522.51,0.13011897010612056
308,2534.15,0.13289193297985497
309,2545.85,0.1311314946312891
310,2557.6,0.14186165526413957
311,2563.5,0.13676333507127303
312,2575.33,0.14459219407438972
313,2587.2099999999996,0.1423422520589228
314,2593.18,0.1394507304400392
315,2605.15,0.1341596865911218
316,2617.1699999999996,0.13116284172362075
317,2623.21,0.1386394186787201
318,2635.31,0.14523187218148528
319,2647.48,0.15931142425823341
320,2653.58,0.16455839999103236
321,2665.83,0.1463937504380467
322,2671.98,0.15367822515226207
323,2684.31,0.15410537396954263
324,2696.7000000000003,0.14487812156452287
325,2702.9199999999996,0.15000789485272117
326,2715.39,0.1403764408179676
327,2727.9300000000003,0.139479785357197
328,2734.21,0.14641325742309497
329,2746.83,0.12439760033259055
330,2753.1699999999996,0.12850357117618816
331,2765.8700000000003,0.13461581245595
332,2772.25,0.14099358248468072
333,2785.05,0.1295369217272753
334,2797.8999999999996,0.10318855995128627
335,2804.35,0.11033732855399994
336,2817.2999999999997,0.13736586474084367
337,2823.79,0.14756323252869044
338,2836.8199999999997,0.14229416708580042
339,2843.3599999999997,0.1378143338550636
340,2856.49,0.1292695663750063
341,2863.0699999999997,0.14608023232940257
342,2876.2900000000004,0.14715676301589478
343,2882.92,0.14550352795170746
344,2884.0315,0.14548118344908956
345,2896.23,0.1452362002229065
346,2909.59,0.15932829465297738
347,2929.76,0.15156248624388524
348,2950.07,0.14822337777642558
349,2970.52,0.1514345692505984
350,2991.11,0.1511992606664037
351,3011.84,0.1530556520238415
352,3032.72,0.15246944331874263
353,3046.72,0.15289533748199055
354,3067.84,0.1537169286768331
355,3089.1000000000004,0.1545385198133081
356,3110.52,0.1546551108830774
357,3132.08,0.15160460189447916
358,3146.53,0.15203239587011716
359,3168.35,0.1528411867731221
360,3190.31,0.14374357761775952
361,3212.42,0.1492582683998603
362,3227.25,0.14033036221707218
363,3249.62,0.15117825289077616
364,3272.14,0.1577061435019435
365,3287.25,0.15561543720242035
366,3310.0299999999997,0.15502862770519085
367,3311.31121,0.1550956978437499
368,3325.3100000000004,0.1558284156044679
369,3332.98,0.15987095447664101
370,3340.66,0.1482130932691168
371,3348.36,0.16367963190219803
372,3356.0800000000004,0.15707687037588464
373,3363.82,0.1400306086901767
374,3371.5699999999997,0.1413752469247714
375,3379.34,0.15720438499997155
376,3387.1299999999997,0.1565216229157771
377,3394.94,0.15090016067218803
378,3402.77,0.1651185982692044
379,3410.61,0.14789183578652346
380,3418.48,0.1496409730647506
381,3426.36,0.15352341026328048
382,3434.25,0.16266554738211306
383,3442.17,0.14873468426185374
384,3450.11,0.15329892098219983
385,3458.06,0.15158225762284863
386,3466.0299999999997,0.1488620941041028
387,3474.02,0.1559125304259624
388,3482.0299999999997,0.14962966658842744
389,3490.06,0.15564550259149784
390,3498.1,0.14330483851487094
391,3506.17,0.1550157741991522
392,3514.25,0.14638710980373612
393,3522.3500000000004,0.15546414524892546
394,3530.47,0.1454586805347202
395,3538.6099999999997,0.15590101566112033
396,3546.77,0.1592181506281259
397,3554.9399999999996,0.1596240855154341
398,3563.1400000000003,0.1553252201636505
399,3571.35,0.14366635473216957
400,3579.58,0.14271758914129404
401,3587.8300000000004,0.13170932339102392
402,3596.11,0.14545835740166188
403,3604.3999999999996,0.15305279133260258
404,3612.7,0.14092542518384596
405,3621.03,0.14897845879599747
406,3628.1400000000003,0.1585358021312192
407,3630.89,0.16577768021446251
408,3633.63,0.15008735837740309
409,3636.37,0.13484493654034369
410,3639.1099999999997,0.13161311470328427
411,3641.86,0.1427057927865276
412,3644.6,0.14007127094946817
413,3647.34,0.14360214911240876
414,3650.08,0.15262632727534936
415,3652.8300000000004,0.13773510535859262
416,3655.57,0.15942048352153323
417,3658.3100000000004,0.17376736168447382
418,3661.05,0.1544289398474144
419,3663.7999999999997,0.1479217179306577
420,3666.54,0.15030049609359827
421,3669.2799999999997,0.16333537425653888
422,3672.0199999999995,0.15905825241947946
423,3674.77,0.15949493050272276
424,3677.5099999999998,0.15163380866566337
425,3680.25,0.16140458682860395
426,3683.0,0.15358536491184724
427,3685.7400000000002,0.14657754307478782
428,3688.48,0.1517831212377284
429,3691.2200000000003,0.159527299400669
430,3693.97,0.1456706774839123
431,3696.7100000000005,0.14791085564685288
432,3699.4500000000003,0.16490303380979346
433,3702.19,0.16108451197273405
434,3704.94,0.14767599005597734
435,3707.68,0.14017756821891791
436,3710.4199999999996,0.15684964638185853
437,3713.16,0.1705031245447991
438,3715.91,0.16671580262804242
439,3718.65,0.173798680790983
440,3721.39,0.1851588589539236
441,3724.13,0.2161563371168642
442,3726.88,0.2920058152001075
443,3729.6200000000003,0.43596289336304805
444,3732.36,0.5565604715259886
445,3735.1099999999997,0.564600849609232
446,3737.85,0.45535422777217255
447,3740.5899999999997,0.28039010593511315
448,3743.3300000000004,0.2072493840980537
449,3746.08,0.18846466218129698
450,3748.8199999999997,0.1640596403442376
451,3751.56,0.15962251850717815
452,3754.2999999999997,0.15271079667011875
453,3757.05,0.16017677475336206
454,3759.79,0.16535025291630265
455,3762.53,0.17167583107924325
456,3765.27,0.18712130924218384
457,3768.0200000000004,0.18684328732542713
458,3770.76,0.1881767654883677
459,3773.5,0.1710144436513083
460,3776.2400000000002,0.17169732181424888
461,3778.99,0.18233119989749216
462,3781.73,0.19248607806043277
463,3784.47,0.19776635622337335
464,3787.2099999999996,0.20341993438631395
465,3789.96,0.21023501246955725
466,3792.7,0.22362189063249785
467,3795.44,0.19999556879543842
468,3798.19,0.1907042468786817
469,3800.9300000000003,0.1769445250416223
470,3801.8939600000003,0.17024239196350038
471,3803.67,0.15789410615383376
472,3806.41,0.16375028886678572
473,3809.16,0.18552017151664627
474,3811.8999999999996,0.21395765422959823
475,3814.6400000000003,0.2043259369425502
476,3817.38,0.22721681965550214
477,3820.13,0.2390239023053627
478,3822.87,0.21172828501831464
479,3825.6099999999997,0.1954512677312666
480,3828.35,0.19790485044421854
481,3831.1,0.18552013309407908
482,3833.84,0.18080571580703103
483,3836.58,0.161243398519983
484,3839.32,0.14104088123293496
485,3842.07,0.1543202638827955
486,3844.81,0.16529644659574744
487,3847.55,0.1773819293086994
488,3850.29,0.1844008120216514
489,3853.04,0.20005869467151194
490,3855.7799999999997,0.21897087738446389
491,3858.5199999999995,0.22339786009741583
492,3861.27,0.2154076427472764
493,3864.0099999999998,0.22711982546022833
494,3866.75,0.2310775081731803
495,3869.49,0.25003239088613227
496,3872.2400000000002,0.23386087353599277
497,3874.98,0.23569585624894474
498,3877.7200000000003,0.2320481389618967
499,3880.46,0.22780312167484865
500,3883.2100000000005,0.2184263043247092
501,3885.9500000000003,0.19934398703766115
502,3888.69,0.18853896975061313
503,3891.4300000000003,0.1963044524635651
504,3894.18,0.1942450351134256
505,3896.9199999999996,0.19005331782637758
506,3899.66,0.19189890053932954
507,3902.3999999999996,0.1954297832522815
508,3905.15,0.20155166590214202
509,3907.89,0.211663848615094
510,3910.63,0.21957883132804595
511,3913.38,0.2160260139779065
512,3916.1200000000003,0.21706089669085843
513,3918.86,0.2321224794038104
514,3921.6,0.22960536211676236
515,3924.35,0.2280792447666229
516,3927.0899999999997,0.22109282747957487
517,3929.8300000000004,0.21942911019252684
518,3932.57,0.20958409290547877
519,3935.3199999999997,0.1839834755553393
520,3938.06,0.18611705826829128
521,3940.7999999999997,0.17734924098124324
522,3943.54,0.1880694236941952
523,3946.29,0.20767400634405572
524,3949.03,0.21177018905700767
525,3951.77,0.22701307176995963
526,3954.5099999999998,0.2180107544829116
527,3957.26,0.21106593713277214
528,3960.0,0.2065969198457241
529,3962.7400000000002,0.20029320255867605
530,3965.48,0.192229385271628
531,3968.23,0.18085806792148856
532,3970.97,0.15551435063444052
533,3973.7099999999996,0.1461706333473925
534,3976.46,0.15989791599725303
535,3979.2,0.16413279871020497
536,3981.94,0.18220228142315695
537,3984.68,0.20559446413610888
538,3987.4300000000003,0.21173764678596943
539,3990.17,0.22060182949892138
540,3992.91,0.23885271221187335
541,3995.65,0.2402823949248253
542,3998.3999999999996,0.23887347757468583
543,4001.1400000000003,0.23877776028763778
544,4003.88,0.24954074300058976
545,4006.6200000000003,0.2539249257135417
546,4009.37,0.25086270836340224
547,4012.1099999999997,0.24053769107635423
548,4014.85,0.24341797378930619
549,4017.5899999999997,0.24218095650225813
550,4020.34,0.24404673915211866
551,4023.08,0.2510550218650706
552,4025.82,0.25014860457802257
553,4028.57,0.24944368722788313
554,4031.31,0.2425533699408351
555,4034.05,0.23899105265378703
556,4036.79,0.248633935366739
557,4039.54,0.24707571801659953
558,4042.2799999999997,0.2477800007295515
559,4045.0199999999995,0.25470298344250347
560,4047.76,0.2492312661554554
561,4050.5099999999998,0.24124104880531597
562,4053.25,0.24335333151826793
563,4055.99,0.2530176142312199
564,4058.73,0.2618392969441718
565,4061.48,0.2575182795940324
566,4064.2200000000003,0.24307596230698433
567,4066.96,0.2374229450199363
