,lambda (Angstroms),Total Flux (erg/s/cm^2/Angstrom)
0,102.06,0.0318358659795676
1,103.96000000000001,0.03723537742931652
2,104.712855,0.03937487700520588
3,105.89,0.03658365213835099
4,108.11,0.03131962841891197
5,110.11999999999999,0.026553552901459065
6,113.99,0.017377079151785192
7,118.0,0.007868639973446315
8,120.22644299999999,0.002589339191868879
9,121.02,0.0025022716116233413
10,124.99,0.0020666903560271435
11,127.02,0.001843962451603341
12,127.89999999999999,0.0017474105308889001
13,130.88,0.0014204505156059735
14,132.09,0.001287691954083741
15,133.93,0.001085810825254363
16,137.05,0.0007434914512350707
17,138.038426,0.0006350435357648147
18,139.92,0.0006277534659621582
19,142.85,0.0006164150363075063
20,146.85,0.0006009608463920769
21,150.96,0.000585054884907773
22,154.84,0.0005700467015202067
23,158.489319,0.0005559344626760546
24,159.17000000000002,0.0005518871836742839
25,162.13000000000002,0.0005342936647354876
26,165.91000000000003,0.0005118398356177006
27,170.17000000000002,0.0004865336338341628
28,172.93,0.0004701529878560962
29,176.96,0.0004462373382873974
30,179.82999999999998,0.0004292185290109295
31,181.92,0.00041682565854130646
32,181.970086,0.0004165287954668665
33,186.15,0.00042464914338626253
34,190.92999999999998,0.0004339740061615266
35,194.03,0.0004400366974659867
36,198.09,0.0004479876581537633
37,201.78,0.0004552609983771367
38,205.06,0.0004617161973534686
39,208.929613,0.00046932178026907583
40,209.83,0.000479842487628255
41,216.21,0.0005546024270322893
42,220.23000000000002,0.0006017329058542673
43,222.78,0.0006316476019577604
44,226.92000000000002,0.0006802625722669616
45,230.08,0.0007191306430971729
46,233.81,0.0007669345734916945
47,239.81,0.0008406315368528552
48,239.88329199999998,0.0008414959764714275
49,245.96,0.000784221644125244
50,252.26999999999998,0.0007265485094151451
51,256.96,0.0006803932844879874
52,259.94,0.0006552575793317122
53,264.15999999999997,0.0006173164554526921
54,269.07,0.000572231318332789
55,274.08,0.0005261800056707293
56,275.42287,0.0005138542986982111
57,279.17,0.0005537191655806459
58,283.71,0.0006024028256492335
59,290.32,0.0006713282411455698
60,295.71,0.0007298696620419769
61,301.21,0.0007881435562219842
62,308.23,0.0008639358794117396
63,316.227766,0.0009506860830522246
64,318.32,0.0009362887436714202
65,328.0,0.0008693714025120847
66,337.96,0.0008000956229307851
67,348.23,0.0007284459865251676
68,357.16999999999996,0.000666773972623881
69,363.078055,0.0006264444311128419
70,366.33,0.0006476433516515726
71,374.85999999999996,0.000702727599699511
72,385.36,0.0007673558738499631
73,395.25,0.0008338929147402457
74,405.39,0.0009000255154912535
75,413.88,0.000954590083161476
76,416.86938299999997,0.0009735944539323636
77,421.57,0.0009924783243299908
78,430.40000000000003,0.0010275105534907347
79,441.44000000000005,0.0010734306144119814
80,450.67999999999995,0.0011106154567047638
81,460.11999999999995,0.0011478005566229312
82,469.75000000000006,0.0011870082162852148
83,478.630092,0.00122354971830956
84,479.59000000000003,0.001219713297872999
85,489.63,0.0011767499480426782
86,499.89,0.0011362384895507367
87,505.67,0.0011138237528954325
88,511.53,0.0011191365676359029
89,519.84,0.0010874161313719616
90,529.51,0.0010496618688361848
91,540.59,0.0009991380871509302
92,549.38,0.0009866232592616357
93,549.5408739999999,0.0009862830892881749
94,559.59,0.000996227155954331
95,569.99,0.0010037552326917045
96,580.59,0.0009885078493663353
97,590.03,0.0010123966144048742
98,599.61,0.0010091045873994934
99,609.36,0.0010177552343407811
100,620.68,0.0010618135347895377
101,629.32,0.0010801993400790478
102,630.957344,0.0010803976446735796
103,639.54,0.0011116201412488295
104,649.9399999999999,0.0011872629754393006
105,657.46,0.0012352935463154874
106,665.0699999999999,0.0012869789222952452
107,674.33,0.0013274611585071456
108,685.2800000000001,0.0013537844127749971
109,694.82,0.0015285058537535638
110,704.48,0.0015306615682035593
111,715.9300000000001,0.0017066283952690297
112,724.43596,0.0017730172406683932
113,725.89,0.0017831006464383596
114,734.3,0.0018470596577235157
115,744.51,0.001992565059890156
116,754.87,0.002100493769630253
117,765.3699999999999,0.0021890302997722437
118,774.23,0.002363283933777771
119,785.0,0.002503630617551984
120,794.0899999999999,0.0026291354565034786
121,805.14,0.002756549781081478
122,814.46,0.0028762478249789404
123,825.79,0.003111797790360726
124,831.763771,0.002914174532935205
125,835.35,0.0027824351249063715
126,845.03,0.0033057779181896517
127,854.8100000000001,0.0033997492857837097
128,864.71,0.003623294142550701
129,874.7199999999999,0.0038503875310595477
130,884.8499999999999,0.004138141408741328
131,895.1,0.004366590775596041
132,905.46,0.00442396567419261
133,915.9499999999999,0.006238998019393189
134,924.42,0.03748423496351606
135,935.13,0.08281134437220035
136,945.96,0.16004456327005756
137,954.71,0.23049215102225062
138,954.992586,0.2313159653688281
139,965.76,0.2627285813987915
140,974.7,0.04284677276989164
141,985.99,0.22680217396449123
142,995.11,0.24465526408802962
143,1004.3199999999999,0.36490171858778714
144,1015.95,0.355795815203659
145,1025.35,0.15529689449765688
146,1034.8300000000002,0.25380264212607173
147,1044.41,0.4977240501725079
148,1054.07,0.4931385265533611
149,1063.8300000000002,0.39183546335223546
150,1076.14,0.4742518908106519
151,1086.1,0.3768003484455688
152,1096.15,0.5092808704567049
153,1096.4782,0.5085825252775982
154,1103.75,0.49310343192083544
155,1113.96,0.478597483320765
156,1124.27,0.43250461083626685
157,1134.67,0.5595732268557837
158,1145.1699999999998,0.5127462189908729
159,1155.77,0.5518903872415344
160,1163.78,0.5739007640988738
161,1174.55,0.3971555217460081
162,1185.4199999999998,0.5673047555087146
163,1193.6299999999999,0.3935000845971987
164,1204.68,0.2838801953679354
165,1215.82,0.1938340946426871
166,1224.25,0.3989348511854301
167,1235.58,0.6119836150797692
168,1244.1399999999999,0.6787348105727561
169,1255.66,0.6526648390866825
170,1258.92541,0.6201004147725356
171,1264.36,0.5659109726383934
172,1276.06,0.7390394036211474
173,1284.8999999999999,0.7810313825858949
174,1293.81,0.6190476677189154
175,1305.78,0.6176094224935791
176,1314.83,0.7828266199631453
177,1323.95,0.7527696236009843
178,1336.1999999999998,0.6709470030487397
179,1345.46,0.8066046190231245
180,1354.79,0.7864234411657822
181,1364.18,0.705804968595531
182,1373.63,0.7476224013123709
183,1386.3400000000001,0.7614882212944908
184,1395.95,0.6602364681102401
185,1405.6299999999999,0.6913508210942623
186,1415.37,0.7189461793653754
187,1425.18,0.7424835438047616
188,1435.06,0.7441703144124205
189,1441.6899999999998,0.7882637986359812
190,1445.43977,0.7965269869008594
191,1448.34,0.8029180435503082
192,1455.03,0.7846323383205472
193,1465.1100000000001,0.727275883803957
194,1475.27,0.7322761352039018
195,1485.4899999999998,0.7493615910412477
196,1495.79,0.7667890527951287
197,1506.16,0.7289297197259776
198,1513.11,0.6512115337249557
199,1516.6,0.7009577918337948
200,1523.6,0.6834557095306071
201,1534.1599999999999,0.5966673905132268
202,1544.79,0.6542158766728147
203,1555.5,0.6233390687489375
204,1566.28,0.6422877660020284
205,1573.51,0.6897809007088789
206,1584.42,0.7272866075763391
207,1595.3999999999999,0.7459158196207676
208,1606.46,0.735683737581731
209,1613.88,0.742486186340352
210,1625.0600000000002,0.7074586131761179
211,1636.33,0.7562859466679857
212,1643.88,0.7721281050409762
213,1655.28,0.7189549481472134
214,1659.58691,0.7449887915774156
215,1666.75,0.7882906353984825
216,1670.5900000000001,0.7074663093511557
217,1678.3000000000002,0.7992365734592572
218,1686.05,0.8330384591710326
219,1693.8300000000002,0.7864781610855632
220,1705.57,0.7598119017637879
221,1713.45,0.7239583576875027
222,1725.32,0.7223139685776669
223,1733.2900000000002,0.7739311731096474
224,1745.3,0.7598313596126696
225,1753.36,0.8122592127529159
226,1765.5100000000002,0.7511276748687958
227,1773.6599999999999,0.770389876617308
228,1785.96,0.7883497197469642
229,1794.2,0.842769070103742
230,1806.6399999999999,0.8388874888462562
231,1814.97,0.7775470878112998
232,1823.35,0.7993208137809356
233,1835.99,0.7722226405418181
234,1844.47,0.7124598205206382
235,1852.98,0.7190612167022132
236,1865.82,0.7443002514814642
237,1874.44,0.804881507073142
238,1883.0900000000001,0.7443054788675751
239,1896.14,0.717431827066113
240,1904.8899999999999,0.7634133528697301
241,1905.46072,0.7617334095473094
242,1913.69,0.7374999320146415
243,1926.95,0.7257085006095852
244,1935.8500000000001,0.7511712045684842
245,1944.7800000000002,0.7865631876418514
246,1953.76,0.7374750359059988
247,1967.3,0.8104271095693125
248,1976.38,0.8350489882150206
249,1985.5,0.7920004390133529
250,1994.67,0.7739658550024656
251,2003.8700000000001,0.7992923501060466
252,2013.12,0.7757178104004078
253,2027.08,0.8141251916662763
254,2036.4299999999998,0.7739395823421982
255,2045.83,0.8048034382089004
256,2055.2799999999997,0.763303859266383
257,2064.7599999999998,0.7739225594383338
258,2074.3,0.8349781178392209
259,2079.08,0.7974024900778206
260,2083.87,0.8273202553545763
261,2093.4900000000002,0.7864543580607121
262,2103.15,0.7955542329194719
263,2112.86,0.8066216729690123
264,2122.61,0.8197075851711768
265,2137.33,0.7702995373369063
266,2147.19,0.7882531729587875
267,2157.1,0.8196836737714491
268,2167.06,0.7973447397748912
269,2177.06,0.7936692779309573
270,2187.1099999999997,0.7827888812778039
271,2187.7616199999998,0.7851699534233905
272,2197.2,0.8196703665219547
273,2207.35,0.8010042004074336
274,2217.54,0.7667508564954169
275,2222.65,0.7475955928653476
276,2232.91,0.7955190878077135
277,2243.21,0.7667688049525837
278,2253.57,0.7390410554012103
279,2263.97,0.7562685280523415
280,2274.42,0.7756411284566029
281,2284.92,0.7955494566139949
282,2295.46,0.7528321069738911
283,2306.06,0.759784590637544
284,2316.7,0.7289565965037013
285,2327.4,0.5925948356736149
286,2332.76,0.686626810809198
287,2343.53,0.6694813888334942
288,2354.35,0.718988194610921
289,2365.21,0.6679480225908521
290,2376.13,0.6866479838745397
291,2387.1,0.6438217729113578
292,2392.6,0.681931725755706
293,2403.65,0.6588221591975327
294,2414.74,0.6741450148418638
295,2425.89,0.7108075037899515
296,2437.08,0.6866849149405434
297,2442.7,0.7223540343924048
298,2453.98,0.7141019954986315
299,2465.3,0.7108360788073627
300,2476.68,0.6882943954198503
301,2482.39,0.7011059648273462
302,2493.85,0.6528435258448426
303,2505.3599999999997,0.7324472146154695
304,2511.14,0.6604007228773481
305,2511.88643,0.6627845822922135
306,2516.93,0.6788882537136395
307,2522.7300000000005,0.655848607735348
308,2534.3700000000003,0.6649849071858114
309,2546.07,0.6558449937468441
310,2557.82,0.6994859695666846
311,2563.72,0.6835727021060087
312,2575.5499999999997,0.7190630607399419
313,2587.4399999999996,0.7124976064844444
314,2593.41,0.7043457239860995
315,2605.38,0.6835612525446946
316,2617.3999999999996,0.6757650703620974
317,2623.44,0.7027181728260835
318,2635.5499999999997,0.7240587713093405
319,2647.7099999999996,0.7775814590514053
320,2653.81,0.7938436486259608
321,2666.06,0.7290662170338796
322,2672.21,0.758135395867243
323,2684.5400000000004,0.7598987470892544
324,2696.94,0.7257041832735968
325,2703.15,0.7460285492175295
326,2715.63,0.7124684682159644
327,2721.8900000000003,0.7108471234187049
328,2734.45,0.7409048252312324
329,2747.08,0.6588321120060908
330,2753.41,0.6726281521711625
331,2766.1200000000003,0.6962635217601133
332,2772.4900000000002,0.7240308533322312
333,2785.2900000000004,0.6882868035870362
334,2798.1499999999996,0.5778516409524105
335,2804.6,0.613486055338621
336,2817.54,0.7190489755180879
337,2824.04,0.7511854791631061
338,2837.0699999999997,0.7256766800084271
339,2843.6099999999997,0.7091997750604916
340,2856.74,0.6835442544234283
341,2863.3199999999997,0.7459923408825391
342,2876.5400000000004,0.7477197009113298
343,2883.17,0.7442967766292483
344,2884.0315,0.7442963197102729
345,2896.48,0.7442923368296932
346,2909.85,0.7993319780495798
347,2930.02,0.7722006893738212
348,2950.33,0.7616154000825643
349,2970.78,0.7740028101758087
350,2991.37,0.7740002196535546
351,3012.11,0.7811590284718377
352,3032.99,0.7829594366746222
353,3046.99,0.7847605751247652
354,3068.11,0.7883939822724092
355,3089.3700000000003,0.7920315888045549
356,3110.79,0.7938286946332734
357,3132.35,0.7829636998464935
358,3146.81,0.786561436274284
359,3168.62,0.7901957403883995
360,3190.5899999999997,0.754661843799088
361,3212.7,0.7793624465942779
362,3227.53,0.7477515813953934
363,3249.9,0.7901975830475148
364,3272.43,0.8160905839962089
365,3287.54,0.8104809175663275
366,3310.3300000000004,0.8067404173719529
367,3311.31121,0.8073414700469445
368,3325.6000000000004,0.8160931121913185
369,3333.27,0.8293529675847042
370,3340.95,0.7902291221376642
371,3348.66,0.8447329741693465
372,3356.3700000000003,0.8123479262010288
373,3364.11,0.7443232757114336
374,3371.8700000000003,0.7512015235409867
375,3379.64,0.8160828705301141
376,3387.4300000000003,0.8217307158383897
377,3395.24,0.8048993594658138
378,3403.07,0.8350983014123861
379,3410.91,0.7847892425185325
380,3418.78,0.7938496811034016
381,3426.6600000000003,0.8160795188478447
382,3434.55,0.848646755751862
383,3442.4700000000003,0.7920523901346018
384,3450.41,0.8104666228364901
385,3458.3599999999997,0.7993547546979524
386,3466.34,0.7902140840381371
387,3474.33,0.8198476125378962
388,3482.33,0.7920518401972293
389,3490.36,0.823625865335285
390,3498.4100000000003,0.775780888792489
391,3506.47,0.8179788114092672
392,3514.56,0.7847753315047677
393,3522.6600000000003,0.8236214507598426
394,3530.78,0.7847772683340657
395,3538.9199999999996,0.8293341842274372
396,3547.0800000000004,0.8408718984399571
397,3555.25,0.838932211812051
398,3563.4500000000003,0.8274309226628676
399,3571.66,0.7847757326732582
400,3579.8999999999996,0.7722465401623714
401,3588.15,0.7141026468110586
402,3596.42,0.7829724517788943
403,3604.71,0.8179717550658783
404,3613.02,0.7686830566720105
405,3621.35,0.7775695565972912
406,3629.7000000000003,0.8886355548417203
407,3635.76,0.9241322455436651
408,3638.48,0.8903310169478383
409,3641.2,0.8889889883520117
410,3643.92,0.833595659756185
411,3646.63,0.828518332000784
412,3649.35,0.8284111034049573
413,3652.07,0.8326436748091306
414,3654.79,0.8332069462133038
415,3657.5099999999998,0.9193279176174771
416,3660.2200000000003,0.9036664898620762
417,3662.94,0.8573403612662495
418,3665.66,0.8828477326704227
419,3668.38,0.903591904074596
420,3671.09,0.8545185763191951
421,3673.81,0.8522592477233685
422,3676.53,0.8344760191275418
423,3679.25,0.823890290531715
424,3681.96,0.834583962776314
425,3684.6800000000003,0.7874816341804873
426,3687.4,0.7931255055846606
427,3690.12,0.8097770769888338
428,3692.84,0.8588172483930072
429,3695.55,0.8792487206376063
430,3698.27,0.8400494920417796
431,3700.9900000000002,0.8656273634459528
432,3703.71,0.871200634850126
433,3706.42,0.8266432070947252
434,3709.1400000000003,0.8166572784988985
435,3711.86,0.8254057499030718
436,3714.58,0.895226721307245
437,3717.29,0.9152702935518442
438,3720.01,1.0127521649560174
439,3722.73,1.2674139363601906
440,3725.4500000000003,1.639173707764364
441,3728.17,1.7677024791685372
442,3730.8799999999997,1.6253832514131363
443,3733.6000000000004,1.2458560228173094
444,3736.32,1.0025167942214828
445,3739.04,0.901610465625656
446,3741.75,0.8854548378702553
447,3744.47,0.8989664092744285
448,3747.19,0.8561333806786018
449,3749.9100000000003,0.8425133520827751
450,3752.63,0.8592708234869484
451,3755.3399999999997,0.8610380957315475
452,3758.06,0.9286012671357207
453,3760.78,0.973866138539894
454,3763.5,1.0132385099440673
455,3766.21,0.9562981821886664
456,3768.93,0.9430309535928396
457,3771.6499999999996,0.898292524997013
458,3774.3700000000003,0.9806380964011863
459,3777.08,1.0588963686457853
460,3779.7999999999997,1.0710671400499585
461,3782.52,1.1450159114541318
462,3785.2400000000002,1.199030682858305
463,3787.96,1.2255964542624784
464,3790.67,1.0598832265070774
465,3793.39,0.9847314979112508
466,3796.1099999999997,0.905099469315424
467,3798.8300000000004,0.9141653407195973
468,3801.54,1.0165213129641966
469,3801.8939600000003,1.0237937297606094
470,3804.2599999999998,1.0724061258007422
471,3806.98,1.111848944835578
472,3809.7,1.2164227638704141
473,3812.41,1.208100583570563
474,3815.13,1.201078402605399
475,3817.85,1.1469192216402349
476,3820.5699999999997,1.139614040675071
477,3823.29,1.1536188597099066
478,3826.0,1.1236696794100558
479,3828.72,1.0407914984448916
480,3831.44,0.9532565174797277
481,3834.16,0.9347324365145637
482,3836.87,0.9045700562147128
483,3839.59,0.9354049752495487
484,3842.31,1.0106945942843846
485,3845.0299999999997,1.1156204133192205
486,3847.7400000000002,1.1238102330193696
487,3850.46,1.1962070520542054
488,3853.18,1.2490218710890415
489,3855.9,1.1908056901238775
490,3858.62,1.2526525091587133
491,3861.33,1.2624303288588625
492,3864.05,1.2818691478936983
493,3866.77,1.2540299669285342
494,3869.49,1.26831778596337
495,3872.2000000000003,1.2785536056635192
496,3874.92,1.188090424698355
497,3877.64,1.164767243733191
498,3880.36,1.1336470627680268
499,3883.08,1.093424881802863
500,3885.79,1.061604701503012
501,3888.51,1.025087520537848
502,3891.23,1.0050813395726839
503,3893.95,1.0324231586075199
504,3896.6600000000003,1.0376839783076688
505,3899.38,1.1232407973425047
506,3902.1,1.1914736163773405
507,3904.82,1.1754894354121765
508,3907.53,1.2559012551123256
509,3910.25,1.2807020741471615
510,3912.9700000000003,1.2840518931819975
511,3915.69,1.3001387122168335
512,3918.41,1.2838375312516694
513,3921.1200000000003,1.2444323509518185
514,3923.84,1.2332111699866544
515,3926.56,1.1977159890214903
516,3929.28,1.0690778080563264
517,3931.9900000000002,0.9936852277564753
518,3934.71,0.9567793467913112
519,3937.4300000000003,1.0359502658261472
520,3940.15,1.1382300848609832
521,3942.86,1.227813904561132
522,3945.5800000000004,1.251557723595968
523,3948.3,1.216379542630804
524,3951.02,1.25910436166564
525,3953.7400000000002,1.2423441807004758
526,3956.4500000000003,1.176584000400625
527,3959.17,1.1337858194354609
528,3961.8900000000003,1.0680186384702968
529,3964.61,0.9765676575051327
530,3967.3199999999997,0.8892843772052818
531,3970.0400000000004,0.8834617962401178
532,3972.76,0.9224468152749536
533,3975.48,0.9476718343097896
534,3978.2000000000003,1.0560205533446254
535,3980.91,1.1681143730447745
536,3983.63,1.2319721920796105
537,3986.3500000000004,1.2496820111144462
538,3989.07,1.2887018301492823
539,3991.7799999999997,1.3139686498494314
540,3994.5000000000005,1.3809664688842673
541,3997.2200000000003,1.4149412879191032
542,3999.94,1.3686851069539392
543,4002.6499999999996,1.3638209266540882
544,4005.37,1.3721457456889241
545,4008.09,1.3822695647237602
546,4010.8100000000004,1.416244383758596
547,4013.53,1.440057202793432
548,4016.24,1.428455022493581
549,4018.9599999999996,1.433674841528417
550,4021.6800000000003,1.4593226605632528
551,4024.4,1.3801494795980889
552,4027.1099999999997,1.468605299298238
553,4029.83,1.4503981183330739
554,4032.5499999999997,1.3856549373679097
555,4035.2700000000004,1.4573447564027457
556,4037.98,1.4717805761028946
557,4040.7,1.4563613951377308
558,4043.4199999999996,1.4426702141725665
559,4046.14,1.4631670332074025
560,4048.86,1.4353628522422384
561,4051.5699999999997,1.4044966719423875
562,4054.29,1.4422464909772235
563,4057.0099999999998,1.4217813100120593
564,4059.7299999999996,1.4232611290468953
565,4062.44,1.3767299487470444
566,4065.16,1.4071407677818801
567,4067.8799999999997,1.3482895868167162
568,4070.6,1.439173405851552
569,4073.31,1.3481512255517012
570,4076.0299999999997,1.376022044586537
571,4078.75,1.3562278636213732
572,4081.47,1.347722682656209
573,4084.1899999999996,1.3259885016910449
574,4086.9,1.3366483213911942
575,4089.62,1.30605714042603
576,4092.3399999999997,1.2558499594608659
577,4095.06,1.2257177784957016
578,4097.77,1.268236598195851
579,4100.49,1.2074094172306866
580,4103.21,1.2518272362655227
581,4105.93,1.1850380553003586
582,4108.65,1.1967148743351945
