,lambda (Angstroms),Total Flux (erg/s/cm^2/Angstrom)
0,100.11000000000001,0.08999451905529329
1,101.98,0.10818304681062406
2,104.11,0.1289004607802727
3,104.712855,0.1347641211966971
4,106.05,0.12391240493271546
5,108.02000000000001,0.10792469917769397
6,110.03,0.09161237046484431
7,113.89,0.06028620713284526
8,117.9,0.027742707011017557
9,120.22644299999999,0.008862279183965928
10,120.92,0.008601840685484266
11,124.88000000000001,0.007114798154462211
12,126.91,0.0063525023010968735
13,128.08,0.005913150739305806
14,131.07,0.004790365212247548
15,131.98,0.004448665702798946
16,134.12,0.0036450715893340947
17,136.93,0.0025899240966213762
18,138.038426,0.0021737051041104223
19,140.12,0.002146132508880895
20,143.05,0.002107858821230006
21,147.06,0.0020563943579965356
22,150.82999999999998,0.0020070446027703054
23,155.06,0.0019517756967551985
24,158.489319,0.0019071969962080526
25,159.04000000000002,0.0018961204335884102
26,161.99,0.001836897767473333
27,166.15,0.0017536237928839353
28,170.02,0.0016763364822346642
29,173.18,0.0016133799659215637
30,176.80999999999997,0.0015414703364986045
31,180.09,0.001476391194072348
32,181.970086,0.0014392558463726835
33,182.18,0.0014407636755075718
34,185.99,0.0014685601712769224
35,191.20000000000002,0.0015067526689562711
36,193.86,0.0015271670045852665
37,197.92000000000002,0.0015576861321242596
38,202.07,0.0015895432435003238
39,204.88,0.0016117589721911048
40,208.929613,0.0016420867223116413
41,210.13,0.001691007121285126
42,216.02,0.0019369534136592299
43,220.04,0.0021044560760266136
44,223.1,0.002231152736037608
45,227.25,0.0024053457266407542
46,229.88000000000002,0.002557679650179616
47,234.14999999999998,0.0028227683460773094
48,239.88329199999998,0.0031306985824441614
49,240.16,0.003125464052126423
50,245.75,0.0029547274905954444
51,252.06,0.0028016199359871294
52,256.74,0.0026133361309844494
53,259.71000000000004,0.00258689789704044
54,263.93,0.0024924622403927252
55,268.84000000000003,0.0023632571112125623
56,273.84,0.0022298368203977352
57,275.42287,0.0021884302309881603
58,278.93,0.0023345642435127225
59,284.12,0.0025496869815154425
60,290.07,0.0027713113923278094
61,296.14,0.003036199546215383
62,300.95,0.0032316638978132795
63,307.96,0.003536426639123312
64,316.227766,0.003900015002691228
65,318.05,0.0038695845588404493
66,327.72,0.0036979189211380622
67,337.66999999999996,0.003512805564453601
68,347.92999999999995,0.003317977490324698
69,356.86,0.003154540681360651
70,363.078055,0.0030498806010966937
71,366.01,0.003134446621656865
72,375.4,0.0033801689769915907
73,385.03000000000003,0.003598103453229442
74,394.90999999999997,0.003913725263741379
75,405.03999999999996,0.004207431408527405
76,414.46999999999997,0.004447158617345985
77,416.86938299999997,0.004504830482470602
78,422.18,0.0045899456375097765
79,430.03,0.004723261320645029
80,441.06,0.004941257979878383
81,451.33,0.005106410085075714
82,459.71999999999997,0.005234171556604984
83,470.43,0.005410385193086328
84,478.630092,0.005571137653254605
85,480.28000000000003,0.005557675870495605
86,490.34000000000003,0.0053935290671506125
87,499.46,0.005345537525748394
88,506.4,0.005208445591830476
89,512.27,0.005282083456081459
90,520.59,0.005179005137609258
91,530.27,0.005039841440156026
92,540.13,0.0048440546925435386
93,549.5408739999999,0.004735650799532648
94,550.1700000000001,0.004735087679066782
95,560.4,0.004808020029966483
96,569.5,0.004877609166152922
97,580.09,0.004821537027934723
98,589.52,0.004855328465763089
99,600.48,0.004741199574840382
100,610.23,0.004518798577897281
101,620.15,0.0048566760999818395
102,630.2299999999999,0.0048212444046806645
103,630.957344,0.004823075485196548
104,640.47,0.004961521479564537
105,649.38,0.005071911811981929
106,658.41,0.005138984347529522
107,664.5,0.0052969904063872005
108,675.3000000000001,0.0054162656881052516
109,684.69,0.005386344833043445
110,694.22,0.005752391381633541
111,705.5,0.005680021475872394
112,715.31,0.00606374983176629
113,724.43596,0.006188219450988861
114,725.2599999999999,0.006197004240514933
115,735.35,0.006304778979627294
116,745.58,0.006487724141284325
117,754.22,0.006628169075469736
118,764.7099999999999,0.006558125450424014
119,775.35,0.00697806056381901
120,784.33,0.0070843372384700514
121,795.24,0.007294197881058341
122,804.45,0.007474888821318484
123,815.64,0.007626477308996117
124,825.0799999999999,0.007923775514865361
125,831.763771,0.0074841217341336495
126,834.63,0.007259747771915512
127,844.3000000000001,0.008001228733719558
128,854.0799999999999,0.008004299880197694
129,865.96,0.008191318824999353
130,875.9799999999999,0.008386349919857322
131,884.09,0.008694443717192461
132,894.33,0.008865835181398605
133,904.6800000000001,0.00871623283027884
134,915.16,0.011727912242864819
135,925.7600000000001,0.06204202312964071
136,934.32,0.13297953495518802
137,945.14,0.2596973962113121
138,954.992586,0.3767924383116616
139,956.08,0.38972387606789943
140,964.93,0.4012325867122648
141,976.1,0.05861485438430565
142,985.1400000000001,0.2848925076300755
143,994.25,0.3481649660447838
144,1005.76,0.5933571731088115
145,1015.07,0.60254836057763
146,1024.46,0.2701239396680921
147,1033.94,0.3795466968329038
148,1045.92,0.85027266717409
149,1055.59,0.8438383669403062
150,1065.3600000000001,0.6086295312335773
151,1075.22,0.7757464736011981
152,1085.17,0.5608249940431682
153,1095.21,0.8471886925594877
154,1096.4782,0.8435199109693877
155,1105.34,0.8178579999462808
156,1115.57,0.7610517241537098
157,1125.8899999999999,0.6717412667559257
158,1133.7,0.9496938519035328
159,1144.19,0.8498247736959015
160,1154.77,0.9416470138830568
161,1165.46,0.9738768876638406
162,1176.24,0.617415379839411
163,1184.4,0.9569289809667445
164,1195.3500000000001,0.5727961523324676
165,1203.64,0.36590810225227083
166,1214.78,0.30923656800698834
167,1226.02,0.6603550097559133
168,1234.52,1.1018269692635525
169,1245.94,1.2265265478020508
170,1254.5700000000002,1.1440109561021596
171,1258.92541,1.06911777652405
172,1266.18,0.944404876841772
173,1274.96,1.3326403248243626
174,1283.8,1.4301449909025064
175,1295.6799999999998,1.0143135738220022
176,1304.66,1.002069282123103
177,1313.6999999999998,1.3882470085197565
178,1325.8600000000001,1.3184496758851667
179,1335.0500000000002,1.098695447520703
180,1344.3,1.4435882372517923
181,1353.6200000000001,1.3937850480943599
182,1366.14,1.1963288240330883
183,1375.61,1.2957116801145383
184,1385.15,1.315855557307467
185,1394.7499999999998,1.1348924525959487
186,1404.42,1.187470368995909
187,1414.15,1.2003553034914223
188,1423.96,1.2704562621143396
189,1433.8300000000002,1.25503123883281
190,1440.44,1.3533402323595665
191,1445.43977,1.383771919347687
192,1447.0900000000001,1.393816157964997
193,1453.77,1.3396638488301895
194,1463.85,1.2070114003153902
195,1474.0,1.2172389695192378
196,1484.21,1.2648335539104976
197,1494.5,1.3022361585516398
198,1504.8600000000001,1.2116817809114293
199,1511.8100000000002,1.0405025401199752
200,1515.29,1.1510124209898662
201,1525.8,1.0983950813181853
202,1536.37,0.9194396568339165
203,1543.46,1.0671045514797568
204,1554.16,1.0020762599015474
205,1564.94,1.01517698857322
206,1575.78,1.0968527324323047
207,1586.71,1.1796424990725074
208,1594.03,1.2064293519367602
209,1605.0800000000002,1.1943931489517867
210,1616.2099999999998,1.2127659662166956
211,1623.67,1.128678854518243
212,1634.92,1.2278997021579756
213,1646.25,1.252509570047591
214,1653.8500000000001,1.1391634937864328
215,1659.58691,1.2065738885166124
216,1665.3200000000002,1.2739485436291138
217,1673.0,1.0914187402148017
218,1676.8600000000001,1.2787388754779205
219,1684.6,1.369331182974434
220,1696.28,1.2710387736151672
221,1704.1100000000001,1.210412247477919
222,1715.9199999999998,1.1261400784254412
223,1723.8400000000001,1.1254927186544317
224,1735.7900000000002,1.2243558083938806
225,1743.8000000000002,1.1958166149891094
226,1755.8899999999999,1.306831963520485
227,1763.99,1.1722579364819523
228,1776.22,1.2067275438052543
229,1784.4199999999998,1.242580701618098
230,1796.79,1.3609865677333268
231,1805.08,1.3539158919124088
232,1813.41,1.2173102900320414
233,1825.98,1.2588405258500224
234,1834.4099999999999,1.1987601088210311
235,1842.88,1.08521576573259
236,1855.65,1.0792293712533232
237,1864.22,1.1292662130162587
238,1877.1399999999999,1.2656210958140561
239,1885.8,1.14312010394323
240,1894.51,1.0960692044980918
241,1903.25,1.1789563605083664
242,1905.46072,1.1694645672607695
243,1916.45,1.1222352622949852
244,1925.29,1.1086411987425082
245,1934.18,1.1493650160522912
246,1943.1100000000001,1.205359738051882
247,1956.58,1.1212566423446575
248,1965.6100000000001,1.265654126068768
249,1974.68,1.306147514482686
250,1983.79,1.2266358075864119
251,1992.95,1.1869189815523973
252,2006.76,1.2357250757085394
253,2016.03,1.1765939875714964
254,2025.33,1.2510388279518094
255,2034.68,1.174857549194382
256,2044.0700000000002,1.2406001751267624
257,2053.51,1.1785046819214025
258,2062.9900000000002,1.1776260934058507
259,2072.5099999999998,1.2841844095801063
260,2077.29,1.2288200200121382
261,2086.87,1.2975651932211056
262,2096.51,1.2184972234647846
263,2106.19,1.2203581583982717
264,2115.91,1.2392099980215663
265,2125.67,1.258347742334669
266,2135.48,1.1468503675100314
267,2145.34,1.1998808735476534
268,2155.24,1.2582712842750832
269,2165.19,1.2090515758647729
270,2175.19,1.199769748316722
271,2185.23,1.1823658254584792
272,2187.7616199999998,1.1989700333398694
273,2195.31,1.2485101332831465
274,2205.45,1.2079993967743172
275,2215.63,1.129155736255591
276,2225.85,1.0900201517269685
277,2236.13,1.1968596811835004
278,2246.4500000000003,1.1344762866301357
279,2256.82,1.0641249870644
280,2267.23,1.0995157634887678
281,2272.46,1.1436766991947658
282,2282.95,1.19268162759934
283,2293.49,1.1163626509915432
284,2304.07,1.1247387503738495
285,2314.71,1.0503499637413105
286,2325.39,0.770548253098875
287,2336.1299999999997,0.9460182564415942
288,2346.9100000000003,0.9102752357744168
289,2352.32,1.0214504134358797
290,2363.18,0.9068771447489087
291,2374.09,0.9500913710495666
292,2385.04,0.863157773340328
293,2396.05,0.9424805896162441
294,2407.11,0.8965288008797893
295,2412.6600000000003,0.9346612445066135
296,2423.8,1.0276232077503653
297,2434.99,0.9865399659817459
298,2446.23,1.0648988192007556
299,2457.52,1.0557632674073945
300,2463.1800000000003,1.0368240200070025
301,2474.55,0.9908217201938477
302,2485.9700000000003,1.007469315368322
303,2497.45,0.9561557245279513
304,2503.21,1.1003690671028175
305,2511.88643,0.9714930133294641
306,2514.7599999999998,0.9288026373685028
307,2520.56,0.9550421728937613
308,2526.37,0.910286501066477
309,2532.19,0.9468235218866502
310,2543.88,0.9279512267642832
311,2555.62,1.046331394879203
312,2567.42,0.9929915188788667
313,2573.34,1.0764773661736133
314,2585.21,1.0526086387054783
315,2597.1499999999996,1.029249859769545
316,2603.13,0.9832837629490356
317,2615.15,0.9658972251927609
318,2627.2200000000003,1.0378077506737728
319,2633.28,1.1250752950329224
320,2645.43,1.274510361693593
321,2657.64,1.359981384239008
322,2663.7699999999995,1.1475548771303585
323,2676.06,1.2330108408554323
324,2682.23,1.2447543043366123
325,2694.61,1.1571042018888018
326,2707.0499999999997,1.2262470553257356
327,2713.29,1.1213764673391171
328,2725.8199999999997,1.101543254603167
329,2732.1,1.1832636372063778
330,2744.71,0.9582176656500863
331,2757.3799999999997,1.0038520499785388
332,2763.7400000000002,1.0733533737614085
333,2776.49,1.1401129992695198
334,2782.89,1.0307132936422188
335,2795.74,0.7881046456249035
336,2802.1800000000003,0.8602664105874317
337,2815.12,1.1212075963972326
338,2828.1099999999997,1.2498640454443202
339,2834.63,1.2050442515865072
340,2847.71,1.151526634460711
341,2854.28,1.0554678038401846
342,2867.4500000000003,1.281080120541504
343,2874.07,1.3294552531582648
344,2884.0315,1.3028238293753855
345,2887.3300000000004,1.2940078792898908
346,2893.9900000000002,1.3123517790759103
347,2907.34,1.5108275781965346
348,2927.5,1.4210512748461068
349,2947.79,1.3899069695395503
350,2968.22,1.4532626621263933
351,2988.7999999999997,1.461265352456165
352,3009.52,1.5033240406793362
353,3030.3799999999997,1.5150197267959074
354,3051.38,1.5268534108058784
355,3072.53,1.5601050925587776
356,3086.7099999999996,1.5899418791902724
357,3108.11,1.6208215571813858
358,3129.6600000000003,1.5890092329154275
359,3151.35,1.6013619065428688
360,3173.19,1.6323835779132387
361,3187.84,1.5070053574725755
362,3209.94,1.6122750249306879
363,3232.1899999999996,1.4751956901317285
364,3247.11,1.6827174656283366
365,3269.61,1.804557127067591
366,3292.28,1.785353785948831
367,3307.4700000000003,1.77813355738271
368,3311.31121,1.7712228433215185
369,3322.7400000000002,1.750658212167072
370,3330.4,1.8293820088183708
371,3338.08,1.7078047997168007
372,3345.77,1.7723435877387965
373,3353.4900000000002,1.6932143671314892
374,3361.22,1.7290921436477475
375,3368.97,1.741443914411137
376,3376.73,1.6109376822980925
377,3384.5199999999995,1.6564074415557448
378,3392.3199999999997,1.850386197936963
379,3400.14,1.9603839485653123
380,3407.98,1.788608693440793
381,3415.8300000000004,1.8097734354398394
382,3423.71,1.9710261688095827
383,3431.6000000000004,1.9356668993028918
384,3439.51,1.9184556240433321
385,3447.44,1.6260303430309035
386,3455.39,1.7914860562656068
387,3463.35,1.6419287666238753
388,3471.34,1.851147468352841
389,3479.34,1.6206321672053723
390,3487.36,1.757970860305035
391,3495.4,1.743242547651829
392,3503.46,1.9127802292457543
393,3511.5299999999997,1.8621819079632451
394,3519.63,1.880974578051433
395,3527.74,1.6934322452631867
396,3535.87,1.8926689067220717
397,3544.02,2.048273562428088
398,3552.19,2.0452492123812354
399,3560.38,2.0004308565815143
400,3568.5899999999997,1.7968504950289248
401,3576.8100000000004,1.7453291305999008
402,3585.06,1.5894557575415735
403,3585.82,1.767799538932564
404,3588.5,1.958236768048162
405,3591.19,1.5665859942873257
406,3593.8700000000003,0.8414950234029237
407,3596.56,1.9809624496420875
408,3599.2400000000002,2.5857806787576854
409,3601.92,1.4715699078732833
410,3604.6099999999997,1.874773134112447
411,3607.2900000000004,1.077319363228045
412,3609.98,1.5776205894672086
413,3612.66,2.1925578185828067
414,3615.35,1.7379550448219703
415,3618.0299999999997,2.311099273937568
416,3620.7099999999996,1.8165535030531663
417,3623.4,1.60758272929233
418,3626.08,1.5066519584079279
419,3628.77,1.9668931846470916
420,3631.45,2.2746924137626894
421,3634.1400000000003,2.092399640001853
422,3636.82,1.9516488691174512
423,3639.51,2.2335460953566146
424,3642.19,1.9258863244722129
425,3644.87,2.624410553587811
426,3647.5600000000004,2.267322779826974
427,3650.2400000000002,2.0188040089425723
428,3652.93,1.9064302351817362
429,3655.61,1.6755214642973342
430,3658.2999999999997,1.7810486905364977
431,3660.9799999999996,2.569333919652096
432,3663.6600000000003,1.6914241487676938
433,3666.35,2.4762813750068577
434,3669.0299999999997,2.0778086041224553
435,3671.72,1.742144830361619
436,3674.4,2.682094059477217
437,3677.09,1.8596342857163808
438,3679.77,1.6740675148319788
439,3682.45,1.7372857439475766
440,3685.14,1.6600019701867403
441,3687.82,2.1180181993023384
442,3690.51,2.101714425541502
443,3693.19,1.6105866546571002
444,3695.88,1.8169158808962635
445,3698.5600000000004,2.0068271100118613
446,3701.2400000000002,1.9313933391274596
447,3703.93,1.8410985653666232
448,3706.61,2.8016827944822214
449,3709.2999999999997,2.488621020721385
450,3711.9799999999996,2.620313249836983
451,3714.67,2.661177476076147
452,3717.35,3.835457705191745
453,3720.0299999999997,4.384687934307342
454,3722.72,6.041010160546506
455,3725.3999999999996,8.129356389662103
456,3728.09,8.811550615901266
457,3730.77,8.401921845016865
458,3733.46,6.75226407125603
459,3736.14,4.7527923003716275
460,3738.8199999999997,3.774216529487225
461,3741.51,2.202766755726389
462,3744.19,2.536325984841987
463,3746.88,2.0275762110811506
464,3749.56,1.8839324401967488
465,3752.2499999999995,1.6188446664359122
466,3754.9300000000003,1.8806448955515105
467,3757.61,2.1278571246671087
468,3760.2999999999997,1.689813350906272
469,3762.98,1.86303358002187
470,3765.67,1.9355738062610337
471,3768.35,2.684301035376632
472,3771.04,2.3235332616157955
473,3773.72,2.0974884907313935
474,3776.3999999999996,2.6585437198469912
475,3779.09,2.861715946086155
476,3781.77,2.914291175201753
477,3784.46,2.6428914014409166
478,3787.14,2.5723226305565143
479,3789.83,2.270958856795678
480,3792.51,2.3124930859112762
481,3795.19,1.8900993150268743
482,3797.88,2.196311541266038
483,3800.56,2.2106407703816355
484,3801.8939600000003,2.1778552203273556
485,3803.2500000000005,2.1445270778936125
486,3805.9300000000003,2.6982214676321554
487,3808.62,2.7649758550936037
488,3811.3,2.618837244832146
489,3813.98,2.531445634570689
490,3816.6699999999996,2.4009340220321373
491,3819.3500000000004,2.5512874117706805
492,3822.04,2.435626799232128
493,3824.72,2.449694188970671
494,3827.41,1.8832495764321193
495,3830.0899999999997,1.8506599661706624
496,3832.77,1.9016563559092052
497,3835.46,2.018748743370653
498,3838.14,1.6520791331091962
499,3840.83,2.3570305205706443
500,3843.5099999999998,2.3588759103091874
501,3846.2000000000003,2.649840297770635
502,3848.88,2.600692687509178
503,3851.56,2.7749670772477213
504,3854.25,2.7543244647091694
505,3856.9300000000003,2.7285708544477125
506,3859.6200000000003,2.5912242419091602
507,3862.3,2.606605631647703
508,3864.99,3.2921040191091513
509,3867.67,3.1810574088476944
510,3870.3500000000004,3.4202557985862376
511,3873.04,3.248737186047685
512,3875.7200000000003,2.959216575786228
513,3878.41,2.640503963247676
514,3881.0899999999997,2.2149573529862194
515,3883.78,2.0038837404476673
516,3886.46,2.2075951301862102
517,3889.14,2.189988519924753
518,3891.83,2.3263989073862015
519,3894.5099999999998,2.2428182971247446
520,3897.2000000000003,2.634059684586192
521,3899.88,3.2199540743247352
522,3902.57,2.802016461786183
523,3905.25,2.910446851524726
524,3907.93,2.531556241263269
525,3910.6200000000003,2.863787628724717
526,3913.3,3.14201901846326
527,3915.99,3.0342414059247083
528,3918.67,2.9766837956632513
529,3921.3599999999997,3.120978183124699
530,3924.04,2.999547572863242
531,3926.7200000000003,2.6202629626017853
532,3929.41,2.4045883500632335
533,3932.0899999999997,1.9481557398017761
534,3934.7799999999997,2.040278127263224
535,3937.46,2.3744935170017674
536,3940.15,2.312059904463215
537,3942.83,2.6487732942017583
538,3945.5099999999998,2.821469683940301
539,3948.2,2.845512071401749
540,3950.88,3.065521461140292
541,3953.57,2.88112384860174
542,3956.25,2.661125238340283
543,3958.94,2.384601625801731
544,3961.6200000000003,2.6554710155402743
545,3964.3,2.1672344052788173
546,3966.9900000000002,1.757710792740265
547,3969.67,1.9785061824788082
548,3972.3599999999997,2.100067569940256
549,3975.0400000000004,2.6344419596787993
550,3977.73,2.784388347140247
551,3980.41,2.73694973687879
552,3983.09,3.142662126617333
553,3985.7799999999997,3.317052514078781
554,3988.4599999999996,3.4649119038173244
555,3991.15,3.336105291278772
556,3993.83,3.285776681017315
557,3996.52,3.214272068478763
558,3999.2,3.537844458217306
559,4001.88,3.5842438479558494
560,4004.57,3.811465235417297
561,4007.25,3.61998762515584
562,4009.94,3.830913012617288
563,4012.62,3.451235402355831
564,4015.3100000000004,3.6400807898172793
565,4017.9900000000002,3.506692179555822
566,4020.67,3.523916569294365
567,4023.36,3.709738956755813
568,4026.04,3.792543346494356
569,4028.73,3.877957733955804
570,4031.4100000000003,3.455831123694347
571,4034.1,3.289569511155795
572,4036.7799999999997,3.3501629008943383
573,4039.4600000000005,3.576350290632881
574,4042.15,3.560174678094329
575,4044.83,3.414300067832872
576,4047.52,3.52402945529432
577,4050.2,3.875069845032863
578,4052.8900000000003,3.534145232494311
579,4055.57,3.481581622232854
580,4058.25,3.274727011971397
581,4060.94,3.527445399432845
582,4063.62,3.2738037891713883
583,4066.3100000000004,3.4944541766328356
584,4068.9900000000002,3.4910445663713787
585,4071.68,3.458045953832827
