,lambda (Angstroms),Total Flux (erg/s/cm^2/Angstrom)
0,102.07000000000001,0.02317743657481301
1,103.97,0.02709530324600607
2,104.712855,0.02863037386637955
3,105.9,0.0266118071233416
4,108.12,0.022839062584641613
5,109.88,0.01991358581251912
6,114.0,0.012931775311868687
7,118.01,0.006133043553225917
8,120.22644299999999,0.0029466347636667163
9,121.02999999999999,0.003104495609215604
10,125.0,0.0030129774428253814
11,127.03,0.0029459797758802555
12,127.91,0.0029445316936577383
13,130.89,0.00285355536976785
14,132.1,0.0029855900067118878
15,133.94,0.0029414994711557145
16,137.06,0.0030892199978213336
17,138.038426,0.0030759994635681256
18,139.93,0.00319510738595982
19,142.86,0.005668839471615501
20,146.85999999999999,0.009766339588551585
21,150.97,0.010469923708703411
22,154.85,0.011326619822131411
23,158.489319,0.012180277660628125
24,158.82,0.01225734721739401
25,162.14,0.012947244293593207
26,165.92,0.013984382410470607
27,170.17999999999998,0.014906265526316565
28,172.94,0.01568541177038578
29,176.97,0.016652964365892635
30,179.85000000000002,0.017370134359703988
31,181.93,0.017880526021901075
32,181.970086,0.017890183903662815
33,186.17000000000002,0.01892594797303694
34,190.94,0.02022119161054704
35,194.04999999999998,0.021114257126827213
36,198.10999999999999,0.022200877832967883
37,201.79,0.02334204246316435
38,205.07000000000002,0.024155813329209033
39,208.929613,0.02456270978508649
40,209.85,0.024666204536070383
41,216.22,0.02725442868367221
42,220.23999999999998,0.02855325580664856
43,222.79,0.029163134280178332
44,226.94,0.030477954344942472
45,230.09,0.045808267165185136
46,233.83,0.07484993025969547
47,239.83,0.09809634372682435
48,239.88329199999998,0.09805511109598235
49,245.98,0.09324453869232037
50,251.70999999999998,0.09937151527457071
51,256.97999999999996,0.08010066761112555
52,259.96,0.09684431946367458
53,264.18,0.10252517363070712
54,269.09,0.10249266916628288
55,274.1,0.10221727214657507
56,275.42287,0.10190678726387424
57,279.19,0.10107656467099362
58,283.72999999999996,0.10180653339637966
59,289.67,0.0970629837110918
60,295.74,0.09755394524481278
61,301.23,0.09280265826295582
62,308.25,0.09478524408943381
63,316.227766,0.09640138886949672
64,318.35,0.09680412783115447
65,328.02,0.09543110611397558
66,337.99,0.09321987962790801
67,348.26000000000005,0.09063757837295174
68,357.19,0.08996964441903162
69,363.078055,0.09046811048062245
70,366.36,0.09077759772941994
71,374.89000000000004,0.08875509306252465
72,385.39,0.08348042536001576
73,395.28000000000003,0.08564707925736693
74,405.42,0.08549482987608693
75,413.90999999999997,0.0835983261337726
76,416.86938299999997,0.08252836669375749
77,421.6,0.08081002234170066
78,430.43,0.07864404595002908
79,441.46999999999997,0.0781348643006458
80,450.72,0.07604889306361723
81,460.15,0.07318460832143568
82,469.79,0.07155806615657564
83,478.630092,0.07085165391221514
84,479.63,0.07076589048124808
85,489.66999999999996,0.06742830563672644
86,499.92,0.06754814250362418
87,505.71,0.06526027968990103
88,511.57,0.06969944411331767
89,519.88,0.06779126183662695
90,529.5500000000001,0.06488257731008071
91,539.39,0.060700657502302524
92,549.42,0.05862518590961806
93,549.5408739999999,0.05864567707001958
94,559.63,0.06037866480358185
95,570.04,0.06050555835288184
96,580.64,0.0585914662705168
97,590.0699999999999,0.05765272044629959
98,599.66,0.05407497145857499
99,609.4,0.0475802901300622
100,619.3,0.05405339563804202
101,629.3700000000001,0.05174793715979522
102,630.957344,0.051801282352569165
103,639.59,0.052113332869226384
104,649.98,0.0504927101968383
105,657.51,0.04836180524755222
106,665.12,0.049376557005312245
107,674.38,0.04894158584589803
108,685.34,0.04572497471121338
109,694.8699999999999,0.046792137438079744
110,704.5400000000001,0.04312597440227678
111,715.9799999999999,0.045254203509868716
112,724.43596,0.04465923845182986
113,725.94,0.04455246778975966
114,734.35,0.0438554383708607
115,744.5699999999999,0.042491621312460294
116,754.9200000000001,0.04154770215840509
117,765.43,0.037528255809697826
118,774.29,0.03999275990583995
119,785.0600000000001,0.037971909365823085
120,794.15,0.03832661436965286
121,805.1999999999999,0.03807527623899489
122,814.52,0.03748517215051233
123,825.85,0.03698800642921325
124,831.763771,0.03473788974114423
125,835.4200000000001,0.03333708906832409
126,845.09,0.0354965910919536
127,854.88,0.03460730597420106
128,864.77,0.03443290990529681
129,874.79,0.033949788599895336
130,884.92,0.03339881824822698
131,895.17,0.03285599075517656
132,905.53,0.03210285421585927
133,916.02,0.031937152440044754
134,924.49,0.0544693658774948
135,935.2,0.07741208600914652
136,946.0300000000001,0.09933354899941618
137,954.78,0.11163563577364144
138,954.992586,0.11179863862254033
139,965.84,0.12013254863682611
140,974.77,0.06155189457483497
141,986.06,0.1039688655311754
142,995.18,0.09999137712743977
143,1004.39,0.1165945229828778
144,1016.02,0.1160572966960965
145,1025.4199999999998,0.07595378820979004
146,1034.91,0.10136529398265724
147,1044.49,0.1313554540146981
148,1054.1499999999999,0.12720149116600443
149,1063.91,0.11135009971639262
150,1076.23,0.11955307608327606
151,1086.18,0.10158533029191975
152,1096.23,0.1203751558996453
153,1096.4782,0.12019869962269276
154,1103.83,0.11496750389722543
155,1114.05,0.1123499553930908
156,1124.35,0.10155723527639933
157,1134.76,0.11493881669244221
158,1145.26,0.10902281754435868
159,1155.85,0.1095154378321487
160,1163.8700000000001,0.1085051586733268
161,1174.64,0.08219875783286398
162,1185.5,0.10338319642827472
163,1193.72,0.08884813823806074
164,1204.77,0.07635718675364903
165,1215.91,0.05642002470511087
166,1224.34,0.08503159853193523
167,1235.67,0.09938048640357462
168,1244.24,0.10238431490842453
169,1255.75,0.09959010165181106
170,1258.92541,0.0977184099298614
171,1264.45,0.09446733092275421
172,1276.15,0.10355486588433271
173,1285.0,0.10451062938091132
174,1293.91,0.09147952669780574
175,1305.88,0.09106263885080527
176,1314.93,0.10120483508176985
177,1324.05,0.0971096757697695
178,1336.3,0.09043888575090939
179,1345.5600000000002,0.09755759535297921
180,1354.8899999999999,0.09490626941208412
181,1364.28,0.08859047729150481
182,1373.74,0.08879643962796059
183,1386.4499999999998,0.08838869889818818
184,1396.0600000000002,0.07339849078543344
185,1405.73,0.07256454649299446
186,1415.48,0.08251196729430989
187,1425.29,0.0810123519159411
188,1435.17,0.08213519099460738
189,1441.79,0.08327421250278258
190,1445.43977,0.08327453257284391
191,1448.45,0.08327476575495615
192,1455.13,0.08082888272879303
193,1465.22,0.07684903193029215
194,1475.38,0.07667381487253506
195,1485.6,0.0768500610211298
196,1495.9,0.07597418144486033
197,1506.2700000000002,0.07290370560933464
198,1513.22,0.06774482701175474
199,1516.71,0.06979554351455276
200,1523.71,0.06884231758893271
201,1534.27,0.06167123190685449
202,1544.9099999999999,0.05972352049991203
203,1555.6200000000001,0.058371942833713365
204,1566.4,0.06167221890825851
205,1573.63,0.06456389527365382
206,1584.5400000000002,0.06575948829529459
207,1595.52,0.06636654505767915
208,1606.58,0.06427021609519949
209,1613.9999999999998,0.06368412261404226
210,1625.19,0.06167507059865822
211,1636.45,0.063978662324018
212,1644.0,0.06427207578995638
213,1655.3999999999999,0.06139426499680375
214,1659.58691,0.06260613964801019
215,1666.88,0.06471953491733634
216,1670.72,0.059325033502110026
217,1678.4299999999998,0.07208647237935092
218,1686.1799999999998,0.0725878968668499
219,1693.9599999999998,0.06792246306204239
220,1705.7,0.06730785467278276
221,1713.5800000000002,0.0690264698936204
222,1725.45,0.06982849223769946
223,1733.42,0.07566447258161775
224,1745.43,0.07344705956160001
225,1753.49,0.07995369502859893
226,1765.64,0.0708108166444844
227,1773.7900000000002,0.07550834723456396
228,1786.09,0.07690806738891715
229,1794.3300000000002,0.08725035310207734
230,1806.77,0.08353361789233373
231,1815.1100000000001,0.08202089263113907
232,1823.49,0.08090385298020246
233,1836.1299999999999,0.07817384582174916
234,1844.6000000000001,0.06892187129389318
235,1853.1200000000001,0.07605786627885978
236,1865.96,0.08452047717169678
237,1874.5800000000002,0.08413821118230852
238,1883.2299999999998,0.08242227690061382
239,1896.28,0.08649316974730561
240,1905.04,0.08590267839382057
241,1905.46072,0.08597896083398243
242,1913.83,0.08748895245882755
243,1927.1,0.08092385705289894
244,1935.99,0.06599504498366719
245,1944.93,0.09306007776219004
246,1953.9,0.09241866544936565
247,1967.45,0.10411845919086281
248,1976.53,0.10035983154309855
249,1985.6499999999999,0.10244980377353796
250,1994.82,0.10174379085173199
251,2004.02,0.09717553283857877
252,2013.28,0.09761710464273106
253,2027.2299999999998,0.09028437716626504
254,2036.5900000000001,0.10242397866592655
255,2045.99,0.11073475004379173
256,2055.43,0.1043143012998606
257,2064.92,0.10100982740368407
258,2074.45,0.11672363338571122
259,2079.23,0.1435289288310512
260,2084.03,0.15236271421549297
261,2093.65,0.14253357492347843
262,2103.31,0.13426521550966755
263,2113.02,0.14383963094361127
264,2122.77,0.13643202625575868
265,2132.57,0.12274279641566067
266,2147.35,0.14548556141192104
267,2157.26,0.14615167623688316
268,2167.22,0.13239646590959991
269,2177.22,0.13392063546052033
270,2187.27,0.15091567985919535
271,2187.7616199999998,0.15124339663502984
272,2197.37,0.15765708622309943
273,2207.51,0.1509234531128702
274,2212.6,0.12732279457923443
275,2222.81,0.13454508954418112
276,2233.07,0.16623240456282487
277,2243.38,0.15623103963516577
278,2253.74,0.12999829476120373
279,2264.14,0.12705076593019937
280,2274.59,0.1383328571528921
281,2285.0899999999997,0.16365206842928193
282,2295.64,0.14229119975936888
283,2306.23,0.16151234713241344
284,2316.88,0.1466989185698946
285,2327.5699999999997,0.11345940605033336
286,2332.94,0.11218145981740131
287,2343.71,0.08539875938375545
288,2354.52,0.13708341499306728
289,2365.39,0.0911286446668156
290,2376.31,0.11336795439426102
291,2387.2799999999997,0.07452626417540355
292,2392.7799999999997,0.09016545008208394
293,2403.83,0.0895780719491418
294,2414.92,0.10050183985915735
295,2426.0699999999997,0.1495644118336094
296,2437.27,0.14790600386175856
297,2442.89,0.17018405789731197
298,2454.16,0.17540347800063708
299,2465.49,0.16227772216839867
300,2476.87,0.14471778638985736
301,2482.58,0.11505047652206554
302,2494.04,0.12077217282943958
303,2505.55,0.17246938919051072
304,2511.33,0.09672646739789485
305,2511.88643,0.09511706831503282
306,2517.12,0.0799767581804154
307,2522.92,0.08509478786860016
308,2534.56,0.11338301103592265
309,2546.26,0.11984159488967465
310,2552.13,0.18121818371202714
311,2563.91,0.14640465514768514
312,2575.75,0.17843791726977262
313,2587.64,0.16432337163055136
314,2593.6,0.1516524464825481
315,2605.5699999999997,0.13462358842523284
316,2617.6,0.12172412105434706
317,2623.63,0.16222798504051156
318,2635.74,0.2382043052515318
319,2647.91,0.3147147161489815
320,2654.0099999999998,0.4063231692693138
321,2666.2599999999998,0.27873666774866945
322,2672.41,0.31347761310769295
323,2684.75,0.3501952976166929
324,2697.14,0.26827227436438417
325,2703.36,0.3210265088575754
326,2715.8300000000004,0.24481817318717258
327,2722.0899999999997,0.2133110014713168
328,2734.66,0.2570568502782965
329,2747.28,0.15436999132396748
330,2753.61,0.19880240874227942
331,2766.3199999999997,0.24912303581759462
332,2772.7000000000003,0.27003324547459784
333,2785.5,0.17614725857955732
334,2791.92,0.07870358202751353
335,2804.81,0.09589532116211721
336,2817.75,0.24717535253541217
337,2824.25,0.3387907435652744
338,2837.29,0.3206971194159518
339,2843.83,0.25602510423676705
340,2856.95,0.17607006766935046
341,2863.54,0.32387954472885694
342,2876.7599999999998,0.40220279263882286
343,2883.3900000000003,0.3771733634892823
344,2884.0315,0.379968492923711
345,2896.7,0.4351693236671774
346,2910.07,0.5750897811941816
347,2930.2400000000002,0.5093320171193629
348,2950.55,0.47672245259980095
349,2970.9999999999995,0.4982850876354955
350,2991.6,0.5078398221946793
351,3012.33,0.511619056340887
352,3033.21,0.5397326900105839
353,3047.22,0.5627809455044754
354,3068.34,0.6075195784117551
355,3089.6099999999997,0.599527310842524
356,3111.02,0.6730236428285494
357,3132.59,0.6284887743062967
358,3147.05,0.6330881283706556
359,3168.86,0.6881835590859857
360,3190.83,0.6053070892930374
361,3212.94,0.665595719055346
362,3227.77,0.5733448719443116
363,3250.15,0.7702341008489006
364,3272.68,0.8888998292769787
365,3287.78,0.8750553813082251
366,3310.5699999999997,0.8304454089103512
367,3311.31121,0.8261242591143045
368,3318.2,0.7859631882201313
369,3325.8500000000004,0.778921523658538
370,3333.52,0.8502767578824044
371,3341.21,0.7864445908917307
372,3348.91,0.917755223293787
373,3356.63,0.8888193544813032
374,3364.37,0.5888323844542793
375,3372.12,0.6577286138199853
376,3379.89,0.8934720419711513
377,3387.69,0.8436952683005069
378,3395.5,0.7678620940225925
379,3403.32,0.9916094191374082
380,3411.17,0.8081048424304136
381,3419.03,0.795331665116149
382,3426.9100000000003,0.8543349865873443
383,3434.81,0.9698410068439994
384,3442.73,0.7461721258861145
385,3450.67,0.8220787437136894
386,3458.62,0.9015361609339942
387,3466.6000000000004,0.845462876332489
388,3474.59,0.9229364911237137
389,3482.6000000000004,0.8655060047003981
390,3490.63,0.9318528170625425
391,3498.6699999999996,0.7915236288174169
392,3506.74,1.001207938750481
393,3514.82,0.8407064480762753
394,3522.92,0.9676514561875292
395,3531.0399999999995,0.7903944630842431
396,3539.1800000000003,0.990596868766417
397,3547.34,1.0398854732340506
398,3555.52,0.9662334764871442
399,3563.7200000000003,0.9444692785256976
400,3571.93,0.7504319799569811
401,3580.1699999999996,0.8248724795664543
402,3588.42,0.6088899785686573
403,3596.69,0.8944869763563205
404,3604.98,1.0224589729294433
405,3613.29,0.7776432682880263
406,3621.62,0.753150062432069
407,3629.9700000000003,1.1855274553615716
408,3638.3399999999997,0.959471347076534
409,3646.7300000000005,1.0142064375769566
410,3655.1299999999997,1.0309089274701086
411,3663.56,1.268503415541451
412,3672.0000000000005,1.1127539030055231
413,3680.4700000000003,1.0777023886477848
414,3688.95,1.0129968736827766
415,3697.46,1.1263973568959584
416,3705.98,1.17429483950187
417,3714.52,1.0516933208932417
418,3723.09,0.8570634004628029
419,3731.67,1.0211372794250941
420,3740.27,0.6155642571728455
421,3748.89,0.8004279337060566
422,3753.0,0.5732116841180631
423,3755.71,0.8084963195478778
424,3758.43,0.8754102543704224
425,3761.1499999999996,0.9493652891929669
426,3763.8700000000003,0.9477705240155115
427,3766.59,0.9246679588380561
428,3769.2999999999997,1.0422609942678704
429,3772.02,1.0691138290904152
430,3774.74,1.0030706639129598
431,3777.46,0.9631621987355043
432,3780.1800000000003,1.010546333558049
433,3782.89,1.1823861689878636
434,3785.6099999999997,1.153296003810408
435,3788.33,0.9543739386329527
436,3791.05,0.9426548734554971
437,3793.7599999999998,0.8835554088853118
438,3796.48,0.8179754437078564
439,3799.2,0.717781678530401
440,3801.8939600000003,0.9152802784960938
441,3801.9199999999996,0.9171893136824347
442,3804.6400000000003,0.961823882921669
443,3807.35,1.0253767526416415
444,3810.0699999999997,0.9831294218808759
445,3812.79,1.03935349112011
446,3815.5099999999998,1.0528173603593447
447,3818.23,1.044181229598579
448,3820.94,0.8970187993185516
449,3823.66,0.8920068685577859
450,3826.3799999999997,0.8994835377970202
451,3829.1,0.7860302070362545
452,3831.82,0.6160696762754889
453,3834.5299999999997,0.6276871459954615
454,3837.25,0.6915177152346957
455,3839.97,0.6183575844739301
456,3842.69,0.6803378537131645
457,3845.4100000000003,0.8022433229523989
458,3848.12,0.9367703926723714
459,3850.8399999999997,1.0350606619116056
460,3853.56,1.0826495311508402
461,3856.28,1.0183804003900745
462,3858.99,0.944299970110047
463,3861.71,1.0977361393492813
464,3864.43,1.0691850085885157
465,3867.1499999999996,0.82023157782775
466,3869.8700000000003,0.9543943470669844
467,3872.58,0.9553745167869568
468,3875.2999999999997,0.7954863860261913
469,3878.02,0.8299707552654255
470,3880.74,0.9637740245046599
471,3883.46,0.9974873937438944
472,3886.17,0.9386192634638668
473,3888.89,0.9603322327031012
474,3891.6099999999997,0.8912573019423355
475,3894.33,1.1013805711815698
476,3897.05,1.0856264404208043
477,3899.7599999999998,1.0968613101407767
478,3902.48,1.0683871793800113
479,3905.2,1.1906780486192454
480,3907.9199999999996,1.29690791785848
481,3910.6400000000003,1.1107057870977142
482,3913.35,1.2513766568176867
483,3916.0699999999997,1.421668526056921
484,3918.79,1.2572583952961554
485,3921.51,1.3076222645353899
486,3924.22,1.2216711342553621
487,3926.94,1.0389890034945966
488,3929.66,0.865276372733831
489,3932.3799999999997,0.5988744419730654
490,3935.1000000000004,0.5288237112122998
491,3937.81,0.5789864809322722
492,3940.5299999999997,0.6906136501715066
493,3943.25,0.847672919410741
494,3945.97,1.1572180886499752
495,3948.69,1.2322259578892096
496,3951.4,1.3112488276091823
497,3954.12,1.2569756968484165
498,3956.8399999999997,1.1945305660876508
499,3959.56,1.147426435326885
500,3962.28,1.0904293045661195
501,3964.99,0.886501574286092
502,3967.71,0.6844961435253265
503,3970.43,0.6163468127645608
504,3973.1499999999996,0.6881691820037952
505,3975.86,0.8234153517237677
506,3978.58,1.065686520963002
507,3981.2999999999997,1.3384843902022363
508,3984.02,1.3473742594414708
509,3986.74,1.4725421286807052
510,3989.45,1.4625779984006775
511,3992.17,1.475475867639912
512,3994.89,1.6361067368791462
513,3997.6099999999997,1.6761916061183806
514,4000.3300000000004,1.6093784753576152
515,4003.04,1.5952503450775875
516,4005.7599999999998,1.681565214316822
517,4008.48,1.7313130835560562
518,4011.2,1.7249119527952905
519,4013.92,1.677088822034525
520,4016.63,1.8362886917544974
521,4019.35,1.8619055609937318
522,4022.0699999999997,1.7612744302329664
523,4024.79,1.7040712994722005
524,4027.51,1.825564168711435
525,4030.22,1.8221030384314074
526,4032.94,1.6562779076706418
527,4035.66,1.6419877769098763
528,4038.3799999999997,1.7094406461491105
529,4041.09,1.834077515869083
530,4043.81,1.8496993851083172
531,4046.5299999999997,1.7117562543475517
532,4049.25,1.5953721235867862
533,4051.97,1.6880599928260205
534,4054.68,1.709882862545993
535,4057.4,1.6938977317852273
536,4060.12,1.6784256010244616
537,4062.8399999999997,1.5858124702636962
538,4065.56,1.5133453395029304
539,4068.27,1.6824632092229028
540,4070.99,1.6388020784621373
541,4073.71,1.6347399477013715
542,4076.43,1.654524816940606
543,4079.15,1.6871836861798402
544,4081.86,1.783913555899813
545,4084.58,1.8194514251390472
546,4087.2999999999997,1.7847842943782815
547,4090.02,1.752661163617516
548,4092.7400000000002,1.7877350328567503
549,4095.45,1.7788509025767227
550,4098.17,1.6385687718159572
551,4100.889999999999,1.4826636410551914
552,4103.61,1.567487510294426
553,4106.32,1.5231663800143982
554,4109.04,1.5454692492536326
555,4111.76,1.668145118492867
556,4114.48,1.6268739877321015
557,4117.2,1.678779856971336
558,4119.91,1.6862897266913084
559,4122.63,1.7192835959305426
560,4125.349999999999,1.757030465169777
561,4128.07,1.7503473344090112
562,4130.79,1.8347592036482459
563,4133.5,1.8069360733682183
564,4136.22,1.7169429426074525
565,4138.94,1.751195811846687
566,4141.66,1.7848826810859213
567,4144.38,1.7159105503251557
568,4147.09,1.7934704200451281
569,4149.8099999999995,1.7299192892843624
570,4152.53,1.678344158523597
571,4155.25,1.7687960277628312
572,4157.97,1.7633968970020657
573,4160.68,1.8238687667220381
574,4163.4,1.8689136359612724
575,4166.12,1.8686295052005069
576,4168.84,1.7877843744397413
577,4171.55,1.7021682441597137
578,4174.2699999999995,1.702218113398948
579,4176.99,1.6869519826381822
580,4179.71,1.6751298518774167
581,4182.429999999999,1.7514477211166513
582,4185.14,1.7604485908366236
583,4187.86,1.8055444600758581
584,4190.58,1.7595963293150922
585,4193.3,1.7850091985543266
586,4196.0199999999995,1.7280110677935612
587,4198.73,1.7086939375135335
588,4201.45,1.754920806752768
589,4204.17,1.6890576759920022
