,lambda (Angstroms),Total Flux (erg/s/cm^2/Angstrom)
0,100.03,0.003005350337812899
1,101.89,0.0036147742461595544
2,104.02,0.0043126628590494966
3,104.712855,0.004539674976726076
4,105.96,0.004198728238827688
5,107.93,0.0036601664134656453
6,109.92999999999999,0.00311340414712731
7,114.05999999999999,0.001984339614251666
8,118.07,0.0008880823528492197
9,120.22644299999999,0.0002985823101433697
10,121.09,0.0002876716897403704
11,125.06,0.0002374765650225631
12,127.09,0.00021181016523161877
13,127.97,0.00020068709737726861
14,130.96,0.00016288585235612392
15,131.85999999999999,0.00015152896431531147
16,134.01,0.0001243510039455921
17,137.13,8.494837879744117e-05
18,138.038426,7.347030441418761e-05
19,140.0,7.262278587001922e-05
20,142.93,7.190013305263445e-05
21,146.93,7.167767456473716e-05
22,151.05,7.024317862220295e-05
23,154.93,6.899851258894261e-05
24,158.489319,6.792239899870951e-05
25,158.9,6.769980426783788e-05
26,161.85000000000002,6.6131101527274e-05
27,166.01000000000002,6.402560772363134e-05
28,169.86999999999998,6.210645858852065e-05
29,173.03,6.0559752679984394e-05
30,177.06,5.866582093270559e-05
31,179.94,5.7377945914799156e-05
32,181.970086,5.648700860942086e-05
33,182.01999999999998,5.6510391722947834e-05
34,185.82999999999998,5.839387217881975e-05
35,191.04,6.096389092293856e-05
36,194.14000000000001,6.265539827548525e-05
37,198.20999999999998,6.480265467060301e-05
38,201.89,6.7062921656852e-05
39,205.17000000000002,6.891254027503044e-05
40,208.929613,7.066362525402599e-05
41,209.95,7.228228800993798e-05
42,215.84,8.347903557178387e-05
43,219.85000000000002,9.081651530404227e-05
44,222.91,9.602406155858355e-05
45,227.04999999999998,0.00010383120060884532
46,230.21,0.00012248885249262
47,233.95,0.00015784494902594827
48,239.88329199999998,0.00018649053447222184
49,239.95,0.00018664939602474825
50,246.11,0.00017961848065660668
51,251.84,0.00018370322171838412
52,257.11,0.00016581009035635392
53,260.09000000000003,0.00017791245649319452
54,263.71,0.0001821822181762023
55,269.23,0.00018005410726189362
56,274.24,0.00017779456583423304
57,275.42287,0.00017753595057208815
58,278.69,0.0001842864511692643
59,283.87,0.0001941818230641351
60,289.82,0.00019943362726770284
61,295.89,0.00021315790533756106
62,300.69,0.0002209874599891788
63,307.7,0.00023561613334497882
64,316.227766,0.00025335050662495646
65,317.78000000000003,0.000253405864509199
66,328.19,0.00025077117904418334
67,338.15999999999997,0.00024655142312812137
68,347.63,0.00024251334624496106
69,357.37,0.00023755904668403384
70,363.078055,0.00023586085805030703
71,365.7,0.0002391149295398333
72,375.08,0.0002478547768768518
73,384.7,0.00025193068981737616
74,394.57,0.00026634741276155237
75,404.69,0.0002769710457093805
76,414.11999999999995,0.00028460461504712937
77,416.86938299999997,0.0002863070858861747
78,421.82,0.0002880370069294473
79,429.65999999999997,0.00029164231170968535
80,440.68,0.00029825712327578526
81,450.94,0.0003015524961131887
82,460.39,0.00030493399741079704
83,470.03000000000003,0.00030883528339057954
84,478.630092,0.00031345085594967513
85,479.87,0.0003129567124974952
86,489.92,0.0003046085355251452
87,500.18,0.0003013160399294924
88,505.97,0.00029652026931557135
89,511.83,0.0003118175591605494
90,520.14,0.00030835636506699435
91,529.8100000000001,0.00030228090274633514
92,539.66,0.0002919455387485593
93,549.5408739999999,0.00029831794337980286
94,549.6999999999999,0.0002984775151250005
95,559.92,0.0003071687556332933
96,570.33,0.0003163430856422296
97,579.5899999999999,0.00030893390551569254
98,590.37,0.0003249626413943028
99,599.96,0.0003244379746109885
100,609.7099999999999,0.0003233170779334792
101,619.62,0.00035549845136177493
102,629.68,0.0003642848217642628
103,630.957344,0.00036423013382413374
104,639.92,0.0003674803927863107
105,650.3100000000001,0.0003915108894112171
106,657.8399999999999,0.0004072820593424534
107,665.4599999999999,0.0004213556787150989
108,674.72,0.00042271944346453425
109,685.6800000000001,0.00042139841988503225
110,695.22,0.0004942192606744074
111,704.89,0.00048269636176804013
112,716.35,0.0005403343239741448
113,724.43596,0.0005549816060555827
114,726.3100000000001,0.000558188303021269
115,734.7199999999999,0.0005755681215165214
116,744.94,0.0006304458560018342
117,755.3100000000001,0.000664658056453174
118,765.81,0.0006886164740750705
119,774.68,0.0007480231148661394
120,785.46,0.0007924810156246199
121,794.55,0.0008244838931658618
122,805.6099999999999,0.0008581903770609263
123,814.9399999999999,0.0008858555401478115
124,824.37,0.0009642026472120482
125,831.763771,0.0008639753976413964
126,835.84,0.0008070027678664492
127,845.52,0.001005687411091275
128,855.31,0.0010280316945800194
129,865.21,0.0010982486183326822
130,875.23,0.0011742298951005288
131,885.37,0.0012752302248835593
132,895.62,0.001342269794930508
133,905.99,0.0013249487179926407
134,914.37,0.0021384292035529755
135,924.9599999999999,0.015980965607142947
136,935.67,0.0355903033637481
137,944.33,0.07011896300634386
138,954.992586,0.10332064055746497
139,955.26,0.10415339224897828
140,964.0999999999999,0.10905998883114895
141,975.27,0.015047429082602152
142,984.2900000000001,0.07957362745038263
143,995.69,0.09390337720567057
144,1004.9,0.15472362690270583
145,1014.1999999999999,0.15472350249254602
146,1025.94,0.06773546673176363
147,1035.44,0.09832660319450359
148,1045.02,0.21355239600640347
149,1054.6899999999998,0.21062335471110827
150,1064.45,0.15401320930861798
151,1074.29,0.19298386025528755
152,1084.23,0.14176620663840706
153,1094.27,0.20773344845797645
154,1096.4782,0.20579331742874596
155,1104.3899999999999,0.19884121763649137
156,1114.6100000000001,0.1859992579051364
157,1124.9199999999998,0.16350388531900434
158,1135.33,0.22619649844978662
159,1145.8400000000001,0.20160049729748322
160,1153.78,0.22104086322048144
161,1164.46,0.22775473778693242
162,1175.23,0.14606239949860628
163,1186.11,0.2220550454988859
164,1194.33,0.13694067142924427
165,1205.38,0.08904588314827828
166,1213.73,0.07090522051062524
167,1224.96,0.15083409652010507
168,1236.3,0.24628767681819067
169,1244.87,0.2712912527577492
170,1256.39,0.25260620734628053
171,1258.92541,0.24036421545069395
172,1265.0900000000001,0.21060000784043786
173,1273.86,0.2880262969389505
174,1285.65,0.30508711671904903
175,1294.56,0.22001330723988682
176,1303.54,0.2190014984718872
177,1315.6000000000001,0.2940563209950414
178,1324.72,0.276967313649367
179,1333.9,0.23412430691326047
180,1346.24,0.29883463228106505
181,1355.5700000000002,0.2880248270688784
182,1364.97,0.24856472256785428
183,1374.43,0.2657261186763981
184,1383.9599999999998,0.26942681549610453
185,1393.55,0.2298503129253789
186,1406.4499999999998,0.24013114398248417
187,1416.2,0.244028743037273
188,1426.01,0.2549379427016298
189,1435.8999999999999,0.2526065431787438
190,1442.52,0.27004841043440553
191,1445.43977,0.2750042455082188
192,1445.85,0.2757005435956308
193,1455.87,0.2651163290335168
194,1465.96,0.24013501506827434
195,1476.1299999999999,0.24123930178517067
196,1486.36,0.24799568901367114
197,1496.6599999999999,0.253775276839043
198,1503.57,0.2352036357587828
199,1510.51,0.20344969493432466
200,1517.48,0.22256695436566856
201,1524.49,0.21451591413808185
202,1535.05,0.1809128041804049
203,1545.69,0.20486169490486672
204,1556.41,0.1929579863114674
205,1563.59,0.19609694753342566
206,1574.43,0.21060133996323455
207,1585.3400000000001,0.2241052329899149
208,1596.33,0.22827462669873402
209,1603.7,0.22565758954077197
210,1614.82,0.22827258435806666
211,1626.01,0.21303917977223286
212,1633.52,0.23091224380801373
213,1644.84,0.23412454033065547
214,1656.24,0.214025037535436
215,1659.58691,0.22425951382260378
216,1663.88,0.23738753340071744
217,1671.56,0.20771561162779148
218,1675.42,0.23738445198671154
219,1683.1499999999999,0.2514444333272431
220,1694.82,0.23412656000822676
221,1706.57,0.22308079167074243
222,1714.44,0.20723768172895504
223,1726.3300000000002,0.20628632210915177
224,1734.3,0.2230809183942794
225,1746.3200000000002,0.21700516686946567
226,1754.38,0.2346696687588168
227,1766.54,0.21206492595168408
228,1774.6899999999998,0.21650883344525879
229,1786.99,0.2225772993558071
230,1795.2399999999998,0.24069411307629685
231,1803.5300000000002,0.23958512928755257
232,1816.03,0.21551300765193093
233,1824.4099999999999,0.22257812946741018
234,1837.0600000000002,0.2120687171721611
235,1845.54,0.1920844452145554
236,1854.06,0.19032627574771568
237,1866.9099999999999,0.19746717590629664
238,1875.53,0.22053901266637196
239,1884.18,0.19883805129452178
240,1892.88,0.18902029303612916
241,1905.46072,0.20332330302870263
242,1906.0,0.20393633314122572
243,1914.8000000000002,0.19297482680370368
244,1923.64,0.18988911725555654
245,1936.97,0.19837934731474186
246,1945.9099999999999,0.205817829740032
247,1954.8899999999999,0.190761708954697
248,1968.4399999999998,0.2130491213554443
249,1977.5300000000002,0.22053599174089025
250,1982.09,0.20581642572962885
251,1995.8300000000002,0.1992891228799069
252,2005.04,0.20772128363347758
253,2014.3,0.1979136403737669
254,2023.5900000000001,0.21108989470608738
255,2032.93,0.19565084502512645
256,2047.03,0.20533911327977863
257,2056.47,0.195649355572255
258,2065.9700000000003,0.1956467930487937
259,2075.5,0.21157392811736356
260,2080.29,0.19700304364500779
261,2085.08,0.20675955917265207
262,2094.71,0.19385278621465918
263,2104.3700000000003,0.19564601084869748
264,2114.09,0.19790533066679813
265,2123.85,0.20112334727427367
266,2133.65,0.18597996067112413
267,2143.5,0.1898706700546932
268,2153.39,0.19881867622763716
269,2163.33,0.19295437838729976
270,2173.32,0.19074397653368097
271,2183.35,0.1851232714694371
272,2187.7616199999998,0.18952679077334633
273,2193.4300000000003,0.19518558011701256
274,2203.5499999999997,0.1894346277482782
275,2213.7200000000003,0.17966857857930305
276,2223.94,0.17277343261008712
277,2234.21,0.1846962898406304
278,2244.52,0.17638604963098106
279,2254.88,0.16806571262109093
280,2265.29,0.17356847881096005
281,2275.74,0.17802464756063652
282,2286.25,0.18216602015002406
283,2296.7999999999997,0.17161119529921898
284,2307.4,0.1706214736481731
285,2312.7200000000003,0.16153801410255383
286,2323.4,0.1215619975711227
287,2334.12,0.14970908359949892
288,2344.89,0.1468039728276344
289,2355.7200000000003,0.15746986589548093
290,2366.59,0.14511136152313484
291,2377.52,0.14899756099049977
292,2383.0,0.13945751168411002
293,2394.0,0.14959561563113788
294,2405.04,0.14237212213797312
295,2416.15,0.1465238331244713
296,2427.3,0.1543130466707768
297,2432.89,0.1471172044038573
298,2444.12,0.15636802306977757
299,2455.4100000000003,0.15368894557540888
300,2466.7400000000002,0.1531615706408476
301,2472.43,0.14736793477344656
302,2483.84,0.1527225649585
303,2495.3,0.14303289834331268
304,2506.82,0.1584602355678364
305,2511.88643,0.1442923496581068
306,2512.6,0.14229684212138405
307,2518.39,0.14840349871569922
308,2524.2,0.14082885481465793
309,2535.85,0.14262606626954075
310,2547.55,0.13890887648603248
311,2553.43,0.1482401308512437
312,2565.21,0.14503913908630978
313,2577.05,0.15381324583530653
314,2582.99,0.1517945987144485
315,2594.92,0.15023370323434135
316,2606.89,0.14497970676352137
317,2612.9,0.14340175790891585
318,2624.96,0.14896395920899197
319,2637.08,0.1522630590229988
320,2643.16,0.1632471084346458
321,2655.36,0.16533990626722692
322,2667.62,0.15063240261373878
323,2673.76,0.15782475053931652
324,2686.1099999999997,0.15657114465672445
325,2692.3,0.15030709134391113
326,2704.73,0.15399478347989337
327,2717.21,0.14725007437748458
328,2723.4700000000003,0.14700131933092375
329,2736.04,0.15412230799941104
330,2742.35,0.13556315171445915
331,2755.0099999999998,0.13762213815384253
332,2767.73,0.14197672310715662
333,2774.11,0.14841956508845724
334,2786.9100000000003,0.14290434806034566
335,2793.34,0.11840058880325523
336,2806.23,0.12673466954603974
337,2812.7000000000003,0.14727640929823646
338,2825.68,0.15229308781191703
339,2832.2000000000003,0.14486332632572269
340,2845.2699999999995,0.14174900261029935
341,2851.8300000000004,0.13893574013339216
342,2864.9900000000002,0.14939821418886493
343,2878.21,0.14890528675826842
344,2884.0315,0.14869121998203577
345,2884.85,0.1486611421575167
346,2898.17,0.14748893540588787
347,2911.5400000000004,0.15823692862891506
348,2931.72,0.15281421840009596
349,2952.0499999999997,0.15031920809524504
350,2972.5099999999998,0.15201359772449982
351,2993.11,0.15196698728279154
352,3006.93,0.1528719802777232
353,3027.77,0.15317906971436393
354,3048.7599999999998,0.15207685907497281
355,3069.8900000000003,0.15238504836461866
356,3091.1699999999996,0.15269783757823263
357,3112.6,0.15230312671581475
358,3126.9700000000003,0.1500762194319629
359,3148.64,0.15073210844789403
360,3170.4700000000003,0.15034799738272453
361,3192.44,0.14322748624659196
362,3207.18,0.14744297877519488
363,3229.41,0.14207876750727377
364,3251.8,0.14874205615825198
365,3266.81,0.15242474854999757
366,3289.45,0.15099843707425603
367,3311.31121,0.15030826375826684
368,3312.25,0.150278616896791
369,3319.89,0.14935114286844023
370,3327.54,0.1515369687431937
371,3335.21,0.1551794944241557
372,3342.8999999999996,0.1476229199113262
373,3350.6000000000004,0.15433334530160095
374,3358.33,0.14851577040118846
375,3366.0699999999997,0.14490789540388022
376,3373.83,0.13721782021278048
377,3381.6099999999997,0.14477994482788925
378,3389.4,0.15241256934610228
379,3397.2200000000003,0.14667039357362807
380,3405.05,0.1474536177042581
381,3412.8999999999996,0.14453584164109665
382,3420.77,0.1490365653841437
383,3428.6499999999996,0.149489289030295
384,3436.5499999999997,0.1492517124826548
385,3444.4799999999996,0.13716473564432735
386,3452.42,0.15365815870910418
387,3460.37,0.14284888167698526
388,3468.35,0.14394440435417907
389,3476.3500000000004,0.1420763268375814
390,3484.36,0.144489149224088
391,3492.3900000000003,0.14426327141680312
392,3500.44,0.1404357934157267
393,3508.51,0.14480811522085882
394,3516.6,0.13871863683219943
395,3524.7099999999996,0.14402475824974853
396,3532.83,0.14749307957040192
397,3540.98,0.15068810060036805
398,3549.14,0.15360552153343843
399,3557.3199999999997,0.1481598422727173
400,3565.52,0.1520747628182047
401,3573.7400000000002,0.1394426831699006
402,3581.98,0.137952303327805
403,3590.2400000000002,0.1285448232919179
404,3598.5099999999998,0.1443380431591351
405,3606.81,0.14083446273566502
406,3615.12,0.1412637822152992
407,3623.46,0.14104280140424613
408,3631.81,0.1609414204962973
409,3637.82,0.1445978622619533
410,3640.56,0.14225513571251863
411,3643.31,0.14633760906618817
412,3646.05,0.14347298251675347
413,3648.7999999999997,0.14104245587042302
414,3651.54,0.1426667293209883
415,3654.2799999999997,0.14957430277155362
416,3657.03,0.14585047612522317
417,3659.77,0.15756604957578849
418,3662.5200000000004,0.14615202292945803
419,3665.26,0.15127919638002332
420,3668.0099999999998,0.14282286973369288
421,3670.75,0.14051494318425817
422,3673.5,0.14527591653792774
423,3676.2400000000002,0.14616358998849305
424,3678.98,0.14523606343905834
425,3681.7299999999996,0.1503334367927279
426,3684.4700000000003,0.14992191024329318
427,3687.22,0.15976918359696274
428,3689.96,0.14648845704752803
429,3692.71,0.16700113040119757
430,3695.4500000000003,0.1589691038517629
431,3698.2,0.14637767720543246
432,3700.9399999999996,0.14252705065599774
433,3703.68,0.15704962410656303
434,3706.43,0.1511102974602326
435,3709.17,0.15305357091079788
436,3711.92,0.15468274426446743
437,3714.6600000000003,0.16607351771503276
438,3717.41,0.1933426910687023
439,3720.1499999999996,0.2906316645192676
440,3722.9,0.46015293787293715
441,3725.64,0.5713383113235025
442,3728.38,0.5244148847740677
443,3731.1299999999997,0.36298125812773735
444,3733.8700000000003,0.24403193157830264
445,3736.62,0.17673830493197218
446,3739.36,0.17879177838253746
447,3742.11,0.14940475173620701
448,3744.85,0.14687062518677232
449,3747.6,0.13773579854044188
450,3750.3399999999997,0.14855817199100715
451,3753.08,0.15873104544157246
452,3755.83,0.16915821879524204
453,3758.57,0.17901789224580733
454,3761.32,0.16780096559947688
455,3764.0600000000004,0.1638111390500422
456,3766.81,0.16165901240371172
457,3769.5499999999997,0.16476218585427702
458,3772.3,0.16544025920794658
459,3775.04,0.17808953265851188
460,3777.79,0.18895160601218144
461,3780.5299999999997,0.21485887946274673
462,3783.2700000000004,0.20098665291331202
463,3786.02,0.19337692626698158
464,3788.7599999999998,0.19187529971754688
465,3791.51,0.17696397307121645
466,3794.25,0.16702384652178173
467,3797.0,0.15410761987545127
468,3799.74,0.1656954933260166
469,3801.8939600000003,0.1724772350965154
470,3802.4900000000002,0.17435386788305413
471,3805.23,0.1957431468655103
472,3807.97,0.20832872584796644
473,3810.7200000000003,0.20917490475371628
474,3813.46,0.20678008373617246
475,3816.21,0.21541506264192228
476,3818.95,0.19834734162437842
477,3821.7000000000003,0.19924562053012826
478,3824.44,0.19017549951258444
479,3827.1899999999996,0.16712157841833422
480,3829.93,0.16532985740079043
481,3832.67,0.1463306363832466
482,3835.42,0.15288381528899642
483,3838.16,0.15774419427145256
484,3840.9100000000003,0.17294447317720238
485,3843.65,0.18726405215965858
486,3846.3999999999996,0.20493493106540836
487,3849.14,0.20600831004786455
488,3851.89,0.21150568895361438
489,3854.63,0.21329236793607054
490,3857.37,0.21438314691852672
491,3860.1200000000003,0.21984572582427653
492,3862.86,0.23324340480673272
493,3865.6099999999997,0.2435079837124825
494,3868.35,0.2353832626949387
495,3871.1,0.21884214160068852
496,3873.84,0.20724342058314466
497,3876.5899999999997,0.1953941994888945
498,3879.33,0.18551207847135068
499,3882.07,0.18202115745380681
500,3884.82,0.17518283635955664
501,3887.56,0.16455831534201282
502,3890.31,0.17323989424776265
503,3893.05,0.1734431732302188
504,3895.7999999999997,0.18465335213596862
505,3898.54,0.19692573111842482
506,3901.29,0.2037048100241746
507,3904.03,0.20212778900663078
508,3906.77,0.21326926798908696
509,3909.5200000000004,0.21816354689483675
510,3912.26,0.22356922587729294
511,3915.0099999999998,0.22285530478304277
512,3917.75,0.21455068376549893
513,3920.5,0.20982336267124874
514,3923.2400000000002,0.2066224416537049
515,3925.99,0.19770212055945474
516,3928.7300000000005,0.1897105995419109
517,3931.4700000000003,0.1797067785243671
518,3934.22,0.1837543574301169
519,3936.96,0.19417083641257307
520,3939.71,0.19948271531832287
521,3942.4500000000003,0.20625709430077907
522,3945.2,0.21123257320652888
523,3947.9399999999996,0.21303665218898504
524,3950.69,0.21356383109473487
525,3953.43,0.20745731007719104
526,3956.17,0.1942461890596472
527,3958.92,0.18483866796539702
528,3961.6600000000003,0.1702182469478532
529,3964.41,0.15691342585360302
530,3967.1499999999996,0.1461903048360592
531,3969.9,0.153717783741809
532,3972.64,0.1556493627242652
533,3975.39,0.16604174163001498
534,3978.13,0.18663072061247116
535,3980.8700000000003,0.19465199959492735
536,3983.62,0.20605337850067712
537,3986.36,0.2071905574831333
538,3989.11,0.20928363638888314
539,3991.85,0.21105301537133933
540,3994.6,0.21200349427708912
541,3997.3399999999997,0.2190852732595453
542,4000.09,0.2206041521652951
543,4002.83,0.22126573114775128
544,4005.57,0.22117341013020744
545,4008.32,0.22236758903595727
546,4011.0600000000004,0.21870846801841345
547,4013.81,0.21708394692416325
548,4016.5499999999997,0.23031912590661943
549,4019.3,0.21859750481236925
550,4022.04,0.2113426837948254
551,4024.79,0.22161306270057524
552,4027.53,0.22250674168303142
553,4030.2700000000004,0.22012352066548757
554,4033.02,0.2204534995712374
555,4035.7599999999998,0.22489647855369357
556,4038.51,0.2274824574594434
557,4041.25,0.22507613644189955
558,4044.0,0.22638031534764938
559,4046.74,0.22607929433010554
560,4049.4900000000002,0.22227407323585535
561,4052.23,0.22242535221831153
562,4054.97,0.22236203120076772
563,4057.7200000000003,0.2159818101065175
564,4060.46,0.21539648908897369
565,4063.21,0.22358496799472352
566,4065.95,0.2255862469771797
567,4068.7000000000003,0.22445472588292947
