,lambda (Angstroms),Total Flux (erg/s/cm^2/Angstrom)
0,100.08,0.01557888982388546
1,101.94,0.018720843385773057
2,104.08000000000001,0.02233577920252904
3,104.712855,0.023404812028929325
4,106.00999999999999,0.021576546355195427
5,107.98,0.01879992286185973
6,109.99,0.015966921451352416
7,114.12,0.010145878783751096
8,118.13000000000001,0.004493971068592822
9,120.22644299999999,0.0015391414386660652
10,120.88,0.0014965209950713425
11,125.13,0.0012193547161529503
12,126.87,0.0011058808007883372
13,128.04,0.001029579489106616
14,131.03,0.0008345877883377698
15,131.93,0.0007759021175495217
16,134.07999999999998,0.0006356923657170422
17,136.89,0.00045245777361384624
18,138.038426,0.0003775676030739572
19,140.07,0.0003729014263417084
20,143.01,0.0003663622788862907
21,147.01000000000002,0.00035783777434014404
22,151.13,0.0003485969622856132
23,155.01,0.00033997993244785094
24,158.489319,0.0003323206639641251
25,158.98,0.0003306341680636902
26,161.94,0.0003204979482964831
27,166.08999999999997,0.000306377318727595
28,169.96,0.0002932699825826315
29,173.12,0.000282623219655478
30,177.16,0.00026909674882456033
31,180.03000000000003,0.00025957675647932907
32,181.970086,0.0002531467897672298
33,182.11999999999998,0.0002533512127337245
34,185.92999999999998,0.0002587086920832544
35,191.14,0.00026610164199166673
36,193.8,0.0002701765074535433
37,197.86,0.00027619744047430216
38,202.0,0.00028257525886985434
39,204.81,0.00028710754053446825
40,208.929613,0.0002930917057623271
41,210.07000000000002,0.0003013364568228081
42,215.95,0.00034601158910479025
43,219.97,0.000376342337399615
44,223.03,0.00039918857266880997
45,227.17000000000002,0.00043089788509183854
46,229.8,0.0004659378155683034
47,234.08,0.0005266787328075696
48,239.88329199999998,0.0005931879859914129
49,240.08,0.0005929612642727439
50,246.24,0.0005614493993627186
51,251.97,0.0005464297104123218
52,257.25,0.0005047304404894429
53,260.23,0.0005103295233738786
54,263.84999999999997,0.0005040110280858446
55,268.75,0.0004859861764528698
56,273.75,0.0004664997094804466
57,275.42287,0.0004603639868753248
58,278.84,0.0004880833223037817
59,284.02,0.0005301228974635969
60,289.96999999999997,0.0005698080013633845
61,296.03999999999996,0.000622356205846025
62,300.85,0.0006593957542087109
63,307.86,0.0007200841132570322
64,316.227766,0.0007930744807735229
65,317.95,0.0007899486770556441
66,328.35999999999996,0.0007660380401325292
67,338.34000000000003,0.0007417692683272752
68,347.82,0.0007189453303800005
69,356.73999999999995,0.0006990776423536618
70,363.078055,0.0006871758836338065
71,365.89000000000004,0.0007042010768172592
72,375.28,0.0007531903544885809
73,384.90999999999997,0.0007928822491610867
74,394.78,0.0008616904608347764
75,404.90999999999997,0.0009239994325930822
76,414.34,0.000971529796431268
77,416.86938299999997,0.0009824431600700969
78,422.03999999999996,0.0009975606629858645
79,429.89,0.001024911343990104
80,440.92,0.0010717852074903285
81,451.19,0.0011049821191990595
82,459.57,0.00112846411395263
83,470.28000000000003,0.0011641983766985413
84,478.630092,0.0011987167971948451
85,480.13,0.0011976852438303144
86,490.18,0.001167620183428285
87,500.44,0.0011670179913163626
88,506.24,0.0011418483345669327
89,512.1,0.001191241054471819
90,520.42,0.0011773920172036716
91,530.1,0.001155368350766692
92,539.95,0.0011150710681836085
93,549.5408739999999,0.0011190300677611617
94,549.99,0.0011200441359497774
95,560.22,0.001160458393890513
96,570.63,0.001199115596545748
97,579.9,0.001185554049342485
98,589.33,0.0012316245529965548
99,600.28,0.0012181404897952893
100,610.0400000000001,0.0011927807920926086
101,619.95,0.001320963848318678
102,630.02,0.0013425641554020802
103,630.957344,0.0013439925207284304
104,640.26,0.001377614471959182
105,650.66,0.0014510538142466765
106,658.2,0.0014994404249051103
107,664.29,0.0015580439181292296
108,675.08,0.0015841847920025054
109,684.4699999999999,0.0015770335524909257
110,695.5899999999999,0.0018104394530906315
111,705.2700000000001,0.001776062237065915
112,716.73,0.0019767591652019426
113,724.43596,0.0020321530431910103
114,726.6999999999999,0.0020472568475150468
115,735.1199999999999,0.0021113040967859964
116,745.34,0.0022821624017205695
117,755.71,0.0023988971279604444
118,764.46,0.002457718704103058
119,775.0999999999999,0.002676737788692477
120,785.88,0.0028168414665001775
121,794.98,0.0029417300256884956
122,804.1800000000001,0.003072952865747016
123,815.37,0.0031814404951225417
124,824.81,0.0034481712092695443
125,831.763771,0.003075023719024861
126,834.36,0.0029300696755681873
127,845.97,0.0036029535547332037
128,855.77,0.0036813107180249487
129,865.6800000000001,0.003931303140292417
130,875.6999999999999,0.0041945738215356096
131,885.8399999999999,0.0045547758762068645
132,894.04,0.004793845727124447
133,904.3900000000001,0.0047386681852948104
134,914.86,0.007564595016893235
135,925.46,0.05585279833637206
136,934.02,0.12364822630757383
137,944.8299999999999,0.24459633503055175
138,954.992586,0.3601743586069167
139,955.78,0.369130522202629
140,964.62,0.3777200423349495
141,975.79,0.051044244266852126
142,984.82,0.2632417896961342
143,993.93,0.3260010463030844
144,1005.4399999999999,0.5610676382400762
145,1014.7399999999999,0.570178450143988
146,1024.13,0.2554855408727764
147,1035.99,0.356606750462066
148,1045.58,0.8052617941350245
149,1055.25,0.7997231189856512
150,1065.02,0.5727886203083628
151,1074.87,0.7327350028087425
152,1084.82,0.5272510617812072
153,1094.85,0.80156620193134
154,1096.4782,0.796623259430283
155,1104.98,0.7708089582846253
156,1115.21,0.7177062251055294
157,1125.53,0.6309016256521307
158,1135.94,0.899272259924429
159,1143.81,0.8015224646048315
160,1154.4,0.888971066328524
161,1165.08,0.9202087017779137
162,1175.86,0.578027563589189
163,1184.01,0.9034029620828713
164,1194.97,0.5382334913455409
165,1206.02,0.3404662543339076
166,1214.38,0.29182009818754967
167,1225.6200000000001,0.6236133212634991
168,1234.12,1.0443438620237813
169,1245.53,1.1636814599149363
170,1254.17,1.0810140975818585
171,1258.92541,1.0039380261210538
172,1265.77,0.8930057542956602
173,1274.5500000000002,1.2641944141772188
174,1286.34,1.3546250317174895
175,1295.26,0.9568411989320117
176,1304.24,0.9458901692892323
177,1316.3,1.3146966009716465
178,1325.4299999999998,1.2468550791856137
179,1334.61,1.0395425600184964
180,1343.8700000000001,1.3671210450416438
181,1356.3,1.3207386961040326
182,1365.7,1.1319541884601432
183,1375.17,1.2269166844827355
184,1384.7,1.2468681836480267
185,1394.3,1.0735796864797993
186,1403.96,1.1215941924542703
187,1413.7,1.1371927026190063
188,1423.49,1.2045462154026578
189,1433.36,1.188035732376574
190,1443.3000000000002,1.2817892530169719
191,1445.43977,1.3069045932149872
192,1446.6200000000001,1.3207574169781
193,1456.6499999999999,1.2700648579026943
194,1463.3799999999999,1.1424371537573819
195,1473.5200000000002,1.1530015995176395
196,1483.73,1.1990370483551376
197,1494.02,1.2354425007094818
198,1504.37,1.1503469557014607
199,1511.32,0.9859320612274756
200,1518.29,1.088536567632702
201,1525.3,1.0395458757963514
202,1535.8700000000001,0.8686926404596574
203,1546.5200000000002,1.0112348086398097
204,1553.66,0.9502705225183342
205,1564.43,0.9612703959737557
206,1575.27,1.0395490725064178
207,1586.19,1.121599552555926
208,1593.51,1.1450858743473544
209,1604.56,1.1345763601117378
210,1615.6799999999998,1.1530088489533614
211,1623.14,1.071124176899271
212,1634.39,1.1690566714557697
213,1645.72,1.1935231695291146
214,1653.3200000000002,1.083519503629505
215,1659.58691,1.1542800833463833
216,1664.78,1.2129174462946457
217,1672.46,1.0371589118501132
218,1676.32,1.2185121510485641
219,1684.05,1.3056576326558254
220,1695.73,1.2129313823547656
221,1703.55,1.1530338928552548
222,1715.36,1.0711436842888578
223,1723.2800000000002,1.0711462268929337
224,1735.22,1.1690930600612
225,1743.23,1.142484631558504
226,1755.32,1.2469185128821503
227,1763.42,1.1164751132726825
228,1775.64,1.1530520363309915
229,1783.84,1.1853426688251105
230,1796.2,1.2996916368284412
231,1804.5,1.293697301426147
232,1817.0,1.1637413143744992
233,1825.39,1.2046040078654332
234,1833.82,1.1451297141978019
235,1846.5300000000002,1.0372147945636863
236,1855.05,1.0324525297892833
237,1863.61,1.078622277856315
238,1876.53,1.2101964256397317
239,1885.1899999999998,1.09363320581035
240,1893.89,1.0468429988224033
241,1905.46072,1.1196391440128002
242,1907.0200000000002,1.129448068179156
243,1915.82,1.073668426573664
244,1924.67,1.0613707642772314
245,1933.55,1.103731089566235
246,1946.95,1.1557375443942353
247,1955.9399999999998,1.07611882416317
248,1964.97,1.2129730873793525
249,1974.04,1.2555793340427825
250,1983.1499999999999,1.1744785641534607
251,1996.9,1.1372438741448792
252,2006.1100000000001,1.1880790628736764
253,2015.37,1.1294012309115335
254,2024.68,1.2045853782584504
255,2034.02,1.126813513190803
256,2043.4099999999999,1.1935476274322152
257,2052.84,1.1319897251208755
258,2067.07,1.1319788364792671
259,2071.84,1.2354568625635627
260,2076.61,1.1690688886478584
261,2086.2,1.2297949201255094
262,2095.83,1.1530089350504085
263,2105.5,1.158330933422555
264,2115.22,1.1771389111037616
265,2124.98,1.1990288722322155
266,2134.79,1.0935478126697296
267,2144.65,1.139788732416303
268,2154.55,1.1962436356101243
269,2164.4900000000002,1.1529805222511933
270,2174.48,1.1424163882013219
271,2184.52,1.1215652334605106
272,2187.7616199999998,1.142049772695763
273,2194.6,1.1852681482356242
274,2204.73,1.1476794904735095
275,2214.91,1.0785258492081267
276,2225.13,1.0395202211401293
277,2235.4,1.131946609568864
278,2245.72,1.0760420144943308
279,2256.09,1.013544435916529
280,2266.5,1.049165870536113
281,2276.96,1.0860123216524291
282,2287.4700000000003,1.1267807892654769
283,2292.75,1.056353531320367
284,2303.33,1.0557350220288393
285,2313.96,0.9892675292340437
286,2324.64,0.7245965529359799
287,2335.37,0.8991009931346482
288,2346.15,0.8700799498300483
289,2356.98,0.9600354230221804
290,2362.41,0.863308214567266
291,2373.3199999999997,0.8951603141541691
292,2384.27,0.8215671269384577
293,2395.2799999999997,0.8920103595188247
294,2406.33,0.8494163052965772
295,2417.44,0.880719770870408
296,2423.0099999999998,0.949934108606343
297,2434.2,0.9087317005749448
298,2445.4300000000003,0.9753484057409321
299,2456.72,0.9613591307029977
300,2462.38,0.9500573981330501
301,2473.75,0.9109118494898868
302,2485.17,0.9358574173434554
303,2496.64,0.878880301693756
304,2502.4,0.9971991021172721
305,2511.88643,0.8861640206038824
306,2513.95,0.8620097685148703
307,2519.74,0.8940837291701331
308,2525.5499999999997,0.8496398872715282
309,2537.2099999999996,0.8708688983665825
310,2543.06,0.8507581513602419
311,2554.79,0.9322088535167589
312,2566.59,0.8979129467347385
313,2572.5,0.9640035920667944
314,2584.38,0.9457829750693025
315,2596.31,0.9278911516871412
316,2602.29,0.8899284880806597
317,2614.3,0.8771462544830271
318,2626.37,0.9284404132237909
319,2632.4199999999996,0.9741207406787719
320,2644.57,1.0772158892040644
321,2656.78,1.1142713300677536
322,2662.91,0.9746614473072631
323,2675.2,1.0364339779554808
324,2687.55,1.0309754009420953
325,2693.7400000000002,0.9774577105200013
326,2706.17,1.018087023291144
327,2712.4100000000003,0.9520244264843808
328,2724.93,0.9469769277631185
329,2737.51,1.0046610213802527
330,2743.82,0.8411639156349519
331,2756.49,0.8660939977596807
332,2762.8399999999997,0.9086728869066443
333,2775.59,0.9595881588159019
334,2781.99,0.895226641578196
335,2794.83,0.7057461019950483
336,2807.73,0.7661525547502971
337,2814.2099999999996,0.9465206272971197
338,2827.2000000000003,1.0157605685599633
339,2833.71,0.9741746372759843
340,2846.79,0.9469322670464227
341,2853.3599999999997,0.89776822810084
342,2866.5299999999997,1.0228605463788734
343,2873.1299999999997,1.031943703602489
344,2884.0315,1.0196736023146697
345,2886.39,1.017019305389574
346,2893.0499999999997,1.0096352879851689
347,2913.1,1.1211262355890244
348,2933.2999999999997,1.069437182800889
349,2946.83,1.0491161474432913
350,2967.2599999999998,1.0797050940541029
351,2987.8300000000004,1.080906040299056
352,3008.54,1.1047739861781507
353,3029.3900000000003,1.1009139316913872
354,3050.39,1.0995628768126322
355,3071.54,1.1083958215418865
356,3092.83,1.1198347659052823
357,3107.1,1.1189337286138619
358,3128.64,1.1021986723239392
359,3150.33,1.1059006156420255
360,3172.17,1.1095745585681205
361,3186.81,1.0418445203097886
362,3208.9,1.0920174625825652
363,3231.1400000000003,1.0248924044633505
364,3253.54,1.1068863459260123
365,3268.56,1.1526943066746365
366,3291.21,1.1406342474839795
367,3306.4,1.139613207788347
368,3311.31121,1.135094045529648
369,3321.67,1.1255616774730646
370,3329.32,1.172644295311709
371,3337.0,1.1428249116516818
372,3344.69,1.113745527492097
373,3352.3999999999996,1.0954481423333977
374,3360.13,1.1386487561755836
375,3367.87,1.127681369518212
376,3375.64,1.0303979813621689
377,3383.4199999999996,1.0466385927065682
378,3391.22,1.1497042030518527
379,3399.04,1.1759568123980229
380,3406.8700000000003,1.1225174212446354
381,3414.7300000000005,1.1349720285925762
382,3422.6,1.1961466354409596
383,3430.49,1.165696241290228
384,3438.3999999999996,1.178643846140382
385,3446.32,1.028475450490979
386,3454.27,1.1428160533429035
387,3462.23,1.056291655695271
388,3470.21,1.1183172570485238
389,3478.21,1.028884857402662
390,3486.23,1.0918424567576854
391,3494.27,1.0788390551135942
392,3502.3199999999997,1.1369406529699457
393,3510.39,1.1131072498271823
394,3518.4900000000002,1.0947748451857473
395,3526.6,1.0792474400447547
396,3534.73,1.1478830339046475
397,3542.88,1.206945626765426
398,3551.04,1.2035762191266468
399,3559.23,1.1783368099891955
400,3567.43,1.1536194003521871
401,3575.66,1.0516219892165068
402,3583.8999999999996,1.027178577581269
403,3592.16,1.0266611649469166
404,3600.4399999999996,1.1727417513134493
405,3608.74,1.0864083366808677
406,3617.0600000000004,1.1035249210491713
407,3625.3999999999996,1.1682925044183605
408,3633.7599999999998,1.1650270867884347
409,3642.13,1.2137256686589517
410,3650.53,1.1373712490307968
411,3658.9500000000003,1.260872828403527
412,3664.5899999999997,1.1509265466531944
413,3667.33,1.2561864097744868
414,3670.07,1.349815272895779
415,3672.8100000000004,1.2668851360170714
416,3675.55,1.1651079991383637
417,3678.29,1.186449862259656
418,3681.03,1.2520697253809483
419,3683.77,1.0830825885022406
420,3686.51,1.1324334516235328
421,3689.25,1.1828273147448252
422,3691.99,1.1423641778661173
423,3694.73,1.1506760409874097
424,3697.47,1.226910904108702
425,3700.21,1.2816947672299943
426,3702.94,1.247491630850844
427,3705.6800000000003,1.1967674939721362
428,3708.42,1.1573733570934286
429,3711.16,1.1624482202147208
430,3713.9,1.213446083336013
431,3716.64,1.3453159464573055
432,3719.38,1.4494518095785978
433,3722.12,1.54606967269989
434,3724.8599999999997,1.9086245358211822
435,3727.6,2.300861398942475
436,3730.3399999999997,2.460630262063767
437,3733.08,2.2570491251850595
438,3735.82,1.8547159883063515
439,3738.5600000000004,1.5197318514276437
440,3741.3,1.334942714548936
441,3744.04,1.2870995776702283
442,3746.78,1.2539044407915207
443,3749.52,1.225429303912813
444,3752.26,1.2200521670341054
445,3755.0,1.2482520301553977
446,3757.74,1.3069308932766899
447,3760.48,1.3454187563979823
448,3763.22,1.3855256195192744
449,3765.96,1.3488474826405668
450,3768.7,1.319576345761859
451,3771.43,1.3162082093827085
452,3774.17,1.2545660725040009
453,3776.91,1.2810389356252931
454,3779.65,1.4477487987465856
455,3782.39,1.4665676618678778
456,3785.13,1.5285935249891702
457,3787.87,1.5433513881104624
458,3790.6099999999997,1.5105132512317547
459,3793.35,1.418585114353047
460,3796.0899999999997,1.3032019774743393
461,3798.8300000000004,1.2669348405956316
462,3801.57,1.323500703716924
463,3801.8939600000003,1.324687870876331
464,3804.3100000000004,1.333541591986467
465,3807.05,1.347449483628068
466,3809.79,1.532155375269669
467,3812.53,1.5810682669112701
468,3815.27,1.620900158552871
469,3818.01,1.605592050194472
470,3820.75,1.466752941836073
471,3823.49,1.4745438334776741
472,3826.23,1.4378107251192753
473,3828.97,1.3065436167608764
474,3831.71,1.197634508402477
475,3834.45,1.1891304000440783
476,3837.1899999999996,1.1616422916856792
477,3839.93,1.1547561833272804
478,3842.66,1.2520670753643501
479,3845.4,1.354967967005951
480,3848.14,1.496576858647552
481,3850.8799999999997,1.5989287502891532
482,3853.62,1.607651641930754
483,3856.3599999999997,1.667784533572355
484,3859.1,1.784457425213956
485,3861.84,1.8304893168555572
486,3864.5800000000004,1.8677152084971582
487,3867.32,2.1026511001387593
488,3870.06,2.14231899178036
489,3872.8,2.0935428834219616
490,3875.54,1.9608757750635624
491,3878.28,1.8424196667051633
492,3881.02,1.6900835583467642
493,3883.7599999999998,1.5695704499883654
494,3886.5,1.5156363416299665
495,3889.24,1.4163562332715676
496,3891.98,1.4378091249131684
497,3894.72,1.4474650165547693
498,3897.46,1.4920429081963704
499,3900.2,1.5575797998379717
500,3902.9399999999996,1.5820766914795727
501,3905.6800000000003,1.6397955831211735
502,3908.42,1.7382514747627746
503,3911.15,1.7206753667998442
504,3913.89,1.7595752584414452
505,3916.6299999999997,1.7824261500830465
506,3919.37,1.7273950417246473
507,3922.1099999999997,1.6705259333662483
508,3924.85,1.6671518250078494
509,3927.59,1.5213167166494506
510,3930.3300000000004,1.4833216082910514
511,3933.07,1.3449764999326523
512,3935.81,1.2123103915742535
513,3938.55,1.2358202832158547
514,3941.29,1.3488431748574556
515,3944.03,1.4724840664990566
516,3946.77,1.5383779581406576
517,3949.5099999999998,1.5956018497822586
518,3952.25,1.6786137414238598
519,3954.99,1.7411336330654605
520,3957.73,1.7198725247070616
521,3960.47,1.6952924163486627
522,3963.2099999999996,1.6354603079902639
523,3965.95,1.5106401996318648
524,3968.69,1.4093840912734659
525,3971.4300000000003,1.2963049829150668
526,3974.17,1.319622874556668
527,3976.9100000000003,1.464770766198269
528,3979.65,1.5544206578398698
529,3982.3799999999997,1.6538185498769395
530,3985.12,1.7668144415185405
531,3987.8599999999997,1.8274683331601418
532,3990.6000000000004,1.8833222248017427
533,3993.34,1.9719021164433437
534,3996.0800000000004,2.0094580080849447
535,3998.82,2.0046838997265457
536,4001.56,2.051566791368147
537,4004.3,2.060810683009748
538,4007.04,2.037546574651349
539,4009.78,2.0528814662929498
540,4012.52,2.1144413579345507
541,4015.2599999999998,2.138115249576152
542,4018.0,2.126181141217753
543,4020.74,2.221071032859354
544,4023.48,2.185325924500955
545,4026.22,2.199645816142556
546,4028.9599999999996,2.1550107077841574
547,4031.7,2.118744599425758
548,4034.44,2.065770491067359
549,4037.1800000000003,2.09070638270896
550,4039.92,2.148398274350561
551,4042.6600000000003,2.1376711659921623
552,4045.4,2.1157790576337634
553,4048.14,2.082529949275364
554,4050.88,2.0859308409169652
555,4053.61,2.117049732954035
556,4056.3500000000004,2.075679624595636
557,4059.09,2.049453516237237
558,4061.8300000000004,2.020922407878838
559,4064.57,1.9794432995204392
560,4067.31,2.02821919116204
561,4070.05,2.0272580828036415
562,4072.79,2.073783974445242
563,4075.53,2.002649866086843
564,4078.27,1.990359757728444
565,4081.0099999999998,1.9795236493700452
566,4083.75,1.9642975410116463
567,4086.49,1.9368914326532474
568,4089.23,1.9261093242948484
569,4091.97,1.9281392159364492
570,4094.7099999999996,1.8729161075780503
571,4097.45,1.7728399992196515
572,4100.1900000000005,1.6762208908612526
573,4102.93,1.6973707825028534
574,4105.67,1.6797866741444545
575,4108.41,1.7079045657860554
576,4111.15,1.7101814574276566
577,4113.89,1.7979933490692575
578,4116.63,1.8334362407108584
579,4119.37,1.8346981323524596
580,4122.11,1.9094800239940606
581,4124.84,1.8980219160311302
582,4127.58,1.8666098076727313
583,4130.32,1.8662806993143322
584,4133.06,1.8771435909559333
585,4135.8,1.8751134825975344
586,4138.54,1.9466033742391355
587,4141.28,2.0127432658807365
588,4144.0199999999995,1.9793571575223374
589,4146.76,1.9875040491639384
590,4149.5,1.9539259408055396
591,4152.24,1.9260528324471404
