,lambda (Angstroms),Total Flux (erg/s/cm^2/Angstrom)
0,101.98,0.02372530139471533
1,104.11999999999999,0.02829011100714879
2,104.712855,0.02955472499342999
3,106.05,0.027174882217207635
4,108.03,0.023650896636254245
5,110.03,0.02009133674269558
6,113.9,0.013203583691737596
7,117.9,0.006084486565580259
8,120.22644299999999,0.0019446247760450661
9,120.92999999999999,0.0018869097942250837
10,124.89,0.001561298232688461
11,126.92,0.001394378131928526
12,128.09,0.0012982027562245236
13,131.08,0.0010524058334254068
14,131.99,0.0009780379968778498
15,134.13,0.0008021818144363431
16,136.94,0.000572073586207073
17,138.038426,0.00048190277671864056
18,140.13,0.00047637010855442066
19,143.06,0.0004798006931774116
20,147.07,0.0005008697295249179
21,150.84,0.0004976551101558653
22,155.07,0.0004949066234102174
23,158.489319,0.0004945131896354583
24,159.04999999999998,0.0004935738067982077
25,162.0,0.0004890212850835553
26,166.16,0.000485017388801198
27,170.03,0.00048124993204333205
28,173.19,0.0004791686151557722
29,176.82,0.0004788588014526577
30,180.10999999999999,0.00047691852374377426
31,181.970086,0.00047723574608219614
32,182.19,0.0004785722892237667
33,186.01,0.0005030399339829505
34,191.22,0.0005364562387461304
35,193.88,0.0005590485866674468
36,197.94,0.0005876225755999825
37,202.08,0.000619880712590302
38,204.89000000000001,0.0006438423756199635
39,208.929613,0.0006649158768260582
40,210.14999999999998,0.0006801852458315034
41,216.04000000000002,0.0007916601541212131
42,220.05,0.0008603906675748181
43,223.11,0.0009075117506591153
44,226.74,0.0009776871119649973
45,229.89,0.0012756229916105971
46,234.17000000000002,0.001884085094748111
47,239.88329199999998,0.0022898857794395712
48,240.18,0.002306234400935585
49,245.77,0.002254505156525757
50,252.07,0.0023836150724860596
51,256.76,0.0021259505543676175
52,259.73,0.0023759239576060455
53,263.95,0.0024858776854397714
54,268.86,0.0025125174564501022
55,273.86,0.0025304517548312942
56,275.42287,0.0025361495753152058
57,278.95,0.0026014742416735816
58,284.14,0.002697888318256282
59,290.09,0.002702247762508125
60,296.16,0.0028537428963919384
61,300.96999999999997,0.0029286022891400667
62,307.98,0.003076849325140978
63,316.227766,0.00325467307004719
64,318.07,0.003269878037727052
65,327.73999999999995,0.0033067542353357997
66,337.7,0.0033132609114664216
67,347.96,0.0033069048067576054
68,356.89,0.0033021131971036357
69,363.078055,0.0033032579429120453
70,366.03999999999996,0.0033334749414291307
71,375.43,0.0034016506752524702
72,385.06,0.0033903152041895052
73,394.94,0.0035417624363699727
74,405.07,0.003627734371793873
75,413.55,0.003665013465811117
76,416.86938299999997,0.0036769220169361344
77,422.21000000000004,0.003686701775259485
78,430.06,0.003700397106414368
79,441.09000000000003,0.0037434309475147965
80,451.36999999999995,0.0037495989607978794
81,459.76000000000005,0.0037578628879812517
82,470.46999999999997,0.003772352709212946
83,478.630092,0.0037938789534846386
84,480.32,0.0037880477771718274
85,490.38,0.003698827115419697
86,499.49,0.0036809098879284526
87,506.44,0.003623354605704068
88,512.3,0.0036914163375263856
89,519.4300000000001,0.003652931309863096
90,530.3100000000001,0.0035744592522226203
91,540.1700000000001,0.003466889418735939
92,549.5408739999999,0.0034284337608960274
93,550.21,0.0034272468342210092
94,560.4399999999999,0.0034488728109407793
95,569.55,0.0034719299417244657
96,580.13,0.003393709432799262
97,589.5600000000001,0.003416113805278972
98,600.52,0.003331428083367798
99,610.28,0.0030723474550965325
100,620.1999999999999,0.0033682739476732794
101,630.27,0.0033306668035450377
102,630.957344,0.0033294597049319504
103,640.51,0.0033378992977560365
104,649.42,0.00335785264434999
105,658.46,0.003358432994878536
106,664.55,0.0034004918715067264
107,675.35,0.0033971333522266707
108,684.7399999999999,0.003320925097963733
109,694.27,0.003505769001784202
110,705.5500000000001,0.0034037738816472545
111,715.37,0.0035716522557833518
112,724.43596,0.0035853955022410147
113,725.3199999999999,0.003586158186867413
114,735.41,0.0036085060256604395
115,745.6400000000001,0.0036937225757945
116,754.27,0.0037366295677453247
117,764.77,0.0036270079183228056
118,775.4,0.003863457358002675
119,784.3799999999999,0.003908313128306082
120,795.3000000000001,0.003970248612906663
121,804.4999999999999,0.004031713072460265
122,815.7,0.004072226979742912
123,825.14,0.004214989373023999
124,831.763771,0.003911894245238266
125,834.7,0.0037694853515226777
126,844.36,0.004229615563751326
127,854.14,0.0042274562133989635
128,864.03,0.004342405097347342
129,874.03,0.00447109721559646
130,884.15,0.004642193771264568
131,894.3900000000001,0.004745245764351664
132,904.75,0.004659513194857751
133,915.2299999999999,0.006541354062782828
134,925.8199999999999,0.03570324516500864
135,934.39,0.07622719623734814
136,945.2099999999999,0.1454224780112937
137,953.9599999999999,0.21238343073976168
138,954.992586,0.2134601961041076
139,965.0,0.22391161658517492
140,973.93,0.03375209347129431
141,985.2099999999999,0.16572131216955038
142,994.32,0.19240500557745044
143,1005.84,0.31102088297141406
144,1015.15,0.30959401695907046
145,1024.54,0.13759562717862936
146,1034.02,0.2005045106590786
147,1045.99,0.4242348543574939
148,1055.6699999999998,0.41745777841769954
149,1065.44,0.3081589757387954
150,1075.3,0.3833908463207817
151,1085.25,0.28432449016365824
152,1095.29,0.4107724072674252
153,1096.4782,0.4088183977483023
154,1105.42,0.3941078395131178
155,1115.6499999999999,0.37037242691204375
156,1125.97,0.32710723062239716
157,1133.78,0.4462074683140504
158,1144.27,0.3995447139459891
159,1154.8600000000001,0.4350337665906251
160,1165.54,0.4482385355466885
161,1176.33,0.29018690221671894
162,1184.48,0.43600922375154266
163,1195.44,0.2714517323431584
164,1203.73,0.1798743236957582
165,1214.87,0.14065166491022893
166,1226.11,0.2948493131373969
167,1234.61,0.4768944092166609
168,1246.03,0.5276993900666838
169,1254.6699999999998,0.49362135596372386
170,1258.92541,0.46319675207144967
171,1266.28,0.4106214854145995
172,1275.0500000000002,0.5654113654734583
173,1283.89,0.6002800501622054
174,1295.77,0.4399746359203858
175,1304.75,0.4319499298689094
176,1313.8,0.5799122284473213
177,1325.9499999999998,0.5500100320636423
178,1335.1399999999999,0.4660325399018307
179,1344.4,0.5920477523699074
180,1353.72,0.5719639688064597
181,1366.24,0.49477079689504727
182,1375.71,0.5301332232527888
183,1385.25,0.5362652542404186
184,1394.85,0.46176498919652403
185,1404.52,0.48129872878251767
186,1414.26,0.4868605729983997
187,1424.06,0.5097939211827573
188,1433.9299999999998,0.5039606739970032
189,1440.55,0.5387425118521508
190,1445.43977,0.5479645738358251
191,1447.1999999999998,0.5512843329810317
192,1453.8799999999999,0.5313610037990639
193,1463.96,0.4801956633568131
194,1474.1000000000001,0.48130662624526316
195,1484.3200000000002,0.4970534935746477
196,1494.6100000000001,0.5098009647898499
197,1504.97,0.4757915398908699
198,1511.9199999999998,0.4115883256970561
199,1515.4,0.45023211887770764
200,1525.91,0.43097300230547986
201,1536.49,0.3634946896190697
202,1543.58,0.41635288319689134
203,1554.2800000000002,0.390377577171883
204,1565.05,0.3948916750326924
205,1575.9,0.4240922773344362
206,1586.82,0.45335718352199783
207,1594.15,0.462836790422623
208,1605.2,0.45544870382670316
209,1616.32,0.45859752111660107
210,1623.78,0.42801283523374484
211,1635.0400000000002,0.4617751602952781
212,1646.3700000000001,0.4703557892426291
213,1653.9699999999998,0.42801161113140823
214,1659.58691,0.45087813338443744
215,1665.44,0.47470819572797296
216,1673.12,0.4097117091340517
217,1676.9800000000002,0.47690687394491943
218,1684.72,0.5063154116744831
219,1696.4,0.4703697466462278
220,1704.23,0.4481951208610191
221,1716.04,0.4192712085336479
222,1723.96,0.4173462192336666
223,1735.9099999999999,0.4513107636610938
224,1743.9299999999998,0.4400299149002541
225,1756.02,0.4769321160824796
226,1764.1200000000001,0.42904189975295326
227,1776.35,0.4420740576899771
228,1784.55,0.45132918189959237
229,1796.9199999999998,0.4914333965914145
230,1805.2099999999998,0.4869392572862573
231,1813.54,0.44106943419675676
232,1826.12,0.45342553402077634
233,1834.54,0.43204114741650324
234,1843.01,0.39135968108180097
235,1855.79,0.39226436198410386
236,1864.35,0.40790943213462916
237,1872.9599999999998,0.4503241225547252
238,1885.94,0.40979638453531136
239,1894.6499999999999,0.39317761549454905
240,1903.39,0.4193465586155293
241,1905.46072,0.41638766463491605
242,1916.59,0.4004744824173473
243,1925.4299999999998,0.3940763630395783
244,1934.32,0.40510051753410703
245,1943.25,0.42612915112647387
246,1956.72,0.39770061232347076
247,1965.75,0.44311159366043296
248,1974.82,0.4555201540952334
249,1983.9399999999998,0.4290551884023314
250,1993.1,0.41544780180726765
251,2006.91,0.43003158533588876
252,2016.1699999999998,0.4106892464854203
253,2025.48,0.43300508150724965
254,2034.83,0.40880249562691706
255,2044.22,0.4300151888444227
256,2053.66,0.40784695593422593
257,2063.14,0.40784240212186734
258,2072.66,0.4420374274073469
259,2077.44,0.4260554295990058
260,2087.03,0.4481771183057021
261,2096.66,0.42021228611023664
262,2106.3399999999997,0.4211712277870687
263,2116.06,0.4270256485617391
264,2125.83,0.4319536432087071
265,2135.64,0.39578681695351325
266,2145.5,0.4134737645706171
267,2155.4,0.43095439128555907
268,2165.35,0.41440419187279876
269,2175.35,0.4106024663323361
270,2185.3900000000003,0.40684381988971163
271,2187.7616199999998,0.41158233844960734
272,2195.47,0.4269909921203564
273,2205.61,0.413457016732656
274,2215.79,0.3867659580100929
275,2226.02,0.37537182011895137
276,2236.29,0.4106184988929471
277,2246.61,0.3903616984983645
278,2256.98,0.3658635189352034
279,2267.4,0.374140860203464
280,2272.63,0.3880502391701629
281,2283.12,0.40607050960241364
282,2293.66,0.377872600866086
283,2304.24,0.38201180879489566
284,2314.88,0.35712134172141125
285,2325.56,0.268953391313064
286,2336.3,0.3215956659024228
287,2347.08,0.30623085715691883
288,2352.4900000000002,0.3442405111167355
289,2363.35,0.30452413570150605
290,2374.2599999999998,0.3186511811176982
291,2385.2200000000003,0.287796247365312
292,2396.23,0.31171723444434735
293,2407.29,0.29750324235480435
294,2412.84,0.30926285464260145
295,2423.98,0.340396195883333
296,2435.1600000000003,0.32712805378920173
297,2446.4,0.3518750366927765
298,2457.7,0.3484169445940571
299,2463.36,0.3403832027109817
300,2474.73,0.3248551397762526
301,2486.16,0.32388070183922935
302,2497.63,0.3076929805673434
303,2503.39,0.35554138034711125
304,2511.88643,0.31294514430037995
305,2514.94,0.29763452782494493
306,2520.7400000000002,0.3037493925971462
307,2526.55,0.29065675575688565
308,2532.38,0.30351811569170173
309,2544.07,0.29914553072394867
310,2555.81,0.34157643769388696
311,2567.6,0.3200461366015167
312,2573.5200000000004,0.34754178202417724
313,2585.4,0.33783146641965145
314,2597.34,0.3283920411403553
315,2603.32,0.31278207688824555
316,2615.3399999999997,0.3054488387092557
317,2627.41,0.33003519246795715
318,2633.47,0.36673051531615364
319,2645.6200000000003,0.4187613561751613
320,2657.84,0.458770185746937
321,2663.96,0.3754132989203631
322,2676.2599999999998,0.40377531559244506
323,2682.4300000000003,0.41396852070356255
324,2694.8100000000004,0.3755492244759507
325,2707.25,0.4029883185735684
326,2713.4900000000002,0.3598938123974539
327,2726.0099999999998,0.3466162935953779
328,2732.2999999999997,0.3755305793569547
329,2744.91,0.29880994604272326
330,2757.58,0.31770300305372146
331,2763.9399999999996,0.3434087775280662
332,2776.7,0.36260522002690887
333,2783.1,0.3186527880514068
334,2795.94,0.2394056176505557
335,2802.3900000000003,0.26055547761274495
336,2815.32,0.3518735926997384
337,2821.81,0.4000857462120808
338,2834.84,0.386197845174457
339,2847.92,0.35849603607452457
340,2854.4900000000002,0.3172108766871732
341,2867.6600000000003,0.40540395307508525
342,2874.27,0.43518938723788697
343,2884.0315,0.42123997589351253
344,2887.54,0.41622680165554016
345,2894.2000000000003,0.43264687967794474
346,2907.56,0.5054954355907564
347,2927.71,0.47009326909698046
348,2948.0099999999998,0.4556537021082136
349,2968.44,0.47429913469045476
350,2989.02,0.4769661667777049
351,3009.73,0.48629859843596307
352,3030.6,0.49240192956623086
353,3051.6,0.4974370602675066
354,3072.7599999999998,0.510667990440792
355,3086.94,0.5149222436476535
356,3108.34,0.5334987730289535
357,3129.8900000000003,0.5182607019152626
358,3151.58,0.5163412303395803
359,3173.42,0.5325056582689071
360,3188.07,0.48522330992479706
361,3210.17,0.5215469369961396
362,3232.4199999999996,0.4674240635724912
363,3247.34,0.5511044143373977
364,3269.8500000000004,0.599211040055765
365,3292.52,0.5874206652461422
366,3307.7200000000003,0.5787956150870657
367,3311.31121,0.5777237941390433
368,3322.98,0.5742404671442035
369,3330.65,0.612157183304293
370,3338.32,0.5580456994643826
371,3346.02,0.6059304137320083
372,3353.7299999999996,0.5574808273688128
373,3361.46,0.5688585397439747
374,3369.21,0.5738363508574941
375,3376.98,0.550265360709371
376,3384.76,0.5362394699304265
377,3392.5699999999997,0.6082825772590185
378,3400.39,0.6424919839567889
379,3408.23,0.584341089392917
380,3416.0800000000004,0.5681375941982236
381,3423.9599999999996,0.6341601971110665
382,3431.8500000000004,0.6323828993930883
383,3439.76,0.6262634004134675
384,3447.69,0.517102500172204
385,3455.64,0.5838731986692982
386,3463.6,0.523739596535571
387,3471.59,0.5995884925093801
388,3479.59,0.5148325878523679
389,3487.6099999999997,0.5615826819337131
390,3495.65,0.5510507747534158
391,3503.71,0.6250661663114759
392,3511.79,0.6063231566078936
393,3519.88,0.6073970462734899
394,3528.0,0.5312198340466225
395,3536.13,0.6123535211889338
396,3544.28,0.6467807070696026
397,3552.45,0.6599590916886289
398,3560.64,0.6386878750460125
399,3568.85,0.5585834571417538
400,3577.0800000000004,0.5480935379758525
401,3585.32,0.4826649181791299
402,3593.5899999999997,0.5576581964899435
403,3598.85,0.785224364677958
404,3601.54,0.5739509949870375
405,3604.23,0.7342664252961172
406,3606.92,0.6282718556051968
407,3609.6099999999997,0.5173525859142765
408,3612.3,0.7195368162233561
409,3614.9900000000002,0.5516284465324357
410,3617.68,0.6010032768415154
411,3620.37,0.594028707150595
412,3623.06,0.6361469374596747
413,3625.76,0.47360486713793304
414,3628.45,0.7961006974470126
415,3631.14,1.0270502277560922
416,3633.83,0.7650141580651719
417,3636.5199999999995,0.44440538837425153
418,3639.21,0.6597898186833312
419,3641.9,0.7886280489924109
420,3644.5899999999997,0.6992071793014905
421,3647.2799999999997,0.8169274096105701
422,3649.9700000000003,0.7910363399196498
423,3652.66,0.9008819702287294
424,3655.35,0.9974620005378091
425,3658.04,0.6425764308468886
426,3660.73,0.7484413611559683
427,3663.43,0.8149713908342268
428,3666.12,0.7869976211433063
429,3668.81,0.969874151452386
430,3671.4999999999995,0.7544576817614655
431,3674.19,0.9353711120705452
432,3676.88,0.7931266423796248
433,3679.5699999999997,0.7888204726887045
434,3682.2599999999998,0.6818606029977841
435,3684.9500000000003,0.48092403330686373
436,3687.64,0.6127884636159434
437,3690.33,0.666241393925023
438,3693.02,0.6897356242341027
439,3695.71,0.6781731545431823
440,3698.4,0.9455577848522619
441,3701.09,0.7237515151613415
442,3703.79,0.7051238448395999
443,3706.4799999999996,0.5855709751486796
444,3709.17,0.7208952054577592
445,3711.86,0.8693223357668388
446,3714.5499999999997,0.7539236660759184
447,3717.24,0.5648862963849981
448,3719.9300000000003,0.7199085266940778
449,3722.62,1.0247574570031575
450,3725.31,1.295851287312237
451,3728.0,1.3705861176213165
452,3730.69,1.3821919479303961
453,3733.38,1.187709778239476
454,3736.07,0.8474131085485556
455,3738.7599999999998,0.5298297388576352
456,3741.4500000000003,0.6272557691667149
457,3744.15,0.9449756988449732
458,3746.84,0.9960856291540529
459,3749.5299999999997,0.8551647594631325
460,3752.22,0.8503488897722121
461,3754.9100000000003,0.8865557200812918
462,3757.6,0.7274660503903715
463,3760.29,0.699947880699451
464,3762.98,0.7966037110085307
465,3765.67,0.8512173413176103
466,3768.36,0.80838347162669
467,3771.05,0.7176719019357696
468,3773.74,0.9616924322448492
469,3776.4300000000003,1.083502062553929
470,3779.1200000000003,0.8440264928630085
471,3781.81,0.9075130231720882
472,3784.5099999999998,0.8444345528503464
473,3787.2,0.9468281831594262
474,3789.8900000000003,0.8117861134685057
475,3792.58,0.8118621437775854
476,3795.27,0.819747874086665
477,3797.96,0.9482171043957447
478,3800.6499999999996,0.7260319347048243
479,3801.8939600000003,0.7418222405320728
480,3803.34,0.7601776840205269
481,3806.03,0.8521152496867305
482,3808.72,0.872952015352934
483,3811.41,0.9335423810191376
484,3814.1000000000004,0.9533379466853413
485,3816.79,0.7049030123515448
486,3819.48,0.8043575780177484
487,3822.1699999999996,0.714220743683952
488,3824.8700000000003,0.7073076088507735
489,3827.56,0.6307730745169771
490,3830.25,0.6360555401831808
491,3832.94,0.39138510584938435
492,3835.6299999999997,0.34346407151558794
493,3838.32,0.46580483718179155
494,3841.01,0.7253900028479953
495,3843.7,0.7901995685141988
496,3846.39,0.9747578341804024
497,3849.08,0.7793421998466059
498,3851.77,0.8924960655128097
499,3854.46,0.9101766311790133
500,3857.1499999999996,0.8791439968452168
501,3859.84,0.8163303625114204
502,3862.53,0.7775858281776241
503,3865.23,1.0424162933444456
504,3867.92,0.9941700590106491
505,3870.6099999999997,0.9967627246768527
506,3873.3,0.7993624903430563
507,3875.9900000000002,0.6957869560092599
508,3878.68,0.6006933216754636
509,3881.37,0.7285659873416671
510,3884.06,0.6890947530078707
511,3886.75,0.7027618186740743
512,3889.44,0.837544184340278
513,3892.1299999999997,0.7360075500064815
514,3894.82,0.8273592156726852
515,3897.51,0.8972562813388888
516,3900.2,0.8250602470050924
517,3902.9,0.9008640121719138
518,3905.5899999999997,1.1258692778381174
519,3908.28,0.9637863435043211
520,3910.97,0.8604820091705246
521,3913.66,1.0170658748367283
522,3916.35,1.0434237405029319
523,3919.04,0.9906980061691355
524,3921.73,1.023097471835339
525,3924.42,0.9112675375015427
526,3927.1099999999997,0.9969463031677462
527,3929.8,0.74283886883395
528,3932.4900000000002,0.5848770345001535
529,3935.18,0.4596401001663571
530,3937.87,0.5461649658325607
531,3940.5600000000004,0.7880270314987644
532,3943.26,1.0138413966655857
533,3945.95,0.8001066623317894
534,3948.64,0.894853327997993
535,3951.33,0.9055700936641966
536,3954.02,0.8150972593304002
537,3956.71,0.8728999249966038
538,3959.4,0.8784644906628075
539,3962.0899999999997,0.767957656329011
540,3964.7799999999997,0.6026202219952146
541,3967.4700000000003,0.42655528766141826
542,3970.16,0.6189339533276219
543,3972.85,0.7265342189938254
544,3975.54,1.0156557846600291
545,3978.23,0.8892148503262327
546,3980.92,0.7069127159924363
547,3983.62,0.9444531811592578
548,3986.31,1.1902952468254613
549,3988.9999999999995,1.282276112491665
550,3991.69,1.2252219781578686
551,3994.38,1.4574518438240722
552,3997.0699999999997,1.2712127094902756
553,3999.7599999999998,1.2371545751564794
554,4002.4500000000003,1.322627440822683
555,4005.14,1.2219693064888866
556,4007.83,1.1553711721550903
557,4010.52,1.128254037821294
558,4013.21,1.2378069034874974
559,4015.9,1.334343769153701
560,4018.59,1.3242566348199045
561,4021.2799999999997,1.3039735004861082
562,4023.9799999999996,1.3339043656529297
563,4026.67,1.3429072313191333
564,4029.36,1.316550096985337
565,4032.0499999999997,1.3061369626515404
566,4034.74,1.298544828317744
567,4037.4300000000003,1.2306446939839477
568,4040.12,1.3036435596501514
569,4042.81,1.211663425316355
570,4045.5,1.2398652909825585
571,4048.19,1.1902951566487623
572,4050.88,1.264596022314966
573,4053.57,1.2578718879811694
574,4056.2599999999998,1.192465753647373
575,4058.9500000000003,1.2075426193135765
576,4061.6400000000003,1.1927914849797803
577,4064.34,1.0922363501466017
578,4067.0299999999997,1.1518942158128054
579,4069.72,1.1313940814790089
580,4072.4100000000003,1.2552639471452125
581,4075.1,1.2047178128114162
