,lambda (Angstroms),Total Flux (erg/s/cm^2/Angstrom)
0,102.00000000000001,0.021281120874098215
1,103.9,0.024910075184038344
2,104.712855,0.026462649047999057
3,106.08,0.024284603721435264
4,108.05,0.021146443328657193
5,110.06,0.01794543091972626
6,113.91999999999999,0.011797519113475848
7,117.92999999999999,0.005411128235902203
8,120.22644299999999,0.0017772379786116766
9,120.95,0.0017318749596265252
10,124.92,0.0014519214023000287
11,126.95,0.001307695942961795
12,128.12,0.0012256593254121725
13,131.1,0.001014552952935357
14,132.01,0.0009620291215078733
15,133.85,0.0008330818227973559
16,136.97,0.0006314508293316957
17,138.038426,0.0005571734421963661
18,140.16,0.0005605815577181757
19,143.09,0.0008137233419808203
20,147.10000000000002,0.0014630463078146787
21,150.87,0.0015475842332993784
22,155.1,0.001656775319453299
23,158.489319,0.0017664692542471187
24,159.07999999999998,0.0017847612354100666
25,162.04,0.001870521337462786
26,165.80999999999997,0.0020245776464961483
27,170.07000000000002,0.0021444134758017513
28,172.82999999999998,0.00225466377366172
29,176.85,0.002391888837936021
30,180.14,0.0024925096169067804
31,181.81,0.002568720981916254
32,181.970086,0.0025742882605195917
33,186.04,0.002737350553971066
34,190.82,0.0029556518726891975
35,193.92,0.00311115916725535
36,197.98,0.0032832794756226325
37,202.12,0.00348052078514001
38,204.93999999999997,0.003626090575680832
39,208.929613,0.003690352564507433
40,210.19,0.0037188859921402015
41,216.07999999999998,0.0042060258105512
42,220.1,0.004464881445527808
43,223.16,0.004583882018420449
44,226.79000000000002,0.004859131315675445
45,229.94,0.0072861075818884576
46,234.21999999999997,0.011758577108679473
47,239.88329199999998,0.014400939738354065
48,240.22000000000003,0.014553238661011955
49,245.82,0.013857720025411005
50,252.13,0.01477279840208208
51,256.81,0.012588345328044145
52,259.78999999999996,0.014464771661242212
53,264.01,0.015168041367985783
54,268.92,0.015171786903557093
55,273.92,0.015141722764627675
56,275.42287,0.015142678278912594
57,279.01,0.015192729868571625
58,284.2,0.015230128804251213
59,290.15,0.014604593865386772
60,296.21999999999997,0.014912164104225906
61,301.03000000000003,0.014781479977177511
62,308.05,0.015030292872836607
63,316.227766,0.015307059347092984
64,318.14000000000004,0.015348995520294385
65,327.81,0.015235569342001728
66,337.77000000000004,0.014987252482043625
67,348.03000000000003,0.014707244572086784
68,356.96,0.014501065650457681
69,363.078055,0.014450705683118787
70,366.10999999999996,0.014452938731288101
71,374.64,0.014232370522437893
72,385.14,0.013624286466995077
73,395.02000000000004,0.013879475165302222
74,405.15000000000003,0.01386108662419406
75,413.63,0.01359388186322691
76,416.86938299999997,0.013485522124490073
77,422.29999999999995,0.01329532455968836
78,430.15,0.01305562941282289
79,441.17999999999995,0.012913964550411917
80,451.46,0.012579010752988092
81,459.84999999999997,0.012275989239331877
82,469.47999999999996,0.012037272364896913
83,478.630092,0.011930844303796283
84,480.42,0.01190026838551253
85,490.47,0.011393399248773629
86,499.59000000000003,0.01134256609185236
87,506.53999999999996,0.011007563554505558
88,512.41,0.011706540864688905
89,519.54,0.011508701686087077
90,530.42,0.011156195814672226
91,540.28,0.010604534243702519
92,549.5408739999999,0.010685734571848087
93,550.3199999999999,0.010694191232671386
94,560.55,0.010947584504087327
95,569.6600000000001,0.0111592250810765
96,580.25,0.010741446004272476
97,589.68,0.011094634493955011
98,600.64,0.010749013003702687
99,610.4,0.010165530340850253
100,620.3199999999999,0.011444134634344499
101,630.4,0.011461558884185428
102,630.957344,0.011457005057473458
103,640.64,0.011400774681885691
104,649.56,0.01174775673862375
105,658.59,0.011919618035971809
106,664.69,0.012196044106162634
107,675.49,0.01202572682059885
108,684.8799999999999,0.01159811654176145
109,694.4100000000001,0.013316616205518592
110,705.69,0.012646750151707528
111,715.51,0.01395469326798194
112,724.43596,0.014136298070968079
113,725.47,0.014156731626354616
114,735.56,0.01435652048797103
115,745.7900000000001,0.015422607421007295
116,754.43,0.015989436971489534
117,764.9200000000001,0.016036794608591236
118,775.56,0.01738297803649992
119,784.54,0.01806440004614466
120,795.46,0.018607329616893046
121,804.67,0.019121689172441822
122,815.86,0.01952380716664278
123,825.31,0.020932111987482734
124,831.763771,0.018323613683649247
125,834.87,0.017060506547357208
126,844.53,0.021349570097142907
127,854.3100000000001,0.021626311703447688
128,864.1999999999999,0.022962648194894953
129,874.21,0.0243313927428613
130,884.34,0.02619535534734672
131,894.5699999999999,0.027394429665598036
132,904.9300000000001,0.026710745211745022
133,915.41,0.042990438814411086
134,926.01,0.32215595047359624
135,934.58,0.6995106283433337
136,945.4,1.3544173197728038
137,954.15,2.00340659472732
138,954.992586,2.0044998523019313
139,965.1999999999999,2.0177584616891058
140,974.13,0.2701108863879811
141,985.4100000000001,1.3712090860076132
142,994.53,1.6716456601681668
143,1006.04,2.8394025986098304
144,1015.35,2.8529781222320625
145,1024.75,1.2778196219150892
146,1034.23,1.7558971003188224
147,1043.8,3.8863445547833506
148,1055.89,3.807705338950137
149,1065.6599999999999,2.702524740216432
150,1075.52,3.4185111175435217
151,1085.47,2.4431854709314065
152,1095.51,3.6562148003800865
153,1096.4782,3.6398094728079897
154,1105.6499999999999,3.484395907285417
155,1115.88,3.2152013907674513
156,1126.2,2.794593799324108
157,1134.01,3.929838297466306
158,1144.5,3.479095564497249
159,1155.09,3.8156077482777713
160,1165.78,3.905321848807874
161,1173.8600000000001,2.4308081221739384
162,1184.72,3.765516081178327
163,1195.6799999999998,2.2384369569322953
164,1203.97,1.4095090554724776
165,1215.11,1.2000067813756903
166,1226.36,2.5189274157034407
167,1234.86,4.161726339417742
168,1246.28,4.596014832219778
169,1254.9199999999998,4.24088063938349
170,1258.92541,3.8904596372892715
171,1263.6200000000001,3.479748582855242
172,1275.31,4.871245275084203
173,1284.15,5.184748798549045
174,1296.03,3.646248502028945
175,1305.02,3.572134034376109
176,1314.06,4.920391569684047
177,1326.2199999999998,4.635624289744282
178,1335.4199999999998,3.8387418345266973
179,1344.67,5.003591382269886
180,1353.99,4.801377934158158
181,1366.52,4.087671676128121
182,1375.99,4.401116236898716
183,1385.5300000000002,4.432503801814393
184,1395.14,3.7821213708751547
185,1404.81,3.9248909434888453
186,1414.55,3.962017520247619
187,1424.3500000000001,4.168796100559322
188,1434.22,4.0840966850161085
189,1440.84,4.386946077022585
190,1445.43977,4.465182557694912
191,1447.4899999999998,4.5000544512944405
192,1454.1699999999998,4.308019783283388
193,1464.25,3.849276284248749
194,1474.3999999999999,3.858931788693035
195,1484.6200000000001,3.995482296616248
196,1494.92,4.089318808515376
197,1505.28,3.7821493233964403
198,1512.23,3.227143668804105
199,1515.71,3.5632318417564313
200,1526.22,3.3801913640923376
201,1533.26,2.8119527139729064
202,1543.8899999999999,3.251660242272686
203,1554.5900000000001,3.035402774051392
204,1565.3700000000001,3.0570843098060134
205,1576.22,3.291584849039561
206,1583.49,3.5275452103508873
207,1594.47,3.5938257560452973
208,1605.52,3.5371883052186335
209,1616.65,3.5626138583678855
210,1624.11,3.294882229122011
211,1635.37,3.5803967887321257
212,1646.71,3.6393853523181563
213,1654.31,3.2817627300301337
214,1659.58691,3.4546869189312814
215,1665.78,3.6576362400199973
216,1673.47,3.1137090310446425
217,1677.32,3.6586044283716754
218,1685.07,3.9117822411728453
219,1696.75,3.609878480336416
220,1704.58,3.4242203221729532
221,1716.39,3.1672736085189945
222,1724.32,3.15320048664974
223,1736.27,3.426429823807674
224,1744.28,3.3259427309737863
225,1756.37,3.6309881189436117
226,1764.48,3.2293880624039333
227,1776.71,3.320656501185651
228,1784.91,3.39852947731076
229,1793.15,3.7185594679535527
230,1805.58,3.6768659793236877
231,1813.9099999999999,3.3004000026312683
232,1826.49,3.393697568442716
233,1834.9199999999998,3.211755628044505
234,1843.39,2.8962807021639776
235,1856.17,2.877064340563843
236,1864.73,2.999277447348103
237,1873.34,3.342709572279468
238,1886.33,3.014562286897171
239,1895.03,2.8859904444933235
240,1903.78,3.0858596202365804
241,1905.46072,3.0656946460951486
242,1916.98,2.927478841102261
243,1925.82,2.881331705428595
244,1934.71,2.9693085463631097
245,1943.64,3.1170703685841685
246,1957.12,2.8896980621496637
247,1966.15,3.250462837587084
248,1975.23,3.3420395896326847
249,1984.34,3.126734327643194
250,1993.5,3.0212380422618836
251,2002.7,3.127969738167118
252,2016.5900000000001,2.9675292399196946
253,2025.8899999999999,3.15120588904129
254,2035.2500000000002,2.9414655100927023
255,2044.64,3.109061117109023
256,2054.08,2.942563700733524
257,2063.56,2.92959726564457
258,2073.08,3.19080081184216
259,2077.86,3.0265025755842276
260,2082.65,3.184096334647931
261,2097.09,2.9723345790904943
262,2106.77,2.9660890504342627
263,2116.4900000000002,3.0010595030645755
264,2126.26,3.043487932303069
265,2136.08,2.763554338149743
266,2145.94,2.881052725282961
267,2155.84,3.010407093702724
268,2165.79,2.888860438730668
269,2175.79,2.8563767603667922
270,2185.83,2.7983280632894605
271,2187.7616199999998,2.827574260251537
272,2195.92,2.951105202703082
273,2206.06,2.851527984947945
274,2216.24,2.6618127821129063
275,2226.4700000000003,2.55432159792799
276,2236.75,2.788197432393196
277,2247.0699999999997,2.631105281778501
278,2257.44,2.465404149813928
279,2262.65,2.545271093156703
280,2273.09,2.6268959873023014
281,2283.58,2.7173899000980226
282,2294.12,2.5401538315438663
283,2304.71,2.532499781639833
284,2315.35,2.361809750385922
285,2326.04,1.7138197377821338
286,2336.77,2.1166947400984437
287,2347.56,2.0386797647949004
288,2352.9700000000003,2.2604077827381657
289,2363.83,2.008570833544794
290,2374.74,2.087377903001545
291,2385.71,1.8979489948384436
292,2396.72,2.0557021015954398
293,2402.24,1.9489801605689747
294,2413.33,2.0207562971661672
295,2424.47,2.193812452413482
296,2435.66,2.09348262631092
297,2446.9,2.24156881885848
298,2452.54,2.204897922592309
299,2463.86,2.1730751449800656
300,2475.24,2.0689923897479696
301,2486.66,2.120502649435971
302,2492.39,1.9874007867400207
303,2503.9,2.264355079998243
304,2511.88643,2.0335612858385694
305,2515.46,1.9302895430693274
306,2527.07,1.8892578670291849
307,2532.89,1.9370050268436871
308,2544.5800000000004,1.8870763392546033
309,2556.33,2.081801643003813
310,2562.2200000000003,1.9874017927129912
311,2574.0499999999997,2.1376540849132595
312,2585.9300000000003,2.087404369895439
313,2597.87,2.038260646215913
314,2603.85,1.9457437829325321
315,2615.8700000000003,1.908766047704064
316,2627.95,2.02951830381389
317,2634.0099999999998,2.1390424289815675
318,2646.1600000000003,2.37606567498607
319,2652.26,2.4698457943792764
320,2664.5099999999998,2.1346660259476016
321,2676.81,2.2697932502978384
322,2682.98,2.258404359585721
323,2695.36,2.1254675723870164
324,2707.8,2.2134677765266053
325,2714.04,2.0554068757091644
326,2726.5699999999997,2.0396420668561936
327,2732.8599999999997,2.164463158820664
328,2745.47,1.7823503384187527
329,2758.14,1.8393045093551346
330,2764.4999999999995,1.9340085912142815
331,2777.2599999999998,2.042137749158104
332,2783.66,1.88314782524278
333,2796.5099999999998,1.4573029701940436
334,2802.96,1.578875039060631
335,2815.9,1.9904751710193354
336,2822.3900000000003,2.156494234111452
337,2835.41,2.067261354521215
338,2841.95,1.996253410395243
339,2855.07,1.8786045163688287
340,2868.25,2.1599246136807086
341,2874.86,2.178801659449413
342,2884.0315,2.1500134366788504
343,2888.1299999999997,2.137149323326852
344,2894.79,2.1215423036505743
345,2908.15,2.3727582641798417
346,2928.31,2.2421552046192152
347,2948.6099999999997,2.1881571446449737
348,2969.04,2.2515190842866604
349,2989.62,2.2484050234851876
350,3010.35,2.2869309622405556
351,3031.2099999999996,2.2732099006118522
352,3052.23,2.2647728385104453
353,3073.38,2.277266776024967
354,3087.57,2.301280734102086
355,3108.97,2.2927146708780084
356,3130.52,2.2476176072107714
357,3152.22,2.249336543100375
358,3166.77,2.2471515001139113
359,3188.72,2.098914435264916
360,3210.83,2.194405369943217
361,3233.08,2.0449363042079027
362,3248.0,2.219221260128313
363,3270.52,2.3095611935953113
364,3293.1899999999996,2.2742911266191506
365,3308.39,2.2719510817123294
366,3311.31121,2.2625779489718982
367,3323.66,2.2229543756633388
368,3331.3199999999997,2.26322094305202
369,3338.9999999999995,2.1159245093111685
370,3346.7000000000003,2.2764760744407835
371,3354.42,2.177860638440865
372,3362.1499999999996,2.0691022018761798
373,3369.9,2.087208764181961
374,3377.6699999999996,2.119969325358209
375,3385.45,2.16319488596969
376,3393.26,2.274280444886871
377,3401.0800000000004,2.430003003239285
378,3408.9199999999996,2.1897205604621655
379,3416.7799999999997,2.183469116555513
380,3424.65,2.322195672084093
381,3432.5499999999997,2.396923225918374
382,3440.46,2.2878587791878875
383,3448.39,2.0950053313278674
384,3456.34,2.137600882338314
385,3464.31,2.0263504322192274
386,3472.2999999999997,2.2410469809706064
387,3480.3,2.05692852915722
388,3488.3199999999997,2.162570076214299
389,3496.36,2.126835622141845
390,3504.4199999999996,2.225923166939858
391,3512.5,2.1491507106083367
392,3520.6,2.2594592531472824
393,3528.7200000000003,2.0219747945566944
394,3536.8500000000004,2.2157693354013395
395,3545.0,2.3136058751164517
396,3553.1800000000003,2.3335694131372633
397,3561.37,2.273955950593308
398,3569.58,2.06799948691982
399,3577.81,2.038355022116798
400,3586.05,1.9101095567490092
401,3594.3199999999997,2.0834500896869206
402,3602.61,2.288473621495298
403,3610.91,2.095463152738909
404,3619.2400000000002,2.2031226822882193
405,3627.5800000000004,2.3056332112727635
406,3635.9399999999996,2.063170739127774
407,3643.5099999999998,2.4273473115993567
408,3646.19,2.308130160241872
409,3648.8599999999997,2.4766470094491537
410,3651.53,2.5918008586564363
411,3654.21,1.9672007072989512
412,3656.88,2.2424425565062336
413,3659.5499999999997,2.4899104057135157
414,3662.22,2.4314022549207976
415,3664.8999999999996,2.184552103563313
416,3667.57,2.338244952770595
417,3670.2400000000002,2.156628801977877
418,3672.91,2.036019651185159
419,3675.59,2.4265554998276744
420,3678.2599999999998,2.3273233490349567
421,3680.93,2.0790811982422386
422,3683.61,2.160677046884754
423,3686.28,2.367575896092036
424,3688.95,2.353692745299318
425,3691.62,2.2078065945066
426,3694.2999999999997,2.139456443149115
427,3696.97,2.3107812923563973
428,3699.6400000000003,2.4476241415636797
429,3702.31,2.1502319907709615
430,3704.9900000000002,2.219344839413477
431,3707.66,2.091558688620759
432,3710.33,2.085164537828041
433,3713.0,2.293156387035323
434,3715.6800000000003,2.3012612356778384
435,3718.3500000000004,2.0918710848851205
436,3721.02,3.0811099340924026
437,3723.7,3.857505782734918
438,3726.37,5.0417826319421994
439,3729.04,5.883419481149482
440,3731.7099999999996,4.830063330356764
441,3734.3900000000003,3.7966541789992796
442,3737.06,3.1680120282065616
443,3739.73,2.4396648774138434
444,3742.4,2.3076657266211256
445,3745.08,2.478041575263641
446,3747.7500000000005,2.252736424470923
447,3750.42,2.076737273678205
448,3753.1,1.9155491223207206
449,3755.77,2.4568219715280026
450,3758.44,2.4034628207352844
451,3761.1099999999997,2.387706669942567
452,3763.79,2.6381265185850817
453,3766.4599999999996,2.293770367792364
454,3769.13,2.5250112169996464
455,3771.8,2.240102066206928
456,3774.48,2.3942509148494437
457,3777.15,2.641251764056726
458,3779.8199999999997,2.695709613264008
459,3782.4999999999995,3.065022461906523
460,3785.17,3.167851311113805
461,3787.84,2.8116371603210872
462,3790.51,2.714434009528369
463,3793.19,2.4814698581708847
464,3795.8599999999997,2.4635297073781666
465,3798.5299999999997,2.1441375565854486
466,3801.2000000000003,2.502388405792731
467,3801.8939600000003,2.4610135910031574
468,3803.88,2.342603277806145
469,3806.55,2.497077158432886
470,3809.22,2.732843039059626
471,3811.89,3.001843919686367
472,3814.5699999999997,2.7406367998660164
473,3817.2400000000002,2.834259680492757
474,3819.9100000000003,2.9188325611194976
475,3822.59,2.5484044412991476
476,3825.2599999999998,2.252574321925888
477,3827.93,2.2759822025526284
478,3830.6,2.2312040831793687
479,3833.28,2.3699069633590186
480,3835.9500000000003,2.180176843985759
481,3838.62,2.2619397246124997
482,3841.29,2.31483760523924
483,3843.97,2.50159748541889
484,3846.64,2.42717336604563
485,3849.3100000000004,2.9534692466723707
486,3851.9900000000002,2.76575312685202
487,3854.66,3.260530007478761
488,3857.33,3.1917248881055014
489,3860.0,3.109344768732242
490,3862.68,3.7698096489118913
491,3865.3500000000004,3.6576285295386324
492,3868.02,3.9130564101653724
493,3870.69,4.051149290792113
494,3873.37,3.7459381709717627
495,3876.04,3.3699090515985035
496,3878.71,3.2223089322252436
497,3881.3799999999997,2.787298812851984
498,3884.06,2.7865076930316337
499,3886.73,2.2839365736583748
500,3889.4,2.6159734542851147
501,3892.08,2.7596673344647646
502,3894.75,2.614562215091505
503,3897.4199999999996,2.845336095718246
504,3900.09,2.795720976344986
505,3902.77,3.088735856524636
506,3905.44,3.366786737151376
507,3908.11,3.342917617778117
508,3910.7799999999997,3.4245274984048573
509,3913.4600000000005,3.714262378584507
510,3916.13,3.7534312592112475
511,3918.8,3.2836271398379884
512,3921.48,3.324027020017638
513,3924.15,3.1572349006443785
514,3926.8199999999997,3.0887417812711186
515,3929.49,2.9143026618978594
516,3932.1699999999996,3.090762542077509
517,3934.84,2.7748044227042494
518,3937.51,2.92007230333099
519,3940.18,2.7737201839577303
520,3942.86,2.94253406413738
521,3945.5299999999997,3.2694229447641208
522,3948.2,3.384889825390861
523,3950.8700000000003,3.3004807060176016
524,3953.55,3.3736475861972512
525,3956.22,3.255068466823992
526,3958.89,3.0818783474507327
527,3961.5699999999997,2.742501227630382
528,3964.24,2.7808881082571224
529,3966.9100000000003,2.687428988883863
530,3969.58,2.784795869510604
531,3972.26,2.5891237496902533
532,3974.93,2.613467630316994
533,3977.6,2.720664510943734
534,3980.27,2.705220391570475
535,3982.9500000000003,3.0044782717501244
536,3985.6200000000003,3.2160591523768653
537,3988.29,3.2486740330036055
538,3990.97,3.485827913183255
539,3993.64,3.4540027938099955
540,3996.31,3.3287136744367363
541,3998.9799999999996,3.4081385550634766
542,4001.6600000000003,3.4260694352431265
543,4004.33,3.4608683158698668
544,4007.0,3.3984601964966075
545,4009.67,3.508935077123348
546,4012.35,3.202633957302998
547,4015.0200000000004,3.388002837929738
548,4017.69,3.4360647185564788
549,4020.36,3.596469599183219
550,4023.04,3.739380479362869
551,4025.71,3.6674543599896094
552,4028.3799999999997,3.42514324061635
553,4031.0600000000004,3.4184211207959994
554,4033.73,3.4802140014227403
555,4036.4,3.5357658820494806
556,4039.07,3.3931577626762213
557,4041.75,3.2775266428558707
558,4044.42,3.4427675234826114
559,4047.0899999999997,3.4001754041093517
560,4049.76,3.4312302847360923
561,4052.44,3.459615164915742
562,4055.11,3.7361060455424826
563,4057.78,3.5928749261692228
564,4060.46,3.527328806348873
565,4063.1299999999997,3.744059686975613
566,4065.8,3.7604475676023537
567,4068.4700000000003,3.764353448229094
568,4071.15,3.525770328408744
569,4073.82,3.6303142090354843
570,4076.49,3.628447089662225
571,4079.16,3.6598139702889654
572,4081.8399999999997,3.730949850468615
573,4084.51,3.5803857310953555
574,4087.1800000000003,3.6446746117220963
575,4089.85,3.7734054923488363
576,4092.5299999999997,3.6339003725284864
577,4095.2,3.365064253155227
578,4097.87,3.4050121337819674
579,4100.55,3.1659620139616167
580,4103.22,3.1739228945883577
581,4105.889999999999,3.1892177752150976
582,4108.56,3.3276216558418383
583,4111.24,3.332446536021488
584,4113.91,3.289698416648229
585,4116.58,3.313887297274969
586,4119.25,3.38551017790171
587,4121.929999999999,3.8000710580813593
588,4124.6,3.6718189387080997
589,4127.27,3.52811881933484
