,lambda (Angstroms),Total Flux (erg/s/cm^2/Angstrom)
0,102.05000000000001,11.988988641482106
1,103.95,11.954817918415623
2,104.712855,11.941098283315288
3,105.88,11.83083759474364
4,108.10000000000001,11.62111324317218
5,110.11,11.431227683967988
6,113.98,11.065627128343037
7,117.97999999999999,10.687745418658125
8,120.22644299999999,10.475523028137738
9,121.01,10.413462557532226
10,124.97,10.099816584707558
11,127.0,9.939033423593902
12,127.88000000000001,9.869334323104916
13,130.86,9.633307816777451
14,132.07,9.537471570611471
15,133.91,9.391737092254358
16,137.03,9.144622142225643
17,138.038426,9.06475126015091
18,139.9,8.959361283349242
19,143.16,8.77480214888635
20,146.83,8.5670321405443
21,150.95000000000002,8.333785420268208
22,155.17,8.094877470287399
23,158.489319,7.906960118359558
24,159.14999999999998,7.878682578690735
25,162.10999999999999,7.75199289852894
26,165.89,7.590206930813065
27,170.14999999999998,7.407876659037871
28,172.91,7.289747397266296
29,176.94000000000003,7.117261563084648
30,179.81,6.994424390703855
31,181.89000000000001,6.905399566048812
32,181.970086,6.901971854487081
33,186.13000000000002,6.766140192240175
34,190.91,6.610061625088695
35,194.01000000000002,6.508839249117149
36,198.07000000000002,6.376270639705641
37,202.22,6.240763612226637
38,205.03,6.149010980025913
39,208.929613,6.021679443203597
40,209.81,6.00006737638838
41,216.17999999999998,5.843696586775977
42,220.20000000000002,5.745013610170534
43,222.75,5.682416415828724
44,226.89000000000001,5.580788216162376
45,230.05,5.503237282561781
46,233.79,5.411475326885126
47,239.78,5.264465969193934
48,239.88329199999998,5.261930366013027
49,245.93,5.147547147491346
50,252.24,5.028198290070658
51,256.93,4.939456411406469
52,259.91,4.883113669007473
53,264.13,4.803299207110913
54,269.04,4.710425843981026
55,274.04,4.6158495106424455
56,275.42287,4.589692093229372
57,279.14,4.535733774813337
58,283.67,4.469978271415178
59,290.28000000000003,4.374013891694684
60,295.68,4.2956346096193965
61,301.18,4.215790587059379
62,308.19,4.114037289199976
63,316.227766,3.9973662212726504
64,318.29,3.9750100046291457
65,327.96,3.8701737911735323
66,337.92,3.762190918212114
67,348.19000000000005,3.6508449105720766
68,357.12,3.5540287253105847
69,363.078055,3.4894336323547406
70,366.29,3.463356853150778
71,374.82,3.394102542774963
72,385.32,3.3088375592267725
73,395.2,3.228633341894761
74,405.34000000000003,3.1463062935882213
75,413.83000000000004,3.077372058739256
76,416.86938299999997,3.052692986725013
77,421.52000000000004,3.0238568743787457
78,430.34999999999997,2.9691053888665304
79,441.39,2.900656232817168
80,450.63,2.8433611782138972
81,460.07,2.7848259011832837
82,469.7,2.7251137999616932
83,478.630092,2.6697427944501846
84,479.53000000000003,2.665451589177313
85,489.58000000000004,2.6175197569272535
86,499.83,2.568643898518487
87,505.61,2.5410769778218354
88,511.46999999999997,2.5131606390017014
89,519.7800000000001,2.4735311958623982
90,529.4399999999999,2.4274582920268193
91,540.53,2.37455878927148
92,549.5408739999999,2.331588588207672
93,550.58,2.3278086762523067
94,559.53,2.2952690578263932
95,569.9300000000001,2.2574463885487943
96,580.52,2.218913124227183
97,589.96,2.184585482798286
98,599.54,2.149720443868537
99,610.6899999999999,2.1091127511435155
100,620.61,2.0731068321402684
101,630.7,2.036399727050271
102,630.957344,2.0354639632047156
103,639.47,2.0109294020980135
104,649.86,1.9809753571167894
105,657.38,1.9592847939839884
106,665.0,1.9373360018289423
107,674.25,1.910676859221308
108,685.1999999999999,1.8790753205355137
109,694.7399999999999,1.8516245441933692
110,704.4,1.8237306731645317
111,715.8499999999999,1.790795465767514
112,724.43596,1.7660516768138017
113,725.8000000000001,1.763134592040247
114,734.21,1.7451560598884375
115,744.42,1.723324402167156
116,754.7800000000001,1.7011748330317518
117,765.28,1.6786619530431668
118,774.14,1.6597984860489892
119,784.9100000000001,1.636755358914983
120,795.83,1.6134357333668545
121,805.0400000000001,1.593765741739724
122,814.37,1.5738345843812955
123,825.69,1.5496634363955064
124,831.763771,1.536576020652256
125,835.26,1.5309328556436872
126,844.93,1.515663665998961
127,854.71,1.5000494790077072
128,864.61,1.484287371820242
129,874.62,1.4683383702862491
130,884.75,1.452204466556045
131,894.99,1.4358857264793132
132,905.36,1.4193189803566857
133,915.84,1.4029225528875304
134,924.31,1.3950271002049213
135,935.02,1.385465168193027
136,945.84,1.380045222834605
137,954.6,1.3759059505111508
138,954.992586,1.3754947522433356
139,965.65,1.36470049938328
140,974.58,1.3176851683394952
141,985.8699999999999,1.3297752030780927
142,994.99,1.3165228171184824
143,1004.1999999999999,1.3169565377776924
144,1015.83,1.2964733552984968
145,1025.23,1.2531838610418813
146,1034.71,1.2545190415575502
147,1044.29,1.270475980538574
148,1053.95,1.2548539342918819
149,1066.15,1.2235419770652107
150,1076.02,1.2180195195957646
151,1085.97,1.1906203368986024
152,1096.02,1.1904817826667955
153,1096.4782,1.1896741596354077
154,1106.16,1.175356736098934
155,1113.83,1.1642221612295056
156,1124.14,1.1449967102642113
157,1134.54,1.1460268480683764
158,1145.04,1.1266685245052734
159,1155.6299999999999,1.1170319097116301
160,1166.32,1.1058282335507186
161,1174.41,1.073992422938766
162,1185.28,1.0795473143167733
163,1196.24,1.0457418644642393
164,1204.54,1.0224200809810247
165,1215.68,0.992723508667409
166,1224.1100000000001,1.0080730034067464
167,1235.43,1.017410268632049
168,1244.0,1.014044901457212
169,1255.51,0.9971232140847059
170,1258.92541,0.9891375815628756
171,1264.21,0.9787267764746345
172,1275.91,0.9862291198571059
173,1284.75,0.9823324821905288
174,1293.66,0.958318649689488
175,1305.63,0.9466302629961704
176,1314.68,0.9549784408262018
177,1323.79,0.9435548030838355
178,1336.04,0.9242358370526627
179,1345.3000000000002,0.9285811703793023
180,1354.63,0.9177935788714784
181,1364.02,0.9012911417912569
182,1373.47,0.8962109291386376
183,1386.1799999999998,0.8858838670524167
184,1395.7900000000002,0.8649795862067371
185,1405.46,0.8584361397886603
186,1415.21,0.8547124292740531
187,1425.02,0.8469890131870486
188,1434.89,0.8385959815276463
189,1441.52,0.8366135907777135
190,1445.43977,0.8338114213124951
191,1448.17,0.8326131611241011
192,1454.8500000000001,0.8263732801539558
193,1464.94,0.8142352835089314
194,1475.09,0.8079656309869295
195,1485.32,0.8028867639622911
196,1495.61,0.7975817610606755
197,1505.98,0.7872383436564232
198,1512.93,0.7752428812398799
199,1516.42,0.7775892610623639
200,1523.42,0.771187362081673
201,1533.98,0.7552390277336593
202,1544.61,0.7528392181958387
203,1555.32,0.7426531941553813
204,1566.1,0.7384104449251172
205,1573.33,0.7387768017493463
206,1584.23,0.7351202507651277
207,1595.22,0.7301082059654427
208,1606.27,0.7210602352887805
209,1613.69,0.716522305169248
210,1624.87,0.7058988134258017
211,1636.14,0.7033992878668891
212,1643.6899999999998,0.6997963266805727
213,1655.08,0.6873898493677054
214,1659.58691,0.6870183566761001
215,1666.55,0.687775291905665
216,1670.3999999999999,0.6777860229796913
217,1678.11,0.6842770671565074
218,1685.8500000000001,0.6835955674196146
219,1693.63,0.6752633957977766
220,1705.37,0.6673847075663658
221,1713.24,0.6607352342034012
222,1725.12,0.6550422843746821
223,1733.08,0.6566143292705909
224,1745.1,0.6496326378445636
225,1753.15,0.6507500409993455
226,1765.3,0.6390265059472465
227,1773.45,0.6373678893896658
228,1785.7500000000002,0.633489184769022
229,1793.99,0.6348450864703148
230,1806.42,0.6286472482235993
231,1814.76,0.6195129502125288
232,1823.14,0.6171933803165132
233,1835.78,0.6089177146738356
234,1844.25,0.5989926830366934
235,1857.03,0.5944013957967076
236,1865.6000000000001,0.5932400044472023
237,1874.21,0.5941714512127519
238,1882.8700000000001,0.58475155812212
239,1895.92,0.5768367956587543
240,1904.67,0.5767555108269957
241,1905.46072,0.5762109560217361
242,1913.4599999999998,0.571656921350866
243,1926.72,0.5652417558568823
244,1935.6200000000001,0.5632617736324136
245,1944.55,0.5657875387937051
246,1953.53,0.5581558829312638
247,1967.07,0.5606505797043755
248,1976.15,0.5593418317944682
249,1985.27,0.5528565870655744
250,1994.43,0.5480608955176942
251,2003.6399999999999,0.5466410329460812
252,2012.8899999999999,0.5420167135554819
253,2026.84,0.5392463079339831
254,2036.2,0.534185532291171
255,2045.59,0.5341218240341195
256,2055.04,0.5258752805485881
257,2064.52,0.523932294448817
258,2074.05,0.5277083573253127
259,2078.83,0.5276313074564409
260,2083.62,0.5304502633828224
261,2093.2400000000002,0.5224862184165989
262,2102.9,0.5193236566313891
263,2112.61,0.5183022838224464
264,2127.25,0.5130733780734327
265,2137.07,0.5043745190122775
266,2146.94,0.5059750289273891
267,2156.85,0.5051363220235146
268,2166.8,0.49755128830065337
269,2176.8,0.49427732355405934
270,2186.85,0.4933420277837325
271,2187.7616199999998,0.49334210840397
272,2196.95,0.49431601283385934
273,2207.0899999999997,0.48963170201449957
274,2217.27,0.4806275405607438
275,2227.51,0.47856365815539426
276,2232.64,0.48618628179412055
277,2242.95,0.48016836327857826
278,2253.3,0.47103555412863995
279,2263.7,0.469132839185707
280,2274.15,0.4700843184497789
281,2284.65,0.47399497192085605
282,2295.19,0.46438793475753726
283,2305.79,0.4662363466426247
284,2316.43,0.4588396078933163
285,2327.12,0.4412441033510129
286,2332.4900000000002,0.44619348318336366
287,2343.25,0.4378251325308676
288,2354.07,0.4474573209267776
289,2364.94,0.43367737352969266
290,2375.85,0.4359988554982119
291,2386.82,0.4240302365151372
292,2392.32,0.42809883928570147
293,2403.36,0.423780844192434
294,2414.46,0.4242091981475727
295,2425.6,0.43311926146831553
296,2436.8,0.4286468238374645
297,2442.4100000000003,0.4338903698634399
298,2453.69,0.43201103096379717
299,2465.0099999999998,0.42595814142975846
300,2476.39,0.4188624309441259
301,2487.82,0.4105385846654984
302,2493.56,0.4069581836296872
303,2505.0699999999997,0.4199361260822681
304,2510.8399999999997,0.39936964957066
305,2511.88643,0.3988989970154497
306,2516.63,0.39703334146945835
307,2522.43,0.39526238243539996
308,2534.0699999999997,0.39972132244291025
309,2545.77,0.3983080895638612
310,2557.52,0.4114629342793462
311,2563.42,0.4023968504343557
312,2575.25,0.408727021301095
313,2587.14,0.40342001928127524
314,2593.1,0.39902450254972555
315,2605.0699999999997,0.3922625166811601
316,2617.09,0.3875308084071284
317,2623.13,0.39541887782683305
318,2635.24,0.4109369152229627
319,2647.3999999999996,0.42769903021362643
320,2653.4999999999995,0.44653183674677177
321,2665.75,0.4140810974075966
322,2678.05,0.42118340566295526
323,2684.23,0.4279476083473551
324,2696.6200000000003,0.407144362272875
325,2702.84,0.417892363032902
326,2715.3100000000004,0.3980916131096762
327,2727.84,0.3890286002998914
328,2734.13,0.39888360769226583
329,2746.75,0.37041144055264213
330,2753.08,0.37937479602064383
331,2765.7900000000004,0.3892104845511811
332,2772.17,0.3938056776137169
333,2784.96,0.3699310322955086
334,2797.8199999999997,0.34212474360964806
335,2804.27,0.3465885133045312
336,2817.21,0.38089291076992493
337,2823.71,0.40175049805934215
338,2836.74,0.39501712119489707
339,2843.28,0.37873580655994143
340,2856.4,0.35605799536565746
341,2862.9900000000002,0.39376040832523584
342,2876.2,0.409031922801113
343,2882.83,0.40028715383631863
344,2884.0315,0.4012265543894691
345,2896.14,0.41128073800916354
346,2909.51,0.4414734824859118
347,2929.6699999999996,0.4241038600215321
348,2949.98,0.4146833530150067
349,2970.43,0.4185112271024788
350,2991.02,0.41795398228394814
351,3011.7500000000005,0.41855471855941484
352,3032.63,0.421169570292736
353,3046.63,0.42516647969247234
354,3067.75,0.4310617561583603
355,3089.0099999999998,0.42767481371824567
356,3110.42,0.4402589867359853
357,3131.9799999999996,0.42864717521157936
358,3146.4399999999996,0.42648396534873556
359,3168.2500000000005,0.4366269129207534
360,3190.21,0.4143506759506256
361,3212.32,0.42718915443835204
362,3227.1499999999996,0.40329031603821563
363,3249.52,0.4460861879862229
364,3272.05,0.4700319097559415
365,3287.1499999999996,0.46478509917994293
366,3309.93,0.4537154800460853
367,3311.31121,0.452772886295822
368,3325.21,0.4437603412586629
369,3332.8799999999997,0.4555574752351007
370,3340.5600000000004,0.4311415835713512
371,3348.26,0.47270224062722743
372,3355.98,0.46206524640272933
373,3363.7200000000003,0.39379640089785684
374,3371.47,0.41396822975279723
375,3379.2400000000002,0.46179320732736323
376,3387.0299999999997,0.44979743362155494
377,3394.84,0.44748230863537225
378,3402.67,0.48657973236881524
379,3410.5099999999998,0.44071283046207105
380,3418.37,0.4295581772749525
381,3426.25,0.45146437280745955
382,3434.15,0.47753351705959224
383,3442.0699999999997,0.42650151003135073
384,3449.9999999999995,0.441109977362922
385,3457.96,0.4515724677739317
386,3465.93,0.42856873254475425
387,3473.9199999999996,0.46670144603520247
388,3481.93,0.43566110824527626
389,3489.95,0.45753584481516296
390,3498.0,0.4342929044644881
391,3506.06,0.4757600384736261
392,3514.14,0.4400009212023897
393,3522.24,0.469330252650779
394,3530.36,0.4277738328187939
395,3538.5,0.4716866617064345
396,3546.66,0.4786866393137007
397,3554.84,0.4773343656405926
398,3563.0299999999997,0.4596412663272974
399,3571.24,0.41904991573362776
400,3579.48,0.4355140882193966
401,3587.73,0.38865573506497825
402,3595.9999999999995,0.4472368306301856
403,3604.29,0.47500707491501853
404,3612.6000000000004,0.41550786791947714
405,3620.92,0.4439324352837486
406,3621.93,0.4610992456248441
407,3624.6699999999996,0.4402614202135586
408,3627.42,0.43028756916208577
409,3630.16,0.4548171437508002
410,3632.9,0.4508705183395145
411,3635.64,0.468106792928229
412,3638.3900000000003,0.4669906418767562
413,3641.13,0.46112031646547047
414,3643.8700000000003,0.47285999105418497
415,3646.61,0.4854875656428993
416,3649.3599999999997,0.5018122145914266
417,3652.1,0.504736389180141
418,3654.8399999999997,0.5055253637688554
419,3657.5800000000004,0.4864422383575697
420,3660.33,0.48545288730609704
421,3663.07,0.4788215618948114
422,3665.81,0.48083663648352576
423,3668.5499999999997,0.4880311110722402
424,3671.3,0.4629416600207674
425,3674.04,0.4663520346094818
426,3676.78,0.4640755091981962
427,3679.52,0.4689656837869106
428,3682.2700000000004,0.4676382327354378
429,3685.01,0.4810691073241522
430,3687.75,0.48811558191286664
431,3690.4900000000002,0.48586035650158105
432,3693.24,0.47924760545010825
433,3695.98,0.48555418003882267
434,3698.72,0.4831720546275371
435,3701.4599999999996,0.4656322292162515
436,3704.21,0.4792298781647787
437,3706.95,0.49177285275349314
438,3709.69,0.47894732734220746
439,3712.43,0.4894609019309219
440,3715.1800000000003,0.5257210508794491
441,3717.92,0.5792343254681636
442,3720.66,0.576281500056878
443,3723.4,0.5132050746455923
444,3726.1499999999996,0.4786869235941196
445,3728.8900000000003,0.4456721981828339
446,3731.63,0.45713707277154836
447,3734.38,0.45549242172007554
448,3737.12,0.44425239630879
449,3739.8599999999997,0.4233722708975044
450,3742.6,0.4406084454862188
451,3745.35,0.457229294434746
452,3748.09,0.4727318690234604
453,3750.83,0.4739647436121748
454,3753.57,0.4672911182008892
455,3756.32,0.4758149671494164
456,3759.0600000000004,0.47161484173813073
457,3761.8,0.47914751632684516
458,3764.54,0.5074402909155596
459,3767.29,0.5201287398640868
460,3770.0299999999997,0.5385276144528013
461,3772.7699999999995,0.5484704890415156
462,3775.51,0.54581356363023
463,3778.2599999999998,0.5321820125787573
464,3781.0,0.5006684871674717
465,3783.74,0.4880543617561861
466,3786.48,0.47364323634490046
467,3789.23,0.4748102852934277
468,3791.9700000000003,0.48063065988214204
469,3794.71,0.5027291344708564
470,3797.45,0.5213607090595709
471,3800.2000000000003,0.525381558008098
472,3801.8939600000003,0.5205629679782795
473,3802.94,0.5176124810967411
474,3805.6800000000003,0.49643876779379176
475,3808.42,0.48391135449084255
476,3811.1699999999996,0.47478545500795555
477,3813.91,0.4549434417050062
478,3816.6499999999996,0.4462636284020571
479,3819.39,0.4293389150991078
480,3822.14,0.4084591156162207
481,3824.88,0.4029080023132715
482,3827.62,0.40974518901032225
483,3830.3599999999997,0.42258627570737306
484,3833.11,0.455170576224486
485,3835.85,0.4799138629215367
486,3838.59,0.4804724496185875
487,3841.33,0.4994866363156383
488,3844.0800000000004,0.4946944368327512
489,3846.82,0.490834623529802
490,3849.5600000000004,0.4983273102268527
491,3852.3,0.5027545969239036
492,3855.0499999999997,0.5181937974410165
493,3857.79,0.5145454841380672
494,3860.5299999999997,0.5134762708351179
495,3863.27,0.5134640575321687
496,3866.02,0.4957549580492817
497,3868.7599999999998,0.4945800447463325
498,3871.5,0.48570993144338326
499,3874.24,0.47235811814043394
500,3876.9900000000002,0.4670163186575469
501,3879.73,0.4810836053545977
502,3882.4700000000003,0.4912399920516484
503,3885.21,0.5047365787486993
504,3887.9599999999996,0.5174063792658122
505,3890.7000000000003,0.5398664659628629
506,3893.44,0.5387973526599137
507,3896.1800000000003,0.5560781393569645
508,3898.93,0.5635471398740775
509,3901.67,0.5699617265711281
510,3904.41,0.575255813268179
511,3907.1499999999996,0.5614178999652297
512,3909.9,0.5539617004823427
513,3912.64,0.5164463871793934
514,3915.38,0.4885287738764442
515,3918.12,0.4541208605734949
516,3920.8700000000003,0.4006212610906079
517,3923.61,0.38113854778765865
518,3926.35,0.37920663448470937
519,3929.1,0.4231393350018224
520,3931.8399999999997,0.45963652169887315
521,3934.58,0.4934279083959239
522,3937.32,0.5285089950929747
523,3940.07,0.5465693956100877
524,3942.81,0.5546117823071384
525,3945.5499999999997,0.5382369690041892
526,3948.29,0.52169295570124
527,3951.04,0.48535905621835285
528,3953.78,0.44245294291540366
529,3956.52,0.39916612961245435
530,3959.26,0.38101521630950513
531,3962.01,0.39442541682661814
532,3964.75,0.44768700352366886
533,3967.4900000000002,0.5003989902207195
534,3970.23,0.5500247769177704
535,3972.98,0.5834753774348833
536,3975.72,0.6031661641319341
537,3978.4599999999996,0.6087985508289848
538,3981.2,0.6252338375260357
539,3983.95,0.6267198380431486
540,3986.69,0.6286105247401994
541,3989.43,0.6416632114372501
542,3992.17,0.6479510981343009
543,3994.92,0.6419532986514138
544,3997.6600000000003,0.6442244853484645
545,4000.4,0.6538947720455153
546,4003.14,0.6696324587425662
547,4005.89,0.6773547592596791
548,4008.63,0.6758841459567297
549,4011.3700000000003,0.6643082326537806
550,4014.11,0.6778261193508314
551,4016.8599999999997,0.6716591198679442
552,4019.6,0.6574831065649951
553,4022.3399999999997,0.6496489932620458
554,4025.08,0.6493199799590965
555,4027.83,0.6670416804762096
556,4030.57,0.6655076671732603
557,4033.31,0.652409653870311
558,4036.0499999999997,0.6565412405673619
559,4038.8,0.6607542410844748
560,4041.54,0.6605731277815255
561,4044.28,0.6599903144785764
562,4047.02,0.6396412011756271
563,4049.77,0.64222650169274
564,4052.5099999999998,0.6477320883897908
565,4055.2500000000005,0.6533222750868415
566,4057.9900000000002,0.6555934617838923
567,4060.74,0.6490459623010052
568,4063.48,0.656686848998056
569,4066.22,0.6452167356951067
570,4068.9599999999996,0.6525827223921576
571,4071.71,0.6695011229092704
572,4074.45,0.6917290096063212
573,4077.19,0.689919996303372
574,4079.93,0.6816421830004229
575,4082.6800000000003,0.6639958835175357
576,4085.42,0.6446614702145865
577,4088.1600000000003,0.6168497569116372
578,4090.9,0.594724643608688
579,4093.6499999999996,0.597183344125801
580,4096.389999999999,0.6183327308228518
581,4099.13,0.6280454175199025
582,4101.87,0.6615832042169532
583,4104.62,0.6624139047340663
584,4107.36,0.674536591431117
585,4110.099999999999,0.6651804781281677
586,4112.84,0.6682972648252183
587,4115.59,0.6650476653423314
588,4118.33,0.6646762520393823
589,4121.07,0.664917938736433
590,4123.820000000001,0.6639727392535459
591,4126.56,0.6706199259505967
592,4129.3,0.6718130126476475
593,4132.04,0.6619916993446983
594,4134.79,0.6515332998618112
595,4137.53,0.659787286558862
596,4140.2699999999995,0.6560545732559128
