,lambda (Angstroms),Total Flux (erg/s/cm^2/Angstrom)
0,100.05999999999999,14.787896910691156
1,101.92,14.74675893949612
2,104.05,14.699649327316521
3,104.712855,14.684988838140397
4,105.99000000000001,14.536612228123486
5,107.96,14.30774086139656
6,109.97,14.074222360509582
7,114.09,13.59556752285513
8,118.1,13.129692305033902
9,120.22644299999999,12.882645653882493
10,121.13000000000001,12.794636171575274
11,125.10000000000001,12.407944849911635
12,127.13000000000001,12.210216038180342
13,128.01,12.124501086238848
14,131.0,11.833265054538336
15,131.9,11.745602040153726
16,134.05,11.536184827755198
17,136.85,11.26345544581363
18,138.038426,11.14769876868211
19,140.04000000000002,11.008344537067192
20,142.97,10.804351269037582
21,146.98,10.525166167490724
22,151.1,10.238322324714634
23,154.97,9.968884105349508
24,158.489319,9.723861134969981
25,158.95,9.699612869561419
26,161.9,9.544337580449799
27,166.06,9.325373153137889
28,169.93,9.12167310400803
29,173.08,8.955870767118098
30,177.11999999999998,8.743222730807178
31,179.99,8.59215844944488
32,181.970086,8.487935365788303
33,182.07999999999998,8.483521666294811
34,185.89000000000001,8.330527624874312
35,191.1,8.121315336583272
36,194.2,7.996832106140923
37,197.81,7.8518694592949325
38,201.95999999999998,7.685222655192674
39,204.76999999999998,7.572384804742711
40,208.929613,7.405351792429923
41,210.02,7.3724332877956735
42,215.9,7.1949186746669
43,219.92000000000002,7.07355652910184
44,222.98,6.981176259825601
45,227.12,6.856191548850689
46,229.75,6.776800679482254
47,234.01999999999998,6.647905231309169
48,239.88329199999998,6.47090612298608
49,240.03,6.467493347006604
50,246.18,6.324417231127988
51,251.92,6.190886581840615
52,257.19,6.068276043907347
53,260.16999999999996,5.998958390491743
54,263.79,5.914747324742247
55,268.69,5.8007550483849775
56,273.69,5.684435996279599
57,275.42287,5.644122884950816
58,278.78,5.584185609110644
59,283.96000000000004,5.491703663977097
60,289.90999999999997,5.385470359026535
61,295.98,5.2770999591270895
62,300.79,5.191222083050939
63,307.79,5.066247887002632
64,316.227766,4.91560473740464
65,317.88,4.893573039815106
66,328.28999999999996,4.754758542428707
67,338.27000000000004,4.621677163652504
68,347.74,4.4953961084790945
69,356.66,4.376450335004773
70,363.078055,4.290868502629717
71,365.81,4.263587585654519
72,375.2,4.169816517980214
73,384.82000000000005,4.073742857499723
74,394.69,3.975185265673379
75,404.82,3.8740268554313446
76,414.24999999999994,3.7798548126777045
77,416.86938299999997,3.753696094087479
78,421.95000000000005,3.714949770777712
79,429.79,3.6551600062532787
80,440.82000000000005,3.5710464931136734
81,451.08000000000004,3.4928009127880753
82,459.47,3.428815250867922
83,470.17,3.3472145527057484
84,478.630092,3.2826985275409237
85,480.02000000000004,3.27454690071785
86,490.07,3.215597119270916
87,500.33,3.15542511178927
88,506.13,3.1214062694019846
89,511.99,3.087077823976211
90,520.3,3.0383405921454627
91,529.98,2.981566254902545
92,539.83,2.9237848161172413
93,549.5408739999999,2.866852803278396
94,549.87,2.865381058559207
95,560.09,2.8196861774569837
96,570.5,2.773136199898751
97,579.77,2.731656103276578
98,590.5500000000001,2.6834655764619035
99,600.15,2.6405156547056086
100,609.9,2.596907887415621
101,619.8100000000001,2.5526521946363605
102,629.88,2.50762515016783
103,630.957344,2.502807908407971
104,640.11,2.47037078275329
105,650.52,2.433504222836344
106,658.0500000000001,2.40682675771717
107,665.67,2.379855480173066
108,674.93,2.3470477159302305
109,684.32,2.313734331562495
110,695.4399999999999,2.274483989471099
111,705.11,2.2401409248035806
112,716.5699999999999,2.1997089036624473
113,724.43596,2.17187224336888
114,726.54,2.166349677993834
115,734.95,2.144282258811481
116,745.17,2.1175128129216305
117,755.54,2.090326736089169
118,764.29,2.067339176436899
119,774.9200000000001,2.039582214303913
120,785.7,2.011299075228317
121,794.8,1.987517476709957
122,805.86,1.9585648295414884
123,815.1899999999999,1.9341409099111255
124,824.63,1.909539924922848
125,831.763771,1.8904596845294834
126,834.1800000000001,1.885603725144375
127,845.78,1.8634521355493918
128,855.5699999999999,1.8443248005032815
129,865.48,1.8251301428406708
130,875.5,1.8056893028629357
131,885.64,1.7860627942687004
132,895.9,1.7661391720579656
133,904.1899999999999,1.7499442382181025
134,914.6600000000001,1.7308448136784929
135,925.25,1.7372484195223836
136,935.96,1.7552582157497745
137,944.62,1.803343648759037
138,954.992586,1.8388028709243085
139,955.5600000000001,1.8407667276498167
140,964.4,1.8502522740804486
141,975.57,1.6440048730883836
142,984.6,1.7777373123042888
143,995.9999999999999,1.7693302794207137
144,1005.21,1.8501290475910883
145,1014.51,1.8240103102386982
146,1023.9,1.6425560673635429
147,1035.76,1.6984394506969462
148,1045.34,1.874263640607065
149,1055.01,1.850125824994418
150,1064.78,1.7488877476898101
151,1074.63,1.7935844210316332
152,1084.57,1.6959185888506916
153,1094.6100000000001,1.7803149949777883
154,1096.4782,1.7740228635533128
155,1104.73,1.7491106551074087
156,1114.96,1.7189115191794806
157,1125.27,1.665745055111354
158,1135.69,1.7467596648504538
159,1146.19,1.691892646449355
160,1154.14,1.7077643625170942
161,1164.82,1.7058794558005477
162,1175.6,1.5517162889087532
163,1183.74,1.66701635064352
164,1194.7,1.5188190954362775
165,1205.75,1.4190730460713112
166,1214.1100000000001,1.3393192554205313
167,1225.3400000000001,1.4726032177401178
168,1233.84,1.6146522028439905
169,1245.25,1.6431865768481293
170,1253.89,1.6090683377066535
171,1258.92541,1.5731689983725492
172,1265.49,1.5293391411921138
173,1274.2600000000002,1.6442260475108372
174,1286.05,1.6592716757317894
175,1294.96,1.5304094314102183
176,1303.94,1.5182195117685007
177,1316.01,1.6216510387088647
178,1325.1299999999999,1.588310468426853
179,1334.31,1.517530562156144
180,1343.56,1.6012657805652877
181,1355.99,1.5715046915734667
182,1365.3899999999999,1.503130120010867
183,1374.86,1.51876527312812
184,1384.39,1.5154596902566757
185,1393.98,1.4296870713965342
186,1403.6499999999999,1.436246537884796
187,1413.3799999999999,1.44918966838436
188,1426.45,1.4486775621797663
189,1436.3400000000001,1.4387503633761374
190,1442.97,1.4609111866250695
191,1445.43977,1.4647764157072936
192,1446.3000000000002,1.46641466382167
193,1456.3200000000002,1.4433010873949232
194,1466.4199999999998,1.3955358494797394
195,1476.5800000000002,1.3898975404482274
196,1483.4,1.3951564235589644
197,1493.68,1.3979319722947974
198,1504.0300000000002,1.3625560047282472
199,1510.98,1.3036243004202743
200,1517.95,1.3301811057401918
201,1524.96,1.3126774303158908
202,1535.53,1.2430961686561388
203,1546.17,1.2688604906940046
204,1553.31,1.2424658278509932
205,1564.08,1.2487621624701486
206,1574.9199999999998,1.2713343807869215
207,1585.83,1.2858479828013119
208,1596.83,1.2885921781412104
209,1604.2,1.2748202760189424
210,1615.3200000000002,1.2683634291261854
211,1626.51,1.2362610659310462
212,1634.02,1.2617297312040134
213,1645.35,1.2621803354041088
214,1656.75,1.2179899233018223
215,1659.58691,1.2319189410136846
216,1664.4,1.2566821920596836
217,1672.08,1.1980499039420582
218,1675.9399999999998,1.2600036705912725
219,1683.6699999999998,1.2769036092437145
220,1695.34,1.2372944573774791
221,1703.17,1.2154147495700562
222,1714.98,1.1864169726600096
223,1726.8600000000001,1.1787977332280577
224,1734.83,1.2084880003768241
225,1746.8600000000001,1.1902581412550748
226,1754.92,1.2202807565899625
227,1763.0199999999998,1.1734083933409047
228,1775.2399999999998,1.179283335945412
229,1783.44,1.1853192262364887
230,1795.8,1.2140251437971852
231,1804.0900000000001,1.2056930822743839
232,1816.59,1.1600546747912697
233,1824.98,1.1660611668086032
234,1833.4,1.1438606748879772
235,1846.11,1.0970943798391466
236,1854.6299999999999,1.0977470414586559
237,1863.19,1.110514024494219
238,1876.11,1.139155441879672
239,1884.77,1.0964346784553707
240,1893.4699999999998,1.075334836447123
241,1905.46072,1.0939025618411502
242,1906.59,1.0958170478729434
243,1915.3899999999999,1.0766676668581248
244,1924.23,1.0622593795659658
245,1933.1200000000001,1.0684282594271322
246,1946.52,1.0923551565182037
247,1955.5,1.0583265972553548
248,1969.05,1.0986288958064012
249,1978.1399999999999,1.1082967442808669
250,1982.7,1.081285328664097
251,1996.4499999999998,1.0630347958284432
252,2005.6599999999999,1.0720426254708886
253,2014.92,1.0544612222666592
254,2024.2199999999998,1.0692751127850895
255,2033.5600000000002,1.0446942970261797
256,2042.95,1.0605521484205949
257,2057.11,1.026225826242205
258,2066.61,1.0279941853739347
259,2076.15,1.0651641382283246
260,2085.73,1.0613062848053743
261,2095.36,1.030107698535749
262,2105.0299999999997,1.0285333059887836
263,2114.74,1.031648007164478
264,2124.51,1.0336346489241621
265,2134.31,0.9951413109758416
266,2144.16,1.0058541401808458
267,2154.06,1.0193564365391747
268,2164.0,0.9990140266201637
269,2173.9900000000002,0.9926965838544775
270,2184.03,0.9841004082421163
271,2187.7616199999998,0.9911833110588568
272,2194.11,1.0040598390689814
273,2204.23,0.9884200792322626
274,2214.41,0.9608278743767488
275,2224.63,0.9461016728420384
276,2234.9,0.9754542504583326
277,2245.22,0.953535407225631
278,2255.58,0.9291679673137327
279,2265.99,0.9359104065528391
280,2276.45,0.9472348249429496
281,2286.96,0.9578583224840644
282,2297.51,0.9252971233459828
283,2302.81,0.9303693133524443
284,2313.44,0.9084528208559697
285,2324.12,0.8176303075104994
286,2334.84,0.8697279974858325
287,2345.62,0.8517267424423711
288,2356.45,0.885836866549914
289,2367.33,0.845065969808461
290,2372.7799999999997,0.8578080972679356
291,2383.73,0.8208081313378888
292,2394.74,0.8434574203890473
293,2405.79,0.8266425127610091
294,2416.9,0.8338544601141763
295,2422.47,0.8614097975360613
296,2433.65,0.8437102757006345
297,2444.88,0.8636065330162122
298,2456.17,0.8555633453129949
299,2467.5,0.8485667609305814
300,2473.19,0.8313664083148766
301,2484.6099999999997,0.8341809064042709
302,2496.08,0.7991828836446693
303,2507.6,0.8522514400360721
304,2511.88643,0.8108552273724214
305,2513.38,0.7965347881987802
306,2519.17,0.802748870115353
307,2524.98,0.7888656925566807
308,2536.63,0.7938386482264688
309,2542.4799999999996,0.7890630517173066
310,2554.22,0.8158638397484921
311,2566.01,0.8011177790915651
312,2577.85,0.8221149697465256
313,2583.7900000000004,0.8150188055987608
314,2595.7200000000003,0.805872628615119
315,2607.7,0.7902066029433645
316,2613.71,0.7815992306322423
317,2625.7799999999997,0.8010141373218854
318,2637.9,0.8155112953234158
319,2643.98,0.8533596148489362
320,2656.1800000000003,0.8644038349494867
321,2662.31,0.8148444057868945
322,2674.59,0.833365087986465
323,2686.94,0.8320460620226782
324,2693.13,0.806848354434351
325,2705.5600000000004,0.8189095905695838
326,2718.05,0.790980048279082
327,2724.32,0.7897656027897748
328,2736.8900000000003,0.8076314225982928
329,2743.2000000000003,0.7446013581584956
330,2755.86,0.7539717103284111
331,2762.2200000000003,0.7697125972005014
332,2774.97,0.7869516817318146
333,2787.78,0.7533455878373927
334,2794.2,0.674372996283748
335,2807.1000000000004,0.6937873347507235
336,2813.57,0.7734635945089663
337,2826.5600000000004,0.7986894653373393
338,2833.0699999999997,0.7818067061450922
339,2846.15,0.7681475093348629
340,2852.71,0.7464017014545032
341,2865.88,0.7889845370056712
342,2872.49,0.7877034804371991
343,2884.0315,0.783639302488493
344,2885.74,0.7831395482988752
345,2892.4,0.7801532490466863
346,2912.45,0.8179117169135952
347,2932.63,0.7962199495098157
348,2952.96,0.7848148798706265
349,2966.59,0.7927944434130687
350,2987.16,0.7911588701972242
351,3007.86,0.7939510617106913
352,3028.71,0.7911804509887486
353,3049.71,0.7894998380313963
354,3070.84,0.7912029898033557
355,3092.13,0.7917737058575447
356,3113.5600000000004,0.7900686531586847
357,3127.94,0.7802217055240787
358,3149.6200000000003,0.7807213157662026
359,3171.4500000000003,0.7800961237729168
360,3193.43,0.7505704295442215
361,3208.17,0.7661828765446324
362,3230.4100000000003,0.7392106117745602
363,3252.8,0.7670092447690784
364,3267.82,0.7823534542633911
365,3290.47,0.7758316167165327
366,3311.31121,0.7730667316493027
367,3313.28,0.772887862908348
368,3320.92,0.7710272276518251
369,3328.57,0.7809422770350185
370,3336.24,0.7935134956976453
371,3343.93,0.7574028836397051
372,3351.6400000000003,0.767069340861198
373,3359.37,0.7722197673621244
374,3367.1099999999997,0.7645011785027672
375,3374.88,0.7214991435625597
376,3382.6600000000003,0.735940793262069
377,3390.45,0.7741422276012948
378,3398.27,0.7686883158596705
379,3406.1000000000004,0.7563238887577625
380,3413.9599999999996,0.7625698155750046
381,3421.8199999999997,0.7797024423922465
382,3429.71,0.7658406231286381
383,3437.6200000000003,0.7746460731444631
384,3445.5400000000004,0.7139515078000045
385,3453.4900000000002,0.7817008963746959
386,3461.45,0.7353905695891039
387,3469.43,0.7471155120829449
388,3477.42,0.7261819392165024
389,3485.44,0.7399600202692099
390,3493.48,0.7347111706013505
391,3501.5299999999997,0.7373539055732078
392,3509.6,0.7388891098244982
393,3517.69,0.7235972833552218
394,3525.8,0.7351425261653786
395,3533.9300000000003,0.7587483382549685
396,3542.0800000000004,0.7749201196239915
397,3550.2400000000002,0.7717305856327313
398,3558.42,0.7577250209209042
399,3566.63,0.7678155101282269
400,3574.85,0.7139675839752663
401,3583.0899999999997,0.7099466271017387
402,3591.35,0.6797033395076444
403,3599.6299999999997,0.7492423211929832
404,3607.93,0.7197828721577553
405,3610.12,0.7533692082556891
406,3612.86,0.7143359995380355
407,3615.59,0.7367931061806654
408,3618.3199999999997,0.7509078128232951
409,3621.05,0.728580619465925
410,3623.79,0.7219977107482715
411,3626.5199999999995,0.7293895173909013
412,3629.25,0.7379719240335312
413,3631.98,0.7581618306761609
414,3634.7200000000003,0.7802999219585074
415,3637.45,0.7424435286011373
416,3640.1800000000003,0.7624321352437671
417,3642.92,0.7688222265261135
418,3645.6499999999996,0.7838474331687433
419,3648.38,0.7772245398113731
420,3651.11,0.784117346454003
421,3653.8500000000004,0.7613573377363494
422,3656.58,0.7908087443789793
423,3659.31,0.7688142510216092
424,3662.04,0.746329457664239
425,3664.78,0.7709273489465853
426,3667.5099999999998,0.7512088555892152
427,3670.2400000000002,0.7562897622318451
428,3672.98,0.7447171535141914
429,3675.71,0.7609765601568214
430,3678.44,0.7644992667994512
431,3681.17,0.755880473442081
432,3683.9100000000003,0.7527552647244274
433,3686.64,0.7344285713670573
434,3689.3700000000003,0.7303266780096871
435,3692.1,0.7372457846523169
436,3694.8399999999997,0.7574668759346634
437,3697.57,0.7613046825772931
438,3700.3,0.7583846892199231
439,3703.0299999999997,0.765067495862553
440,3705.77,0.7566636871448993
441,3708.5,0.7564309937875292
442,3711.23,0.736528700430159
443,3713.97,0.7804898917125054
444,3716.7,0.7712671983551352
445,3719.4300000000003,0.807634004997765
446,3722.16,0.9280724116403949
447,3724.9,1.0968263029227414
448,3727.63,1.4424291095653712
449,3730.3599999999997,1.7423199162080012
450,3733.09,1.578086722850631
451,3735.83,1.1898370141329773
452,3738.5600000000004,0.9206195207756072
453,3741.29,0.8227736274182369
454,3744.0299999999997,0.8077255187005834
455,3746.76,0.8258845253432132
456,3749.49,0.8085296319858432
457,3752.22,0.7664190386284729
458,3754.96,0.7878742299108193
459,3757.69,0.8294583365534491
460,3760.42,0.8515304431960791
461,3763.15,0.8479801498387088
462,3765.89,0.8391033411210553
463,3768.62,0.8336798477636852
464,3771.35,0.797372854406315
465,3774.0800000000004,0.7876249610489447
466,3776.82,0.8360066523312912
467,3779.5499999999997,0.901908858973921
468,3782.28,0.9502685656165509
469,3785.02,0.9785948568988974
470,3787.7499999999995,0.9803671635415272
471,3790.48,0.958924370184157
472,3793.21,0.9134524768267869
473,3795.9500000000003,0.8639491681091332
474,3798.68,0.826723374751763
475,3801.41,0.7993627813943929
476,3801.8939600000003,0.8010720122906464
477,3804.14,0.8090706304850753
478,3806.88,0.8741126105831435
479,3809.61,0.9444194115567661
480,3812.34,0.9612935125303889
481,3815.08,0.956812592628457
482,3817.81,0.9684256936020798
483,3820.54,0.9702870945757025
484,3823.2699999999995,0.9331153955493251
485,3826.01,0.9101553756473932
486,3828.74,0.880730776621016
487,3831.4700000000003,0.8443205775946386
488,3834.2,0.8033145785682614
489,3836.9399999999996,0.7645282586663296
490,3839.67,0.7764474596399522
491,3842.4,0.8253688606135748
492,3845.13,0.8779407615871976
493,3847.87,0.9311297416852657
494,3850.6,0.9725668426588885
495,3853.33,1.0012936436325113
496,3856.0699999999997,1.0212179237305794
497,3858.8,1.022571724704202
498,3861.53,1.0323729256778247
499,3864.2599999999998,1.0472424266514473
500,3867.0,1.0608902067495156
501,3869.73,1.0558451077231383
502,3872.4599999999996,1.046834308696761
503,3875.19,1.0309782096703837
504,3877.93,0.9953773897684519
505,3880.6600000000003,0.9624163907420746
506,3883.39,0.9232313917156973
507,3886.1299999999997,0.8760672718137655
508,3888.86,0.8494962727873882
509,3891.5899999999997,0.8305147737610109
510,3894.32,0.8479227747346335
511,3897.06,0.8688105548327018
512,3899.7900000000004,0.9005571558063244
513,3902.52,0.9467825567799472
514,3905.25,0.9832213577535698
515,3907.9900000000002,1.006927437851638
516,3910.72,1.0173325388252608
517,3913.45,1.0317994397988834
518,3916.1800000000003,1.052507840772506
519,3918.92,1.0542855208705741
520,3921.6499999999996,1.043051321844197
521,3924.38,1.0170846228178196
522,3927.12,0.9919795029158879
523,3929.85,0.9323284038895105
524,3932.58,0.8889939048631332
525,3935.3100000000004,0.8473577058367558
526,3938.05,0.846685085934824
527,3940.7799999999997,0.9127113869084469
528,3943.51,0.9639702878820695
529,3946.24,1.000137688855692
530,3948.9800000000005,1.0156501689537603
531,3951.71,1.026956969927383
532,3954.44,1.0352000709010056
533,3957.1800000000003,0.9854356509990739
534,3959.91,0.9359213519726967
535,3962.64,0.8909500529463192
536,3965.37,0.8395881539199419
537,3968.11,0.7784797340180102
538,3970.84,0.7430586349916329
539,3973.57,0.7594334359652556
540,3976.2999999999997,0.8003626369388783
541,3979.04,0.8484049170369464
542,3981.77,0.923438818010569
543,3984.5000000000005,0.9819195189841918
544,3987.23,0.9989249199578145
545,3989.97,1.0273493000558829
546,3992.7000000000003,1.0535112010295054
547,3995.43,1.062498302003128
548,3998.1699999999996,1.0773278821011962
549,4000.9,1.081333983074819
550,4003.63,1.0777244840484417
551,4006.36,1.0861074850220644
552,4009.1,1.0957984651201327
553,4011.83,1.1064574660937552
554,4014.56,1.0829768670673778
555,4017.29,1.1174462680410007
556,4020.03,1.0996504481390688
557,4022.76,1.1257161491126915
558,4025.49,1.106699850086314
559,4028.23,1.0948565301843824
560,4030.96,1.0952737311580052
561,4033.6899999999996,1.0987547321316278
562,4036.42,1.0978589331052504
563,4039.16,1.0964326132033186
564,4041.8900000000003,1.1160204141769412
565,4044.62,1.112410815150564
566,4047.35,1.1136158161241867
567,4050.09,1.115603496222255
568,4052.8199999999997,1.0875709971958776
569,4055.55,1.1062833981695004
570,4058.28,1.112040499143123
571,4061.02,1.1014226792411912
572,4063.75,1.077591880214814
573,4066.48,1.0800224811884365
574,4069.2200000000003,1.0767579612865048
575,4071.95,1.0628452622601274
576,4074.68,1.0889722632337502
577,4077.4100000000003,1.0581558642073727
578,4080.15,1.042032244305441
579,4082.8799999999997,1.0383875452790636
580,4085.61,1.0603475462526863
581,4088.3399999999997,1.0333216472263091
582,4091.0800000000004,1.0140729273243771
583,4093.81,0.970616028298
584,4096.54,0.9546110292716227
585,4099.28,0.9256461093696908
586,4102.01,0.9022528103433135
587,4104.74,0.9209211113169362
588,4107.469999999999,0.9115862122905589
589,4110.21,0.9308720923886271
590,4112.94,0.9561322933622498
591,4115.67,0.9700913943358724
592,4118.4,0.9984416953094952
593,4121.139999999999,1.0290893754075634
594,4123.87,1.028858676381186
595,4126.6,1.0336438773548087
596,4129.34,1.0428974574528769
597,4132.07,1.0291685584264996
