,lambda (Angstroms),Total Flux (erg/s/cm^2/Angstrom)
0,100.05999999999999,0.005313606999930904
1,101.92,0.006387585367388665
2,104.05,0.007617463815805959
3,104.712855,0.008000201428521578
4,105.99000000000001,0.007384901729071771
5,107.96,0.006435800152448493
6,109.97,0.005467427667560092
7,114.09,0.0034825049467449134
8,118.1,0.0015505781167505996
9,120.22644299999999,0.0005261123831138804
10,121.13000000000001,0.0005059726125562729
11,125.10000000000001,0.00041747719069578726
12,127.13000000000001,0.0003722264847963449
13,128.01,0.0003526113424842226
14,131.0,0.0002859626301151917
15,131.9,0.0002659063355812023
16,134.05,0.00021798270779056135
17,136.85,0.0001555814908992621
18,138.038426,0.0001290933717750772
19,140.04000000000002,0.00012752590161915447
20,142.97,0.0001253698389581032
21,146.98,0.0001226433731552992
22,151.1,0.00011954506936713151
23,154.97,0.00011668519642751764
24,158.489319,0.00011412306824208357
25,158.95,0.00011359310212194807
26,161.9,0.00011021569341585517
27,166.06,0.00010550115577946655
28,169.93,0.00010114636160571081
29,173.08,9.763044258056078e-05
30,177.11999999999998,9.316134513560652e-05
31,179.99,9.002797855713644e-05
32,181.970086,8.78726461028761e-05
33,182.07999999999998,8.792875488043246e-05
34,185.89000000000001,8.994647741828001e-05
35,191.1,9.274168643197705e-05
36,194.2,9.449374891421521e-05
37,197.81,9.661685209836998e-05
38,201.95999999999998,9.906352243749527e-05
39,204.76999999999998,0.00010082624620687889
40,208.929613,0.00010308862111988462
41,210.02,0.00010583491177602471
42,215.9,0.00012172740939760655
43,219.92000000000002,0.0001324785480980758
44,222.98,0.00014053362845216426
45,227.12,0.0001517909006959311
46,229.75,0.00016657285835320322
47,234.01999999999998,0.00019208710443554243
48,239.88329199999998,0.00021903207985129986
49,240.03,0.0002190737616799623
50,246.18,0.0002082891330710723
51,251.92,0.000205282345702775
52,257.19,0.00018893883317125458
53,260.16999999999996,0.0001939987712274348
54,263.79,0.00019374588759098232
55,268.69,0.0001884814205692651
56,273.69,0.00018270675422057405
57,275.42287,0.00018075324059241372
58,278.78,0.00019048615943696262
59,283.96000000000004,0.00020585431781051656
60,289.90999999999997,0.00021946328364500387
61,295.98,0.00023877220310976685
62,300.79,0.00025125846945663825
63,307.79,0.0002734317345560353
64,316.227766,0.00030029858172150376
65,317.88,0.00029960813191723
66,328.28999999999996,0.000292800409683282
67,338.27000000000004,0.00028546033169146625
68,347.74,0.0002780671294286912
69,356.66,0.00027221601863841106
70,363.078055,0.000269191202422971
71,365.81,0.0002753111738382998
72,375.2,0.00029283621596665893
73,384.82000000000005,0.00030503962600657547
74,394.69,0.00033034557508079316
75,404.82,0.0003517483487506844
76,414.24999999999994,0.00036782373312453165
77,416.86938299999997,0.00037185757690854867
78,421.95000000000005,0.000377266206255487
79,429.79,0.0003860612667400326
80,440.82000000000005,0.0004024093798962237
81,451.08000000000004,0.00041361749068339693
82,459.47,0.00042156716714581246
83,470.17,0.00043369905071528165
84,478.630092,0.0004459029108756427
85,480.02000000000004,0.0004456171374702982
86,490.07,0.0004356918171039382
87,500.33,0.0004351195452672363
88,506.13,0.00043131850465779464
89,511.99,0.0004697941636282553
90,520.3,0.0004679060554447277
91,529.98,0.00046349988766896993
92,539.83,0.0004489847687029354
93,549.5408739999999,0.0004679685888843359
94,549.87,0.0004688195727173285
95,560.09,0.0005008882856958859
96,570.5,0.0005279701771936142
97,579.77,0.0005242751975763175
98,590.5500000000001,0.0005662844893482205
99,600.15,0.000569270582948431
100,609.9,0.0005855503280111448
101,619.8100000000001,0.0006697863813005288
102,629.88,0.0006985525428165829
103,630.957344,0.0007016292782320382
104,640.11,0.0007343077932061098
105,650.52,0.0007980838799411129
106,658.0500000000001,0.000833916561700438
107,665.67,0.0008952192623652529
108,674.93,0.0009380709075301068
109,684.32,0.0009364881800028907
110,695.4399999999999,0.0011352658158812032
111,705.11,0.001097325947171067
112,716.5699999999999,0.0013206026544701193
113,724.43596,0.0013890860488488803
114,726.54,0.0014070324264936075
115,734.95,0.0014854392931379237
116,745.17,0.0016280436078947502
117,755.54,0.0017490079321636634
118,764.29,0.0018025871537020422
119,774.9200000000001,0.0020373171611252384
120,785.7,0.0021408611780605216
121,794.8,0.0023220470884604354
122,805.86,0.0024933994564849465
123,815.1899999999999,0.0026379170481367264
124,824.63,0.002895029313430703
125,831.763771,0.0025999555834881538
126,834.1800000000001,0.0024982198969407325
127,845.78,0.0031710376339231933
128,855.5699999999999,0.0033067153274627006
129,865.48,0.0036111849631089233
130,875.5,0.0038859106290196344
131,885.64,0.004211082237037061
132,895.9,0.004475254787161202
133,904.1899999999999,0.004591901704366771
134,914.6600000000001,0.006093472403177664
135,925.25,0.03333418804409528
136,935.96,0.0724172086271196
137,944.62,0.13754224228248754
138,954.992586,0.19341078582274532
139,955.5600000000001,0.19646721891405555
140,964.4,0.22297450797649768
141,975.57,0.038235349653814255
142,984.6,0.18935538343592426
143,995.9999999999999,0.20289946661599667
144,1005.21,0.30143242592200253
145,1014.51,0.2932211779899564
146,1023.9,0.12984772281985815
147,1035.76,0.20856796900544228
148,1045.34,0.4028387985550119
149,1055.01,0.3973209208665295
150,1064.78,0.314895335135767
151,1074.63,0.37855854297118047
152,1084.57,0.3000325435685418
153,1094.6100000000001,0.4037613361236232
154,1096.4782,0.4010664919824902
155,1104.73,0.389162008827016
156,1114.96,0.3750889338459237
157,1125.27,0.3381746387281268
158,1135.69,0.43561481592236123
159,1146.19,0.3972994729798911
160,1154.14,0.425703171894878
161,1164.82,0.44065368364482266
162,1175.6,0.3034835702238866
163,1183.74,0.43161512131420027
164,1194.7,0.30069466258567906
165,1205.75,0.21836728120336524
166,1214.1100000000001,0.1517917769177414
167,1225.3400000000001,0.3027781502278424
168,1233.84,0.4582261107029856
169,1245.25,0.5047466387055014
170,1253.89,0.4842480639414117
171,1258.92541,0.4562862933807488
172,1265.49,0.41983471401602057
173,1274.2600000000002,0.5445786710330743
174,1286.05,0.5728756821198546
175,1294.96,0.454027841643452
176,1303.94,0.45193100242032114
177,1316.01,0.5689286185201886
178,1325.1299999999999,0.5458384818036014
179,1334.31,0.4853764461612472
180,1343.56,0.5795082117721648
181,1355.99,0.5637178343174302
182,1365.3899999999999,0.5059084026139302
183,1374.86,0.5321873721637019
184,1384.39,0.5395930427877068
185,1393.98,0.46459911448594454
186,1403.6499999999999,0.482027187616493
187,1413.3799999999999,0.5059063618212744
188,1426.45,0.5200842958250248
189,1436.3400000000001,0.5212729728944275
190,1442.97,0.5508855915971718
191,1445.43977,0.5575267212612899
192,1446.3000000000002,0.5598398487419298
193,1456.3200000000002,0.5445872993079128
194,1466.4199999999998,0.5047458510760195
195,1476.5800000000002,0.507078403745719
196,1483.4,0.5176878062267573
197,1493.68,0.5285283606996422
198,1504.0300000000002,0.5012723162243852
199,1510.98,0.44779312065887444
200,1517.95,0.47981812539389457
201,1524.96,0.4678140307299765
202,1535.53,0.4065252895605595
203,1546.17,0.44063704944300064
204,1553.31,0.4198439567325335
205,1564.08,0.4345897185684255
206,1574.9199999999998,0.4656662814561756
207,1585.83,0.48873914539578395
208,1596.83,0.5001132106877814
209,1604.2,0.49212332143341964
210,1615.3200000000002,0.4943904885286024
211,1626.51,0.4710670566756434
212,1634.02,0.502427569524998
213,1645.35,0.5117669397757553
214,1656.75,0.47652021107837084
215,1659.58691,0.4926748800962158
216,1664.4,0.5200832818767945
217,1672.08,0.46567172464963064
218,1675.9399999999998,0.5297468482307696
219,1683.6699999999998,0.550894996490408
220,1695.34,0.517699377110069
221,1703.17,0.500122836343312
222,1714.98,0.47761553232601955
223,1726.8600000000001,0.4765252359902504
224,1734.83,0.5105956105865399
225,1746.8600000000001,0.4989771307111776
226,1754.92,0.5334293151837113
227,1763.0199999999998,0.4910085040456868
228,1775.2399999999998,0.5035992450201734
229,1783.44,0.5141416448557535
230,1795.8,0.5496403011932864
231,1804.0900000000001,0.545864210905111
232,1816.59,0.5070954826056904
233,1824.98,0.5177129032911194
234,1833.4,0.5001398272686298
235,1846.11,0.460358622013779
236,1854.6299999999999,0.465693656964894
237,1863.19,0.48316499630545084
238,1876.11,0.5189069140951699
239,1884.77,0.48094546440933134
240,1893.4699999999998,0.46462691911293474
241,1905.46072,0.4897844364734823
242,1906.59,0.4921534751893725
243,1915.3899999999999,0.4765462304207073
244,1924.23,0.4656961799940027
245,1933.1200000000001,0.4754434224947488
246,1946.52,0.504764027051554
247,1955.5,0.47435005682171155
248,1969.05,0.520106440160869
249,1978.1399999999999,0.5334331543714182
250,1982.7,0.508257209354928
251,1996.4499999999998,0.4955412644038887
252,2005.6599999999999,0.5082562616403197
253,2014.92,0.49440215180420144
254,2024.2199999999998,0.5129594363100438
255,2033.5600000000002,0.49213811515784694
256,2042.95,0.5117755869331007
257,2057.11,0.4831488839871576
258,2066.61,0.488741140202803
259,2076.15,0.529751090760409
260,2085.73,0.5297493356599758
261,2095.36,0.5024269734869933
262,2105.0299999999997,0.5047449056559714
263,2114.74,0.5117680321669101
264,2124.51,0.5176872501907896
265,2134.31,0.48313856397113975
266,2144.16,0.4978161706789406
267,2154.06,0.5153033703141923
268,2164.0,0.4989619642914044
269,2173.9900000000002,0.4966656511960674
270,2184.03,0.49211073102818115
271,2187.7616199999998,0.5006956686697933
272,2194.11,0.5153023191432632
273,2204.23,0.5024205604547198
274,2214.41,0.4776027085328451
275,2224.63,0.4656617611220828
276,2234.9,0.4978132193502111
277,2245.22,0.47870688321723004
278,2255.58,0.45716285159536135
279,2265.99,0.4667423256123834
280,2276.45,0.48091740526829596
281,2286.96,0.4944051905630991
282,2297.51,0.4647191803690148
283,2302.81,0.4712357780914179
284,2313.44,0.4522162769195585
285,2324.12,0.3643043813865897
286,2334.84,0.4193235903647334
287,2345.62,0.4042602061095458
288,2356.45,0.4413218274932488
289,2367.33,0.4035160545158424
290,2372.7799999999997,0.4177434691549173
291,2383.73,0.38372770407195766
292,2394.74,0.4093775457556668
293,2405.79,0.3955740919504884
294,2416.9,0.40581384491197875
295,2422.47,0.4348871730843911
296,2433.65,0.4202345339403283
297,2444.88,0.44319130043515603
298,2456.17,0.4382249736966525
299,2467.5,0.43431615146926145
300,2473.19,0.4186664931750112
301,2484.6099999999997,0.42459328109762323
302,2496.08,0.3927211746591258
303,2507.6,0.44892927385951903
304,2511.88643,0.4087012409252728
305,2513.38,0.3946838920823982
306,2519.17,0.4020729393605799
307,2524.98,0.3893687857658019
308,2536.63,0.39670587726680645
309,2542.4799999999996,0.3931174219261092
310,2554.22,0.42230060949879533
311,2566.01,0.40994709488908243
312,2577.85,0.4333469780969703
313,2583.7900000000004,0.42745621882795465
314,2595.7200000000003,0.4207309981075241
315,2607.7,0.4074960752046945
316,2613.71,0.40010831288032
317,2625.7799999999997,0.421972586049172
318,2637.9,0.43892925703562485
319,2643.98,0.47801139165589157
320,2656.1800000000003,0.49153135915050583
321,2662.31,0.4432158915883735
322,2674.59,0.46422855559114906
323,2686.94,0.46541571653856595
324,2693.13,0.44147414635755466
325,2705.5600000000004,0.45605780381313293
326,2718.05,0.4306628586498323
327,2724.32,0.4307207849769824
328,2736.8900000000003,0.4511374363218431
329,2743.2000000000003,0.3893878609030739
330,2755.86,0.4013273083196162
331,2762.2200000000003,0.4183588307184479
332,2774.97,0.4381852742066718
333,2787.78,0.4071787150760168
334,2794.2,0.3295089348559695
335,2807.1000000000004,0.351541071796996
336,2813.57,0.4325302893945496
337,2826.5600000000004,0.46039222240725775
338,2833.0699999999997,0.444830538258892
339,2846.15,0.43382566734328176
340,2852.71,0.41341108101251695
341,2865.88,0.4586665061685882
342,2872.49,0.4587268176554243
343,2884.0315,0.45700475762053683
344,2885.74,0.45674991236609036
345,2892.4,0.4547183064169401
346,2912.45,0.4953508885069609
347,2932.63,0.4765518704808571
348,2952.96,0.46806105232076345
349,2966.59,0.4779944401455507
350,2987.16,0.4793075217710732
351,3007.86,0.48506700328047125
352,3028.71,0.4852851846558794
353,3049.71,0.48661486589729763
354,3070.84,0.49134694702259135
355,3092.13,0.4949695280049625
356,3113.5600000000004,0.49633640886227653
357,3127.94,0.4885507960171144
358,3149.6200000000003,0.49215817665111194
359,3171.4500000000003,0.49466225715111956
360,3193.43,0.46828733751713736
361,3208.17,0.4860127243503995
362,3230.4100000000003,0.4622285044841682
363,3252.8,0.49323668448394703
364,3267.82,0.5107339710670947
365,3290.47,0.5074589508346244
366,3311.31121,0.507681597841602
367,3313.28,0.5077025985992181
368,3320.92,0.5066175681400984
369,3328.57,0.5173092375102205
370,3336.24,0.5306591065388269
371,3343.93,0.495329175225917
372,3351.6400000000003,0.5057783435714911
373,3359.37,0.5117135115755493
374,3367.1099999999997,0.5047806794088495
375,3374.88,0.46256744672987554
376,3382.6600000000003,0.47779891388014367
377,3390.45,0.5167911808596537
378,3398.27,0.5121311473268898
379,3406.1000000000004,0.5005616136233678
380,3413.9599999999996,0.507605479407572
381,3421.8199999999997,0.5255360451917759
382,3429.71,0.5124752104637058
383,3437.6200000000003,0.5220836753941199
384,3445.5400000000004,0.4621931401537758
385,3453.4900000000002,0.5307496044011577
386,3461.45,0.48524736847778166
387,3469.43,0.4977824322128896
388,3477.42,0.47765999577723944
389,3485.44,0.4922522588293153
390,3493.48,0.4878196215398751
391,3501.5299999999997,0.491279584079677
392,3509.6,0.49363404627796276
393,3517.69,0.4791635081347326
394,3525.8,0.49153206964998636
395,3533.9300000000003,0.5159632308237241
396,3542.0800000000004,0.5329623916559458
397,3550.2400000000002,0.5306012523174096
398,3558.42,0.5174261126373573
399,3566.63,0.5283500724450308
400,3574.85,0.47533663208194654
401,3583.0899999999997,0.4721521913773462
402,3591.35,0.4427474503312298
403,3599.6299999999997,0.5131270089435973
404,3607.93,0.484510167214449
405,3610.12,0.5183188298184448
406,3612.86,0.47956378303075
407,3615.59,0.5022980364138132
408,3618.3199999999997,0.5166898897968764
409,3621.05,0.49463984317993964
410,3623.79,0.48833509639224487
411,3626.5199999999995,0.49600404977530804
412,3629.25,0.5048636031583713
413,3631.98,0.5253306565414345
414,3634.7200000000003,0.5477469097537397
415,3637.45,0.510167663136803
416,3640.1800000000003,0.5304334165198662
417,3642.92,0.5371016697321715
418,3645.6499999999996,0.5524040231152346
419,3648.38,0.5460582764982979
420,3651.11,0.5532282298813611
421,3653.8500000000004,0.5307463830936663
422,3656.58,0.5604749364767295
423,3659.31,0.5387575898597928
424,3662.04,0.5165499432428561
425,3664.78,0.5414259964551612
426,3667.5099999999998,0.5219846498382245
427,3670.2400000000002,0.5273427032212877
428,3672.98,0.516048256433593
429,3675.71,0.5325848098166561
430,3678.44,0.5363846631997193
431,3681.17,0.5280430165827826
432,3683.9100000000003,0.5251959697950879
433,3686.64,0.5071464231781511
434,3689.3700000000003,0.5033216765612143
435,3692.1,0.5105179299442775
436,3694.8399999999997,0.5310171831565828
437,3697.57,0.5351321365396459
438,3700.3,0.5324892899227092
439,3703.0299999999997,0.5394492433057724
440,3705.77,0.5313235965180777
441,3708.5,0.5313680499011408
442,3711.23,0.511742903284204
443,3713.97,0.5559822564965093
444,3716.7,0.5470367098795725
445,3719.4300000000003,0.5836806632626357
446,3722.16,0.704396216645699
447,3724.9,0.8734282698580043
448,3727.63,1.2193082232410675
449,3730.3599999999997,1.5194761766241307
450,3733.09,1.355520130007194
451,3735.83,0.9675485832194991
452,3738.5600000000004,0.6986082366025624
453,3741.29,0.6010394899856255
454,3744.0299999999997,0.5862695431979308
455,3746.76,0.604705696580994
456,3749.49,0.5876279499640573
457,3752.22,0.5457945033471204
458,3754.96,0.5675278565594257
459,3757.69,0.609389109942489
460,3760.42,0.6317383633255522
461,3763.15,0.6284652167086153
462,3765.89,0.6198665699209206
463,3768.62,0.6147202233039839
464,3771.35,0.5786903766870471
465,3774.0800000000004,0.5692196300701102
466,3776.82,0.6178794832824155
467,3779.5499999999997,0.6840588366654787
468,3782.28,0.7326956900485421
469,3785.02,0.7613001432608472
470,3787.7499999999995,0.7633495966439104
471,3790.48,0.7421839500269737
472,3793.21,0.6969892034100369
473,3795.9500000000003,0.647764056622342
474,3798.68,0.6108154100054053
475,3801.41,0.5837319633884686
476,3801.8939600000003,0.5854903253969931
477,3804.14,0.5936508247628219
478,3806.88,0.6588902877239006
479,3809.61,0.7293938508201576
480,3812.34,0.7464647139164148
481,3815.08,0.7421812768774934
482,3817.81,0.7539911399737504
483,3820.54,0.7560493030700076
484,3823.2699999999995,0.7190743661662647
485,3826.01,0.6963118291273432
486,3828.74,0.6670839922236004
487,3831.4700000000003,0.6308705553198576
488,3834.2,0.5900613184161146
489,3836.9399999999996,0.5514724813771933
490,3839.67,0.5635884444734504
491,3842.4,0.6127066075697075
492,3845.13,0.6654752706659646
493,3847.87,0.7188617336270432
494,3850.6,0.7604955967233004
495,3853.33,0.7894191598195575
496,3856.0699999999997,0.809540922780636
497,3858.8,0.8110914858768933
498,3861.53,0.8210894489731503
499,3864.2599999999998,0.8361557120694074
500,3867.0,0.8500009750304861
501,3869.73,0.8451526381267431
502,3872.4599999999996,0.8363386012230003
503,3875.19,0.8206792643192574
504,3877.93,0.7852759272803359
505,3880.6600000000003,0.7525116903765932
506,3883.39,0.7135234534728503
507,3886.1299999999997,0.6665568164339288
508,3888.86,0.640182579530186
509,3891.5899999999997,0.6213978426264432
510,3894.32,0.6390026057227003
511,3897.06,0.6600878686837788
512,3899.7900000000004,0.692031231780036
513,3902.52,0.7384533948762931
514,3905.25,0.7750889579725502
515,3907.9900000000002,0.7989925209336288
516,3910.72,0.8095943840298859
517,3913.45,0.824258047126143
518,3916.1800000000003,0.8451632102224002
519,3918.92,0.8471383731834787
520,3921.6499999999996,0.8361009362797358
521,3924.38,0.810330999375993
522,3927.12,0.7854233623370717
523,3929.85,0.7259690254333286
524,3932.58,0.6828312885295859
525,3935.3100000000004,0.641391851625843
526,3938.05,0.6409167145869215
527,3940.7799999999997,0.7071397776831787
528,3943.51,0.7585954407794359
529,3946.24,0.794959603875693
530,3948.9800000000005,0.8106695668367715
531,3951.71,0.8221731299330287
532,3954.44,0.8306129930292858
533,3957.1800000000003,0.7810460559903644
534,3959.91,0.7317285190866215
535,3962.64,0.6869539821828786
536,3965.37,0.6357888452791357
537,3968.11,0.5748779082402143
538,3970.84,0.5396535713364715
539,3973.57,0.5562251344327286
540,3976.2999999999997,0.5973510975289857
541,3979.04,0.6455908604900643
542,3981.77,0.7208215235863213
543,3984.5000000000005,0.7794989866825786
544,3987.23,0.7967011497788357
545,3989.97,0.8253230127399144
546,3992.7000000000003,0.8516816758361714
547,3995.43,0.8608655389324286
548,3998.1699999999996,0.8758926018935072
549,4000.9,0.8800954649897642
550,4003.63,0.8766827280860213
551,4006.36,0.8852624911822785
552,4009.1,0.8951509541433571
553,4011.83,0.9060067172396142
554,4014.56,0.8827228803358713
555,4017.29,0.9173890434321285
556,4020.03,0.899790706393207
557,4022.76,0.9260531694894643
558,4025.49,0.9072336325857213
559,4028.23,0.8955877955467999
560,4030.96,0.8962017586430571
561,4033.6899999999996,0.8998795217393142
562,4036.42,0.8991804848355712
563,4039.16,0.8979516477966498
564,4041.8900000000003,0.917736210892907
565,4044.62,0.9143233739891641
566,4047.35,0.9157251370854212
567,4050.09,0.9179103000464999
568,4052.8199999999997,0.8900745631427569
569,4055.55,0.9089837262390141
570,4058.28,0.9149375893352713
571,4061.02,0.9045172522963497
572,4063.75,0.8808832153926069
573,4066.48,0.883510578488864
574,4069.2200000000003,0.8804435414499426
575,4071.95,0.8667276045461998
576,4074.68,0.893051367642457
577,4077.4100000000003,0.862431730738714
578,4080.15,0.8465055936997926
