,lambda (Angstroms),Total Flux (erg/s/cm^2/Angstrom)
0,102.06,0.019101519591876448
1,103.96000000000001,0.02234122646356774
2,104.712855,0.023624926210186806
3,105.89,0.02195019129177106
4,108.11,0.018791777064395374
5,110.11999999999999,0.015932131762729534
6,113.99,0.010426247533003917
7,118.0,0.00472118405879747
8,120.22644299999999,0.0015536037791740666
9,121.02,0.0015013632985059649
10,124.99,0.0012400147512374863
11,127.02,0.0011063781309208049
12,127.89999999999999,0.0010484470624301401
13,130.88,0.0008522712967231841
14,132.09,0.0007726164070086446
15,133.93,0.0006514879691926178
16,137.05,0.0004460970712394425
17,138.038426,0.0003810285358602521
18,139.92,0.00037665490116569494
19,142.85,0.0003698579643605038
20,146.85,0.00036060376468324617
21,150.96,0.0003510682931686639
22,154.84,0.000342074100312124
23,158.489319,0.00033361829701196563
24,159.17000000000002,0.0003311920820845704
25,162.13000000000002,0.0003206479000012926
26,165.91000000000003,0.00030719626457062043
27,170.17000000000002,0.0002920353921804977
28,172.93,0.00028222777651365776
29,176.96,0.0002679097038124385
30,179.82999999999998,0.0002577258934465578
31,181.92,0.0002503104263647839
32,181.970086,0.000250132844738231
33,186.15,0.00025504980343175757
34,190.92999999999998,0.000260711384976916
35,194.03,0.00026439830811959207
36,198.09,0.00026923777889225806
37,201.78,0.00027368318862628206
38,205.06,0.0002776246716120812
39,208.929613,0.00028226467279742216
40,209.83,0.00028859493257695303
41,216.21,0.00033366202261937364
42,220.23000000000002,0.0003620832139125604
43,222.78,0.0003801300783746563
44,226.92000000000002,0.000409477274960177
45,230.08,0.0004336385426583038
46,233.81,0.00046408286049501676
47,239.81,0.0005098555141117132
48,239.88329199999998,0.0005103788489786537
49,245.96,0.0004764015344751465
50,252.26999999999998,0.0004429198176490871
51,256.96,0.00041474521869279245
52,259.94,0.0004010343035990273
53,264.15999999999997,0.0003792719092716153
54,269.07,0.00035301083899967346
55,274.08,0.0003261669754024376
56,275.42287,0.00031898959320550435
57,279.17,0.00034351693534838754
58,283.71,0.00037361774338954016
59,290.32,0.0004154875086873419
60,295.71,0.0004519669092251861
61,301.21,0.00048772853773319054
62,308.23,0.0005347870236470439
63,316.227766,0.0005888012576557995
64,318.32,0.0005806766702028522
65,328.0,0.0005427810535072509
66,337.96,0.0005033664697584712
67,348.23,0.0004625074439151006
68,357.16999999999996,0.0004276385515743286
69,363.078055,0.00040502202084082966
70,366.33,0.00041861170299094366
71,374.85999999999996,0.00045373657181970665
72,385.36,0.0004937958563099779
73,395.25,0.0005371912488441476
74,405.39,0.0005795972252947521
75,413.88,0.0006142960098968857
76,416.86938299999997,0.0006263055120946953
77,421.57,0.0006385901145979946
78,430.40000000000003,0.0006612257720944409
79,441.44000000000005,0.0006916466086471889
80,450.67999999999995,0.0007158592740228582
81,460.11999999999995,0.0007397914139737588
82,469.75000000000006,0.000765479369771129
83,478.630092,0.0007895539752084354
84,479.59000000000003,0.0007874844987237994
85,489.63,0.000763002208825607
86,499.89,0.0007413767737304422
87,505.67,0.0007296015317372596
88,511.53,0.0007457011005815418
89,519.84,0.000729277238823177
90,529.51,0.000709322961301711
91,540.59,0.0006791946122905583
92,549.38,0.0006828599155569814
93,549.5408739999999,0.0006828158732763017
94,559.59,0.0006987805735725987
95,569.99,0.0007125394996150227
96,580.59,0.0007036427896198012
97,590.03,0.0007331872486429247
98,599.61,0.0007356347924396961
99,609.36,0.0007501268606044688
100,620.68,0.0008009672008737227
101,629.32,0.0008245294040474288
102,630.957344,0.0008257086743847035
103,639.54,0.0008500000047492978
104,649.9399999999999,0.0009172440252635804
105,657.46,0.0009592016077892924
106,665.0699999999999,0.0010047413133771471
107,674.33,0.0010377453751042875
108,685.2800000000001,0.0010552256476649984
109,694.82,0.0012222427922521384
110,704.48,0.0012165973009221356
111,715.9300000000001,0.0013833173571614179
112,724.43596,0.0014428369743706747
113,725.89,0.0014522522678630159
114,734.3,0.0015123469946341096
115,744.51,0.0016531610359340936
116,754.87,0.0017563294617781518
117,765.3699999999999,0.0018400413798633462
118,774.23,0.002010223960266663
119,785.0,0.0021456219705311905
120,794.0899999999999,0.0022669500739020874
121,805.14,0.0023892870686488873
122,814.46,0.0025047026949873642
123,825.79,0.002735046674216436
124,831.763771,0.00253467854749652
125,835.35,0.002406531474943823
126,845.03,0.002939570750913791
127,854.8100000000001,0.003043338771470226
128,864.71,0.0032768004855304204
129,874.7199999999999,0.0035139209186357285
130,884.8499999999999,0.003811822045244797
131,895.1,0.004050538865357624
132,905.46,0.004118291404515566
133,915.9499999999999,0.005943831611635914
134,924.42,0.03719755297810964
135,935.13,0.0825353906233202
136,945.96,0.15977945796203452
137,954.71,0.23023581061335038
138,954.992586,0.2310599080271031
139,965.76,0.2624742288392749
140,974.7,0.04259383566193498
141,985.99,0.22655102437869473
142,995.11,0.24440555845281778
143,1004.3199999999999,0.3646534711526723
144,1015.95,0.3555494091221954
145,1025.35,0.15505197669859414
146,1034.8300000000002,0.25355922527564306
147,1044.41,0.49748215010350477
148,1054.07,0.4928981559320167
149,1063.8300000000002,0.39159663801134126
150,1076.14,0.47401501448639116
151,1086.1,0.3765650490673413
152,1096.15,0.5090471622740229
153,1096.4782,0.5083488690581379
154,1103.75,0.4928733791525013
155,1113.96,0.478372489992459
156,1124.27,0.4322847265017601
157,1134.67,0.5593584961134702
158,1145.1699999999998,0.5125366913945237
159,1155.77,0.5516861123449206
160,1163.78,0.5737004584593243
161,1174.55,0.39696055304760486
162,1185.4199999999998,0.5671151733052288
163,1193.6299999999999,0.3933145707583192
164,1204.68,0.28370015722076125
165,1215.82,0.19365957678561227
166,1224.25,0.39876451071125807
167,1235.58,0.6118188890478615
168,1244.1399999999999,0.6785743263436537
169,1255.66,0.6525100634520095
170,1258.92541,0.6199472572716591
171,1264.36,0.565757623583036
172,1276.06,0.7388856421726885
173,1284.8999999999999,0.7808773095515369
174,1293.81,0.6188932806313492
175,1305.78,0.6174546134961474
176,1314.83,0.7826714919778872
177,1323.95,0.7526141741605906
178,1336.1999999999998,0.6707911218292438
179,1345.46,0.8064484114138748
180,1354.79,0.7862669046994694
181,1364.18,0.7056481011573186
182,1373.63,0.7474652007874225
183,1386.3400000000001,0.7613305727766945
184,1395.95,0.6600784808661441
185,1405.6299999999999,0.6911924926565574
186,1415.37,0.7187875076192253
187,1425.18,0.742324526282857
188,1435.06,0.7440109486474523
189,1441.6899999999998,0.7881041991815887
190,1445.43977,0.7963672552772977
191,1448.34,0.8027582261301849
192,1455.03,0.7844723229923284
193,1465.1100000000001,0.7271155702823742
194,1475.27,0.732115521122341
195,1485.4899999999998,0.7492006746247486
196,1495.79,0.7666278316770772
197,1506.16,0.7287681918355865
198,1513.11,0.6510498002349734
199,1516.6,0.7007959551002769
200,1523.6,0.6832936657183643
201,1534.1599999999999,0.5965050343079361
202,1544.79,0.6540532060036888
203,1555.5,0.6231760812493625
204,1566.28,0.6421244596012171
205,1573.51,0.6896173804253274
206,1584.42,0.7271227645458035
207,1595.3999999999999,0.7457516517724605
208,1606.46,0.7355192425490386
209,1613.88,0.7423214718042113
210,1625.0600000000002,0.7072935679056708
211,1636.33,0.7561205680007914
212,1643.88,0.7719625030245857
213,1655.28,0.718789008888328
214,1659.58691,0.7448227249086116
215,1666.75,0.7881230212390895
216,1670.5900000000001,0.7072978656106934
217,1678.3000000000002,0.7990664640755544
218,1686.05,0.8328666755026196
219,1693.8300000000002,0.786304696651338
220,1705.57,0.7596359010582727
221,1713.45,0.7237806546125016
222,1725.32,0.7221337011466001
223,1733.2900000000002,0.7737491838657884
224,1745.3,0.7596467757676018
225,1753.36,0.8120728876517496
226,1765.5100000000002,0.7509387249212776
227,1773.6599999999999,0.7701991659703847
228,1785.96,0.7881563518481786
229,1794.2,0.8425739220622452
230,1806.6399999999999,0.8386896533077537
231,1814.97,0.7773474526867798
232,1823.35,0.7991193682685613
233,1835.99,0.7720184643250908
234,1844.47,0.7122538123123829
235,1852.98,0.718853370021328
236,1865.82,0.7440896308888785
237,1874.44,0.8046690242438852
238,1883.0900000000001,0.744091127320545
239,1896.14,0.7172146562396677
240,1904.8899999999999,0.7631942917218381
241,1905.46072,0.7615142251029309
242,1913.69,0.7372830392087849
243,1926.95,0.7254953003657512
244,1935.8500000000001,0.7509604827410905
245,1944.7800000000002,0.7863549525851108
246,1953.76,0.7372693015435993
247,1967.3,0.8102251457415875
248,1976.38,0.8348495529290123
249,1985.5,0.7918035434080117
250,1994.67,0.7737715130014793
251,2003.8700000000001,0.799100570063628
252,2013.12,0.7755286062402447
253,2027.08,0.8139398749997658
254,2036.4299999999998,0.773756869405319
255,2045.83,0.8046233429253402
256,2055.2799999999997,0.7631263955598298
257,2064.7599999999998,0.7737477356630003
258,2074.3,0.8348059507035326
259,2079.08,0.7972316540466924
260,2083.87,0.8271507532127458
261,2093.4900000000002,0.7862875348364272
262,2103.15,0.7953900997516832
263,2112.86,0.8064602437814073
264,2122.61,0.8195488711027061
265,2137.33,0.7701449224021437
266,2147.19,0.7881013037752725
267,2157.1,0.8195345642628694
268,2167.06,0.7971984038649347
269,2177.06,0.7935257267585744
270,2187.1099999999997,0.7826481287666823
271,2187.7616199999998,0.7850293823713387
272,2197.2,0.8195276999131729
273,2207.35,0.8008592802444602
274,2217.54,0.76660367389725
275,2222.65,0.7474472757192085
276,2232.91,0.7953684926846281
277,2243.21,0.7666159229715502
278,2253.57,0.7388858732407262
279,2263.97,0.7561110368314048
280,2274.42,0.7754813170739617
281,2284.92,0.795387313968397
282,2295.46,0.7526676241843346
283,2306.06,0.7596177543825264
284,2316.7,0.7287873979022208
285,2327.4,0.592423261404169
286,2332.76,0.6864540464855188
287,2343.53,0.6693062333000965
288,2354.35,0.7188106367665527
289,2365.21,0.6677680535545112
290,2376.13,0.6864655903247239
291,2387.1,0.6436369437468147
292,2392.6,0.6817456754534236
293,2403.65,0.6586336555185196
294,2414.74,0.6739540489051183
295,2425.89,0.710614062273971
296,2437.08,0.6864889889643261
297,2442.7,0.7221568606354428
298,2453.98,0.7139023172991789
299,2465.3,0.7106338872844176
300,2476.68,0.6880896772519102
301,2482.39,0.7008999788964078
302,2493.85,0.6526349955069055
303,2505.3599999999997,0.7322361287692817
304,2511.14,0.6601883537264088
305,2511.88643,0.662572047415121
306,2516.93,0.6786761522281837
307,2522.7300000000005,0.6556370046412088
308,2534.3700000000003,0.6647743043114868
309,2546.07,0.6556353962481065
310,2557.82,0.6992773817400108
311,2563.72,0.6833646212636052
312,2575.5499999999997,0.7188559964439651
313,2587.4399999999996,0.7122915638906666
314,2593.41,0.7041401943916596
315,2605.38,0.6833567515268167
316,2617.3999999999996,0.6755616022172585
317,2623.44,0.7025152236956501
318,2635.5499999999997,0.7238568627856043
319,2647.7099999999996,0.7773805954308431
320,2653.81,0.7936433091755765
321,2666.06,0.7288669302203278
322,2672.21,0.7579366375203458
323,2684.5400000000004,0.7597010482535527
324,2696.94,0.725507549964158
325,2703.15,0.7458324495305177
326,2715.63,0.7122734409295787
327,2721.8900000000003,0.7106526340512229
328,2734.45,0.7407114151387394
329,2747.08,0.6586397872036545
330,2753.41,0.6724363713026975
331,2766.1200000000003,0.696072833056068
332,2772.4900000000002,0.7238407119993387
333,2785.2900000000004,0.6880977621522217
334,2798.1499999999996,0.5776637045714463
335,2804.6,0.6132986732031727
336,2817.54,0.7188627053108527
337,2824.04,0.7509997674978636
338,2837.0699999999997,0.7254920880050563
339,2843.6099999999997,0.7090157450362949
340,2856.74,0.683361352654057
341,2863.3199999999997,0.7458100045295234
342,2876.5400000000004,0.7475385005467978
343,2883.17,0.744116145977549
344,2884.0315,0.74411576308687
345,2896.48,0.7441118020978159
346,2909.85,0.7991514668297478
347,2930.02,0.7720202136242927
348,2950.33,0.7614349600495386
349,2970.78,0.7738224061054852
350,2991.37,0.7738198517921328
351,3012.11,0.7809786970831026
352,3032.99,0.7827791420047733
353,3046.99,0.7845803050748591
354,3068.11,0.7882137493634456
355,3089.3700000000003,0.7918513932827329
356,3110.79,0.793648536779964
357,3132.35,0.7827835799078962
358,3146.81,0.7863813417645704
359,3168.62,0.7900156842330397
360,3190.5899999999997,0.7544818262794527
361,3212.7,0.7791824679565668
362,3227.53,0.747571628837236
363,3249.9,0.7900176698285089
364,3272.43,0.8159107103977253
365,3287.54,0.8103010705397965
366,3310.3300000000004,0.8065606104231717
367,3311.31121,0.8071616648236871
368,3325.6000000000004,0.8159137873147911
369,3333.27,0.8291739005508225
370,3340.95,0.7900503132825986
371,3348.66,0.8445544245016079
372,3356.3700000000003,0.8121696357206173
373,3364.11,0.7441452454268602
374,3371.8700000000003,0.751023754124592
375,3379.64,0.8159053623180684
376,3387.4300000000003,0.8215534695030339
377,3395.24,0.8047223756794882
378,3403.07,0.8349215808474316
379,3410.91,0.7846127855111196
380,3418.78,0.793673488662041
381,3426.6600000000003,0.8159035913087068
382,3434.55,0.8484710934511172
383,3442.4700000000003,0.7918769940807611
384,3450.41,0.810291493701894
385,3458.3599999999997,0.7991798928187714
386,3466.34,0.7900394904228822
387,3474.33,0.8196732875227377
388,3482.33,0.7918777841183375
389,3490.36,0.823452079201171
390,3498.4100000000003,0.7756073732754933
391,3506.47,0.8178055668455603
392,3514.56,0.7846023589028606
393,3522.6600000000003,0.8234487504559056
394,3530.78,0.7846048410004395
395,3538.9199999999996,0.8291620305364623
396,3547.0800000000004,0.8407000190639743
397,3555.25,0.8387606070872307
398,3563.4500000000003,0.8272595935977205
399,3571.66,0.7846046796039549
400,3579.8999999999996,0.7720757640974228
401,3588.15,0.7139321480866352
402,3596.42,0.7828022310673366
403,3604.71,0.8178018130395269
404,3613.02,0.7685133940032063
405,3621.35,0.7774001739583747
406,3629.7000000000003,0.8884664529050321
407,3635.76,0.9239633473261991
408,3638.48,0.890162210168703
409,3641.2,0.888820273011207
410,3643.92,0.833427035853711
411,3646.63,0.8283497992004704
412,3649.35,0.8282426620429744
413,3652.07,0.8324753248854784
414,3654.79,0.8330386877279823
415,3657.5099999999998,0.9191597505704863
416,3660.2200000000003,0.9034984139172457
417,3662.94,0.8571723767597497
418,3665.66,0.8826798396022536
419,3668.38,0.9034241024447576
420,3671.09,0.8543508657915171
421,3673.81,0.8520916286340211
422,3676.53,0.8343084914765251
423,3679.25,0.823722854319029
424,3681.96,0.8344166176657883
425,3684.6800000000003,0.7873143805082924
426,3687.4,0.7929583433507963
427,3690.12,0.8096100061933003
428,3692.84,0.8586502690358043
429,3695.55,0.8790818323825638
430,3698.27,0.8398826952250678
431,3700.9900000000002,0.8654606580675718
432,3703.71,0.8710340209100756
433,3706.42,0.8264766842568351
434,3709.1400000000003,0.8164908470993391
435,3711.86,0.8252394099418431
436,3714.58,0.895060472784347
437,3717.29,0.9151041361311065
438,3720.01,1.0125860989736104
439,3722.73,1.2672479618161143
440,3725.4500000000003,1.6390078246586184
441,3728.17,1.7675366875011223
442,3730.8799999999997,1.6252175508478819
443,3733.6000000000004,1.2456904136903857
444,3736.32,1.0023512765328897
445,3739.04,0.9014450393753937
446,3741.75,0.8852895027221532
447,3744.47,0.8988011655646571
448,3747.19,0.855968228407161
449,3749.9100000000003,0.842348291249665
450,3752.63,0.859105854092169
451,3755.3399999999997,0.8608732174389285
452,3758.06,0.9284364802814324
453,3760.78,0.9737014431239365
454,3763.5,1.0130739059664402
455,3766.21,0.9561336693131998
456,3768.93,0.9428665321557037
457,3771.6499999999996,0.8981281949982077
458,3774.3700000000003,0.9804738578407117
459,3777.08,1.0587322211874712
460,3779.7999999999997,1.0709030840299751
461,3782.52,1.1448519468724792
462,3785.2400000000002,1.198866809714983
463,3787.96,1.2254326725574871
464,3790.67,1.0597195359042466
465,3793.39,0.9845678987467504
466,3796.1099999999997,0.9049359615892544
467,3798.8300000000004,0.9140019244317584
468,3801.54,1.0163579877785178
469,3801.8939600000003,1.023630416474016
470,3804.2599999999998,1.0722428754804454
471,3806.98,1.1116857669013467
472,3809.7,1.2162596583222485
473,3812.41,1.2079375501423377
474,3815.13,1.2009154415632395
475,3817.85,1.146756332984141
476,3820.5699999999997,1.1394512244050425
477,3823.29,1.153456115825944
478,3826.0,1.1235070076460334
479,3828.72,1.040628899066935
480,3831.44,0.9530939904878366
481,3834.16,0.9345699819087383
482,3836.87,0.9044076737288277
483,3839.59,0.9352426651497292
484,3842.31,1.0105323565706308
485,3845.0299999999997,1.1154582479915323
486,3847.7400000000002,1.1236481398116218
487,3850.46,1.1960450312325233
488,3853.18,1.248859922653425
489,3855.9,1.1906438140743265
490,3858.62,1.252490705495228
491,3861.33,1.2622685973153176
492,3864.05,1.281707488736219
493,3866.77,1.2538683801571204
494,3869.49,1.2681562715780221
495,3872.2000000000003,1.2783921633981115
496,3874.92,1.187929054819013
497,3877.64,1.1646059462399145
498,3880.36,1.1334858376608161
499,3883.08,1.0932637290817178
500,3885.79,1.0614436209018072
501,3888.51,1.0249265123227087
502,3891.23,1.0049204037436104
503,3893.95,1.032262295164512
504,3896.6600000000003,1.0375231869846013
505,3899.38,1.1230800784055028
506,3902.1,1.1913129698264042
507,3904.82,1.1753288612473058
508,3907.53,1.2557407530673954
509,3910.25,1.2805416444882969
510,3912.9700000000003,1.2838915359091987
511,3915.69,1.2999784273301
512,3918.41,1.2836773187510016
513,3921.1200000000003,1.244272210571091
514,3923.84,1.2330511019919927
515,3926.56,1.1975559934128943
516,3929.28,1.0689178848337957
517,3931.9900000000002,0.9935253766538852
518,3934.71,0.9566195680747867
519,3937.4300000000003,1.0357905594956884
520,3940.15,1.13807045091659
521,3942.86,1.2276543427366793
522,3945.5800000000004,1.2513982341575807
523,3948.3,1.2162201255784824
524,3951.02,1.258945016999384
525,3953.7400000000002,1.2421849084202856
526,3956.4500000000003,1.176424800240375
527,3959.17,1.1336266916612765
528,3961.8900000000003,1.067859583082178
529,3964.61,0.9764086745030797
530,3967.3199999999997,0.8891254663231691
531,3970.0400000000004,0.8833029577440706
532,3972.76,0.9222880491649722
533,3975.48,0.9475131405858738
534,3978.2000000000003,1.0558619320067753
535,3980.91,1.1679558238268648
536,3983.63,1.2318137152477664
537,3986.3500000000004,1.2495236066686677
538,3989.07,1.2885434980895694
539,3991.7799999999997,1.313810389909659
540,3994.5000000000005,1.3808082813305604
541,3997.2200000000003,1.414783172751462
542,3999.94,1.3685270641723635
543,4002.6499999999996,1.363662955992453
544,4005.37,1.3719878474133544
545,4008.09,1.382111738834256
546,4010.8100000000004,1.4160866302551576
547,4013.53,1.439899521676059
548,4016.24,1.4282974134961486
549,4018.9599999999996,1.4335173049170502
550,4021.6800000000003,1.4591651963379517
551,4024.4,1.3799920877588532
552,4027.1099999999997,1.4684479795789427
553,4029.83,1.4502408709998442
554,4032.5499999999997,1.3854977624207458
555,4035.2700000000004,1.4571876538416475
556,4037.98,1.4716235456617368
557,4040.7,1.4562044370826384
558,4043.4199999999996,1.4425133285035399
559,4046.14,1.4630102199244415
560,4048.86,1.4352061113453431
561,4051.5699999999997,1.4043400031654325
562,4054.29,1.442089894586334
563,4057.0099999999998,1.4216247860072355
564,4059.7299999999996,1.4231046774281373
565,4062.44,1.3765735692482266
566,4065.16,1.4069844606691282
567,4067.8799999999997,1.3481333520900296
568,4070.6,1.4390172435109312
569,4073.31,1.3479951353310207
570,4076.0299999999997,1.3758660267519223
571,4078.75,1.356071918172824
572,4081.47,1.3475668095937252
573,4084.1899999999996,1.325832701014627
574,4086.9,1.3364925928347164
575,4089.62,1.305901484255618
576,4092.3399999999997,1.2556943756765195
577,4095.06,1.2255622670974209
578,4097.77,1.2680811589175105
579,4100.49,1.207254050338412
580,4103.21,1.2516719417593136
581,4105.93,1.1848828331802153
