,lambda (Angstroms),Total Flux (erg/s/cm^2/Angstrom)
0,100.00999999999999,0.010491195895204794
1,102.11,0.012898347892467164
2,104.01,0.015076247321298527
3,104.712855,0.015881903903804732
4,105.94,0.014708239061550632
5,107.91,0.012824093561991077
6,109.92,0.010901691325786271
7,114.03999999999999,0.0069612449676708784
8,118.05,0.0031260047836730353
9,120.22644299999999,0.0010444143774063575
10,121.08000000000001,0.0010066406404759373
11,125.03999999999999,0.0008313920516041593
12,127.08000000000001,0.000741112579512242
13,127.96,0.0007021686899691808
14,130.94,0.0005702902906596755
15,132.15,0.0005167433102862149
16,133.98999999999998,0.00043531559554972285
17,137.10999999999999,0.00029724465710732114
18,138.038426,0.0002561584606265362
19,139.98,0.00025312656220882046
20,142.91,0.00024858915861728154
21,146.91,0.00024246811126774046
22,151.03,0.00023608624080571317
23,154.9,0.00023011330500303221
24,158.489319,0.00022459068988563353
25,158.88,0.00022366199171513056
26,161.82999999999998,0.00021666358447522023
27,165.98000000000002,0.0002068429769953462
28,169.85,0.0001977135656714638
29,173.01,0.00019027364063955977
30,177.04000000000002,0.00018081947838368212
31,179.91,0.00017412155485976933
32,181.970086,0.0001693187471759975
33,182.0,0.00016934396228543465
34,185.81,0.00017261303687697165
35,191.01,0.00017711413903602472
36,194.11999999999998,0.00017986764835615062
37,198.17999999999998,0.0001835007843303344
38,201.87,0.0001869398782182009
39,205.14999999999998,0.00018996014611852665
40,208.929613,0.00019341895394565567
41,209.93,0.0001982561931826896
42,215.81,0.00022736752257174545
43,219.82000000000002,0.0002472198880581595
44,222.88,0.00026229601744430075
45,227.02,0.0002829949915549626
46,230.18,0.00030384176726744837
47,233.92,0.00033412565907273216
48,239.88329199999998,0.0003732510957549269
49,239.92,0.00037317775542504807
50,246.07,0.0003521508225769319
51,251.80999999999997,0.00033817090591869016
52,257.08000000000004,0.00031425800196591396
53,260.05,0.0003127271844441409
54,264.28,0.0003035184600949489
55,269.19,0.0002901258352357211
56,274.2,0.00027648609618384116
57,275.42287,0.0002731993348163697
58,279.3,0.00029376995038379454
59,283.83,0.0003189728952097072
60,289.78000000000003,0.00034708654280665675
61,295.85,0.000381936262187074
62,301.34999999999997,0.0004104576355960186
63,307.66,0.00044796462854337194
64,316.227766,0.0004984572179006445
65,317.73,0.0004965683968517116
66,328.14000000000004,0.0004812555703586801
67,338.12,0.000466443332856235
68,348.39000000000004,0.00045061815859269666
69,357.33,0.00043886658050934426
70,363.078055,0.0004333141974864845
71,365.65,0.00044467391046808317
72,375.03000000000003,0.0004815768907094758
73,384.65,0.0005127900527480894
74,395.43,0.000562821943473272
75,404.64,0.0006039169074416328
76,414.06,0.0006400152679825623
77,416.86938299999997,0.0006504484071023216
78,421.76,0.0006639946634400917
79,429.59999999999997,0.0006866056730894256
80,440.61999999999995,0.0007223158363975455
81,450.88000000000005,0.0007492842849947607
82,460.33,0.0007739533350185112
83,469.96000000000004,0.0008018633069474762
84,478.630092,0.0008287235344449557
85,479.81,0.0008285184553030941
86,489.85,0.0008169207610712612
87,500.11,0.0008163987105913206
88,505.90000000000003,0.0008146749166070266
89,511.76,0.0008823577910892438
90,520.0699999999999,0.0008834082618993504
91,529.74,0.0008834952486302443
92,539.59,0.0008648583257035955
93,549.5408739999999,0.0009155454462014632
94,549.62,0.0009160475608662412
95,559.84,0.0009728278546321754
96,570.25,0.0010257609618829948
97,579.52,0.0010180699882245028
98,590.29,0.0011074600052361574
99,599.88,0.00113014790692063
100,609.63,0.001178439546276585
101,619.53,0.0013257584646995547
102,629.6,0.001394693779398474
103,630.957344,0.0013983277796881174
104,639.8299999999999,0.0014346681495112702
105,650.23,0.0015757213284391639
106,657.76,0.0016685983397206096
107,665.37,0.0017537244985322703
108,674.63,0.001798089325154606
109,685.5899999999999,0.0018157515367940016
110,695.1300000000001,0.0022056513797720887
111,704.8,0.002168980087486774
112,716.2499999999999,0.0025246013277487336
113,724.43596,0.002623700647870841
114,726.21,0.002644554493587477
115,734.62,0.002767664153072931
116,744.8399999999999,0.003097860451520177
117,755.21,0.0033172302504338707
118,765.71,0.0035021712830851518
119,774.58,0.003856487077334376
120,785.3499999999999,0.0041686102108252614
121,794.45,0.004386498572456371
122,805.5,0.00462481544015129
123,814.83,0.004836812369164285
124,824.26,0.005336269631821579
125,831.763771,0.004790381392835511
126,835.7299999999999,0.004496000134218698
127,845.4000000000001,0.0056933085153609815
128,855.1899999999999,0.0059039786851006896
129,865.1,0.006395352643437819
130,875.11,0.0069168405922728
131,885.2500000000001,0.007583917228754989
132,895.5,0.008048766754784815
133,905.87,0.008101407069412064
134,914.2500000000001,0.012846336473132058
135,924.8399999999999,0.09340591956685458
136,935.55,0.21041674144917452
137,944.2,0.41262210412723876
138,954.992586,0.5984812370648782
139,955.14,0.6010199790545596
140,963.9699999999999,0.6708114693063304
141,975.13,0.09907126756338182
142,984.1600000000001,0.5491815458842755
143,995.5500000000001,0.6067983274208181
144,1004.77,0.9346423554073784
145,1014.06,0.9189608722181317
146,1025.8,0.39604349787563914
147,1035.3,0.6298523811589714
148,1044.8799999999999,1.2786588516699529
149,1054.54,1.2599193094085832
150,1064.3,0.977082251181775
151,1074.1499999999999,1.1952301785860722
152,1084.0900000000001,0.9247104916214746
153,1094.12,1.2808399902879821
154,1096.4782,1.2703724215182812
155,1104.24,1.2359167353024039
156,1114.46,1.1842986284774994
157,1124.77,1.0590974766805556
158,1135.1799999999998,1.4007122749146796
159,1145.68,1.2670260281767642
160,1156.28,1.3714427314699162
161,1164.3,1.4222067239615273
162,1175.07,0.957998342307494
163,1185.95,1.395343905687635
164,1194.1699999999998,0.9278111982413811
165,1205.22,0.6424145766743368
166,1216.37,0.45202390513835977
167,1224.8,0.9567048927573476
168,1236.13,1.5031508312772923
169,1244.7,1.6660265489397745
170,1256.22,1.5845387925187473
171,1258.92541,1.5109406597552808
172,1264.9299999999998,1.3475946540728416
173,1273.69,1.795532965425801
174,1285.48,1.8982153844727634
175,1294.3899999999999,1.455371701157109
176,1306.3700000000001,1.4424851269571606
177,1315.4199999999998,1.8649164486174667
178,1324.54,1.7834267727657531
179,1333.7199999999998,1.555278099046594
180,1346.06,1.9048465376419728
181,1355.3899999999999,1.8465528692542
182,1364.79,1.6326222033544073
183,1374.25,1.7352495395871694
184,1383.77,1.7574528779524858
185,1396.5800000000002,1.5234143332528751
186,1406.26,1.5931696773050037
187,1416.01,1.6244000238451124
188,1425.82,1.6870663725177757
189,1435.7,1.6729997236784193
190,1442.33,1.7801399593256932
191,1445.43977,1.8127655727738452
192,1445.66,1.8150760764245026
193,1455.68,1.7589363753262992
194,1465.7700000000002,1.612966676316232
195,1475.93,1.614218979394301
196,1486.16,1.6530482845605063
197,1496.46,1.688871591814848
198,1503.37,1.5901967979437315
199,1510.31,1.4005880049675306
200,1517.28,1.5140882128862452
201,1524.28,1.4621634216998756
202,1534.8500000000001,1.2567347370084574
203,1545.48,1.40757905410687
204,1556.2,1.3264153738900295
205,1563.38,1.3504455880731532
206,1574.22,1.4476059114359747
207,1585.1299999999999,1.5269112368869326
208,1596.1200000000001,1.5629685647243323
209,1603.48,1.5371107842769491
210,1614.6,1.548173115992316
211,1625.79,1.4551644497958194
212,1633.3,1.5617836738230142
213,1644.62,1.5873790115044848
214,1656.02,1.4545483515723967
215,1659.58691,1.5246746555720299
216,1663.66,1.6047533452843559
217,1671.3400000000001,1.416069018346953
218,1675.19,1.6084638570567185
219,1686.8,1.6842593862568165
220,1694.59,1.5777790832825498
221,1706.3400000000001,1.506589642981185
222,1714.2099999999998,1.4211053574346533
223,1726.1000000000001,1.4110199476318253
224,1734.06,1.5140116816914961
225,1746.0800000000002,1.4757333002087378
226,1754.1399999999999,1.5833580560530782
227,1766.3000000000002,1.440208705068857
228,1774.4499999999998,1.4790174805193994
229,1786.75,1.505812160033715
230,1795.0,1.615430957268927
231,1803.29,1.6061897632180062
232,1815.79,1.4640194863016605
233,1824.1699999999998,1.5032483118569422
234,1836.8100000000002,1.434635065439133
235,1845.29,1.3098059127790842
236,1853.81,1.3111387688329028
237,1866.66,1.3529775681628993
238,1875.27,1.4781124438229203
239,1883.93,1.349319330375276
240,1896.99,1.2903271754530778
241,1905.46072,1.3714825796755215
242,1905.75,1.3742539395396174
243,1914.5400000000002,1.316557471247756
244,1923.38,1.290578988915554
245,1936.71,1.3282662457607741
246,1945.6499999999999,1.3854827353478911
247,1954.6299999999999,1.2909502137027355
248,1968.1799999999998,1.4201744087704578
249,1977.2600000000002,1.4608888590446212
250,1981.82,1.3764165785655669
251,1995.5600000000002,1.330832720279995
252,2004.77,1.3720051340492732
253,2014.02,1.3169905365862788
254,2023.3200000000002,1.3860649250829442
255,2032.66,1.303107302347337
256,2046.75,1.3528163457793816
257,2056.2,1.2923956921550253
258,2065.69,1.292818027298397
259,2075.2200000000003,1.3856783512094957
260,2080.0099999999998,1.3113630061448749
261,2084.8,1.3638846610802542
262,2094.42,1.28492195971874
263,2104.09,1.2910972443168858
264,2113.8,1.303249517682759
265,2123.56,1.3215277770082916
266,2133.36,1.2193350251015518
267,2143.21,1.2506602591544713
268,2153.1,1.2975854819751187
269,2163.04,1.2535166907554254
270,2173.0299999999997,1.2390808854953916
271,2183.06,1.2135410690030854
272,2187.7616199999998,1.238798233401651
273,2193.13,1.2676399506568348
274,2203.25,1.2300292163747455
275,2213.4300000000003,1.1663344955257668
276,2223.64,1.1238637813933432
277,2233.91,1.1983510806940294
278,2244.2200000000003,1.1417173889501226
279,2254.58,1.091829708400474
280,2264.98,1.1239210368062325
281,2275.44,1.156961378645101
282,2285.94,1.190976729439376
283,2296.49,1.12850109142791
284,2307.09,1.1326384646107022
285,2312.41,1.0799276556798016
286,2323.08,0.8472503445345555
287,2333.81,1.0106194468224197
288,2344.58,0.9821947580656906
289,2355.4,1.0660942805032199
290,2366.27,0.9826599141350078
291,2377.19,1.016269158961054
292,2382.67,0.9469439858517806
293,2393.67,1.0137398485886404
294,2404.72,0.9739729225197586
295,2415.8199999999997,1.0003738076451354
296,2426.97,1.0635983039647705
297,2432.57,1.0211475577217173
298,2443.7999999999997,1.085703071952166
299,2455.07,1.0723455951380214
300,2466.41,1.0665141339958388
301,2477.79,1.0294386818090626
302,2483.5,1.0614859601933782
303,2494.97,1.0012815281562675
304,2506.48,1.1147681050745635
305,2511.88643,1.0063646882461381
306,2512.26,0.9988741831244212
307,2518.05,1.0299907814240772
308,2523.86,0.9866322779907443
309,2535.51,1.0018302685245943
310,2547.2099999999996,0.9872921547259721
311,2553.08,1.0586747460936718
312,2564.8700000000003,1.036127724496598
313,2576.71,1.0991576985670521
314,2582.65,1.08740218386929
315,2594.5699999999997,1.0765851510077875
316,2606.54,1.041629113813812
317,2612.55,1.030477593050588
318,2624.61,1.0782075480581619
319,2636.73,1.1152144978667682
320,2642.8,1.206953971904577
321,2655.0,1.234129914781227
322,2667.26,1.1221168524589098
323,2673.4,1.1759143204312565
324,2685.74,1.177756251176983
325,2691.94,1.1256107139503626
326,2704.36,1.1589666377641326
327,2716.8399999999997,1.1060055563789353
328,2723.11,1.104345013086853
329,2735.68,1.1608829239032048
330,2741.98,1.016590378011639
331,2754.64,1.0419092810295398
332,2767.35,1.0827521797149677
333,2773.73,1.1320716268914455
334,2786.54,1.077894516911928
335,2792.96,0.8829555606224274
336,2805.85,0.9476254437109536
337,2812.3199999999997,1.1297452830889803
338,2825.3,1.1849081583790555
339,2831.81,1.140364594291104
340,2844.89,1.113656460916234
341,2858.02,1.0776383232088909
342,2864.61,1.182548752188983
343,2877.83,1.1872526066831892
344,2884.0315,1.183072838255704
345,2884.4599999999996,1.182784068566735
346,2897.7799999999997,1.1820220449463708
347,2911.15,1.2804170212373416
348,2931.33,1.237222985452135
349,2951.65,1.2233569494186662
350,2972.11,1.2464089131369356
351,2992.71,1.2525088766069428
352,3013.46,1.270288839810955
353,3027.37,1.2754248151443432
354,3048.3500000000004,1.2787577779404962
355,3069.48,1.2880497404706541
356,3090.76,1.300393702734817
357,3112.18,1.3038646647507175
358,3126.55,1.2912376392683877
359,3148.22,1.3006816008409632
360,3170.04,1.3072085621475436
361,3192.01,1.248912523188129
362,3206.75,1.2951494970496777
363,3228.97,1.243132457646938
364,3251.3599999999997,1.3234664179427371
365,3266.37,1.3693413913254948
366,3289.0099999999998,1.3637273511779686
367,3311.31121,1.3643875448220086
368,3311.81,1.3644022947228982
369,3319.44,1.371992036075994
370,3327.0899999999997,1.3828037767511165
371,3334.7599999999998,1.4261655167482654
372,3342.4500000000003,1.3507762560674406
373,3350.15,1.4157659950476293
374,3357.8799999999997,1.3721557330108576
375,3365.62,1.290687470635099
376,3373.38,1.2683502075813669
377,3381.15,1.3447649441886482
378,3388.95,1.4159876797789692
379,3396.7599999999998,1.3598144150303033
380,3404.59,1.4057051496036637
381,3412.44,1.3468318834990507
382,3420.3,1.398718617055451
383,3428.19,1.393633349594891
384,3436.09,1.4014340817953441
385,3444.01,1.2823268133178238
386,3451.95,1.4236725441623301
387,3459.91,1.3703612743288625
388,3467.8900000000003,1.3650110038174217
389,3475.88,1.3908347329669941
390,3483.89,1.3721834614385926
391,3491.92,1.401369189232218
392,3499.97,1.3082599163478694
393,3508.04,1.3734966427855477
394,3516.13,1.3181623685452521
395,3524.23,1.3680630939659701
396,3532.36,1.4068278183697278
397,3540.4999999999995,1.4367555424344984
398,3548.6600000000003,1.4706902658212957
399,3556.84,1.4277819885301193
400,3565.04,1.4447837105609695
401,3573.2599999999998,1.330298431913846
402,3581.5000000000005,1.3215711525887492
403,3589.54,1.1368038800433877
404,3592.22,1.3377177891949337
405,3594.8999999999996,1.28996969834648
406,3597.5699999999997,1.2391146078370128
407,3600.25,1.283776516988559
408,3602.92,1.312248426479092
409,3605.6,1.4423643356306382
410,3608.27,1.370891245121171
411,3610.95,1.2898221542727173
412,3613.6200000000003,1.2049670637632501
413,3616.3,1.2641199729147963
414,3618.9700000000003,1.298536882405329
415,3621.65,1.4651867915568753
416,3624.33,1.4886167007084214
417,3627.0,1.5113926101989543
418,3629.6800000000003,1.5464645193505004
419,3632.35,1.5109294288410333
420,3635.03,1.4475133379925795
421,3637.7,1.5167762474831123
422,3640.3799999999997,1.5415811566346587
423,3643.0499999999997,1.0275810661251916
424,3645.73,1.1451279752767376
425,3648.4,1.3337448847672706
426,3651.08,1.2416957939188167
427,3653.7599999999998,1.435620703070363
428,3656.43,1.545076612560896
429,3659.1099999999997,1.377409521712442
430,3661.78,1.567732431202975
431,3664.46,1.446420340354521
432,3667.13,1.4417042498450539
433,3669.81,1.5945081589966
434,3672.48,1.453893068487133
435,3675.1600000000003,1.271222977638679
436,3677.8300000000004,1.3156098871292121
437,3680.51,1.4530287962807582
438,3683.19,1.2362927054323043
439,3685.86,1.3535476149228374
440,3688.54,1.4458215240743835
441,3691.2099999999996,1.5133454335649164
442,3693.8900000000003,1.3451483427164626
443,3696.56,1.3889062522069955
444,3699.24,1.3836701613585416
445,3701.91,1.5442820708490745
446,3704.5899999999997,1.4129009800006207
447,3707.26,1.3128758894911534
448,3709.94,1.3659177986426998
449,3712.62,1.660400707794246
450,3715.29,2.1044046172847786
451,3717.97,3.013097526436325
452,3720.64,4.850050435926858
453,3723.32,7.502604345078404
454,3725.9900000000002,10.147587254568938
455,3728.67,10.939997163720484
456,3731.34,9.076091073211016
457,3734.02,5.980825982362562
458,3736.6899999999996,3.345324891853095
459,3739.3700000000003,2.182239801004641
460,3742.05,1.6189307101561874
461,3744.7200000000003,1.4082136196467203
462,3747.4,1.3825905287982665
463,3750.0699999999997,1.2952184382887995
464,3752.7500000000005,1.3495023474403456
465,3755.42,1.4555292569308782
466,3758.1,1.5562161660824245
467,3760.77,1.6045950755729574
468,3763.45,1.4911159847245035
469,3766.12,1.6116838942150364
470,3768.7999999999997,1.5983648033665825
471,3771.48,1.5572567125181287
472,3774.15,1.6643776220086617
473,3776.83,1.6110645311602079
474,3779.5,1.6632194406507408
475,3782.18,1.7576123498022869
476,3784.8500000000004,1.76771925929282
477,3787.53,1.694847168444366
478,3790.2000000000003,1.792893077934899
479,3792.88,1.5966749870864452
480,3795.5499999999997,1.4453108965769779
481,3798.23,1.4406868057285243
482,3800.9100000000003,1.5358757148800704
483,3801.8939600000003,1.577323614558843
484,3803.58,1.6483456362794289
485,3806.26,1.7480055643603323
486,3808.93,1.7306214927095904
487,3811.61,1.6806034207904939
488,3814.2799999999997,1.679780349139752
489,3816.9599999999996,1.6510592772206554
490,3819.63,1.7112462055699136
491,3822.31,1.569182133650817
492,3824.98,1.615591062000075
493,3827.66,1.3972969900809784
494,3830.3399999999997,1.325683918161882
495,3833.01,1.32543884651114
496,3835.69,1.3978237745920434
497,3838.36,1.2404817029413016
498,3841.04,1.257735631022205
499,3843.71,1.5565815593714631
500,3846.39,1.6721574874523666
501,3849.0600000000004,1.6748114158016245
502,3851.7400000000002,1.7854343438825282
503,3854.41,1.7753372722317862
504,3857.09,1.8766862003126896
505,3859.77,1.9664421283935931
506,3862.4399999999996,2.232913056742851
507,3865.1200000000003,2.6563709848237544
508,3867.79,2.919200913173013
509,3870.47,2.8738178412539157
510,3873.14,2.5732437696031742
511,3875.8199999999997,2.2819296976840775
512,3878.49,1.9782076260333359
513,3881.17,1.8733725541142392
514,3883.84,1.7801394824634973
515,3886.52,1.8513474105444008
516,3889.2,1.835278338625304
517,3891.87,1.8351182669745623
518,3894.55,1.7017981950554655
519,3897.2200000000003,1.6950131234047239
520,3899.9,1.809445051485627
521,3902.57,1.8061379798348853
522,3905.25,1.7533039079157886
523,3907.9199999999996,1.7913988362650468
524,3910.6000000000004,1.88430176434595
525,3913.27,2.0666436926952083
526,3915.9500000000003,2.0205996207761117
527,3918.63,1.980020548857015
528,3921.2999999999997,1.8518434772062733
529,3923.9800000000005,1.8455464052871766
530,3926.6499999999996,1.7928873336364348
531,3929.33,1.5721752617173381
532,3932.0,1.4521121900665963
533,3934.68,1.4563821181474996
534,3937.35,1.463010046496758
535,3940.0299999999997,1.5231729745776612
536,3942.7000000000003,1.6217809029269195
537,3945.38,1.7615848310078228
538,3948.06,1.801326759088726
539,3950.73,1.7687066874379842
540,3953.41,1.8086146155188876
541,3956.08,1.9050045438681458
542,3958.76,1.860451471949049
543,3961.4300000000003,1.9165984002983074
544,3964.11,1.9106313283792107
545,3966.7799999999997,1.9495552567284689
546,3969.46,1.8635991848093723
547,3972.1299999999997,1.8583051131586303
548,3974.81,1.7337620412395338
549,3977.4900000000002,1.723489969320437
550,3980.16,1.8009998976696953
551,3982.84,1.8932398257505987
552,3985.5099999999998,1.9477307540998567
553,3988.1899999999996,2.1194636821807604
554,3990.86,2.078397610530018
555,3993.54,2.1149925386109216
556,3996.21,2.10009346696018
557,3998.89,2.0749163950410834
558,4001.56,2.219499323390341
559,4004.2400000000002,2.1837222514712447
560,4006.92,2.0931291795521485
561,4009.59,2.1320531079014065
562,4012.27,2.1469530359823095
563,4014.94,2.3547989643315677
564,4017.62,2.1693108924124713
565,4020.2900000000004,2.2153568207617296
566,4022.9700000000003,2.144470748842633
567,4025.64,2.273320677191891
568,4028.32,2.158713605272794
569,4030.99,2.3135645336220527
570,4033.6699999999996,2.169479461702956
571,4036.3500000000004,2.1542383897838593
572,4039.02,2.2189973181331175
573,4041.7,2.2974912462140207
574,4044.37,2.326975174563279
575,4047.0499999999997,2.0999201026441825
576,4049.72,2.1817370309934407
577,4052.4,2.2451599590743436
578,4055.07,2.157061887423602
579,4057.75,2.0436148155045055
580,4060.42,2.1512667438537636
581,4063.1,2.233237671934667
