,lambda (Angstroms),Total Flux (erg/s/cm^2/Angstrom)
0,100.03,0.0013854939424119321
1,101.89,0.0016664867548653053
2,104.02,0.0019873481672070706
3,104.712855,0.0020919441202204925
4,105.95,0.0019380047858898256
5,107.92,0.0016933112023554315
6,109.92999999999999,0.0014473594012365842
7,114.05,0.0009362307500377496
8,118.06,0.00043849125969616534
9,120.22644299999999,0.00021105169969321393
10,121.09,0.00022356121172644112
11,125.06,0.00021413505550752624
12,127.09,0.00020810073257946648
13,127.97,0.00020717866057124357
14,130.95000000000002,0.00019729523036157937
15,131.85999999999999,0.00020857317180762172
16,134.0,0.000201415664878534
17,137.12,0.00020976486412210713
18,138.038426,0.00020767983030948946
19,139.98999999999998,0.00021416156221901365
20,142.93,0.0004124780182822264
21,146.93,0.0007657540829940804
22,151.05,0.0008013017826472901
23,154.92000000000002,0.0008461870595060088
24,158.489319,0.0008887482819072423
25,158.9,0.0008936002169163208
26,161.85000000000002,0.0009292248533675064
27,166.0,0.0009857248537988353
28,169.86999999999998,0.0010297318226347976
29,173.03,0.0010687619077825083
30,177.06,0.001114212351815823
31,179.92999999999998,0.0011491296506683326
32,181.970086,0.001173989057384995
33,182.01999999999998,0.0011746180344657465
34,185.82999999999998,0.0012238266663057965
35,191.02999999999997,0.0012839769879772558
36,194.14000000000001,0.001328442768823071
37,198.20000000000002,0.0013779877045896334
38,201.89,0.0014291221905449573
39,205.17000000000002,0.0014687391780608009
40,208.929613,0.0014717467198655722
41,209.95,0.001473086903602847
42,215.83,0.0016055181192952536
43,219.84,0.0016634199160514695
44,222.9,0.0016841477834015994
45,227.04,0.0017486604862870692
46,230.2,0.0025889538198904717
47,233.94000000000003,0.004312888657762852
48,239.88329199999998,0.005207951380039607
49,239.94000000000003,0.005216428063460159
50,246.1,0.004901315043016764
51,251.83,0.005069342746403019
52,257.11,0.004200845300308681
53,260.08,0.004816850486880614
54,263.7,0.004982855556035631
55,269.22,0.004901207589664276
56,274.23,0.004820255853881578
57,275.42287,0.004796327367281623
58,278.68,0.0047344006104569555
59,283.86,0.004672518828311627
60,289.81,0.0043957352947663186
61,295.88,0.004399122631132701
62,300.68,0.004244105427600351
63,307.69,0.0042186549116083145
64,316.227766,0.004182776874871675
65,317.77,0.004174851613420348
66,328.18,0.004039787650017137
67,338.15,0.003882680909850951
68,347.62,0.003722906150635927
69,357.35999999999996,0.003601869481707276
70,363.078055,0.0035382560425071667
71,365.69,0.003511039524527761
72,375.07,0.0033879562452934107
73,384.69000000000005,0.0031672701337545563
74,394.56,0.003148561280231844
75,404.67999999999995,0.0030599636847252736
76,414.11,0.0029537818570941517
77,416.86938299999997,0.002914562181927639
78,421.8,0.0028438728085780356
79,429.65000000000003,0.0027503953215937296
80,440.67,0.0026607196022858256
81,450.93,0.002550915967068122
82,460.37,0.0024567532910003713
83,470.01,0.0023662656980667786
84,478.630092,0.0023037130110023494
85,479.86,0.002294260998107034
86,489.9,0.0021813421968390583
87,500.15999999999997,0.0021256319118779596
88,505.95,0.0020630993183180413
89,511.80999999999995,0.0020896387072194015
90,520.13,0.002027474051188569
91,529.8,0.0019359891997681187
92,539.65,0.0018318875889623855
93,549.5408739999999,0.0017578969779348
94,549.6800000000001,0.0017568790328826834
95,559.9,0.0017363693647126721
96,570.31,0.0017007826625942948
97,579.58,0.0016251591641661144
98,590.35,0.0015811179766718852
99,599.9399999999999,0.0015006921579096147
100,609.69,0.0013286676789802986
101,619.6,0.0014332025398839374
102,629.67,0.0013755957406205311
103,630.957344,0.0013720328985117299
104,639.9000000000001,0.0013489446767749947
105,650.3000000000001,0.00130248591158867
106,657.8299999999999,0.001254661040256648
107,665.44,0.001249895701500116
108,674.7,0.0012205693471130615
109,685.66,0.0011555983099551651
110,695.1999999999999,0.0011489178195823247
111,704.8699999999999,0.0010855671946446554
112,716.33,0.0010867594860835704
113,724.43596,0.0010644960157838075
114,726.29,0.0010593185567434138
115,734.6999999999999,0.0010344023144056031
116,744.9200000000001,0.001001426811231712
117,755.28,0.0009738443039047538
118,765.79,0.0008888880992709382
119,774.66,0.0009230930718587644
120,785.44,0.0008862088520726053
121,794.53,0.0008752364752770408
122,805.58,0.000858965240338538
123,814.91,0.0008392479278520014
124,824.3499999999999,0.0008218344906737692
125,831.763771,0.0007825783810022242
126,835.82,0.0007603177725262415
127,845.49,0.0007772772769798924
128,855.2800000000001,0.0007561170059976011
129,865.1899999999999,0.0007402740595793676
130,875.21,0.0007246839606781869
131,885.34,0.000707861209294059
132,895.59,0.000691396382473989
133,905.9599999999999,0.0006708533802179767
134,914.35,0.000745047622655012
135,924.9300000000001,0.0012700997383861005
136,935.64,0.001884419855728252
137,944.3,0.002663795178434417
138,954.992586,0.003224972868987387
139,955.24,0.0032379854260329074
140,964.07,0.00357130078690466
141,975.24,0.0014580602173619047
142,984.26,0.0032079196052512823
143,995.66,0.0031715002263088105
144,1004.8700000000001,0.003947497641215813
145,1014.17,0.003771209174183797
146,1025.91,0.0019809356856939184
147,1035.4099999999999,0.003015466036575192
148,1044.99,0.004578879714621781
149,1054.66,0.004464750510729351
150,1064.4099999999999,0.0037615886340022376
151,1074.26,0.004206888666231768
152,1084.2,0.00344091281652228
153,1094.23,0.004255006084873772
154,1096.4782,0.004214800407344074
155,1104.3600000000001,0.004073495242767261
156,1114.58,0.003944409385960771
157,1124.89,0.0035746996390258476
158,1135.3,0.004194187347503777
159,1145.8,0.0038799431658532732
160,1153.75,0.0039874038711750345
161,1164.42,0.004032561563726379
162,1175.2,0.0029953730572318633
163,1186.07,0.003824470660608913
164,1194.29,0.002953417695545376
165,1205.34,0.0023556795186655604
166,1213.7,0.0015532683911800163
167,1224.93,0.002762172434043335
168,1236.26,0.003675120932319506
169,1244.83,0.003917940061200951
170,1256.35,0.003776204124761542
171,1258.92541,0.003659842300958933
172,1265.0600000000002,0.0033831001320750592
173,1273.83,0.004026399957495724
174,1285.6100000000001,0.004129161794833858
175,1294.5300000000002,0.0034537363185228346
176,1303.5,0.0033988380749679155
177,1315.5600000000002,0.0039716992157402325
178,1324.68,0.003802562670453626
179,1333.8600000000001,0.003453963404474344
180,1346.1999999999998,0.0038817648486808437
181,1355.53,0.0037593182809698747
182,1364.93,0.0034304940391174515
183,1374.39,0.003517907076572353
184,1383.9199999999998,0.0035179434398858005
185,1393.51,0.0030457710825065724
186,1406.4099999999999,0.003087884133581439
187,1416.1499999999999,0.003247435474470523
188,1425.97,0.003254705187769375
189,1435.85,0.0032400411803755512
190,1442.4799999999998,0.003345365043834959
191,1445.43977,0.003365847453556276
192,1445.81,0.0033684092684128425
193,1455.83,0.003269845416514601
194,1465.92,0.0030600058381060925
195,1476.08,0.003032194533187317
196,1486.3100000000002,0.0030461525017582737
197,1496.62,0.0030531417828889257
198,1503.5200000000002,0.002903382741162592
199,1510.46,0.0026438548557161053
200,1517.4399999999998,0.002773675126549466
201,1524.44,0.0026988244755227504
202,1535.01,0.0023912627724724106
203,1545.65,0.0024915833429118026
204,1556.36,0.002375045186840928
205,1563.55,0.002429848278143487
206,1574.3799999999999,0.0025492545909121546
207,1585.3,0.002620084255310478
208,1596.29,0.002656290193198535
209,1603.65,0.0025786449486904454
210,1614.77,0.002561052394488006
211,1625.9599999999998,0.0024468151137752993
212,1633.47,0.002555277455316637
213,1644.79,0.0025670356825134343
214,1656.1899999999998,0.002402677222269926
215,1659.58691,0.0024756880917019795
216,1663.8400000000001,0.0025672058434103562
217,1671.52,0.002327483969643722
218,1675.37,0.002632824818081021
219,1683.1,0.0026938513709174688
220,1694.77,0.0025389703400767625
221,1706.52,0.0024707145918009877
222,1714.39,0.0024097391391260646
223,1726.28,0.0024100453853389187
224,1734.25,0.002569224785870159
225,1746.27,0.002511613741251025
226,1754.3300000000002,0.002695881709667813
227,1766.49,0.002444413659537309
228,1774.64,0.002535464195839644
229,1786.9399999999998,0.0026061341401977687
230,1795.19,0.002842456529706267
231,1803.48,0.002784781060497231
232,1815.98,0.002618872711267683
233,1824.36,0.0026612268099441942
234,1837.01,0.0025839017405238918
235,1845.4799999999998,0.00227999940708595
236,1854.0,0.00244693250025109
237,1866.86,0.0026382754225637312
238,1875.47,0.002730300083614419
239,1884.1299999999999,0.002602947171268188
240,1892.8300000000002,0.0026631844002044224
241,1905.46072,0.002704759243637192
242,1905.9499999999998,0.0027063377858752365
243,1914.74,0.0026998545059815885
244,1923.58,0.0025269803871806953
245,1936.92,0.002244510766727764
246,1945.8600000000001,0.0028633929701123812
247,1954.84,0.0027794427023712025
248,1968.3899999999999,0.0031362193585078428
249,1977.47,0.003030317412952174
250,1982.03,0.003128751704611442
251,1995.77,0.003121009372900552
252,2004.98,0.0030501806461860465
253,2014.24,0.003070745080564297
254,2023.53,0.0028605684115982
255,2032.87,0.003199004903724858
256,2046.9699999999998,0.003441278331881805
257,2056.41,0.0032646011461939734
258,2065.91,0.0031977467538174477
259,2075.44,0.003568365258096576
260,2080.23,0.005147641090782517
261,2085.02,0.005975113923468458
262,2094.65,0.0055263477499330966
263,2104.31,0.005290440473053388
264,2114.03,0.005811588989484985
265,2123.79,0.005265528034790787
266,2133.59,0.004915166608970792
267,2143.44,0.0060278833442435524
268,2153.33,0.006055430608390517
269,2163.27,0.005337017033630237
270,2173.25,0.00542298498774416
271,2183.29,0.006485842735169391
272,2187.7616199999998,0.0065190182674717675
273,2193.36,0.0065609234382407846
274,2203.49,0.006310003479620889
275,2213.66,0.005050899693918587
276,2223.88,0.005652349374363273
277,2234.14,0.0072760842277255515
278,2244.4500000000003,0.00688644554723482
279,2254.81,0.005412059332891077
280,2265.22,0.005145973584694325
281,2275.68,0.0056407563026445616
282,2286.18,0.007244395193512391
283,2296.73,0.0060986605505272086
284,2307.33,0.007260009373689018
285,2312.65,0.006253780371728717
286,2323.33,0.0049603145407257085
287,2334.05,0.004504734882640292
288,2344.83,0.003224954983931263
289,2355.65,0.005742810258139826
290,2366.52,0.003509441998495378
291,2377.4500000000003,0.004493376498227317
292,2382.93,0.0028117201879373846
293,2393.93,0.0034611697402751104
294,2404.97,0.0034374054655304273
295,2416.08,0.00402467424339153
296,2427.23,0.0066165061941702245
297,2432.82,0.006631440109403668
298,2444.05,0.007839756406017548
299,2455.33,0.008244806168778413
300,2466.67,0.007249914690915669
301,2472.35,0.006405036245213694
302,2483.77,0.004269771113186133
303,2495.23,0.004999932154076163
304,2506.75,0.007639752954342581
305,2511.88643,0.0039888358167208555
306,2512.53,0.003531367265855367
307,2518.32,0.0028106035565944962
308,2524.1200000000003,0.0031139497338461292
309,2535.77,0.004850873520911908
310,2547.4799999999996,0.0051951466270527035
311,2553.35,0.008883569009891856
312,2565.1400000000003,0.006697982208132674
313,2576.98,0.008462487838936007
314,2582.92,0.007527319427362678
315,2594.84,0.0067568791502660335
316,2606.82,0.0058202661922444054
317,2612.83,0.005225741986258597
318,2624.89,0.007201985120336991
319,2637.0,0.0120426396869779
320,2643.08,0.01634706068657961
321,2655.2799999999997,0.021937302231833045
322,2667.54,0.014268993096161496
323,2673.69,0.016302593301350726
324,2686.0299999999997,0.0185820532577792
325,2692.2200000000003,0.013780673009018442
326,2704.65,0.01686729194405944
327,2717.1299999999997,0.012337370311662954
328,2723.4,0.01028874915500222
329,2735.96,0.012795986614705754
330,2742.27,0.007058912004095029
331,2754.93,0.009577344328923591
332,2767.6499999999996,0.012528336972827172
333,2774.03,0.013514334567803968
334,2786.83,0.008077136303807571
335,2793.25,0.003491210444834378
336,2806.15,0.004259198045963008
337,2812.6200000000003,0.011985656619552329
338,2825.6,0.017591489312780983
339,2832.11,0.016799425432420315
340,2845.19,0.012747256990773996
341,2851.74,0.00744685165646334
342,2864.91,0.01726163319342955
343,2878.1299999999997,0.02217543316295827
344,2884.0315,0.02023572800457683
345,2884.77,0.019993006016791694
346,2898.08,0.023644442925481363
347,2911.46,0.03151635981791321
348,2931.64,0.02763544513101295
349,2951.96,0.025845620411597027
350,2972.42,0.027305805659665446
351,2993.0299999999997,0.027678360872895658
352,3006.84,0.02818758766545797
353,3027.68,0.029573442825269594
354,3048.67,0.030958887950243014
355,3069.7999999999997,0.03308446304270077
356,3091.08,0.03262339810032032
357,3112.51,0.036673133123101664
358,3126.88,0.03430107978560133
359,3148.55,0.034054614752641536
360,3170.3700000000003,0.03724149968484354
361,3192.35,0.032505414579884775
362,3207.09,0.0361262911564502
363,3229.32,0.030602415993427765
364,3251.7000000000003,0.041738800795567126
365,3266.71,0.04824086730942377
366,3289.35,0.047238782051176896
367,3311.31121,0.04498059459167826
368,3312.1600000000003,0.04489331318211115
369,3319.7900000000004,0.042379149306318364
370,3327.44,0.04276523534172926
371,3335.11,0.04875569128834385
372,3342.8,0.043853407146162135
373,3350.5099999999998,0.0472008929151841
374,3358.23,0.04862931863980792
375,3365.97,0.040915754275635416
376,3373.7299999999996,0.034110539822666604
377,3381.5099999999998,0.043630565280901486
378,3389.31,0.047393440650340055
379,3397.1200000000003,0.04146759597538046
380,3404.95,0.04927493121162456
381,3412.7999999999997,0.04391460635907235
382,3420.67,0.045978241417723824
383,3428.55,0.04650367643197714
384,3436.46,0.046286421313036
385,3444.38,0.0323974161496967
386,3452.3199999999997,0.04924266089756108
387,3460.2699999999995,0.045010695601027315
388,3468.25,0.04552782017129908
389,3476.25,0.04317442465277453
390,3484.26,0.046256769089851824
391,3492.29,0.043565923438132814
392,3500.34,0.04074884769761749
393,3508.4100000000003,0.050236921868305855
394,3516.5,0.041783335950197904
395,3524.61,0.04487076994329365
396,3532.73,0.04999006389199123
397,3540.88,0.05282285770749435
398,3549.04,0.055562131478599314
399,3557.22,0.04861241516090796
400,3565.42,0.0535411387544203
401,3573.6400000000003,0.03764483225913633
402,3581.88,0.04252533567505604
403,3590.13,0.03233538904657761
404,3598.4100000000003,0.0506411722849047
405,3606.7,0.046395755478833636
406,3615.02,0.0447123785395681
407,3623.3500000000004,0.04134339155590442
408,3631.71,0.06342550443904628
409,3640.08,0.05179074727778996
410,3648.47,0.04911568002773734
411,3656.88,0.060691592688888414
412,3665.31,0.06310653526124317
413,3673.7599999999998,0.05768182774480162
414,3682.23,0.05395339013956375
415,3690.7200000000003,0.04863857244552958
416,3699.22,0.05860100470709725
417,3707.75,0.049190766835470454
418,3716.3,0.06423727887504734
419,3724.8700000000003,0.03654797082582792
420,3733.45,0.05428839273221034
421,3742.06,0.044534834505398295
422,3750.6800000000003,0.0373842262341881
423,3759.3300000000004,0.05991664782978343
424,3768.0000000000005,0.05134800933658245
425,3776.68,0.05867577079898332
426,3785.3900000000003,0.06876649212818971
427,3794.1200000000003,0.052647693368599806
428,3801.8939600000003,0.043273917506190994
429,3802.86,0.04210907545828418
430,3811.6299999999997,0.058919454634127295
431,3820.42,0.050028903739675876
432,3829.22,0.03901611281007717
433,3838.05,0.03185973177503666
434,3846.8999999999996,0.05176839066970161
435,3855.77,0.05662495949407202
436,3864.65,0.050463128283295154
437,3873.56,0.04987883696707648
438,3882.4900000000002,0.04941783558056325
439,3884.16,0.047219869710968955
440,3885.9300000000003,0.07079280348990194
441,3887.7099999999996,0.04835101723368766
442,3889.48,0.04734866101262065
443,3891.26,0.052749364756406375
444,3893.04,0.05904229850019209
445,3894.8100000000004,0.05961593227912508
446,3896.5899999999997,0.0537302260229108
447,3898.36,0.053647199801843785
448,3900.1400000000003,0.046290023545629506
449,3901.9199999999996,0.048651097289415225
450,3903.69,0.055694781068348215
451,3905.47,0.07256953481213392
452,3907.2400000000002,0.06310840859106692
453,3909.0200000000004,0.06628689233485263
454,3910.7999999999997,0.06081395607863836
455,3912.57,0.07418831985757135
456,3914.35,0.06679633360135706
457,3916.1200000000003,0.06441099738029005
458,3917.9,0.06734023112407576
459,3919.68,0.049128184867861496
460,3921.4500000000003,0.05333082864679448
461,3923.2299999999996,0.052014632390580205
462,3925.0,0.041704096169513184
463,3926.78,0.04112767991329891
464,3928.56,0.037032143657084626
465,3930.3300000000004,0.029860087436017615
466,3932.1099999999997,0.031007091179803332
467,3933.88,0.032781594958736324
468,3935.6600000000003,0.024503598702522042
469,3937.44,0.04430356244630776
470,3939.21,0.038568136225240746
471,3940.99,0.04313238996902647
472,3942.76,0.05144379374795945
473,3944.5400000000004,0.06086216749174518
474,3946.3199999999997,0.062113581235530894
475,3948.09,0.06174140501446388
476,3949.87,0.0561716587582496
477,3951.6400000000003,0.05552847253718259
478,3953.42,0.0630572762809683
479,3955.2,0.06497338002475403
480,3956.9700000000003,0.05640746380368702
481,3958.7499999999995,0.047468977547472736
482,3960.52,0.04106597132640572
483,3962.3,0.04203089507019145
484,3964.08,0.042802628813977166
485,3965.8500000000004,0.025068722592910153
486,3967.6299999999997,0.02436277633669587
487,3969.4,0.02704034011562886
488,3971.1800000000003,0.03770749385941458
489,3972.96,0.0432073376032003
490,3974.73,0.05905285138213328
491,3976.5099999999998,0.064115865125919
492,3978.28,0.06716333890485199
493,3980.0600000000004,0.07661620264863771
494,3981.8399999999997,0.06695140639242343
495,3983.61,0.07128004017135642
496,3985.39,0.08388480391514214
497,3987.1600000000003,0.08526562769407513
498,3988.94,0.08561909143786084
499,3990.72,0.07655198518164656
500,3992.4900000000002,0.08366269896057955
501,3994.27,0.08224989270436527
502,3996.04,0.08698903648329825
503,3997.82,0.08601577022708398
504,3999.6,0.0819281139708697
505,4001.3700000000003,0.09079479774980269
506,4003.1499999999996,0.09659444149358841
507,4004.92,0.09016513527252139
508,4006.7000000000003,0.08940091901630712
509,4008.48,0.09646829276009283
510,4010.25,0.09538874653902582
511,4012.0299999999997,0.08921314028281153
512,4013.8,0.09535898406174453
513,4015.5800000000004,0.09740141780553024
514,4017.3599999999997,0.09858301154931597
515,4019.13,0.11028550532824895
516,4020.91,0.10287159907203468
517,4022.6800000000003,0.10158789285096766
518,4024.46,0.10356058659475338
519,4026.24,0.0954552303385391
520,4028.01,0.08828306411747208
521,4029.79,0.08980552786125781
522,4031.56,0.0787738116401908
523,4033.34,0.08557898538397651
524,4035.12,0.09880016912776224
525,4036.8900000000003,0.09517662290669522
526,4038.6699999999996,0.09573152665048094
527,4040.44,0.10239203042941393
528,4042.2200000000003,0.09791296417319965
529,4044.0,0.08397054791698537
530,4045.77,0.08889421169591835
531,4047.5499999999997,0.08866872543970407
532,4049.32,0.09568340921863706
533,4051.1000000000004,0.09478516296242279
534,4052.8799999999997,0.0966909167062085
535,4054.65,0.0931799204851415
536,4056.43,0.0862270842289272
537,4058.2000000000003,0.0887523680078602
538,4059.9800000000005,0.09083992175164592
539,4061.7599999999998,0.09190896549543164
540,4063.53,0.09390359927436463
541,4065.31,0.08815685301815035
542,4067.08,0.09427366679708334
543,4068.86,0.09851073054086905
544,4070.64,0.09515741428465477
545,4072.4100000000003,0.08810896806358776
546,4074.1899999999996,0.08933350180737348
547,4075.96,0.09387924558630646
548,4077.7400000000002,0.09846788933009219
549,4079.52,0.0915445030738779
550,4081.2900000000004,0.09546889685281089
551,4083.0699999999997,0.09783786059659662
552,4084.84,0.1042007743755296
553,4086.6200000000003,0.10198706811931532
554,4088.3999999999996,0.10136216186310104
555,4090.17,0.10494305564203403
