,lambda (Angstroms),Total Flux (erg/s/cm^2/Angstrom)
0,100.09,12.776042042256137
1,101.94999999999999,12.740499190260936
2,104.08000000000001,12.699796892002553
3,104.712855,12.687703627733752
4,106.02000000000001,12.556496204274477
5,107.99,12.35875331879006
6,110.0,12.156995349727021
7,114.13,11.742437930712134
8,117.87,11.367027581290774
9,120.22644299999999,11.13049468397286
10,120.89000000000001,11.074652611196688
11,125.14000000000001,10.716991069325314
12,126.88,10.570560228140556
13,128.05,10.4720981108561
14,131.03,10.221314257248887
15,131.94,10.144732621697237
16,134.09,9.963797964821044
17,136.89,9.728162155605995
18,138.038426,9.631515617832484
19,140.07999999999998,9.50870865162973
20,143.02,9.331858915136369
21,147.02,9.0912475634376
22,151.14000000000001,8.843417156537697
23,155.02,8.610023570287064
24,158.489319,8.401333740327791
25,159.0,8.378109645687104
26,161.95000000000002,8.243953375457714
27,166.11,8.05477040341249
28,169.98,7.878775724624199
29,173.14,7.735069533280483
30,177.17,7.551798740806988
31,180.05,7.4208261600043715
32,181.970086,7.333507207303718
33,182.13,7.3279591139385225
34,185.95000000000002,7.195427286013399
35,191.16,7.0146705849271065
36,193.81,6.922731331131738
37,197.87,6.781873179302434
38,202.02,6.637892782873687
39,204.83,6.540402649662198
40,208.929613,6.3981699514279775
41,210.07999999999998,6.368163829330377
42,215.97000000000003,6.214534243732471
43,219.98,6.109940703472422
44,223.04000000000002,6.03012588543687
45,227.19,5.921881044028789
46,229.82,5.853297797537907
47,234.09,5.74195583361294
48,239.88329199999998,5.590870679283431
49,240.1,5.5865157303349955
50,246.26,5.4626999476371605
51,251.98999999999998,5.34754018217083
52,257.27,5.241397229458401
53,260.25,5.1815195110214605
54,263.87,5.108768748967863
55,268.77000000000004,5.010284784680949
56,273.77,4.909790459982058
57,275.42287,4.876569729262593
58,278.86,4.8235534660597565
59,284.03999999999996,4.743654013732736
60,289.99,4.651869116701696
61,296.06,4.558245676327173
62,300.88,4.483897894330601
63,307.88,4.375928086294084
64,316.227766,4.247171573163899
65,317.96999999999997,4.227101500261296
66,327.63,4.1158162442311665
67,338.37,3.992085985671582
68,347.85,3.8828721133463615
69,356.77,3.7801097962141936
70,363.078055,3.707438866229091
71,365.92,3.6829210208699714
72,375.31,3.60190884755428
73,384.93,3.518902848756734
74,394.81,3.433673049497092
75,404.94,3.3462784674354356
76,414.37,3.2649186362794214
77,416.86938299999997,3.2433537247608126
78,422.07,3.209087788164197
79,429.92,3.157367209755295
80,440.95000000000005,3.0846977951672465
81,451.22,3.017029434755347
82,459.61,2.9617482382160243
83,470.31000000000006,2.891248382546567
84,478.630092,2.8364312918709564
85,480.16,2.828679275816636
86,490.21000000000004,2.7777457761922713
87,500.48,2.725709508967771
88,506.27,2.6963639695823907
89,512.14,2.6666411058605974
90,520.46,2.6244808326736604
91,530.13,2.575474967022257
92,539.99,2.5255001680343727
93,549.5408739999999,2.4771076045718954
94,550.0300000000001,2.475217141876529
95,560.26,2.435685799416788
96,569.36,2.400522627267948
97,579.9399999999999,2.3596150357986363
98,589.37,2.323178762160771
99,600.32,2.280841717961341
100,610.08,2.2430834447344528
101,619.99,2.204837506003462
102,630.0699999999999,2.1658769614478235
103,630.957344,2.16244714835036
104,640.3000000000001,2.1338212694928576
105,650.71,2.1019365631789317
106,658.2399999999999,2.078869679977217
107,664.33,2.060222913431606
108,675.13,2.027126580210819
109,684.52,1.9983366359533015
110,695.64,1.9643338497756022
111,705.3199999999999,1.9346464500540081
112,716.7800000000001,1.8995894070908392
113,724.43596,1.8761398193203607
114,726.75,1.870879737056684
115,735.17,1.8517416564297464
116,745.39,1.8285464888906362
117,755.76,1.804990951225512
118,764.5200000000001,1.785064489706275
119,775.15,1.760964169129393
120,784.13,1.740576072238668
121,795.0300000000001,1.7158173986149599
122,804.24,1.6949048791176797
123,815.4300000000001,1.6694797370770105
124,824.87,1.6480881951731752
125,831.763771,1.6322727854735724
126,834.4200000000001,1.6277049126342744
127,844.0799999999999,1.6115135062269113
128,855.83,1.5915610426403146
129,865.74,1.5747971313694065
130,875.76,1.5578491668785386
131,885.9,1.5407277486931694
132,894.1,1.526866891568906
133,904.4499999999999,1.5092452344181597
134,914.9300000000001,1.4924090100983696
135,925.52,1.4906946105586203
136,934.08,1.498923510350853
137,944.9000000000001,1.5212111088966425
138,954.992586,1.5425248652768326
139,955.84,1.5443455801567931
140,964.6899999999999,1.53221839000966
141,975.86,1.4042005978126568
142,984.89,1.4599907387133788
143,994.0,1.465603162302036
144,1005.51,1.524977486528759
145,1014.8100000000001,1.5125518240012632
146,1024.2,1.3916044569976949
147,1036.06,1.4053009504841356
148,1045.65,1.539147410200406
149,1055.32,1.5206042726046123
150,1065.0900000000001,1.4284577633687372
151,1074.94,1.4645771568207984
152,1084.89,1.3800097786327787
153,1094.9299999999998,1.4534846659686869
154,1096.4782,1.449446347944757
155,1105.06,1.4296494270847688
156,1115.29,1.397597224830358
157,1125.61,1.3548779272481961
158,1136.02,1.4286458343382826
159,1143.89,1.3857142540115754
160,1154.48,1.4001109704461594
161,1165.1599999999999,1.3951525915529916
162,1175.94,1.2684384956289887
163,1184.09,1.3631669076159445
164,1195.05,1.227668221036439
165,1206.11,1.1480465174260985
166,1214.47,1.1205623036483001
167,1225.71,1.2133176793824572
168,1234.2,1.3395744534645737
169,1245.6200000000001,1.3629591685432276
170,1254.26,1.3242250170790921
171,1258.92541,1.2926452285833174
172,1265.8600000000001,1.2484176719286095
173,1274.6399999999999,1.3614591901658835
174,1286.43,1.3804624921040904
175,1295.3500000000001,1.2419631607460588
176,1304.33,1.2282475652757536
177,1316.39,1.3363591787087286
178,1325.52,1.3064019229577388
179,1334.71,1.2283980030944752
180,1343.9599999999998,1.3266418191189382
181,1356.39,1.2994823371928914
182,1365.8000000000002,1.2281673822512906
183,1375.26,1.2497618738827956
184,1384.8,1.2469786800312685
185,1394.4,1.1814717220674673
186,1404.06,1.187654999991393
187,1413.79,1.1815718031176656
188,1423.5900000000001,1.1946778314462854
189,1433.46,1.1797485849772527
190,1443.3999999999999,1.2004268637105673
191,1445.43977,1.2055758078140983
192,1446.73,1.2092110670177716
193,1453.3999999999999,1.1883123255943435
194,1463.48,1.139452727161337
195,1473.62,1.135985759690039
196,1483.84,1.1438652668343516
197,1494.12,1.1486202049403729
198,1504.48,1.1142127176620051
199,1511.42,1.0558410655662644
200,1518.4,1.0848659007783292
201,1525.41,1.0635761014712484
202,1535.98,1.0008843725588596
203,1546.6299999999999,1.040843718262082
204,1553.77,1.015677302705369
205,1564.5400000000002,1.0112020103320079
206,1575.38,1.0281753707473062
207,1586.3,1.0478357057782162
208,1593.6200000000001,1.050398383106628
209,1604.67,1.0387104018879056
210,1615.79,1.0362155734578429
211,1623.25,1.005037956363574
212,1634.5000000000002,1.028652711683879
213,1645.8300000000002,1.0287605416197956
214,1653.4299999999998,0.9877427301028463
215,1659.58691,1.005690559907578
216,1664.8899999999999,1.022226419877735
217,1672.58,0.9611185256342916
218,1676.4299999999998,1.0185288048492127
219,1684.17,1.0435589739721967
220,1695.8400000000001,1.007535643696386
221,1703.6699999999998,0.9847570868789398
222,1715.48,0.9530874940291263
223,1723.3999999999999,0.9485429112712496
224,1735.35,0.9739648558474332
225,1743.36,0.960879947149126
226,1755.44,0.9900473764780211
227,1763.5400000000002,0.9430620418392835
228,1775.7700000000002,0.9488417612674613
229,1783.96,0.9551880006882935
230,1796.33,0.9855364575424684
231,1804.6200000000001,0.9797045236961557
232,1812.95,0.9345703005429847
233,1825.52,0.94065811086287
234,1833.94,0.9178797617692687
235,1846.6599999999999,0.8769688621884365
236,1855.1799999999998,0.8714254398276904
237,1863.74,0.8819179281600862
238,1876.66,0.9172942820449641
239,1885.3200000000002,0.876405297110215
240,1894.03,0.8575078755418937
241,1905.46072,0.8733406502809719
242,1907.1599999999999,0.8759098731853633
243,1915.9599999999998,0.8561180225673211
244,1924.8000000000002,0.8491773562646513
245,1933.69,0.8586155953561971
246,1947.09,0.8702776410059965
247,1956.08,0.8421607908859738
248,1965.11,0.8819564250813238
249,1974.18,0.8921886435920461
250,1983.29,0.8635747464181409
251,1997.04,0.8462778298274498
252,2006.25,0.8581444434419762
253,2015.52,0.8365844835295613
254,2024.82,0.8568450868536757
255,2034.16,0.8292919744931626
256,2043.5500000000002,0.8460216675268651
257,2052.9900000000002,0.8243605659547835
258,2067.22,0.818597561148563
259,2071.98,0.8492182946778946
260,2076.76,0.8251655703649124
261,2086.35,0.8406876849754779
262,2095.98,0.8134998839014158
263,2105.65,0.8109637671427261
264,2115.37,0.8125662557782523
265,2125.13,0.8159330287291507
266,2134.94,0.779938107074265
267,2144.8,0.7899856908135949
268,2154.7,0.8039432588682975
269,2164.64,0.7871542112383725
270,2174.63,0.7804224690026631
271,2184.67,0.7689183321611694
272,2187.7616199999998,0.7740940805176365
273,2194.75,0.7865798554523218
274,2204.89,0.7726301450262222
275,2215.06,0.7489717736225305
276,2225.29,0.7338325802636548
277,2235.56,0.7589746722679899
278,2245.88,0.7386753959763381
279,2256.24,0.7178622050478971
280,2266.66,0.726307792164272
281,2277.12,0.7351305646438575
282,2287.63,0.7443360688274563
283,2292.91,0.7216326367712624
284,2303.49,0.7178182653404801
285,2314.12,0.6960993256137109
286,2324.7999999999997,0.6119891175909551
287,2335.53,0.6634860412722123
288,2346.31,0.6529858966574832
289,2357.14,0.6783181837467673
290,2362.58,0.646909293143416
291,2373.48,0.6543943046183187
292,2384.44,0.6295412941380374
293,2395.44,0.6488688690209667
294,2406.5,0.6328650219487122
295,2417.61,0.6401617065804708
296,2423.18,0.6596032184075542
297,2434.37,0.6440047737657342
298,2445.6,0.6620973144871248
299,2456.89,0.6548097332533314
300,2462.56,0.6508486084884413
301,2473.92,0.6358342516402666
302,2485.34,0.6424494728369077
303,2496.81,0.6224887257375623
304,2502.57,0.6571437180398962
305,2511.88643,0.6220770978865637
306,2514.1200000000003,0.6138040521609834
307,2519.92,0.6228652202030401
308,2525.73,0.6070351345693072
309,2537.38,0.6118529022744728
310,2543.23,0.6041720019375818
311,2554.97,0.6282190865606414
312,2566.77,0.6152284491289636
313,2572.68,0.6354773267373351
314,2584.5600000000004,0.6280995598993409
315,2596.4900000000002,0.6208078246823989
316,2602.4700000000003,0.6081389265602435
317,2614.48,0.6017604619369851
318,2626.55,0.6159248752589892
319,2632.61,0.6299340477305174
320,2644.7599999999998,0.6595800316462053
321,2656.9700000000003,0.6710159935071555
322,2663.09,0.6250074439239464
323,2675.38,0.6425229763785802
324,2687.73,0.6397930867784769
325,2693.93,0.6207167077889513
326,2706.3599999999997,0.6323588887825314
327,2712.6,0.6093773950898476
328,2725.12,0.6053017930013216
329,2737.7000000000003,0.6222011688580583
330,2744.01,0.5701110994348476
331,2756.6800000000003,0.5760401922094783
332,2763.03,0.5884571080831094
333,2775.7900000000004,0.602579517775634
334,2782.19,0.5807759652703173
335,2795.03,0.5183827455565256
336,2807.9300000000003,0.5353150037879965
337,2814.4,0.5921849755521529
338,2827.3900000000003,0.6121160507015178
339,2833.91,0.5973666540867264
340,2846.99,0.5841678461539852
341,2853.55,0.5678625348360354
342,2866.73,0.6057767901453988
343,2873.33,0.6106723641242909
344,2884.0315,0.6047361946774179
345,2886.6000000000004,0.6034437550436088
346,2893.25,0.6027160416449948
347,2913.31,0.6389562777688749
348,2926.75,0.6197001117422024
349,2947.0400000000004,0.610459161989138
350,2967.47,0.617652073006629
351,2988.04,0.6170139447946755
352,3008.75,0.6204217773532776
353,3029.6099999999997,0.6189800321660464
354,3050.61,0.6167034477493705
355,3071.7499999999995,0.6185318241032501
356,3093.0400000000004,0.6195619227112963
357,3107.32,0.6213796213079568
358,3128.86,0.6123604570062806
359,3150.5499999999997,0.6116799149587713
360,3172.39,0.6118336951654283
361,3187.03,0.5866489071720886
362,3209.12,0.6020223244690234
363,3231.37,0.5763405255037359
364,3246.28,0.606403197567896
365,3268.78,0.6231852356928862
366,3291.44,0.616284957555654
367,3306.6299999999997,0.6120132511609252
368,3311.31121,0.6099044336450439
369,3321.8999999999996,0.6055168607678976
370,3329.55,0.6264048549381992
371,3337.23,0.6132184173209335
372,3344.92,0.6073872024411453
373,3352.6299999999997,0.5964352330363122
374,3360.36,0.611567009106434
375,3368.11,0.609256930651511
376,3375.8700000000003,0.5684095749340653
377,3383.65,0.5758759646915749
378,3391.46,0.6138426226615168
379,3399.27,0.6224120806314588
380,3407.1099999999997,0.6020426068138335
381,3414.96,0.6050344557336855
382,3422.8399999999997,0.6291395728659702
383,3430.73,0.6155933127357324
384,3438.64,0.6205492980804496
385,3446.5600000000004,0.5624692061626443
386,3454.51,0.6075922824572716
387,3462.4700000000003,0.5726197814893764
388,3470.45,0.5975487259964363
389,3478.4500000000003,0.5633423159784511
390,3486.47,0.585985051435421
391,3494.51,0.578617632367346
392,3502.56,0.6041735360367484
393,3510.64,0.5982320079185834
394,3518.73,0.586253002537896
395,3526.84,0.5779767426321636
396,3534.9700000000003,0.6055011282013862
397,3543.1200000000003,0.6274233592455638
398,3551.2899999999995,0.6258723357646967
399,3559.48,0.6148778577587843
400,3567.68,0.6041101024903496
401,3575.91,0.5660651154343473
402,3584.1499999999996,0.5422120511158227
403,3592.41,0.5574869322722531
404,3600.6899999999996,0.6147906589036385
405,3608.9900000000002,0.5789271310099788
406,3617.3100000000004,0.5942213485912743
407,3625.65,0.6083534116475249
408,3627.3,0.6628473633313154
409,3630.04,0.6038337934001554
410,3632.7799999999997,0.6291502234689956
411,3635.52,0.6800613535378357
412,3638.25,0.5344758608691983
413,3640.9900000000002,0.7054064909380384
414,3643.73,0.5983880210068784
415,3646.47,0.4041611510757186
416,3649.21,0.6768531811445586
417,3651.95,0.5698840112133987
418,3654.69,0.6863069412822389
419,3657.43,0.4931114713510789
420,3660.1699999999996,0.531756301419919
421,3662.91,0.5515406314887591
422,3665.6499999999996,0.41119206155759924
423,3668.3900000000003,0.6068793916264393
424,3671.13,0.6996904216952793
425,3673.8700000000003,0.5132559517641194
426,3676.61,0.6215907818329596
427,3679.35,0.6523675119017998
428,3682.09,0.6397278419706398
429,3684.83,0.49746447203947985
430,3687.57,0.58070120210832
431,3690.31,0.70578063217716
432,3693.0499999999997,0.6616308622460002
433,3695.79,0.7219838923148403
434,3698.5299999999997,0.6726014223836804
435,3701.27,0.5196565524525204
436,3704.0099999999998,0.6178594825213606
437,3706.7499999999995,0.5632481125902007
438,3709.49,0.48850594265904074
439,3712.2300000000005,0.5858177727278808
440,3714.9700000000003,0.6350228027967209
441,3717.71,0.701290932865561
442,3720.4500000000003,0.8894661629344011
443,3723.19,1.3455717930032414
444,3725.9300000000003,1.5434154230720813
445,3728.67,1.3600680531409213
446,3731.41,1.1338730832097614
447,3734.15,0.8137167132786016
448,3736.89,0.6466741433474417
449,3739.63,0.6329348734162817
450,3742.37,0.5357073034851219
451,3745.1099999999997,0.685804933553962
452,3747.85,0.6961436636228021
453,3750.5899999999997,0.6507426936916422
454,3753.3300000000004,0.6280546237604823
455,3756.07,0.6080210538293224
456,3758.8100000000004,0.5777114838981624
457,3761.55,0.7176165139670025
458,3764.29,0.6219361440358426
459,3767.03,0.6673112741046827
460,3769.77,0.7055198041735229
461,3772.51,0.6684988342423629
462,3775.2400000000002,0.6342111415737255
463,3777.98,0.5064703716425656
464,3780.7200000000003,0.7653829017114057
465,3783.46,0.7721194317802458
466,3786.2000000000003,0.729675861849086
467,3788.94,0.808608891917926
468,3791.68,0.7697675219867661
469,3794.42,0.7628534520556061
470,3797.16,0.6328566821244462
471,3799.9,0.7070877121932864
472,3801.8939600000003,0.823773400007932
473,3802.64,0.8674503239267818
474,3805.3799999999997,0.8033114684360751
475,3808.12,0.7529368129453683
476,3810.8599999999997,0.9173693574546616
477,3813.6,0.824715901963955
478,3816.3399999999997,0.8485475464732481
479,3819.0800000000004,0.7659803909825413
480,3821.82,0.6349537354918346
481,3824.5600000000004,0.664017980001128
482,3827.3,0.6080316245104213
483,3830.04,0.7858872690197145
484,3832.78,0.5059214135290078
485,3835.52,0.625985758038301
486,3838.26,0.5647287025475943
487,3841.0,0.7293507470568876
488,3843.74,0.711396391566181
489,3846.48,0.7764450360754742
490,3849.22,0.6583106805847675
491,3851.96,0.7651073250940608
492,3854.7,0.6654770696033541
493,3857.4399999999996,0.7794782141126473
494,3860.18,0.7956880586219405
495,3862.92,0.7861895031312338
496,3865.6600000000003,0.774567547640527
497,3868.4,0.7809565921498204
498,3871.1400000000003,0.8271219366591136
499,3873.88,0.7972992811684069
500,3876.62,0.7790414256777002
501,3879.36,0.7667368701869934
502,3882.1,0.7397580146962868
503,3884.84,0.64016585920558
504,3887.58,0.7467728037148732
505,3890.3199999999997,0.6781977482241666
506,3893.06,0.7070722927334598
507,3895.7999999999997,0.6375871372427531
508,3898.54,0.7375961817520463
509,3901.2799999999997,0.7791355262613396
510,3904.0200000000004,0.7222771707706328
511,3906.76,0.787666915279926
512,3909.49,0.7834047826194775
513,3912.23,0.7912348271287708
514,3914.97,0.686826671638064
515,3917.7099999999996,0.7406895161473572
516,3920.45,0.8061175606566505
517,3923.1899999999996,0.8473916051659438
518,3925.9300000000003,0.7473439496752371
519,3928.67,0.6512398941845303
520,3931.4100000000003,0.6821622386938235
521,3934.15,0.6457036832031169
522,3936.8900000000003,0.6488319277124102
523,3939.63,0.6773273722217035
524,3942.37,0.7499977167309968
525,3945.11,0.71812726124029
526,3947.85,0.7990638057495834
527,3950.59,0.8298344502588766
528,3953.33,0.7858301947681698
529,3956.0699999999997,0.7312846392774631
530,3958.81,0.6744639837867563
531,3961.5499999999997,0.6683401282960497
532,3964.29,0.6439017728053429
533,3967.0299999999997,0.5306512173146362
534,3969.7700000000004,0.5638561618239294
535,3972.51,0.5896216063332227
536,3975.25,0.646176550842516
537,3977.9900000000002,0.7658274953518093
538,3980.73,0.8345542398611026
539,3983.4700000000003,0.8074995843703958
540,3986.21,0.7619785288796891
541,3988.95,0.8081060733889824
542,3991.69,0.8305346178982757
543,3994.43,0.826420362407569
544,3997.17,0.8422511069168621
545,3999.91,0.7985882514261555
546,4002.6499999999996,0.8628404959354488
547,4005.39,0.876092840444742
548,4008.1299999999997,0.8929094849540352
549,4010.8700000000003,0.9251588294633285
550,4013.61,0.9346571739726218
551,4016.3500000000004,0.9419185184819151
552,4019.09,0.9198689629912083
553,4021.83,0.9261822075005017
554,4024.57,0.935111852009795
555,4027.31,0.8974778965190882
556,4030.05,0.9233570410283815
557,4032.79,0.9153751855376747
558,4035.5299999999997,0.910388730046968
559,4038.27,0.7875906745562613
560,4041.0099999999998,0.8036869190655546
561,4043.75,0.8996007635748479
562,4046.48,0.9241570309143992
563,4049.2200000000003,0.8730999754236923
564,4051.96,0.8911300199329857
565,4054.7,0.874009764442279
566,4057.44,0.8779722089515722
567,4060.18,0.9295599534608654
568,4062.92,0.9342047979701589
569,4065.66,0.8616480424794521
570,4068.3999999999996,0.8528698869887454
571,4071.14,0.8570597314980386
572,4073.8799999999997,0.8735351760073319
573,4076.6200000000003,0.8040498205166251
574,4079.36,0.8621215650259184
575,4082.1000000000004,0.8191789095352116
576,4084.84,0.767818454044505
577,4087.58,0.8386686985537983
578,4090.32,0.8597322430630915
579,4093.06,0.8086751875723848
580,4095.8,0.7465839320816781
581,4098.54,0.7134622765909713
582,4101.28,0.7566322211002646
583,4104.0199999999995,0.7841038656095579
584,4106.76,0.7663012101188511
585,4109.5,0.7263921546281444
586,4112.24,0.8297759991374377
587,4114.98,0.927055243646731
588,4117.72,0.9079252881560241
589,4120.46,0.8295294326653175
590,4123.2,0.7677035771746108
591,4125.9400000000005,0.833321021683904
592,4128.68,0.9162290661931973
593,4131.42,0.8252822107024906
