,lambda (Angstroms),Total Flux (erg/s/cm^2/Angstrom)
0,101.98,71.68878036210168
1,104.11,71.4597446399139
2,104.712855,71.39492054119069
3,106.05,70.63965888644762
4,108.02000000000001,69.52694077450161
5,110.03,68.39162940152319
6,113.9,66.205731384911
7,117.9,63.946405269766686
8,120.22644299999999,62.63235691720787
9,120.92,62.30392165601199
10,124.89,60.423920460365714
11,126.91,59.467345544991865
12,128.09,58.908554257935755
13,131.07,57.49736948269423
14,131.98,57.06643722207941
15,134.13,56.048300556270014
16,136.93,54.72235513754516
17,138.038426,54.19745785888097
18,140.12,53.49287174321055
19,143.06,52.49771950981347
20,147.07,51.14038613278665
21,150.84,49.864289544808834
22,155.06,48.43587375045993
23,158.489319,47.275093350980534
24,159.04000000000002,47.1341727177467
25,162.0,46.376701396078104
26,166.15,45.314706164892065
27,170.02,44.324363659119086
28,173.19,43.51315289167224
29,176.80999999999997,42.58678608895409
30,180.10000000000002,41.744867074907745
31,181.970086,41.26630753859673
32,182.18,41.225326218598255
33,185.99999999999997,40.47955114476932
34,191.20999999999998,39.462407691989185
35,193.87,38.94309849506978
36,197.93,38.15046861299186
37,202.07,37.34222049896829
38,204.89000000000001,36.79167477655258
39,208.929613,36.00302502798854
40,210.14000000000001,35.8253693289073
41,216.03,34.96085987105118
42,220.05,34.37082111462456
43,223.11,33.921687067883084
44,227.25,33.31403543429008
45,229.89,32.926553697909476
46,234.16,32.29983523565913
47,239.88329199999998,31.45980502995622
48,240.17,31.4273769746718
49,245.76000000000002,30.795111635558385
50,252.06,30.082546114621053
51,256.75,29.552069452217264
52,259.71999999999997,29.216152704544523
53,263.94,28.738848505190084
54,268.84999999999997,28.183498599461274
55,273.85,27.617969084494497
56,275.42287,27.44006822566195
57,278.94,27.13476911932799
58,284.13,26.684259331986134
59,290.08,26.167774883479098
60,296.15,25.64088004258335
61,300.96000000000004,25.223354343949087
62,307.97,24.614864684555084
63,316.227766,23.898065433059106
64,318.06,23.779276229947026
65,327.72999999999996,23.152339667804153
66,337.69,22.50660013931883
67,347.95,21.84141006650685
68,356.87000000000006,21.263098233080633
69,363.078055,20.860610708351455
70,366.03,20.71728556408879
71,375.42,20.261372632813853
72,385.04999999999995,19.793801362823586
73,394.92,19.314590078917988
74,405.05,18.82275003911244
75,413.53000000000003,18.411019895437317
76,416.86938299999997,18.248881686128406
77,422.19,18.051602989902634
78,430.04,17.760540893972575
79,441.07,17.351573021615824
80,451.35,16.97040963248423
81,459.74,16.659324430676055
82,470.45,16.26221829317671
83,478.630092,15.95891837938976
84,480.3,15.911299328406573
85,490.36,15.624422079566429
86,499.46999999999997,15.364644607760296
87,506.42,15.166488081411488
88,512.29,14.99938347894135
89,519.41,14.796379243226456
90,530.29,14.486161294096958
91,540.15,14.204978854263976
92,549.5408739999999,13.937426446435337
93,550.1899999999999,13.92332235547794
94,560.42,13.70097272827508
95,569.52,13.503188128276447
96,580.11,13.272788112884633
97,589.54,13.06799136387946
98,600.5,12.829678672571212
99,610.26,12.617716293559493
100,620.1700000000001,12.402502221635705
101,630.25,12.183504801344915
102,630.957344,12.168123485600203
103,640.4899999999999,12.0038147566793
104,649.4,11.850654823609776
105,658.43,11.695242024529216
106,664.53,11.590321577134818
107,675.3199999999999,11.404374411225712
108,684.72,11.242324532027789
109,694.24,11.079488548818826
110,705.52,10.884832816781316
111,715.34,10.716701360044759
112,724.43596,10.56021198056719
113,725.29,10.549314450193883
114,735.3800000000001,10.420551451845144
115,745.61,10.290759664826552
116,754.24,10.181052180892001
117,764.74,10.047404166652978
118,775.38,9.912308301744101
119,784.35,9.79859746075419
120,795.26,9.659669458624883
121,804.47,9.542579456772366
122,815.66,9.400023875303349
123,825.11,9.280759282588228
124,831.763771,9.193735737659011
125,834.66,9.165218890169548
126,844.3299999999999,9.07671216874613
127,854.11,8.983922293490595
128,865.99,8.871938189621908
129,874.0,8.797087161483173
130,884.12,8.702540218928364
131,894.36,8.60623259673852
132,904.7099999999999,8.507558240716557
133,915.19,8.42275119925664
134,925.79,8.589850028161681
135,934.35,8.89872948086236
136,945.1700000000001,9.445434242103168
137,953.9200000000001,9.867212164548368
138,954.992586,9.879866465042973
139,964.97,9.999641575508488
140,973.89,8.158002206493093
141,985.17,9.422730374374966
142,994.2900000000001,9.455131927130525
143,1005.8000000000001,10.177636560049
144,1015.11,10.066102353486968
145,1024.5,8.587574195633318
146,1033.98,9.209463467576596
147,1045.95,10.662312630568268
148,1055.63,10.436739524282501
149,1065.3999999999999,9.662748847793667
150,1075.26,10.08605660110176
151,1085.2,9.379955403118236
152,1095.25,10.120727397108737
153,1096.4782,10.0796569035098
154,1105.3799999999999,9.797089269290119
155,1115.61,9.603326680200635
156,1125.93,9.121381235488657
157,1133.74,9.863393097581632
158,1144.23,9.491969592249403
159,1154.81,9.591683231294684
160,1165.5,9.572299713468036
161,1176.28,8.275754340018901
162,1184.4399999999998,9.411327430246644
163,1195.3999999999999,8.626014345552532
164,1203.68,7.758242628283621
165,1214.8200000000002,7.164085832344532
166,1226.0600000000002,8.372336530158234
167,1234.56,9.220984499145466
168,1245.98,9.312034485714193
169,1254.62,9.083891345955331
170,1258.92541,8.961251547304636
171,1266.2300000000002,8.769255671491928
172,1275.0,9.275884800462277
173,1283.84,9.309998428751658
174,1295.72,8.397193598896212
175,1304.7,8.489750225823661
176,1313.75,9.128108352070143
177,1325.9,8.829371162445252
178,1335.09,8.455805287329802
179,1344.35,8.878901911533386
180,1353.6699999999998,8.747642678010425
181,1366.1899999999998,8.317756699071857
182,1375.6599999999999,8.33056682123254
183,1385.2,8.302981442712257
184,1394.8,7.543966206465431
185,1404.4699999999998,7.67427646953764
186,1414.1999999999998,7.891376874883305
187,1424.01,7.87606513659358
188,1433.8799999999999,7.900182540577312
189,1440.49,7.992676547703194
190,1445.43977,7.959500014840852
191,1447.14,7.95090962214779
192,1453.8200000000002,7.83673714867305
193,1463.8999999999999,7.545381589896799
194,1474.0500000000002,7.566196041129043
195,1484.27,7.542219502369788
196,1494.55,7.510603115046387
197,1504.91,7.237709596304126
198,1511.86,6.866598304290738
199,1515.3500000000001,7.007177946143006
200,1525.85,7.013703447417743
201,1536.43,6.574711817273619
202,1543.52,6.618033545277228
203,1554.22,6.501096218004816
204,1564.99,6.620617900740903
205,1575.84,6.76335245205813
206,1586.7600000000002,6.808280013383856
207,1594.09,6.807404347130886
208,1605.1399999999999,6.7858160699009655
209,1616.26,6.7434318026795435
210,1623.7199999999998,6.620290297870929
211,1634.98,6.7769060506665015
212,1646.31,6.755038813470575
213,1653.91,6.606717328678954
214,1659.58691,6.680078225668932
215,1665.37,6.76142003306155
216,1673.0600000000002,6.54908022775227
217,1676.92,6.782341754606131
218,1684.66,6.806562380991849
219,1696.3400000000001,6.599096824943427
220,1704.17,6.486718028380142
221,1715.98,6.293265194738714
222,1723.8999999999999,6.265571975226427
223,1735.85,6.402109150330993
224,1743.8600000000001,6.305382507869703
225,1755.95,6.404306691720264
226,1764.05,6.23121062630997
227,1776.28,6.1585378189065265
228,1784.48,6.210418616886228
229,1796.8500000000001,6.323496818228779
230,1805.14,6.330046193259479
231,1813.48,5.993681999985177
232,1826.05,6.092571928107721
233,1834.47,5.963664025545415
234,1842.94,5.709318554678108
235,1855.7199999999998,5.6632814959196445
236,1864.2800000000002,5.719204602103334
237,1872.89,5.9203441399820225
238,1885.8700000000001,5.59463880800355
239,1894.58,5.414453209272235
240,1903.32,5.627238469557918
241,1905.46072,5.595263299529951
242,1916.51,5.438110507186347
243,1925.3600000000001,5.351982550947115
244,1934.2500000000002,5.480049289820926
245,1943.1699999999998,5.54771530002952
246,1956.64,5.296428129346755
247,1965.6699999999998,5.528448801116218
248,1974.7500000000002,5.618794591776982
249,1983.8600000000001,5.41906665377253
250,1993.02,5.347117834659382
251,2006.84,5.429168496215746
252,2016.1000000000001,5.349819914885204
253,2025.4,5.468306028667706
254,2034.75,5.235866261341512
255,2044.15,5.301006612906621
256,2053.58,5.187223235806513
257,2063.06,5.198109977597708
258,2072.58,5.356823414501948
259,2077.36,5.111663980510588
260,2086.95,5.229343383862652
261,2096.58,5.06826148232776
262,2106.26,5.125416699684169
263,2115.98,5.130174612153622
264,2125.75,5.147278643514381
265,2135.56,5.038508369988181
266,2145.42,4.9668632153532855
267,2155.32,5.059182755831432
268,2165.27,5.009915415200883
269,2175.2599999999998,4.972591769683378
270,2185.3,4.883026243057175
271,2187.7616199999998,4.899594383171307
272,2195.3900000000003,4.955768092399177
273,2205.52,4.906929651770722
274,2215.7,4.8240849898163605
275,2225.9300000000003,4.742972106536092
276,2236.21,4.796918001929921
277,2246.5299999999997,4.754685920263023
278,2256.9,4.66206661727022
279,2267.31,4.696629337216693
280,2272.54,4.705800586526976
281,2283.03,4.7186963523520005
282,2293.57,4.571257896851119
283,2304.1600000000003,4.593796220024332
284,2314.79,4.498262566136821
285,2325.48,4.081827446658223
286,2336.21,4.354778350118901
287,2346.99,4.329382032253673
288,2352.4,4.387128884790696
289,2363.26,4.29116861280402
290,2374.17,4.285375119491438
291,2385.13,4.20641040485295
292,2396.14,4.253838468888558
293,2407.2,4.1699583115982595
294,2412.75,4.186045744422747
295,2423.88,4.21410187727618
296,2435.07,4.125393544538527
297,2446.31,4.172062990474969
298,2457.6,4.146115215085505
299,2463.27,4.1136987167278205
300,2474.64,4.054526987216907
301,2486.06,4.0619620363800895
302,2497.54,3.8807346199521837
303,2503.2900000000004,4.04680716747305
304,2511.88643,3.9379899197454087
305,2514.8500000000004,3.90147634674648
306,2520.6499999999996,3.96364784803842
307,2526.46,3.9023484812291374
308,2532.28,3.8960612463186344
309,2543.97,3.843067435991525
310,2555.71,3.8977172851583104
311,2567.51,3.862183925717772
312,2573.43,3.906008009795062
313,2585.31,3.8792817055447566
314,2597.2400000000002,3.8525050607883475
315,2603.2300000000005,3.805372068157091
316,2615.24,3.774526478590917
317,2627.31,3.783625680417416
318,2633.37,3.7949696110776143
319,2645.52,3.845881868094348
320,2657.7400000000002,3.8512570484025357
321,2663.86,3.7349957704554093
322,2676.1600000000003,3.7665160059538305
323,2682.33,3.7552023875006
324,2694.71,3.6749876781892556
325,2707.1499999999996,3.670262760270586
326,2713.39,3.6243190651088097
327,2725.9100000000003,3.602190202380373
328,2732.2000000000003,3.6343161667124932
329,2744.81,3.4981924910730706
330,2757.48,3.496801606826323
331,2763.83,3.5147673625511175
332,2776.5899999999997,3.543067665393383
333,2782.9900000000002,3.4898620806120735
334,2795.84,3.3175985705433515
335,2802.2799999999997,3.3683655133571597
336,2815.22,3.4674921903774503
337,2828.21,3.470123526891637
338,2834.7299999999996,3.393014524895679
339,2847.81,3.370895048498878
340,2854.38,3.335840705996815
341,2867.5499999999997,3.394307416689028
342,2874.1699999999996,3.3789817336808614
343,2884.0315,3.3622304943120493
344,2887.4300000000003,3.3574428060314823
345,2894.09,3.3440192854962243
346,2907.45,3.3786073674254964
347,2927.6000000000004,3.325667328568822
348,2947.8900000000003,3.2734147202114072
349,2968.33,3.261281573103198
350,2988.9,3.2331628257443006
351,3009.62,3.2010575396346086
352,3030.48,3.188631684024176
353,3051.4900000000002,3.160316289662949
354,3072.64,3.1359123258009816
355,3086.82,3.1055859292259127
356,3108.22,3.088779734112621
357,3129.77,3.0454160002485353
358,3151.46,3.0209656968837084
359,3173.31,2.992731885518035
360,3187.95,2.930311903440531
361,3210.0499999999997,2.9310228608235334
362,3232.3,2.870951279455742
363,3247.2200000000003,2.8947841583767557
364,3269.73,2.895321376507588
365,3292.39,2.8595220558876258
366,3307.59,2.833480795807157
367,3311.31121,2.844643683799627
368,3322.86,2.8816354005815863
369,3330.52,2.8845240875178013
370,3338.1899999999996,2.815064838013985
371,3345.8900000000003,2.842825779190075
372,3353.6,2.823907783926135
373,3361.33,2.7982009157821324
374,3369.08,2.7692611747580678
375,3376.85,2.720299560853941
376,3384.63,2.7636960105097828
377,3392.44,2.805059650845531
378,3400.2599999999998,2.8440923547412496
379,3408.1,2.7467641857569056
380,3415.95,2.75267508033253
381,3423.83,2.808569165588062
382,3431.72,2.796781314403562
383,3439.63,2.7885485903390004
384,3447.56,2.6966189933943765
385,3455.5099999999998,2.698914523569691
386,3463.4700000000003,2.647427117304974
387,3471.46,2.696596901720164
388,3479.4599999999996,2.6416447496953235
389,3487.48,2.66024772479042
390,3495.5199999999995,2.6759428270054553
391,3503.58,2.6679660563404273
392,3511.65,2.6464263492353695
393,3519.75,2.6485418328102175
394,3527.8599999999997,2.6106463799450355
395,3536.0000000000005,2.656071117759759
396,3544.1499999999996,2.6719409191344528
397,3552.3199999999997,2.6811318476290835
398,3560.51,2.6625309032436526
399,3568.71,2.5905930224181906
400,3576.94,2.5406263322726352
401,3585.1899999999996,2.495213769247018
402,3593.4500000000003,2.531259269781369
403,3601.73,2.5981868974356592
404,3610.04,2.550624715769856
405,3618.36,2.572081597664021
406,3626.7,2.6210796066781246
407,3635.06,2.5625047428121652
408,3643.44,2.6251510060661443
409,3651.84,2.539775396440061
410,3659.1800000000003,2.4339090494572693
411,3661.86,2.1973360835289477
412,3664.54,2.385152117600626
413,3667.23,2.6368542152322734
414,3669.9100000000003,2.1889742493039512
415,3672.6,2.3956153469355987
416,3675.28,2.408853381007277
417,3677.97,2.5107564786389243
418,3680.6499999999996,2.6136735127106023
419,3683.3300000000004,2.5361215467822804
420,3686.02,2.433997644413928
421,3688.7,2.436122678485606
422,3691.39,2.2931057761172533
423,3694.0699999999997,2.3689068101889315
424,3696.76,2.593271907820579
425,3699.44,2.6401809418922575
426,3702.13,2.353700039523904
427,3704.81,2.4755070735955824
428,3707.49,2.1935381076672607
429,3710.1800000000003,2.389066205298908
430,3712.86,2.405860239370586
431,3715.55,2.6692303370022334
432,3718.23,2.4486593710739117
433,3720.9199999999996,2.930723468705559
434,3723.6000000000004,3.530374502777237
435,3726.28,5.129940536848915
436,3728.97,6.824158634480563
437,3731.65,6.869633668552241
438,3734.3399999999997,5.667573766183888
439,3737.02,3.6233208002555664
440,3739.71,3.1375878978872134
441,3742.39,2.778999931958892
442,3745.08,2.4718490295905386
443,3747.7599999999998,2.9395920636622175
444,3750.44,2.6125630977338954
445,3753.13,2.4328731953655427
446,3755.81,2.3387632294372214
447,3758.5,2.859834327068868
448,3761.1800000000003,2.9147443611405466
449,3763.8700000000003,2.690381458772193
450,3766.55,2.7143994928438717
451,3769.23,2.40448252691555
452,3771.92,2.6398496245471974
453,3774.6000000000004,2.6684226586188755
454,3777.29,2.4487277562505225
455,3779.9700000000003,2.5554227903222007
456,3782.66,2.6864408879538484
457,3785.3399999999997,2.7880249220255267
458,3788.03,2.6148910196571737
459,3790.71,2.5913470537288523
460,3793.39,2.6854850878005303
461,3796.08,2.4863481854321776
462,3798.7599999999998,2.6346042195038555
463,3801.4500000000003,2.6400503171355028
464,3801.8939600000003,2.657817171272246
465,3804.13,2.747621488332323
466,3806.82,2.7290037172078803
467,3809.5,2.6819514508088074
468,3812.1899999999996,2.922479679684365
469,3814.8700000000003,2.8867624132852914
470,3817.55,2.944613146886218
471,3820.24,3.1389133757617755
472,3822.92,2.6639151093627023
473,3825.6099999999997,2.7736483382382593
474,3828.29,2.620804071839186
475,3830.98,2.776099300714743
476,3833.66,2.53846603431567
477,3836.3399999999997,2.467742767916597
478,3839.0299999999997,2.386006996792154
479,3841.71,2.377069730393081
480,3844.4,2.149870959268638
481,3847.08,2.779240692869565
482,3849.77,2.8478579217451223
483,3852.45,2.8415886553460488
484,3855.1400000000003,3.0303318842216056
485,3857.82,2.970500617822533
486,3860.5,2.7805403514234595
487,3863.19,2.872271580299017
488,3865.8700000000003,3.0400253138999433
489,3868.56,3.2677735427755006
490,3871.2400000000002,3.1359332763764276
491,3873.93,3.2209955052519845
492,3876.6099999999997,2.996031238852912
493,3879.2900000000004,2.765954972453838
494,3881.98,2.6735502013293955
495,3884.66,2.9782109349303223
496,3887.35,2.85469116380588
497,3890.0299999999997,2.4625928974068065
498,3892.7200000000003,2.6148881262823633
499,3895.4,2.7685288598832907
500,3898.09,2.7172400887588477
501,3900.77,2.715415822359774
502,3903.45,2.564460555960701
503,3906.1400000000003,2.8003227848362586
504,3908.82,3.128653518437185
505,3911.51,2.884339747312742
506,3914.19,2.997308480913669
507,3916.8799999999997,3.0648137097892265
508,3919.5600000000004,2.887521443390153
509,3922.2400000000002,2.94470617699108
510,3924.93,2.9838744058666373
511,3927.61,2.755464139467564
512,3930.2999999999997,2.7514043683431213
513,3932.98,2.923604101944048
514,3935.67,2.781526330819605
515,3938.35,2.619458064420532
516,3941.04,2.8050902932960895
517,3943.72,2.987402026897016
518,3946.4,3.094481760497943
519,3949.09,2.8219409893734997
520,3951.77,2.8535657229744267
521,3954.46,3.113762951849984
522,3957.1400000000003,2.8869096854509104
523,3959.83,2.750832914326468
524,3962.51,2.869802647927395
525,3965.19,2.6004973815283217
526,3967.8799999999997,2.7886866104038788
527,3970.5600000000004,2.7148523440048056
528,3973.25,2.648451572880363
529,3975.93,2.6228463064812897
530,3978.62,2.3859785353568466
531,3981.2999999999997,2.6319642689577734
532,3983.9900000000002,2.7206954978333306
533,3986.67,2.7819902314342575
534,3989.35,2.9544119650351846
535,3992.04,3.1345981939107412
536,3994.72,3.1145509275116687
537,3997.4100000000003,3.0367031563872255
538,4000.09,2.9439778899881524
539,4002.78,3.1788381188637094
540,4005.46,3.0572208524646367
541,4008.1499999999996,2.9404800813401937
542,4010.8300000000004,3.04522481494112
543,4013.51,3.3126605485420466
544,4016.2,3.1714697774176046
545,4018.88,3.255658511018531
546,4021.5699999999997,3.1053557398940885
547,4024.2499999999995,2.9946284734950153
548,4026.94,2.9799007023705726
549,4029.62,3.071200435971499
550,4032.2999999999997,3.083378169572426
551,4034.99,3.0110873984479833
552,4037.67,2.8271281320489097
553,4040.36,2.9679763609244674
554,4043.04,3.0064910945253938
555,4045.73,2.9400893234009513
556,4048.41,2.870479057001878
557,4051.1000000000004,2.916981285877435
558,4053.78,3.077957019478362
559,4056.46,3.2154847530792887
560,4059.15,2.991172981954846
561,4061.8300000000004,3.0339107155557725
562,4064.52,3.0896369444313296
563,4067.2000000000003,3.0680326780322567
564,4069.89,3.0273009069078136
565,4072.5699999999997,3.011030640508741
566,4075.2500000000005,3.0502123741096674
567,4077.94,3.039484602985225
568,4080.62,3.1345623365861517
569,4083.31,3.096053565461709
570,4085.99,3.037667299062636
571,4088.6800000000003,3.1459555279381926
572,4091.36,3.0440062615391197
573,4094.05,2.934710490414677
574,4096.7300000000005,2.931220224015603
575,4099.41,3.0967519576165303
576,4102.1,3.0702441864920873
577,4104.78,2.8988419200930147
578,4107.469999999999,2.9158961489685717
579,4110.150000000001,2.941853882569498
580,4112.84,3.092481111445055
581,4115.5199999999995,2.9355258450459827
582,4118.2,3.0157125786469092
583,4120.889999999999,2.972647807522467
584,4123.57,2.993493541123393
585,4126.26,3.20735076999895
586,4128.94,2.976830503599877
587,4131.63,2.9380997324754343
588,4134.3099999999995,2.9549444660763617
589,4137.0,3.0298946949519183
590,4139.68,3.115193428552845
591,4142.36,3.137484162153772
592,4145.05,3.026854391029329
593,4147.7300000000005,3.028587124630256
594,4150.42,3.233221353505813
595,4153.1,3.1218270871067397
596,4155.79,3.153883315982297
597,4158.47,3.111276049583224
598,4161.150000000001,3.1597927831841504
599,4163.84,3.2327430120597076
600,4166.52,3.1339057456606345
601,4169.21,3.034832974536192
