,lambda (Angstroms),Total Flux (erg/s/cm^2/Angstrom)
0,101.98,0.009422265818611657
1,104.11999999999999,0.01123514383976755
2,104.712855,0.011737381422203813
3,106.05,0.010792308814723426
4,108.02000000000001,0.009399968266060751
5,110.03,0.007979456105903929
6,113.9,0.005244366633618388
7,117.9,0.0024174606701018115
8,120.22644299999999,0.0007756389961690038
9,120.92999999999999,0.0007533997470584684
10,124.89,0.0006253652080105857
11,126.92,0.0005596949224254337
12,128.09,0.0005219306260931048
13,131.07,0.0004256604108449511
14,131.98,0.0003974917540309176
15,134.13,0.00032814533589885995
16,136.94,0.00023964840075882198
17,138.038426,0.00020443369228483125
18,140.13,0.0002033695872951842
19,143.06,0.00022778046114171066
20,147.07,0.0002875603842558988
21,150.84,0.0002978996175328288
22,155.07,0.00031063241216450357
23,158.489319,0.0003240428748914221
24,159.04000000000002,0.0003258613860183374
25,162.0,0.00033614060271939134
26,166.16,0.0003539926099749265
27,170.03,0.0003707406970131287
28,173.19,0.00038518586213992935
29,176.80999999999997,0.000406224838645948
30,180.10000000000002,0.00042194528524948415
31,181.970086,0.00043230391176276315
32,182.19,0.0004340379319771176
33,185.99999999999997,0.0004677027869179287
34,191.20999999999998,0.000512350305354051
35,193.87,0.0005431617759951422
36,197.93,0.0005811006101315447
37,202.08,0.0006244167447783599
38,204.89000000000001,0.0006573828829368059
39,208.929613,0.0006814691047710613
40,210.14000000000001,0.0006921927309004539
41,216.03,0.0008041310814177397
42,220.05,0.0008685864542665494
43,223.11,0.0009067673813604194
44,227.26,0.0009796180301968771
45,229.89,0.0014122494982546805
46,234.16,0.0023078110403105057
47,239.88329199999998,0.0028987950713077163
48,240.17,0.002926586868502037
49,245.76000000000002,0.0028616940810368557
50,252.07,0.0030975722332899336
51,256.76,0.002688692771176928
52,259.73,0.0031159193975147477
53,263.95,0.0033130287386412124
54,268.86,0.003364502730331008
55,273.85,0.0034175221597672776
56,275.42287,0.0034293569753121463
57,278.95,0.003476732144278793
58,284.13,0.0035620815716382957
59,290.08,0.0035030667111728597
60,296.15,0.003646153883773667
61,300.96999999999997,0.00365278121193444
62,307.98,0.0037945986435541533
63,316.227766,0.003963465546539625
64,318.07,0.003991448604035415
65,327.72999999999996,0.004056765816191253
66,337.69,0.004078572755432675
67,347.95,0.004082497421759681
68,356.88,0.004107557631340595
69,363.078055,0.004143124086897326
70,366.03,0.004171806080710873
71,375.42,0.0041973667550674965
72,385.04999999999995,0.004096042925893299
73,394.93,0.004259326030541163
74,405.06,0.0043236620690110875
75,413.54,0.004319659944255408
76,416.86938299999997,0.0043075906416147735
77,422.2,0.004284548510544983
78,430.05,0.004265128345713119
79,441.08000000000004,0.00429508516379013
80,451.36,0.004250797316086746
81,459.75,0.004214314110616766
82,470.46,0.004189533137960808
83,478.630092,0.004190726947863284
84,480.30999999999995,0.004186910442326227
85,490.36,0.0040852563309620215
86,499.48,0.004090143949306145
87,506.43,0.004011321270303037
88,512.29,0.004143054801388187
89,519.4200000000001,0.004088970206957661
90,530.3,0.003987089541122581
91,540.16,0.003838448062709539
92,549.5408739999999,0.0037642976787247056
93,550.2,0.0037596975437041917
94,560.4300000000001,0.0038124571115988734
95,569.53,0.0038251391954543584
96,580.12,0.003730027032600466
97,589.55,0.0037096807799364244
98,600.51,0.0035703584215909423
99,610.27,0.0031929828324073744
100,620.18,0.0035616072720785668
101,630.26,0.0034653588111184883
102,630.957344,0.003465561075143117
103,640.5,0.0034783324334387864
104,649.41,0.003416372656419098
105,658.4399999999999,0.0033341900978907275
106,664.54,0.003374081204532692
107,675.3299999999999,0.003358831850543643
108,684.73,0.003216162965696834
109,694.25,0.0032776052993413432
110,705.5400000000001,0.0031203438557327826
111,715.35,0.003213912717397975
112,724.43596,0.003182130227083006
113,725.3,0.0031788836989748775
114,735.39,0.003155480689200197
115,745.62,0.003099368617842914
116,754.2600000000001,0.0030567971030308976
117,764.75,0.002813971060163068
118,775.39,0.0029877163798853077
119,784.3700000000001,0.002898302286944115
120,795.28,0.0029080850593284787
121,804.4900000000001,0.0028991907223587256
122,815.6800000000001,0.002866916371577885
123,825.12,0.002852344790579571
124,831.763771,0.002708694445141742
125,834.68,0.0026424648095707964
126,844.3399999999999,0.0027637447587966464
127,854.12,0.0027165391297520095
128,864.0100000000001,0.0026979013872927607
129,874.02,0.002673598066563025
130,884.1400000000001,0.0026438666324186772
131,894.37,0.002614312084859717
132,904.73,0.0025630944941743964
133,915.21,0.00291977532521859
134,925.8,0.00605047104284817
135,934.3700000000001,0.010029402661364272
136,945.19,0.015766425687308752
137,953.94,0.02047951393841912
138,954.992586,0.020699887576521053
139,964.98,0.022797169797138035
140,973.9100000000001,0.006875827158933667
141,985.1899999999999,0.019786475247517622
142,994.3000000000001,0.020335260371365124
143,1005.82,0.02767909114268491
144,1015.12,0.026805843848698274
145,1024.52,0.013042514755851572
146,1034.0,0.020144866223916813
147,1045.97,0.03455509390036627
148,1055.65,0.03384836177071137
149,1065.42,0.0275456190220824
150,1075.27,0.03196405683436537
151,1085.22,0.02565851284778828
152,1095.26,0.033306408242237115
153,1096.4782,0.03314469322489453
154,1105.4,0.03195808983981048
155,1115.6299999999999,0.030803622075128854
156,1125.95,0.02784874107498082
157,1133.75,0.03437837066789219
158,1144.24,0.03150728688964094
159,1154.83,0.033132096183093686
160,1165.52,0.03389585854825043
161,1176.3,0.024091447677940754
162,1184.46,0.032743444328986494
163,1195.4199999999998,0.02364700698774401
164,1203.7,0.01788595932483454
165,1214.84,0.012104655512659242
166,1226.08,0.02304806477218793
167,1234.58,0.03310249586702725
168,1246.0,0.03603137865562313
169,1254.6399999999999,0.03457039805084803
170,1258.92541,0.0329530572330691
171,1266.2499999999998,0.03019160791590666
172,1275.03,0.037892728538899696
173,1283.86,0.03949244047523553
174,1295.74,0.03182916252548124
175,1304.73,0.03146573866451398
176,1313.77,0.03850815611688951
177,1325.9299999999998,0.036864525521854805
178,1335.12,0.03294379691425869
179,1344.3700000000001,0.03850868988267391
180,1353.6899999999998,0.03737674468976903
181,1366.22,0.03363228381347095
182,1375.69,0.03505015256059442
183,1385.22,0.03529287288372924
184,1394.82,0.030543825045543954
185,1404.49,0.03146878904603857
186,1414.23,0.032720314885213084
187,1424.03,0.033326522300398946
188,1433.8999999999999,0.03317467155426469
189,1440.5200000000002,0.03481192544084943
190,1445.43977,0.03516888225667041
191,1447.17,0.03529441281152768
192,1453.85,0.03425726007548361
193,1463.93,0.03176013229414764
194,1474.0700000000002,0.031615155835541815
195,1484.29,0.03212722114057618
196,1494.5800000000002,0.03257266798879571
197,1504.9399999999998,0.03082747638020041
198,1511.8899999999999,0.027678489596441983
199,1515.3700000000001,0.029445836314790277
200,1525.87,0.02858145779256531
201,1536.45,0.024966541033980532
202,1543.54,0.026928057336592436
203,1554.24,0.025545153223467947
204,1565.02,0.026137350873983646
205,1575.8600000000001,0.02774387984722949
206,1586.79,0.02891255080457055
207,1594.11,0.029515532177648
208,1605.1599999999999,0.028847035780449344
209,1616.29,0.02884699114689088
210,1623.75,0.027365115606338666
211,1635.0,0.028979983618240487
212,1646.34,0.029314333614237523
213,1653.94,0.02724115116005564
214,1659.58691,0.028362556846196287
215,1665.3999999999999,0.029517771522660493
216,1673.0900000000001,0.026442959567877136
217,1676.95,0.0297910110053981
218,1684.69,0.030834787100323564
219,1696.3600000000001,0.028986455902362342
220,1704.1899999999998,0.027943666486763684
221,1716.01,0.02663285943792892
222,1723.9299999999998,0.02645134451180614
223,1735.8799999999999,0.028141828392214314
224,1743.8899999999999,0.027442157955567408
225,1755.98,0.029196224375160285
226,1764.0800000000002,0.026824518427989254
227,1776.3100000000002,0.027447347386766827
228,1784.51,0.02795644753901344
229,1796.8799999999999,0.02981067903697571
230,1805.17,0.0294724336786982
231,1813.5100000000002,0.02732772637012951
232,1826.08,0.027835630066927065
233,1834.51,0.026835547247834254
234,1842.9699999999998,0.024545129258566736
235,1855.75,0.024886726764141335
236,1864.3100000000002,0.025757234874291463
237,1872.9199999999998,0.027589171034150404
238,1885.9,0.02558383073856029
239,1894.61,0.024892912997836875
240,1903.3500000000001,0.026119610086938756
241,1905.46072,0.025997475332560742
242,1916.54,0.025352300691989915
243,1925.3899999999999,0.024607614110920977
244,1934.28,0.024718109228920655
245,1943.21,0.02665536604598895
246,1956.68,0.025170490707345044
247,1965.71,0.02764529677208487
248,1974.78,0.027961524535893317
249,1983.9,0.027077151923537535
250,1993.0500000000002,0.02646240308548321
251,2006.8700000000001,0.026948765113689686
252,2016.1299999999999,0.026336593448074052
253,2025.44,0.02669950140629419
254,2034.79,0.02633262106358294
255,2044.1799999999998,0.027629062419940308
256,2053.6099999999997,0.026208685475366287
257,2063.09,0.026266748154628036
258,2072.62,0.028328620457725558
259,2077.39,0.03206111057165789
260,2086.98,0.03538308042335834
261,2096.62,0.033179459898894544
262,2106.29,0.03287461314873222
263,2116.02,0.034494573947172806
264,2125.7799999999997,0.03324918851991486
265,2135.6,0.03117877064125984
266,2145.4500000000003,0.034886756536906274
267,2155.36,0.03553074998115564
268,2165.3,0.03286231719970646
269,2175.3,0.03293501196686021
270,2185.34,0.03618400843308256
271,2187.7616199999998,0.036324132651973186
272,2195.43,0.036770714675873485
273,2205.56,0.035772500752876316
274,2215.74,0.03110135510271726
275,2225.97,0.03278800772539632
276,2236.24,0.03894939696634588
277,2246.56,0.03711811448013356
278,2256.93,0.031903230266759355
279,2267.35,0.031181404326223267
280,2272.58,0.03309791966509047
281,2283.07,0.03904684530652775
282,2293.61,0.03433794922080315
283,2304.19,0.038323439753349044
284,2314.83,0.03415794021330068
285,2325.51,0.027400207291522812
286,2336.25,0.027961784297150686
287,2347.0299999999997,0.023648557921049054
288,2352.44,0.032365023042133484
289,2363.3,0.024519379902572844
290,2374.21,0.02773904503585032
291,2385.17,0.021954088441965915
292,2396.18,0.02466498012091963
293,2407.24,0.02409906007271146
294,2412.79,0.026164788357742625
295,2423.92,0.035314989891507824
296,2435.11,0.03506086135267876
297,2446.35,0.03994304108668782
298,2457.6400000000003,0.041421939093535004
299,2463.31,0.03718150723337765
300,2474.68,0.03406752847676582
301,2486.1,0.026652607992992104
302,2497.58,0.028602407436624133
303,2503.34,0.038788850467575395
304,2511.88643,0.02786339849423934
305,2514.8900000000003,0.024023052195234453
306,2520.69,0.02227227078571985
307,2526.5,0.022626328735844015
308,2532.32,0.02896315604560695
309,2544.0099999999998,0.029825427463326656
310,2555.75,0.045457355679240204
311,2567.55,0.03645720005298636
312,2573.47,0.04409245095913697
313,2585.3500000000004,0.04020854020999327
314,2597.28,0.0371754462590434
315,2603.2699999999995,0.033370302682665394
316,2615.2799999999997,0.031210903608825672
317,2627.36,0.038787130052457326
318,2633.41,0.059565642633911925
319,2645.5699999999997,0.07736508395465372
320,2657.78,0.10378944207358935
321,2663.91,0.0682903395321541
322,2676.2000000000003,0.07709987252819989
323,2682.37,0.0876686974253197
324,2694.75,0.06635790465811439
325,2707.19,0.08026366804874169
326,2713.43,0.06035023846333288
327,2725.96,0.04996788609070909
328,2732.2400000000002,0.06142609394385535
329,2744.85,0.0379995664483417
330,2757.52,0.048330475110660666
331,2763.88,0.06093212784091707
332,2776.6400000000003,0.06480034073998495
333,2783.04,0.04255661090879642
334,2795.88,0.023816948684974436
335,2802.33,0.02731819565197975
336,2815.2599999999998,0.05835214766490668
337,2821.75,0.08196922207046707
338,2834.78,0.07788905767978167
339,2847.8599999999997,0.05895352008729012
340,2854.43,0.03810215936996065
341,2867.6000000000004,0.07923806601421801
342,2874.21,0.1041500827354436
343,2884.0315,0.09701407854505137
344,2887.48,0.09450871928535305
345,2894.14,0.11409394055733188
346,2907.49,0.1520296230619741
347,2927.65,0.13325309664201807
348,2947.94,0.12398727005169524
349,2968.38,0.13032704326479538
350,2988.9500000000003,0.13233871630752872
351,3009.67,0.133461989153685
352,3030.53,0.14223226181636942
353,3051.54,0.14812683428247675
354,3072.69,0.16079850656511216
355,3086.87,0.15778538798202799
356,3108.27,0.181829359937035
357,3129.8199999999997,0.16917543169546495
358,3151.51,0.16904540327042297
359,3173.36,0.1856172746356988
360,3188.01,0.1612246554366732
361,3210.1000000000004,0.17865962648742575
362,3232.35,0.1509143973284961
363,3247.27,0.21055937777563183
364,3269.7799999999997,0.2454622482759686
365,3292.4500000000003,0.2407774185666232
366,3307.64,0.22614679865992024
367,3311.31121,0.223313927612338
368,3322.91,0.21436350327617
369,3330.5699999999997,0.2349683113780533
370,3338.25,0.20226791897889712
371,3345.95,0.23428822607870148
372,3353.66,0.2106971329279861
373,3361.3900000000003,0.21063513927623126
374,3369.14,0.21350054512343694
375,3376.9100000000003,0.20525255046960314
376,3384.69,0.1955166555652496
377,3392.4900000000002,0.23659506015985665
378,3400.3100000000004,0.25636366425342416
379,3408.1499999999996,0.23001046784595225
380,3416.0099999999998,0.20924087093744084
381,3423.88,0.2657421737784097
382,3431.7799999999997,0.2542978758678194
383,3439.69,0.2490119777067093
384,3447.6200000000003,0.18078837904455977
385,3455.56,0.23013228013189052
386,3463.53,0.19314598046766202
387,3471.5099999999998,0.2402767805529138
388,3479.52,0.1852028798866064
389,3487.54,0.21651017896977925
390,3495.58,0.20434447755191262
391,3503.64,0.2625161756330065
392,3511.71,0.2517887734635807
393,3519.81,0.2476945705425957
394,3527.92,0.1878670673710909
395,3536.05,0.24470766369854668
396,3544.21,0.2707013592744433
397,3552.38,0.2769193545998201
398,3560.57,0.25836154942415746
399,3568.77,0.20237444399797508
400,3577.0,0.2138000378202335
401,3585.25,0.16366403114145245
402,3593.5099999999998,0.21965222421215166
403,3601.8,0.2894237165312917
404,3610.1,0.22774990859991195
405,3618.42,0.2680879001674928
406,3626.4,0.3750552002527446
407,3629.1400000000003,0.25432863161033725
408,3631.88,0.17890386296792998
409,3634.62,0.2559222943255227
410,3637.36,0.3295880256831154
411,3640.1099999999997,0.3413253567901884
412,3642.8500000000004,0.3711868881477811
413,3645.59,0.3095916195053739
414,3648.3300000000004,0.17798845086296655
415,3651.07,0.2019977822205593
416,3653.81,0.419928713578152
417,3656.55,0.35969194493574475
418,3659.29,0.5220974762933375
419,3662.03,0.47335590765093016
420,3664.77,0.4007441390085229
421,3667.5099999999998,0.2624089703661156
422,3670.25,0.3134760017237083
423,3672.99,0.35247293308130107
424,3675.73,0.3489024644388938
425,3678.47,0.4580990957964865
426,3681.2200000000003,0.38776672690355946
427,3683.96,0.35145235826115223
428,3686.7,0.3177416896187449
429,3689.44,0.1734502209763376
430,3692.18,0.12341105233393034
431,3694.92,0.29766868369152305
432,3697.66,0.21930931504911577
433,3700.3999999999996,0.20166584640670848
434,3703.14,0.32234007776430124
435,3705.8799999999997,0.3360299091218939
436,3708.6200000000003,0.22685964047948667
437,3711.36,0.16239897183707938
438,3714.1000000000004,0.2738074031946721
439,3716.84,0.3159046345522648
440,3719.58,0.3278701659098575
441,3722.32,0.3562775972674503
442,3725.0699999999997,0.36388692837452324
443,3727.81,0.434007959732116
444,3730.55,0.44124479108970865
445,3733.2900000000004,0.2212328224473014
446,3736.03,0.10412925380489411
447,3738.77,0.19789398516248682
448,3741.51,0.18013731652007955
449,3744.25,0.2723606478776723
450,3746.9900000000002,0.249439779235265
451,3749.73,0.1435178105928577
452,3752.47,0.20204794195045042
453,3755.21,0.13499217330804314
454,3757.95,0.22981080466563586
455,3760.69,0.24255143602322857
456,3763.43,0.1181932673808213
457,3766.1699999999996,0.13763069873841402
458,3768.92,0.18391572984548699
459,3771.66,0.37304736120307974
460,3774.4,0.3059830925606724
461,3777.14,0.21005872391826516
462,3779.88,0.2993385552758579
463,3782.62,0.2942352866334506
464,3785.3599999999997,0.34684361799104335
465,3788.1,0.34472744934863603
466,3790.8399999999997,0.42458488070622874
467,3793.58,0.33632381206382145
468,3796.32,0.2539410434214142
469,3799.0600000000004,0.4019776747790069
470,3801.8,0.35759020613659964
471,3801.8939600000003,0.35045496025423695
472,3804.54,0.14951685130619569
473,3807.28,0.19274609696625136
474,3810.02,0.32202464262630703
475,3812.77,0.38827748808804174
476,3815.5099999999998,0.30524173374809743
477,3818.2500000000005,0.3464331794081531
478,3820.9900000000002,0.41656292506820886
479,3823.73,0.4287027707282645
480,3826.4700000000003,0.35681391638832016
481,3829.21,0.16703766204837586
482,3831.9500000000003,0.22473170770843154
483,3834.69,0.22575935336848724
484,3837.43,0.07838553902854291
485,3840.17,0.14321104468859858
486,3842.91,0.26272719034865427
487,3845.65,0.34950793600870994
488,3848.39,0.18166798166876563
489,3851.1299999999997,0.2267870273288213
490,3853.88,0.31782467279055604
491,3856.62,0.34122451845061175
492,3859.36,0.2312011641106674
493,3862.1,0.16152430977072307
494,3864.84,0.3179990554307788
495,3867.58,0.45077810109083444
496,3870.3199999999997,0.25719614675089014
497,3873.06,0.19113329241094582
498,3875.7999999999997,0.1612281380710015
499,3878.54,0.2405106837310572
500,3881.2799999999997,0.2061729293911129
501,3884.0200000000004,0.30819357505116857
502,3886.76,0.2903672207112242
503,3889.5,0.29998156637127993
504,3892.2400000000002,0.2222403120313356
505,3894.98,0.28336565769139127
506,3897.73,0.148756703153126
507,3900.47,0.2954691488131817
508,3903.2099999999996,0.3644754944732374
509,3905.9500000000003,0.3729228401332931
510,3908.69,0.29589598579334875
511,3911.4300000000003,0.23976083145340443
512,3914.17,0.3501415771134601
513,3916.9100000000003,0.3701538227735158
514,3919.65,0.39177716843357147
515,3922.39,0.30836681409362715
516,3925.13,0.3192786597536828
517,3927.87,0.35713480541373854
518,3930.61,0.33678295107379425
519,3933.35,0.4124689967338499
520,3936.0899999999997,0.3457006423939056
521,3938.83,0.36531228805396126
522,3941.58,0.14302563351569597
523,3944.32,0.24611707917575165
524,3947.06,0.25015792483580734
525,3949.8,0.19358737049586303
526,3952.54,0.36814981615591874
527,3955.2799999999997,0.21229326181597438
528,3958.02,0.2699264074760301
529,3960.7599999999998,0.3177537531360858
530,3963.5,0.3648320987961415
531,3966.24,0.36767114445619714
532,3968.9799999999996,0.4150804901162528
533,3971.7200000000003,0.3347355357763085
534,3974.46,0.1503059814363642
535,3977.2000000000003,0.14803302709641988
536,3979.94,0.13429957275647555
537,3982.69,0.15452881821821027
538,3985.43,0.30792936387826597
539,3988.1699999999996,0.30567390953832163
540,3990.91,0.38885775519837734
541,3993.65,0.426182600858433
542,3996.3900000000003,0.39083464651848865
543,3999.13,0.5082345921785444
544,4001.8700000000003,0.5744194378386
545,4004.61,0.39754048349865573
546,4007.35,0.4358755291587114
547,4010.09,0.3451064748187671
548,4012.83,0.4323226204788228
549,4015.57,0.5656069661388784
550,4018.31,0.5374959117989341
551,4021.0499999999997,0.47381915745898984
552,4023.79,0.6532764031190456
553,4026.54,0.5147730485807802
554,4029.28,0.4484142942408359
555,4032.02,0.5295691399008916
556,4034.76,0.5843631855609472
557,4037.5,0.477274631221003
558,4040.24,0.6088519768810586
559,4042.98,0.5197115225411143
560,4045.72,0.51976386820117
561,4048.46,0.4873508138612257
562,4051.2,0.5654316595212814
563,4053.9399999999996,0.43407210518133704
564,4056.68,0.4737135508413927
565,4059.42,0.5228645965014485
566,4062.1600000000003,0.49821954216150416
567,4064.9,0.49373478782155983
568,4067.6400000000003,0.5134597334816154
569,4070.39,0.5440329789433501
570,4073.1299999999997,0.5624255246034059
