,lambda (Angstroms),Total Flux (erg/s/cm^2/Angstrom)
0,102.05000000000001,0.007602234278317136
1,103.95,0.00889277711285454
2,104.712855,0.009410941962896406
3,105.88,0.008749557096988879
4,108.10000000000001,0.007491570431191478
5,110.11,0.006352723889768167
6,113.96999999999998,0.004165573250163698
7,117.97999999999999,0.001893491316363446
8,120.22644299999999,0.0006233117074370273
9,121.01,0.0006037785953631467
10,124.97,0.0005015962875709307
11,127.0,0.000449161517647143
12,127.88000000000001,0.00042665338535998354
13,130.86,0.0003497907559102853
14,132.07,0.000319852073640442
15,133.91,0.0002726602682218363
16,137.03,0.0001945219272946355
17,138.038426,0.00016883634877878928
18,139.9,0.00016851164843554675
19,143.16,0.00019503839803331778
20,147.17,0.00025847528551401156
21,150.94,0.00026935250247217004
22,155.17,0.0002825810029318545
23,158.489319,0.0002957032643704795
24,159.14999999999998,0.0002979868801114131
25,162.10999999999999,0.0003089512046104891
26,165.89,0.0003275510980586335
27,170.14000000000001,0.00034393309809953657
28,172.91,0.0003590883858909016
29,176.93,0.00037908376781194407
30,179.81,0.00039445972948672076
31,181.89000000000001,0.00040667946291850395
32,181.970086,0.00040711032427043366
33,186.13000000000002,0.0004373148687482518
34,190.9,0.0004770619984858297
35,194.0,0.0005060987188603563
36,198.07000000000002,0.0005396146117391702
37,202.21,0.0005789821583038605
38,205.03,0.0006080656639348814
39,208.929613,0.0006300424192115576
40,209.79999999999998,0.0006369694016111684
41,216.17999999999998,0.0007362964653299631
42,220.20000000000002,0.0007922181559490156
43,222.73999999999998,0.0008252309719122973
44,226.89000000000001,0.000886646365710573
45,230.04,0.001288220165822517
46,233.78,0.0021187133342093966
47,239.78,0.002648407096327385
48,239.88329199999998,0.002647942481876964
49,245.93,0.002590078093924539
50,252.24,0.0027775277329614334
51,256.93,0.0024043523172852105
52,259.9,0.0027722279175925917
53,264.12,0.0029305761341909585
54,269.03,0.0029648157629819493
55,274.04,0.0029923463210762185
56,275.42287,0.0030001116663269695
57,279.13,0.003038486909097903
58,284.32,0.003098561826271186
59,290.27,0.0030256524365180138
60,295.67,0.0031329709399353033
61,301.17,0.0031396660082306906
62,308.18,0.0032396810061853564
63,316.227766,0.0033502892253481115
64,318.28000000000003,0.003369799703747869
65,327.95,0.0034039261505496967
66,337.92,0.0034009091861871535
67,348.18,0.0033901047243657203
68,357.11,0.0033888627853729918
69,363.078055,0.0033927736720393486
70,366.28000000000003,0.0034050843992538965
71,374.81,0.003409532119078025
72,385.31,0.003320646079002216
73,395.19,0.0034155912222451693
74,405.33,0.003429746869257674
75,413.82,0.0034118696654249483
76,416.86938299999997,0.003403189301534084
77,422.48,0.0033840803843701197
78,430.34000000000003,0.0033542276566389455
79,441.37999999999994,0.003349248436008899
80,450.62,0.003300115305698969
81,460.04999999999995,0.003265977554744138
82,469.68999999999994,0.0032324239599186267
83,478.630092,0.0032152775224006907
84,479.52000000000004,0.0032118454959940528
85,489.56,0.0031268110712581293
86,499.81,0.0031023136794709567
87,505.6,0.003050299587915081
88,511.46,0.003122677507342122
89,519.77,0.003080349811171253
90,529.43,0.003004556326813781
91,540.52,0.002897195066821611
92,549.5408739999999,0.002848459503263519
93,550.5600000000001,0.0028437097001783205
94,559.51,0.002852749832904807
95,569.91,0.002842961903335584
96,580.51,0.0027663893789669526
97,589.9399999999999,0.0027510966841748597
98,599.53,0.0026598587135432394
99,610.6700000000001,0.0024101958832162067
100,620.59,0.0026408797811655633
101,630.68,0.002580715823535423
102,630.957344,0.0025800890820084146
103,639.45,0.0025680354827045913
104,649.84,0.002539943944703605
105,657.37,0.002494730377701928
106,664.98,0.002509167412910061
107,674.23,0.0024868387934192885
108,685.1899999999999,0.002398172296163196
109,694.72,0.0024544857844067576
110,704.38,0.0023569640012412593
111,715.8299999999999,0.00242321994252025
112,724.43596,0.002405348217704231
113,725.7800000000001,0.0024022775529647508
114,734.1899999999999,0.0023842974611692283
115,744.4000000000001,0.002377111547110692
116,754.76,0.0023600018145302384
117,765.26,0.002219086517995995
118,774.1199999999999,0.0023406859706347188
119,784.89,0.0023143838007610236
120,795.81,0.0023221948123654107
121,805.0200000000001,0.0023199523551196595
122,814.34,0.0023080080976245025
123,825.67,0.002325598671935647
124,831.763771,0.0022066653659239812
125,835.23,0.002135988078499574
126,844.91,0.0022810294345925607
127,854.69,0.0022562849389922922
128,864.5899999999999,0.002269252621360119
129,874.5999999999999,0.002282345466865366
130,884.7199999999999,0.002300422475508034
131,894.9699999999999,0.00230888167694947
132,905.33,0.002268759041528327
133,915.8199999999999,0.002869986598905954
134,924.29,0.010459210160487316
135,934.99,0.02107350602930911
136,945.82,0.03873542409092967
137,954.57,0.05389814706776992
138,954.992586,0.054175370994247254
139,965.62,0.061152498780434626
140,974.5600000000001,0.011881923048784196
141,985.84,0.053155345951131305
142,994.97,0.05552450224531828
143,1004.1700000000001,0.07909340191744535
144,1015.8000000000001,0.07536592170949295
145,1025.2,0.03230765246144887
146,1034.68,0.053274775645336336
147,1044.26,0.10021904936913822
148,1053.92,0.09839216552487165
149,1066.12,0.07836519139443147
150,1075.99,0.0926803776839852
151,1085.95,0.07330970545946189
152,1095.99,0.09659632566687013
153,1096.4782,0.09640771199200257
154,1106.13,0.09267684174350158
155,1113.8,0.08912143078265487
156,1124.11,0.08035855816122991
157,1134.51,0.10089654889228525
158,1145.01,0.09160540001498535
159,1155.6,0.09702399449016573
160,1166.29,0.09996457935699087
161,1174.38,0.07015350404105217
162,1185.24,0.09634690857367341
163,1196.21,0.06622795053710388
164,1204.5,0.047895956004454725
165,1215.65,0.030747274672845777
166,1224.07,0.0639764716493348
167,1235.3999999999999,0.09699974702268643
168,1243.96,0.10683594254747812
169,1255.48,0.10226293166495479
170,1258.92541,0.09639771282896396
171,1264.18,0.08745434219859474
172,1275.8700000000001,0.11289586839267934
173,1284.72,0.11821135477571175
174,1293.6200000000001,0.09391957221175563
175,1305.5900000000001,0.09220632430270455
176,1314.6399999999999,0.11499578489778288
177,1323.76,0.1098227769670773
178,1336.0,0.09721877474428821
179,1345.27,0.11525782997261708
180,1354.59,0.11135042625395741
181,1363.98,0.09948113400951382
182,1373.4399999999998,0.10440302323928631
183,1386.1399999999999,0.10537099070420287
184,1395.75,0.09220738309300981
185,1405.43,0.09566474695603283
186,1415.17,0.09721890208266962
187,1424.9800000000002,0.09948259868352248
188,1434.85,0.09857111654798913
189,1441.48,0.1039268561773117
190,1445.43977,0.104931351606466
191,1448.1299999999999,0.10561378712249969
192,1454.82,0.10250280537249505
193,1464.9,0.09435396354289162
194,1475.05,0.09392344295058264
195,1485.28,0.0954457637723244
196,1495.57,0.09699809565460425
197,1505.94,0.09178628895093487
198,1512.89,0.08162759179659522
199,1516.3799999999999,0.0872592734845599
200,1523.38,0.08449317721400199
201,1533.94,0.07360211386870316
202,1544.5700000000002,0.08106705176069877
203,1555.28,0.07636391106674514
204,1566.06,0.07724648161008593
205,1573.29,0.08219458940492397
206,1584.19,0.0860648720693409
207,1595.1699999999998,0.08786420614780861
208,1606.2299999999998,0.08566906164032709
209,1613.65,0.0858664227935357
210,1624.83,0.08088359040713032
211,1636.0900000000001,0.0858674994347757
212,1643.64,0.0870614028858168
213,1655.0400000000002,0.07995701438805103
214,1659.58691,0.08293241506648079
215,1666.51,0.08746350840283565
216,1670.35,0.0777833040771397
217,1678.0600000000002,0.08786670929820327
218,1685.8100000000002,0.09158332968254086
219,1693.5900000000001,0.08567418393933393
220,1705.33,0.08220221936025306
221,1713.2,0.07832817523441264
222,1725.08,0.07778976872679076
223,1733.0400000000002,0.08277507621831685
224,1745.05,0.08070837649133547
225,1753.11,0.08607777689104656
226,1765.26,0.07833458523552418
227,1773.3999999999999,0.08071262596178327
228,1785.7,0.0818352036685384
229,1793.94,0.08768126730298248
230,1806.3799999999999,0.08648074308119662
231,1814.71,0.0801624983330072
232,1823.09,0.08146333003891029
233,1835.7299999999998,0.07798371163349442
234,1844.2,0.07146103495676401
235,1856.98,0.07212315462280715
236,1865.55,0.07465420085426173
237,1874.17,0.08016921353980883
238,1887.1599999999999,0.07414549031304046
239,1895.8700000000001,0.07163260461595405
240,1904.62,0.07517647408214163
241,1905.46072,0.07494901433352737
242,1913.41,0.0727959599395043
243,1926.67,0.07097607363540888
244,1935.5700000000002,0.07146377278273547
245,1944.5000000000002,0.07639103693842386
246,1953.48,0.0719557727747152
247,1967.02,0.07870266988199634
248,1976.1000000000001,0.0799775890794936
249,1985.22,0.07655706162147322
250,1994.38,0.07447389750793519
251,2003.5900000000001,0.07567922507500015
252,2012.83,0.07345098765042686
253,2026.79,0.07550229487477286
254,2036.1399999999999,0.0732794791475261
255,2045.5400000000002,0.07637412510088228
256,2054.98,0.07293768439872082
257,2064.47,0.07277052537716235
258,2074.0,0.07814298970008622
259,2078.78,0.08032906436572905
260,2083.5699999999997,0.08508305736749247
261,2093.19,0.07995791671550168
262,2102.85,0.07940907940799324
263,2117.43,0.08143879347181593
264,2127.2,0.08087891786163401
265,2137.02,0.07479384393205504
266,2146.88,0.07994886334695846
267,2156.79,0.08218586444246481
268,2166.75,0.07777008721857415
269,2176.75,0.07741086333916583
270,2186.79,0.07994281280423989
271,2187.7616199999998,0.08021277208038877
272,2196.89,0.08275177210800615
273,2207.03,0.08012927727899156
274,2217.22,0.07308993908296998
275,2227.45,0.07309118619334284
276,2232.59,0.08237616806502578
277,2242.89,0.07831330446158886
278,2253.24,0.07126842749114497
279,2263.64,0.07143254715369411
280,2274.09,0.07462401344923626
281,2284.59,0.08125323637777146
282,2295.13,0.07430800461270105
283,2305.73,0.07820007080722229
284,2316.37,0.07235493230813794
285,2327.06,0.057257910442046624
286,2332.43,0.06307773282549747
287,2343.19,0.05716922024559638
288,2354.01,0.06922189562528692
289,2364.87,0.057755146311371894
290,2375.79,0.06248122495704848
291,2386.76,0.05346721023571809
292,2392.2599999999998,0.058495429864950814
293,2403.2999999999997,0.056541674429810666
294,2414.39,0.05936782562766354
295,2425.54,0.07073564478510805
296,2436.73,0.06900468924894697
297,2442.35,0.07567205479736294
298,2453.62,0.07641080987399071
299,2464.95,0.0723442829102101
300,2476.33,0.06787131257942251
301,2487.7599999999998,0.06194070888162796
302,2493.49,0.0618150090226286
303,2505.0,0.07571355593762287
304,2510.78,0.05643200271161653
305,2511.88643,0.05618954461345908
306,2516.56,0.05516453953602185
307,2522.37,0.05417374123401281
308,2534.0099999999998,0.06051796360313755
309,2545.7000000000003,0.06096891340511936
310,2557.4599999999996,0.07764795961310106
311,2563.35,0.06844267720366332
312,2575.1800000000003,0.07735004981764493
313,2587.07,0.073402849351055
314,2593.03,0.06996200334761714
315,2605.0,0.06518422877359852
316,2617.03,0.06243060111900836
317,2623.06,0.07151699152157041
318,2635.17,0.09108959975955157
319,2647.33,0.11081343543038978
320,2653.43,0.13385262223895172
321,2665.6800000000003,0.09930885328893267
322,2677.98,0.10893736177177066
323,2684.16,0.1178276444729039
324,2696.5499999999997,0.09762642833488462
325,2702.76,0.11082238949573212
326,2715.24,0.09119032873685554
327,2727.77,0.08283979541083604
328,2734.06,0.09468453246425483
329,2746.6800000000003,0.06725628451737806
330,2753.01,0.07758019951708249
331,2765.72,0.09013404694934841
332,2772.0899999999997,0.09571443989533851
333,2784.89,0.07300762270674717
334,2797.7400000000002,0.04818912295101288
335,2804.1899999999996,0.05357640178957428
336,2817.1400000000003,0.08971061689955413
337,2823.6299999999997,0.11320048368440117
338,2836.66,0.10892071468695233
339,2843.2000000000003,0.09189898890465643
340,2856.3300000000004,0.07074595477292171
341,2862.9100000000003,0.11183446693691149
342,2876.13,0.1323608881843195
343,2882.7599999999998,0.12356774778116629
344,2884.0315,0.12504595899120297
345,2896.06,0.1390305698598572
346,2909.4300000000003,0.17510175581142098
347,2929.6,0.15728553461793118
348,2949.8999999999996,0.14930791328784476
349,2970.35,0.15647739180014686
350,2990.94,0.1584278701653449
351,3011.67,0.1607705483834389
352,3032.55,0.16733192644392145
353,3046.55,0.17291481173351703
354,3067.67,0.18331918954182122
355,3088.93,0.18222216720302137
356,3110.3399999999997,0.20089634470661
357,3131.9,0.19027502205258717
358,3153.61,0.19044829924095288
359,3168.17,0.20418798394213228
360,3190.13,0.1813279608678122
361,3212.2400000000002,0.1985385376358806
362,3227.07,0.17264572205335937
363,3249.44,0.2251636985482346
364,3271.96,0.25638237488549837
365,3287.06,0.2518642590192764
366,3309.85,0.24131903507283947
367,3311.31121,0.2404984880476992
368,3325.12,0.23274385617189247
369,3332.79,0.23769160211103127
370,3340.47,0.21936674784930843
371,3348.1699999999996,0.26746849318586235
372,3355.8900000000003,0.25669423812069303
373,3363.63,0.17890958265380053
374,3371.38,0.20125502698604636
375,3379.15,0.25694437091656896
376,3386.94,0.24546491444536833
377,3394.7500000000005,0.23885595757244446
378,3402.58,0.2865679002977974
379,3410.42,0.23682334282228865
380,3418.28,0.22314078494505668
381,3426.16,0.24871502666610149
382,3434.06,0.2772182679854231
383,3441.98,0.2177761089030214
384,3449.91,0.22706474961975812
385,3457.8599999999997,0.2525068899347716
386,3465.84,0.2266917296472002
387,3473.83,0.2688742691587672
388,3481.8300000000004,0.2386258084694726
389,3489.86,0.26052294717759317
390,3497.9100000000003,0.23550798548399043
391,3505.97,0.2825791235895261
392,3514.05,0.24338546129333855
393,3522.15,0.27696809859542776
394,3530.27,0.2325929354957937
395,3538.4100000000003,0.28164277199443644
396,3546.57,0.2889580080913559
397,3554.7400000000002,0.2864290439874138
398,3562.94,0.26801437928088684
399,3571.15,0.22301901437349825
400,3579.3799999999997,0.2457382490643864
401,3587.63,0.1904044833535513
402,3595.9,0.25868141724099303
403,3604.19,0.29099335072671145
404,3612.5,0.2234032838107067
405,3620.8,0.24340801709556353
406,3623.54,0.23277786205948012
407,3626.27,0.24565520722425835
408,3629.0099999999998,0.281421252188175
409,3631.74,0.27323469735295314
410,3634.48,0.27578354231686975
411,3637.22,0.29214668728078635
412,3639.9500000000003,0.27806643244556456
413,3642.69,0.29085437740948117
414,3645.4199999999996,0.2579680225742594
415,3648.16,0.26352836753817593
416,3650.9,0.27212771250209256
417,3653.63,0.3130217576668708
418,3656.37,0.31816390263078737
419,3659.1099999999997,0.33917484759470395
420,3661.84,0.33807579275948213
421,3664.58,0.33174953772339877
422,3667.31,0.32880788288817697
423,3670.05,0.3292196278520936
424,3672.7900000000004,0.31516527281601014
425,3675.52,0.2992700179807884
426,3678.2599999999998,0.325396462944705
427,3680.9900000000002,0.2884893081094832
428,3683.73,0.27963295307339975
429,3686.47,0.27781719803731636
430,3689.2000000000003,0.2799907432020946
431,3691.94,0.2897258881660112
432,3694.6800000000003,0.31807993312992777
433,3697.41,0.328531878294706
434,3700.1499999999996,0.3286686232586226
435,3702.88,0.3115082684234008
436,3705.62,0.2945111133873174
437,3708.36,0.283179558351234
438,3711.09,0.3088676035160122
439,3713.8300000000004,0.2994336484799288
440,3716.56,0.317173493644707
441,3719.2999999999997,0.3481954386086236
442,3722.04,0.38474508357254017
443,3724.77,0.43790822873731844
444,3727.5099999999998,0.502482473701235
445,3730.25,0.4670861186651516
446,3732.98,0.3655766638299298
447,3735.7200000000003,0.31266160879384647
448,3738.45,0.26704455395862464
449,3741.1899999999996,0.29602299892254125
450,3743.93,0.2619746438864578
451,3746.66,0.25800138905123604
452,3749.4,0.25539083401515267
453,3752.13,0.26356537917993084
454,3754.8700000000003,0.2994056241438474
455,3757.61,0.306913069107764
456,3760.3399999999997,0.30009351427254227
457,3763.08,0.28755175923645887
458,3765.8199999999997,0.28623100420037545
459,3768.55,0.2961327493651536
460,3771.29,0.2941518943290702
461,3774.02,0.3272931394938485
462,3776.76,0.35176938445776507
463,3779.5,0.3660147294216816
464,3782.2299999999996,0.38160967458645983
465,3784.97,0.3510814195503765
466,3787.7,0.3384589647151547
467,3790.44,0.31623630967907124
468,3793.18,0.29481145464298786
469,3795.9100000000003,0.28620409980776607
470,3798.65,0.28356324477168265
471,3801.39,0.30567438973559924
472,3801.8939600000003,0.30665948296242856
473,3804.12,0.31101074421678004
474,3806.86,0.33752220064812005
475,3809.59,0.32974015723846967
476,3812.33,0.31673081366980965
477,3815.0699999999997,0.31392497010114956
478,3817.8,0.27795292669149924
479,3820.54,0.2615582831228392
480,3823.2699999999995,0.25376483971318886
481,3826.01,0.2468584961445288
482,3828.75,0.23104425257586875
483,3831.48,0.20613060916621842
484,3834.22,0.20747496559755838
485,3836.96,0.21936372202889834
486,3839.69,0.225799878619248
487,3842.43,0.2660379350505879
488,3845.1600000000003,0.28554339164093756
489,3847.9,0.2971212480722776
490,3850.6400000000003,0.3048487045036175
491,3853.37,0.30363946109396717
492,3856.1099999999997,0.2952506175253071
493,3858.84,0.2889535741156568
494,3861.58,0.3065818305469967
495,3864.32,0.3258876869783367
496,3867.05,0.3264662435686863
497,3869.79,0.3214052000000263
498,3872.53,0.31172375643136624
499,3875.2599999999998,0.29965121302171593
500,3878.0,0.29373756945305585
501,3880.73,0.29637872604340554
502,3883.47,0.28889748247474545
503,3886.21,0.29296713890608544
504,3888.94,0.29780839549643506
505,3891.6800000000003,0.3141991519277751
506,3894.41,0.3298764085181247
507,3897.1499999999996,0.3355961649494647
508,3899.89,0.34890662138080464
509,3902.62,0.3511902779711543
510,3905.36,0.35858763440249425
511,3908.1,0.37437319083383414
512,3910.83,0.37918724742418386
513,3913.57,0.3894997038555238
514,3916.2999999999997,0.38133276044587344
515,3919.04,0.3627679168772134
516,3921.78,0.3339723733085534
517,3924.5099999999998,0.312246529898903
518,3927.25,0.270120686330243
519,3929.98,0.22535604292059264
520,3932.7200000000003,0.20705009935193258
521,3935.46,0.19846065578327252
522,3938.1899999999996,0.2210131123736222
523,3940.9300000000003,0.25790686880496216
524,3943.67,0.30528712523630214
525,3946.4,0.33240528182665174
526,3949.14,0.36559983825799175
527,3951.87,0.37561169484834134
528,3954.61,0.3813313512796814
529,3957.35,0.3524258077110213
530,3960.0800000000004,0.33325776430137094
531,3962.82,0.2812228207327109
532,3965.5499999999997,0.22032257732306054
533,3968.29,0.1993186337544005
534,3971.0299999999997,0.21124039018574048
535,3973.76,0.2507012467760901
536,3976.5,0.3124378032074301
537,3979.24,0.36645145963877
538,3981.9700000000003,0.39722761622911973
539,3984.71,0.42382137266045966
540,3987.44,0.4357311292508093
541,3990.18,0.45118658568214925
542,3992.9199999999996,0.45632854211348917
543,3995.65,0.46744089870383887
544,3998.39,0.4725002551351788
545,4001.1200000000003,0.4792948117255285
546,4003.86,0.47833116815686844
547,4006.6000000000004,0.4861134245882084
548,4009.33,0.48941508117855803
549,4012.0699999999997,0.505007937609898
550,4014.81,0.518592994041238
551,4017.54,0.5212897506315876
552,4020.2799999999997,0.5189235070629276
553,4023.01,0.5130395636532773
554,4025.75,0.5177690200846172
555,4028.4900000000002,0.5088571765159571
556,4031.22,0.4848767331063068
557,4033.9599999999996,0.47706508953764676
558,4036.69,0.4928528461279964
559,4039.43,0.4971697025593364
560,4042.17,0.4957111589906763
561,4044.9,0.484849215581026
562,4047.6400000000003,0.4847382720123659
563,4050.38,0.48839512844370586
564,4053.1099999999997,0.49381438503405556
565,4055.85,0.4920532414653955
566,4058.58,0.47508579805574513
567,4061.3199999999997,0.47145455448708506
568,4064.06,0.46719081091842507
569,4066.79,0.4729401675087747
570,4069.53,0.4837751239401147
571,4072.2599999999998,0.4835014805304644
