,lambda (Angstroms),Total Flux (erg/s/cm^2/Angstrom)
0,102.03999999999999,0.006546910594904672
1,103.94,0.0076592831183688054
2,104.712855,0.008111758206078193
3,106.11,0.007429259029802259
4,108.08999999999999,0.006462037754350752
5,110.10000000000001,0.005480161611323518
6,113.96,0.0035945686205743105
7,117.97,0.001635701291777898
8,120.22644299999999,0.0005334388420969262
9,121.0,0.0005159537798649585
10,124.96000000000001,0.00042644408483905337
11,126.99000000000001,0.00038055906670603885
12,127.87,0.00036066802718546115
13,131.15,0.0002865286935567157
14,132.06,0.00026595956587144483
15,133.9,0.00022436922005495395
16,137.02,0.00015384649421813898
17,138.038426,0.00013082656652920193
18,139.88,0.0001293564835532371
19,143.14000000000001,0.0001267547285794332
20,147.15,0.0001235557887418922
21,150.93,0.00012053945518717725
22,155.16,0.00011716436355952005
23,158.489319,0.00011450849343665213
24,159.14000000000001,0.0001137107647051791
25,162.1,0.00011008225718679311
26,165.87,0.00010546188252931497
27,170.13,0.00010024121212786754
28,172.89,9.68602168691833e-05
29,176.92,9.192387152429289e-05
30,180.20999999999998,8.789455980049899e-05
31,181.86999999999998,8.58631163631744e-05
32,181.970086,8.574060926927943e-05
33,186.10999999999999,8.738523884374893e-05
34,190.88,8.928476256453247e-05
35,193.99,9.052489217980226e-05
36,198.04999999999998,9.214587173111906e-05
37,202.2,9.380685797490349e-05
38,205.01,9.493556875194788e-05
39,208.929613,9.650727302934652e-05
40,209.78,9.855098155367151e-05
41,216.16,0.00011390791845179955
42,220.18,0.00012359038442616871
43,223.24,0.00013095921672307651
44,226.86999999999998,0.00013972021664097688
45,230.02,0.0001475239294201468
46,233.76000000000002,0.00015704848990525638
47,239.76000000000002,0.00017201172138938935
48,239.88329199999998,0.0001723111950035287
49,245.91,0.00016060392861844627
50,252.21,0.00014864973938103604
51,256.90000000000003,0.00013925748789318616
52,259.88,0.00013396366898406204
53,264.1,0.00012607889719328883
54,269.01,0.00011678504808127552
55,274.01,0.00010733263562301346
56,275.42287,0.00010467211600711986
57,279.10999999999996,0.0001127823020727899
58,284.3,0.0001242181378610486
59,290.25,0.00013712656071849337
60,296.33,0.00015071304327198316
61,301.14,0.00016136474402564865
62,308.15999999999997,0.0001771610526120793
63,316.227766,0.00019546149087854332
64,318.25,0.00019266293262227972
65,327.92,0.00017927499367423428
66,337.89,0.00016549970494806964
67,348.15,0.00015135063873638965
68,357.08,0.00013923396444103848
69,363.078055,0.00013124696224422333
70,366.23999999999995,0.00013572952607717899
71,374.77000000000004,0.00014779115252028355
72,385.27,0.0001618422044959689
73,395.16,0.00017676505734735268
74,405.29,0.00019165355132960915
75,413.78,0.00020394454258423477
76,416.86938299999997,0.0002082046180896305
77,422.45,0.00021320973259567565
78,430.3,0.00022063584431485176
79,441.34,0.00023168275991736177
80,450.58,0.00024062164047598429
81,460.01,0.0002492015531781283
82,469.65,0.00025857906930205915
83,478.630092,0.0002678705761549017
84,479.47999999999996,0.0002673296687241928
85,489.52000000000004,0.00025915092679355784
86,499.77,0.0002530386654101907
87,505.55999999999995,0.0002478626447848545
88,511.40999999999997,0.0002474740414587375
89,519.72,0.00024155472740061243
90,530.6,0.00023292467765904796
91,540.47,0.00022395154338062504
92,549.5408739999999,0.00021758277680033667
93,550.52,0.00021752145039171994
94,559.46,0.00021993262997723026
95,569.86,0.00022161195150847276
96,580.46,0.00021977991960762374
97,589.89,0.00022064929128450995
98,599.47,0.00021679313788732754
99,610.62,0.00020837050404822692
100,620.54,0.000219808127816489
101,630.6200000000001,0.0002184352208390778
102,630.957344,0.00021848911097947446
103,639.4,0.00022595449273699883
104,649.79,0.0002325435269974925
105,657.31,0.00023616723172693546
106,664.92,0.0002442826601698957
107,675.7299999999999,0.00025214784509347
108,685.13,0.00025323544850527376
109,694.66,0.0002680202028366024
110,704.3199999999999,0.000267019788087456
111,715.76,0.0002844567290056512
112,724.43596,0.0002908729884430762
113,725.72,0.0002915923920865323
114,735.8199999999999,0.00029699147021472586
115,744.34,0.000303381239289202
116,754.6899999999999,0.00030991848024235083
117,765.19,0.0003065889188904728
118,775.84,0.000324428255233568
119,784.8199999999999,0.00032816288390596183
120,795.74,0.00033766581610000877
121,804.9499999999999,0.0003450821745713614
122,814.27,0.00035157356468569446
123,825.5999999999999,0.000362696323912668
124,831.763771,0.00035027560737556146
125,835.1600000000001,0.0003408759369293911
126,844.83,0.0003638986789756039
127,854.62,0.0003619551117193913
128,864.51,0.000366388653377824
129,874.52,0.0003703352857338312
130,884.65,0.00037654840878741303
131,894.89,0.0003793394816471047
132,905.25,0.000373213045204371
133,915.74,0.0004584724403506763
134,924.21,0.001862210275421144
135,934.9100000000001,0.0038191190292882044
136,945.74,0.007228822714744305
137,954.49,0.010739097494775779
138,954.992586,0.010753767056133854
139,965.54,0.011066208124347651
140,974.47,0.0017730909342867467
141,985.76,0.007922766299820047
142,994.8799999999999,0.009731888616353589
143,1004.09,0.016498824593905552
144,1015.7099999999999,0.01684211704983974
145,1025.1100000000001,0.007812269533986154
146,1034.6,0.01089660667915099
147,1044.17,0.02399127630077665
148,1053.8300000000002,0.02385293858342073
149,1066.03,0.017306353743695862
150,1075.9,0.0220782689020496
151,1085.85,0.016151467536864157
152,1095.9,0.02429144801725474
153,1096.4782,0.024245561696974928
154,1106.04,0.023485070518133394
155,1116.27,0.021988469630750802
156,1124.01,0.01938252423795107
157,1134.41,0.027468639963388126
158,1144.9099999999999,0.02466958016695438
159,1155.5,0.027294997400836917
160,1166.19,0.028255979112848658
161,1174.28,0.017895994393501136
162,1185.1399999999999,0.027854932718332517
163,1196.11,0.016974762969106022
164,1204.4,0.010959347206016908
165,1215.54,0.009358792069610057
166,1223.97,0.019616942575901825
167,1235.29,0.03233645350012754
168,1243.86,0.035987766275800186
169,1255.3700000000001,0.03357172870847138
170,1258.92541,0.03128272697912945
171,1264.07,0.027972004693845032
172,1275.76,0.03918015690872722
173,1284.61,0.04202353756755591
174,1293.51,0.0299427391340616
175,1305.48,0.029640246431934983
176,1314.53,0.040923020721471665
177,1323.64,0.03884924610022075
178,1335.89,0.03251000848108532
179,1345.1499999999999,0.0424698465828654
180,1354.47,0.04105612577385787
181,1363.8600000000001,0.035381296235598145
182,1376.48,0.0381057753332725
183,1386.02,0.03864999851804377
184,1395.6299999999999,0.03322327297356283
185,1405.3,0.034714188518294296
186,1415.05,0.035283375515308954
187,1424.85,0.03728757342000061
188,1434.7299999999998,0.036862932776975464
189,1441.3500000000001,0.03967437295341003
190,1445.43977,0.040296208912333265
191,1448.0100000000002,0.04068699635744247
192,1454.6899999999998,0.039125178134455284
193,1464.77,0.0352744617141393
194,1474.93,0.03559032651270971
195,1485.15,0.03690947222544489
196,1495.45,0.037922669157066456
197,1505.81,0.035215287002852806
198,1512.76,0.03025068289360716
199,1516.25,0.03338153606752554
200,1523.2499999999998,0.031868932720083884
201,1533.81,0.02662188361308619
202,1544.44,0.030738975572614076
203,1555.14,0.02886269859866755
204,1565.92,0.029231662843607398
205,1576.7800000000002,0.031422668307433635
206,1584.06,0.03386856922609431
207,1595.04,0.03445167651825012
208,1606.09,0.0340085948769315
209,1613.51,0.034524937928643355
210,1624.69,0.0320269482680151
211,1635.9499999999998,0.03472780982627325
212,1643.5,0.03540943485867546
213,1654.9,0.03216655854998477
214,1659.58691,0.033635496112665114
215,1666.3700000000001,0.03576205468902516
216,1670.21,0.03071107195137877
217,1677.92,0.035768329814073144
218,1685.6599999999999,0.03817625101475466
219,1693.44,0.035416776666085684
220,1705.18,0.03359121293171888
221,1713.0500000000002,0.031159768597011313
222,1724.93,0.03100798043991782
223,1736.88,0.03358964007146097
224,1744.9,0.032764392426689104
225,1757.0,0.03548502874816795
226,1765.1,0.03178942000469511
227,1773.25,0.03268424682453417
228,1785.54,0.033411564286598215
229,1793.7900000000002,0.03637617223306107
230,1806.22,0.036082005272398424
231,1814.5600000000002,0.032387743232822695
232,1822.93,0.033362804531234094
233,1835.57,0.03159806093648141
234,1844.0400000000002,0.028488813361516607
235,1856.8200000000002,0.028114715344037238
236,1865.39,0.029283218895696222
237,1874.0,0.03274828689800472
238,1886.99,0.02933656224643532
239,1895.6999999999998,0.027935471375367615
240,1904.45,0.029967404954949425
241,1905.46072,0.029787342488273135
242,1913.24,0.02839946168302933
243,1926.51,0.027868738454264096
244,1935.3999999999999,0.028875503420072463
245,1944.33,0.030053632648944086
246,1953.31,0.02775934470664478
247,1966.85,0.031029282753556514
248,1975.9199999999998,0.03191736190314953
249,1985.05,0.029743392447337424
250,1994.2099999999998,0.028620418688822764
251,2003.4099999999999,0.02970359919337136
252,2017.3,0.027995157042086573
253,2026.6100000000001,0.029722491770059117
254,2035.97,0.02762017932686073
255,2045.36,0.02898205258095978
256,2054.8,0.027362698663887908
257,2064.29,0.027231977575645095
258,2073.82,0.029499750750465542
259,2078.6,0.027593645186524487
260,2083.39,0.028949468188349245
261,2093.0099999999998,0.02700857845506201
262,2102.67,0.026990262984838035
263,2117.24,0.027081623305628577
264,2127.01,0.02736752205882855
265,2136.83,0.024882943640857597
266,2146.7,0.025605408051715708
267,2156.6,0.02664956815987126
268,2166.56,0.02553294966262169
269,2176.56,0.02514403542843538
270,2186.61,0.024362484023078137
271,2187.7616199999998,0.024501026860341866
272,2196.7,0.02557864096129662
273,2206.8399999999997,0.02460909047454263
274,2217.02,0.022977114561805397
275,2227.26,0.02194811551009328
276,2237.54,0.023565671032397918
277,2242.7,0.022378121080558613
278,2253.05,0.02098068460739256
279,2263.45,0.021506893851747446
280,2273.9,0.021992498813623265
281,2284.39,0.022537788349515836
282,2294.94,0.02097341474643353
283,2305.53,0.020672265717367976
284,2316.17,0.01951940240582336
285,2326.86,0.014525634811799677
286,2337.6,0.018138312935296934
287,2342.9900000000002,0.017727529284053935
288,2353.8,0.019564555412080506
289,2364.67,0.017811578401132195
290,2375.59,0.018604847107704825
291,2386.55,0.0172906903882942
292,2397.57,0.018865670529908705
293,2403.09,0.018021781744220144
294,2414.19,0.018780931033868145
295,2425.33,0.020259184897532895
296,2436.52,0.019531444478718584
297,2447.77,0.021067500920929398
298,2453.41,0.020877855857291086
299,2464.74,0.0208330514475354
300,2476.11,0.020084921611796456
301,2487.54,0.020839318637082643
302,2493.2799999999997,0.019680695008486206
303,2504.79,0.022377631181805892
304,2510.56,0.019641890983722016
305,2511.88643,0.019831644261012547
306,2516.35,0.02046947511901462
307,2522.15,0.019508968430603037
308,2533.7900000000004,0.02009989328351497
309,2545.4900000000002,0.01973729548102954
310,2557.2299999999996,0.021834265908279207
311,2563.13,0.02114569479420536
312,2574.96,0.02286347123835898
313,2586.85,0.022606235027115243
314,2592.81,0.022351071257644035
315,2604.7799999999997,0.021648521505870478
316,2616.8,0.021456019541265792
317,2622.83,0.02277474267383099
318,2634.94,0.024178056726130263
319,2647.1,0.0267509185655984
320,2653.2,0.02820371860020001
321,2665.45,0.024639086456572108
322,2677.75,0.026339812100113068
323,2683.93,0.026586038594184867
324,2696.31,0.02511197069719601
325,2702.53,0.026415195421002905
326,2715.0,0.024777953540918007
327,2727.54,0.024559738562869523
328,2733.82,0.026252360631279052
329,2746.44,0.022417432112700753
330,2752.77,0.02320413196827915
331,2765.48,0.024581899466604808
332,2771.8599999999997,0.026036377109352072
333,2784.65,0.024424611067147915
334,2797.5,0.019472982369546397
335,2803.9500000000003,0.02115028691433007
336,2816.8900000000003,0.026369444233632508
337,2823.39,0.02831851656558505
338,2836.42,0.02718261990179145
339,2842.96,0.02602829046347908
340,2856.08,0.02492806981658944
341,2862.6600000000003,0.028612688608012162
342,2875.88,0.029762633535460253
343,2882.5099999999998,0.029497210114051844
344,2884.0315,0.029585035142262094
345,2895.81,0.030265432109556716
346,2909.1800000000003,0.034512930000056834
347,2929.34,0.03306315174070622
348,2949.6499999999996,0.03255987334549734
349,2970.1,0.033725854823487424
350,2990.68,0.034220486183733675
351,3011.41,0.03488166740812166
352,3032.2900000000004,0.03580457849665138
353,3053.3100000000004,0.03624794945838006
354,3067.4,0.03771499669676052
355,3088.66,0.03818406744111597
356,3110.0699999999997,0.040108048049613154
357,3131.63,0.03932445852225209
358,3153.34,0.04018442885903275
359,3167.89,0.0414302456807812
360,3189.8500000000004,0.03870924579113143
361,3211.96,0.04122977576562339
362,3226.79,0.03859862233376974
363,3249.16,0.04445216207277405
364,3271.6800000000003,0.04811820167592009
365,3286.78,0.04804361799952156
366,3309.56,0.047548857367179946
367,3311.31121,0.04751553465571755
368,3324.84,0.04725788154480517
369,3332.5,0.04882167892024703
370,3340.19,0.04537797577627156
371,3347.8799999999997,0.052348422632296096
372,3355.6000000000004,0.0497868189689033
373,3363.34,0.04125234495923228
374,3371.09,0.04291298077642215
375,3378.86,0.04927803624733381
376,3386.65,0.04975205137196724
377,3394.46,0.049544496150322456
378,3402.2799999999997,0.05547473075553857
379,3410.13,0.04868237484133734
380,3417.9900000000002,0.047705148753997006
381,3425.87,0.05256258232037845
382,3433.76,0.05672856571362079
383,3441.68,0.05047527858744579
384,3449.61,0.04889777128813169
385,3457.5699999999997,0.05133828346940026
386,3465.5399999999995,0.048492835477529715
387,3473.53,0.054422727139380955
388,3481.5299999999997,0.050469398628093076
389,3489.56,0.05384810959738788
390,3497.6000000000004,0.05086356039354357
391,3505.67,0.056431140670281925
392,3513.75,0.052452310773881176
393,3521.8500000000004,0.0581969405312022
394,3529.9700000000003,0.04900154994224502
395,3538.1,0.057715769180148715
396,3546.2599999999998,0.05922142789863508
397,3554.4300000000003,0.05932350644398234
398,3562.63,0.05680264446991228
399,3570.84,0.05088248232270309
400,3579.0699999999997,0.0523204398292157
401,3587.32,0.04517481698945008
402,3595.59,0.054310563803406244
403,3603.8799999999997,0.06122457027108419
404,3612.19,0.05037024639248391
405,3620.52,0.05511035216760541
406,3628.8599999999997,0.0646030277695878
407,3637.23,0.056684032852152864
408,3645.61,0.06288106776157881
409,3654.02,0.05870610215158745
410,3658.67,0.06956538164190136
411,3661.41,0.06975748420178528
412,3664.15,0.061514136761669176
413,3666.89,0.07863151932155307
414,3669.6400000000003,0.04579369170829787
415,3672.38,0.08125717426818178
416,3675.12,0.03774748682806568
417,3677.86,0.07122922938794958
418,3680.61,0.05744973177469438
419,3683.3500000000004,0.07996688433457828
420,3686.09,0.05734609689446219
421,3688.8300000000004,0.0768072994543461
422,3691.57,0.09646231201423
423,3694.3199999999997,0.012129944400974788
424,3697.06,0.03971187696085869
425,3699.7999999999997,0.021793999520742596
426,3702.5400000000004,0.0326837520806265
427,3705.29,0.03179974446737129
428,3708.0299999999997,0.0712148970272552
429,3710.77,0.0427268595871391
430,3713.5099999999998,0.076793272147023
431,3716.25,0.03609646470690691
432,3719.0,0.0770444970936517
433,3721.7400000000002,0.0541245896535356
434,3724.48,0.1216998522134195
435,3727.22,0.11584630477330342
436,3729.9700000000003,0.12177765716004821
437,3732.71,0.1397941097199321
438,3735.4500000000003,0.06095703227981601
439,3738.19,0.05848574483969992
440,3740.9300000000003,0.05246554739958382
441,3743.68,0.09655619978632862
442,3746.4199999999996,0.029076232346212517
443,3749.1600000000003,0.04760257490609642
444,3751.9,0.06847109746598032
445,3754.65,0.06606913985272513
446,3757.39,0.08074235241260902
447,3760.1299999999997,0.07433807497249292
448,3762.87,0.07206734753237683
449,3765.6099999999997,0.06060142009226074
450,3768.36,0.06729269247900553
451,3771.1,0.030595295038889435
452,3773.84,0.05375662759877334
453,3776.58,0.05807720015865724
454,3779.3300000000004,0.06604661254540203
455,3782.07,0.09563776510528595
456,3784.81,0.07287082766516985
457,3787.55,0.08485351022505375
458,3790.29,0.08877810278493764
459,3793.04,0.08044085517168245
460,3795.78,0.09294021773156634
461,3798.5200000000004,0.07281115029145024
462,3801.26,0.07298285285133416
463,3801.8939600000003,0.06760968738395073
464,3804.0099999999998,0.04967507287181922
465,3806.75,0.08634360531641624
466,3809.49,0.06716464776101326
467,3812.2299999999996,0.09710262020561028
468,3814.97,0.0950682026502073
469,3817.72,0.09339020495774081
470,3820.46,0.08737686740233783
471,3823.2,0.07351955984693484
472,3825.94,0.06392328229153185
473,3828.69,0.06386350459906537
474,3831.4300000000003,0.059750347043662375
475,3834.17,0.058973649488259394
476,3836.91,0.07331885193285642
477,3839.65,0.07051784437745344
478,3842.4,0.05412768668498694
479,3845.1400000000003,0.07669924912958397
480,3847.88,0.07945785157418098
481,3850.6200000000003,0.082190964018778
482,3853.37,0.0802716863263115
483,3856.1099999999997,0.08603188877090852
484,3858.85,0.06177264121550553
485,3861.5899999999997,0.07040358366010255
486,3864.3300000000004,0.10206505610469957
487,3867.08,0.09124624841223308
488,3869.8199999999997,0.0925040708568301
489,3872.56,0.07740941330142712
490,3875.2999999999997,0.08495938574602413
491,3878.05,0.09165907805355764
492,3880.79,0.07981419049815465
493,3883.53,0.06730302294275167
494,3886.27,0.06115536538734869
495,3889.0099999999998,0.0664141678319457
496,3891.76,0.07875511013947921
497,3894.5,0.08331366258407623
498,3897.2400000000002,0.09418307502867325
499,3899.98,0.06940539747327026
500,3902.73,0.09368812978080378
501,3905.47,0.08123478222540079
502,3908.2099999999996,0.0890022946699978
503,3910.9500000000003,0.09012074711459482
504,3913.69,0.11061877955919185
505,3916.44,0.11144094186672535
506,3919.18,0.06689118431132236
507,3921.92,0.08295135675591939
508,3924.66,0.08922657920051641
509,3927.41,0.0644349415080499
510,3930.15,0.08037271395264693
511,3932.89,0.06039661639724395
512,3935.63,0.06277787884184098
513,3938.37,0.07785395128643799
514,3941.1200000000003,0.0783618135939715
515,3943.86,0.07899244603856852
516,3946.6,0.07381870848316553
517,3949.34,0.09648381092776255
518,3952.0899999999997,0.09318606323529606
519,3954.83,0.07966871567989307
520,3957.57,0.0839621181244901
521,3960.3100000000004,0.09220556056908712
522,3963.05,0.07848759301368413
523,3965.7999999999997,0.06964731532121764
524,3968.54,0.04473878776581465
525,3971.2799999999997,0.045092330210411674
526,3974.02,0.06165390265500869
527,3976.77,0.056243604962542194
528,3979.51,0.07103238740713921
529,3982.25,0.07483797985173624
530,3984.99,0.08178966229633325
531,3987.73,0.08904050474093027
532,3990.48,0.10461412704846378
533,3993.2200000000003,0.11388928949306079
534,3995.96,0.10304545193765781
535,3998.7,0.11630471438225483
536,4001.45,0.10569827668978833
537,4004.19,0.09048299913438534
538,4006.9300000000003,0.09566533157898237
539,4009.67,0.12290766402357939
540,4012.4100000000003,0.1199316264681764
541,4015.16,0.11012918877570992
542,4017.8999999999996,0.11943155122030692
543,4020.64,0.13102161366490395
544,4023.3799999999997,0.12964167610950098
545,4026.13,0.11703983841703447
546,4028.87,0.12004660086163149
547,4031.61,0.0976518933062285
548,4034.35,0.09508036575082553
549,4037.0899999999997,0.10363148819542255
550,4039.84,0.08566902050295605
551,4042.58,0.08581354294755306
552,4045.32,0.10689967539215008
553,4048.06,0.0994449878367471
554,4050.8100000000004,0.0889967501442806
555,4053.55,0.08820817258887763
556,4056.29,0.09774504503347464
557,4059.03,0.09587547747807165
558,4061.77,0.10871314992266869
559,4064.52,0.10691101223020218
560,4067.2599999999998,0.1145952746747992
561,4069.9999999999995,0.11525823711939623
562,4072.7400000000002,0.11330199956399326
563,4075.49,0.10252916187152676
