,lambda (Angstroms),Total Flux (erg/s/cm^2/Angstrom)
0,102.00000000000001,21.618721541068265
1,103.9,21.55710900788425
2,104.712855,21.53075003122736
3,106.08,21.297873698269235
4,108.05,20.962308432060485
5,110.06,20.61992965805947
6,113.93,19.960722764781856
7,117.92999999999999,19.279371970859188
8,120.22644299999999,18.888201158841614
9,120.95,18.78486978384142
10,124.92,18.217912984262362
11,126.95,17.9280081222062
12,128.12,17.76092009839643
13,131.10999999999999,17.333917371249434
14,132.01,17.205388124496288
15,133.85,16.942617216481672
16,136.97,16.49704915848795
17,138.038426,16.34446694708456
18,140.16,16.127899962743477
19,143.09,15.82881015301427
20,147.10000000000002,15.419475685688083
21,150.88,15.03361919414811
22,155.1,14.6028481992029
23,158.489319,14.256871839077396
24,159.07999999999998,14.211287120392784
25,162.04,13.982854580652196
26,165.80999999999997,13.691911811866044
27,170.07000000000002,13.363154196665738
28,172.82999999999998,13.150156338837405
29,176.86,12.83914859914747
30,180.14,12.58602071816507
31,181.81,12.457141617791756
32,181.970086,12.444787281152118
33,186.05,12.204579440736843
34,190.82,11.923742376589226
35,193.92,11.741227743126753
36,197.98,11.502192473226009
37,202.12,11.258447192414659
38,204.93999999999997,11.092417859808306
39,208.929613,10.857526675393304
40,210.19,10.801737460824969
41,216.07999999999998,10.541025561917657
42,220.1,10.36308635179308
43,223.16,10.227640057676147
44,226.79000000000002,10.066963792615894
45,229.94,9.927537353831966
46,234.21999999999997,9.738096865578507
47,239.88329199999998,9.487425518401208
48,240.23,9.475599727946417
49,245.82,9.28492645797687
50,252.13,9.069697058378384
51,256.81,8.910059493945274
52,259.78999999999996,8.808417894911884
53,264.01,8.664477734325875
54,268.92,8.497000591214215
55,273.92,8.326453541932686
56,275.42287,8.2751915417184
57,279.01,8.181290100400568
58,284.2,8.04543006086276
59,290.15,7.889673122705157
60,296.21999999999997,7.7307780049591655
61,301.03999999999996,7.604602227598891
62,308.05,7.421100882720519
63,316.227766,7.207030859096215
64,318.14000000000004,7.169643794972231
65,327.81,6.980579683681497
66,337.77000000000004,6.785844861309904
67,348.03000000000003,6.585244209661216
68,356.96,6.410648107401989
69,363.078055,6.291030764219121
70,366.12,6.246491121448784
71,374.64,6.12174148566159
72,385.14,5.967996670476668
73,395.02000000000004,5.823337586944569
74,405.15000000000003,5.675015157605687
75,413.64,5.550704242403308
76,416.86938299999997,5.503418934624141
77,422.29999999999995,5.442695887789595
78,430.15,5.354920646722749
79,441.17999999999995,5.231590394921817
80,451.46,5.116643854233642
81,459.84999999999997,5.022830014117611
82,469.47999999999996,4.915152002973824
83,478.630092,4.812840309027931
84,480.42,4.797448035390801
85,490.48,4.710934454788986
86,499.59999999999997,4.632509624831873
87,506.55,4.572751707321573
88,512.41,4.522445975668428
89,519.54,4.461138429643186
90,530.42,4.367582675706632
91,540.28,4.282783394854753
92,549.5408739999999,4.2032025563869535
93,550.33,4.198030831914776
94,560.5600000000001,4.130972656042751
95,569.67,4.071254397566783
96,580.26,4.00177133215674
97,589.68,3.940055456445256
98,600.65,3.868108530656193
99,610.41,3.8041557939476913
100,620.3299999999999,3.7391811169111824
101,630.4,3.673181553767165
102,630.957344,3.66952654891367
103,640.65,3.619142398839752
104,649.56,3.5729167558039587
105,658.6,3.5259674675583277
106,664.69,3.494365085743628
107,675.49,3.438234996003272
108,684.89,3.3893555195996297
109,694.4200000000001,3.340095651786149
110,705.6999999999999,3.2813917713017786
111,715.5200000000001,3.2306146104971214
112,724.43596,3.184327257904468
113,725.47,3.1803449232826644
114,735.56,3.141485318338944
115,745.8,3.1022073072285674
116,754.43,3.069059444173631
117,764.9300000000001,3.0286887145077173
118,775.57,2.9878694376195916
119,784.55,2.9534440745091253
120,795.46,2.9115017261210188
121,804.67,2.8761247642883463
122,815.8700000000001,2.8330514545113714
123,825.31,2.796979513956494
124,831.763771,2.7717033718916753
125,834.87,2.7625660299964196
126,844.54,2.735530188078281
127,854.3199999999999,2.707506013806369
128,864.2099999999999,2.6793458451806824
129,874.22,2.6508602019872423
130,884.34,2.622168484440029
131,894.5799999999999,2.5929971383250616
132,904.94,2.56321462364234
133,915.42,2.5367352283918656
134,926.02,2.563924871573638
135,934.59,2.62622596619324
136,945.41,2.7688108426674636
137,954.16,2.945397855435436
138,954.992586,2.952310503063509
139,965.2099999999999,3.0377787085715138
140,974.14,2.471694932267318
141,985.4200000000001,3.0356177253567544
142,994.53,3.0348346569210074
143,1006.05,3.3073720605017085
144,1015.36,3.176711034142015
145,1024.75,2.5111977446127427
146,1034.24,2.8134635261214975
147,1043.81,3.5220136444606744
148,1055.89,3.535724305854326
149,1065.6599999999999,3.249905766269557
150,1075.52,3.4546231306190114
151,1085.47,3.1422203989026896
152,1095.52,3.469944338224396
153,1096.4782,3.4662952256610655
154,1105.66,3.4360266645604653
155,1115.8899999999999,3.369749276582117
156,1126.21,3.2735948470673
157,1134.02,3.56163046484727
158,1144.51,3.3934990679857955
159,1155.1,3.4867525138615805
160,1165.79,3.565273802474625
161,1173.8700000000001,3.1604042956451948
162,1184.73,3.4786756169115804
163,1195.69,2.7874877809152254
164,1203.98,2.5173268438340415
165,1215.12,2.088529824764754
166,1226.36,2.656118848432726
167,1234.87,3.4055793653735122
168,1246.29,3.6419212059685515
169,1254.9299999999998,3.5461862184677755
170,1258.92541,3.368808071030535
171,1263.63,3.1630679305577605
172,1275.3200000000002,3.726966194101607
173,1284.16,3.8430009203400672
174,1296.04,3.39446608637094
175,1305.03,3.330075630362315
176,1314.07,3.7577727802713294
177,1326.23,3.667616539440976
178,1335.43,3.3977650282864325
179,1344.68,3.7797841230495277
180,1354.0,3.6970958660973166
181,1366.53,3.4536709090574873
182,1376.0,3.575780469858191
183,1385.5400000000002,3.614671678943588
184,1395.15,3.4342505363136793
185,1404.82,3.494175520784937
186,1414.55,3.4446496323573603
187,1424.3600000000001,3.496061913398004
188,1434.23,3.4554093215398147
189,1440.85,3.5693403450351324
190,1445.43977,3.590397786739744
191,1447.5,3.6008751865883104
192,1454.1899999999998,3.5414100753264677
193,1464.27,3.3911436475956194
194,1474.4199999999998,3.360394703005529
195,1484.63,3.3870087439646595
196,1494.9299999999998,3.4240862632476228
197,1505.29,3.324888768079806
198,1512.24,3.1266685941979215
199,1515.72,3.2520537560527476
200,1526.23,3.167495724757984
201,1533.27,2.9534530291999315
202,1543.9,3.1382939690036102
203,1554.6,3.0143773919480474
204,1565.38,3.010295795624779
205,1576.23,3.101120682442269
206,1583.51,3.183267929081101
207,1594.48,3.227061786997032
208,1605.53,3.1533486256452594
209,1616.66,3.163800445025781
210,1624.13,3.0504331459038134
211,1635.3799999999999,3.1422659363827776
212,1646.72,3.157441205185573
213,1654.32,2.989322374753584
214,1659.58691,3.0674038505703303
215,1665.79,3.1615018837281026
216,1673.48,2.9589867370328298
217,1677.34,3.133087079523889
218,1685.08,3.229083652290935
219,1696.76,3.1079411186887524
220,1704.59,3.018284186487974
221,1716.4099999999999,2.9157368673802853
222,1724.33,2.900712430211682
223,1736.28,3.0018563817060233
224,1744.29,2.954793439569595
225,1756.3899999999999,3.074175549450895
226,1764.49,2.894376102346641
227,1776.72,2.960184482829972
228,1784.92,2.985615474650357
229,1793.16,3.0927082420405974
230,1805.59,3.068139500373206
231,1813.93,2.930212706688086
232,1826.5,2.9520911795151883
233,1834.9299999999998,2.8772758808622427
234,1843.4,2.737186357779153
235,1856.18,2.718617652347997
236,1864.75,2.761961568189546
237,1873.35,2.9051143157084867
238,1886.34,2.7573314320190727
239,1895.05,2.679090562355116
240,1903.79,2.7777795243685506
241,1905.46072,2.768306913836943
242,1916.99,2.705420089139447
243,1925.8400000000001,2.6751523574742566
244,1934.73,2.7246490112026702
245,1943.66,2.784593050324687
246,1957.1299999999999,2.66917983162072
247,1966.16,2.8160978342267464
248,1975.24,2.8611303185747774
249,1984.36,2.756190188316412
250,1993.52,2.69420044345165
251,2002.72,2.740907083980492
252,2016.6000000000001,2.672037815560962
253,2025.9099999999999,2.7583185159222143
254,2035.2600000000002,2.66102160167707
255,2044.65,2.711793072825529
256,2054.09,2.6245000257159927
257,2063.57,2.6443173640000603
258,2073.1,2.7348951840261324
259,2077.88,2.65733023856177
260,2082.67,2.711392389445808
261,2097.1,2.6075324201883285
262,2106.78,2.6273506854404145
263,2116.51,2.6301944324345046
264,2126.28,2.654824564822199
265,2136.09,2.5304360826034964
266,2145.9500000000003,2.570261082126799
267,2155.86,2.619952563392106
268,2165.81,2.558535430051016
269,2175.8,2.53592468210353
270,2185.85,2.5051645122464503
271,2187.7616199999998,2.5183386272458472
272,2195.94,2.5762624257920965
273,2206.07,2.521552395244157
274,2216.25,2.448000394160444
275,2226.48,2.3848494225409556
276,2236.76,2.4926984803856924
277,2247.09,2.411819567694655
278,2257.46,2.353220678574998
279,2262.66,2.382025742854437
280,2273.11,2.4251749008775403
281,2283.6,2.453164082472024
282,2294.14,2.3729682935307332
283,2304.73,2.353052534053668
284,2315.37,2.2879038040408277
285,2326.05,1.9834410975993677
286,2336.79,2.1955804265149785
287,2347.58,2.1492977848948143
288,2352.9900000000002,2.2392469729239997
289,2363.85,2.132363372553751
290,2374.7599999999998,2.1659198016477283
291,2385.7200000000003,2.06971526020593
292,2396.73,2.1534177482283576
293,2402.2599999999998,2.0929040069716844
294,2413.35,2.115460542136873
295,2424.49,2.1737991067662863
296,2435.6800000000003,2.1063227008599252
297,2446.92,2.1825313244177895
298,2452.56,2.1481046479824117
299,2463.88,2.1399003186830368
300,2475.25,2.086692018847887
301,2486.68,2.137607754369808
302,2492.41,2.066042130970036
303,2503.91,2.1772419077418723
304,2511.88643,2.087034978835245
305,2515.4700000000003,2.0468725840817434
306,2527.08,2.0167015076460095
307,2532.91,2.0280985295564036
308,2544.6000000000004,2.0014176455311037
309,2556.35,2.07163190581363
310,2562.2400000000002,2.0459200720318496
311,2574.07,2.1116205247248097
312,2585.9500000000003,2.0973310976742914
313,2597.88,2.0866477908802947
314,2603.87,2.033106197611557
315,2615.8900000000003,2.0193011072792983
316,2627.9700000000003,2.0530261612548655
317,2634.0200000000004,2.0755147122939537
318,2646.1800000000003,2.165675958679955
319,2652.28,2.1712096299755643
320,2664.5200000000004,2.069626068772
321,2676.8199999999997,2.1157736518762618
322,2682.9900000000002,2.1066414915310006
323,2695.38,2.0530772910970008
324,2707.82,2.073881210919522
325,2714.06,2.016161218933391
326,2726.5899999999997,2.008912355217651
327,2732.87,2.0626414594367373
328,2745.49,1.9136708121827355
329,2758.16,1.922666285185255
330,2764.52,1.9601455818147757
331,2777.2799999999997,2.006970271279034
332,2783.68,1.9642346641137713
333,2796.5299999999997,1.749384570039768
334,2802.98,1.821123083131027
335,2815.92,1.9882222055187622
336,2822.4100000000003,2.013870814815238
337,2835.44,1.9583961536647119
338,2841.97,1.926337859166405
339,2855.09,1.9026344144776173
340,2868.27,1.9720511140966552
341,2874.88,1.9598050120087824
342,2884.0315,1.9593215176993044
343,2888.15,1.9594639731301098
344,2894.81,1.9477842178302793
345,2908.17,2.017716300291881
346,2928.33,1.9711922031680706
347,2948.6299999999997,1.946096681758678
348,2969.0699999999997,1.9518597360637033
349,2989.6499999999996,1.9439183660831465
350,3010.37,1.949617571817008
351,3031.2400000000002,1.9381482515306028
352,3052.2500000000005,1.9266485069586154
353,3073.4,1.9151793381010465
354,3087.59,1.9154389765838404
355,3108.99,1.8971532643591604
356,3130.54,1.8789960261142142
357,3152.2400000000002,1.8741632618490012
358,3166.79,1.864291237883156
359,3188.74,1.8104129302508323
360,3210.85,1.8315009948635579
361,3233.1,1.7878936351907013
362,3248.03,1.8200657453068478
363,3270.54,1.834807740532196
364,3293.2099999999996,1.8231761080025937
365,3308.41,1.81327547128226
366,3311.31121,1.8107747025759613
367,3323.68,1.8008713784155757
368,3331.3500000000004,1.8029105494030377
369,3339.02,1.7410427203905003
370,3346.7200000000003,1.7939764252931678
371,3354.44,1.7479911528059724
372,3362.17,1.728018391623845
373,3369.92,1.7144856530518546
374,3377.69,1.7101899370900011
375,3385.48,1.7399612437382843
376,3393.28,1.7800700616916356
377,3401.1000000000004,1.828115902255124
378,3408.9399999999996,1.7299857654287494
379,3416.7999999999997,1.7507146512125114
380,3424.68,1.7847985596064102
381,3432.5699999999997,1.816454979305377
382,3440.48,1.7693664216144813
383,3448.4199999999996,1.7112853978387905
384,3456.3700000000003,1.703823885368168
385,3464.33,1.666197884202614
386,3472.3199999999997,1.7324434169522651
387,3480.32,1.6786874610069846
388,3488.35,1.7204810389769094
389,3496.39,1.7005741282519025
390,3504.4500000000003,1.6993212401370323
391,3512.5299999999997,1.6827063746322992
392,3520.62,1.7153580204326344
393,3528.7400000000002,1.6589862001481748
394,3536.87,1.7159138911687837
395,3545.03,1.7367111161045976
396,3553.2000000000003,1.74182185234548
397,3561.39,1.7309756111964991
398,3569.6,1.6615563926576549
399,3577.8300000000004,1.6274491967289477
400,3586.08,1.5913370234103774
401,3594.3399999999997,1.6307283613968753
402,3602.63,1.6930322332985785
403,3610.94,1.6459861278104184
404,3616.7700000000004,1.7361982186652951
405,3619.48,1.6461237823388317
406,3622.18,1.7135418347072995
407,3624.8799999999997,1.7789598870757675
408,3627.59,1.7097064507493034
409,3630.29,1.5697765031177713
410,3632.99,1.6490935554862391
411,3635.7,1.5802181191597753
412,3638.4,1.5586191715282434
413,3641.11,1.7249437352017796
414,3643.81,1.7540737875702475
415,3646.51,1.6632498399387152
416,3649.2200000000003,1.6862054036122514
417,3651.92,1.6813174559807194
418,3654.62,1.660583508349187
419,3657.33,1.6262120720227236
420,3660.03,1.6290571243911913
421,3662.73,1.6984231767596591
422,3665.4399999999996,1.5911507404331955
423,3668.14,1.6125997928016633
424,3670.85,1.7524253564751995
425,3673.5499999999997,1.6589514088436674
426,3676.25,1.5857584612121354
427,3678.96,1.5212100248856715
428,3681.66,1.5722960772541392
429,3684.3599999999997,1.6182451296226072
430,3687.07,1.6491496932961436
431,3689.77,1.6540507456646112
432,3692.47,1.5753407980330794
433,3695.1800000000003,1.6311783617066156
434,3697.88,1.5820514140750832
435,3700.59,1.6235569777486194
436,3703.2900000000004,1.5706980301170872
437,3705.9900000000002,1.5997190824855552
438,3708.7,1.5653486461590915
439,3711.4,1.6877136985275591
440,3714.1000000000004,1.743937750896027
441,3716.81,1.7920943145695634
442,3719.5099999999998,1.9462603669380312
443,3722.21,2.5041464193064993
444,3724.92,3.6697309829800355
445,3727.62,4.695046035348503
446,3730.33,4.8345905990220395
447,3733.0299999999997,3.8674376513905075
448,3735.73,2.7307337037589754
449,3738.44,2.0660952674325115
450,3741.14,1.8824143198009795
451,3743.84,1.8001903721694472
452,3746.55,1.7480799358429835
453,3749.25,1.7530349882114513
454,3751.9599999999996,1.6802655518849876
455,3754.6600000000003,1.7384906042534554
456,3757.36,1.8403596566219231
457,3760.0699999999997,1.8846222202954597
458,3762.7699999999995,1.9016372726639275
459,3765.4700000000003,1.936824325032395
460,3768.18,1.7949928887059317
461,3770.8799999999997,1.6707469410743994
462,3773.5800000000004,1.697225993442867
463,3776.29,1.9162265571164034
464,3778.99,2.036159609484871
465,3781.7000000000003,2.1213061731584073
466,3784.4,2.1284252255268754
467,3787.1,2.1305142778953434
468,3789.81,2.0964128415688794
469,3792.51,1.9879048939373474
470,3795.21,1.9230409463058153
471,3797.92,1.6955445099793516
472,3800.62,1.7982785623478192
473,3801.8939600000003,1.8450173484349912
474,3803.32,1.8973971862574288
475,3806.03,1.9882867584836663
476,3808.73,2.154143387638958
477,3811.44,2.2328639598651954
478,3814.14,2.1797985890204874
479,3816.84,2.2431702181757793
480,3819.5499999999997,2.2428777904020167
481,3822.25,2.192408419557309
482,3824.95,2.083693048712601
483,3827.66,1.9350016209388383
484,3830.3599999999997,1.92828325009413
485,3833.07,1.8260478223203676
486,3835.77,1.7561094514756594
487,3838.47,1.7685900806309514
488,3841.1800000000003,1.8243266528571889
489,3843.88,2.0211712820124808
490,3846.58,2.0746459111677726
491,3849.2900000000004,2.21485748339401
492,3851.9900000000002,2.172879112549302
493,3854.69,2.249284741704594
494,3857.4,2.3564513139308314
495,3860.1000000000004,2.3943519430861233
496,3862.81,2.4225595153123605
497,3865.5099999999998,2.517894144467653
498,3868.21,2.5837007736229447
499,3870.92,2.665826345849182
500,3873.62,2.5290979750044738
501,3876.3199999999997,2.4267646041597657
502,3879.03,2.2371321763860035
503,3881.73,2.138205805541295
504,3884.43,2.0327354346965874
505,3887.14,1.9117340069228246
506,3889.84,1.8753796360781165
507,3892.55,1.8695712083043539
508,3895.25,1.909903837459646
509,3897.95,1.936770466614938
510,3900.6600000000003,2.083634038841175
511,3903.36,2.2451636679964673
512,3906.06,2.249533297151759
513,3908.7699999999995,2.3159768693779963
514,3911.4700000000003,2.4259674985332884
515,3914.17,2.44823812768858
516,3916.8799999999997,2.351517699914818
517,3919.58,2.3527503290701097
518,3922.29,2.243050901296347
519,3924.99,2.304205530451639
520,3927.6899999999996,2.3045191596069308
521,3930.4,2.2206707318331684
522,3933.1,2.12461036098846
523,3935.7999999999997,2.0956649901437525
524,3938.51,2.1770355623699897
525,3941.21,2.3371591915252816
526,3943.92,2.331187763751519
527,3946.6200000000003,2.396615392906811
528,3949.32,2.396171022062103
529,3952.03,2.3907405942883404
530,3954.73,2.3604442234436323
531,3957.4300000000003,2.376981852598924
532,3960.14,2.2500844248251615
533,3962.84,2.1688420539804536
534,3965.54,1.9784096831357456
535,3968.25,1.9531862553619828
536,3970.95,1.900228884517275
537,3973.66,1.9426074567435123
538,3976.3599999999997,2.007222085898804
539,3979.06,2.043823715054096
540,3981.77,2.2293012872803333
541,3984.47,2.3306389164356256
542,3987.17,2.3566405455909174
543,3989.88,2.4071301178171547
544,3992.58,2.5137137469724466
545,3995.2799999999997,2.560699376127739
546,3997.9900000000002,2.567814948353976
547,4000.69,2.5617475775092684
548,4003.3999999999996,2.4864971497355057
549,4006.1000000000004,2.5471107788907976
550,4008.8,2.5279554080460893
551,4011.5099999999998,2.5134929802723267
552,4014.2099999999996,2.4895236094276187
553,4016.9100000000003,2.5676072385829105
554,4019.62,2.496682810809148
555,4022.3199999999997,2.42155243996444
556,4025.03,2.5714970121906773
557,4027.73,2.5087516413459694
558,4030.43,2.488677270501261
559,4033.14,2.5094748427274984
560,4035.84,2.4870744718827904
561,4038.54,2.4271951010380826
562,4041.25,2.54923467326432
563,4043.95,2.4943843024196117
564,4046.65,2.4674949315749037
565,4049.36,2.4170685038011417
566,4052.06,2.3671401329564334
567,4054.77,2.3973487051826705
568,4057.4700000000003,2.3525043343379624
569,4060.17,2.4351299634932544
570,4062.8799999999997,2.3544175357194916
571,4065.58,2.3560291648747835
572,4068.28,2.402689794030076
573,4070.99,2.360159366256313
574,4073.6899999999996,2.347330995411605
575,4076.39,2.355485624566897
576,4079.1,2.3721741967931345
577,4081.7999999999997,2.329005825948426
578,4084.51,2.372140398174664
579,4087.21,2.311450027329956
580,4089.91,2.2213386564852478
581,4092.6200000000003,2.234783228711485
582,4095.32,2.135153857866777
583,4098.02,2.067648487022069
584,4100.7300000000005,2.1736800592483063
585,4103.43,2.1924346884035986
586,4106.13,2.08025831755889
587,4108.84,1.9372458897851277
588,4111.54,2.0780075189404195
589,4114.25,2.179605091166657
590,4116.95,2.2100957203219487
591,4119.650000000001,2.2916933494772405
592,4122.36,2.3534859217034785
593,4125.0599999999995,2.3899795508587705
594,4127.759999999999,2.436154180014062
595,4130.47,2.4360767522402993
596,4133.17,2.3796053813955913
597,4135.88,2.4559999536218293
598,4138.58,2.437654582777121
599,4141.28,2.493942211932413
600,4143.99,2.4955957841586502
