,lambda (Angstroms),Total Flux (erg/s/cm^2/Angstrom)
0,100.03,1.5329321549141985
1,101.89,1.5286697071011819
2,104.02,1.523787596184357
3,104.712855,1.5221997482908325
4,105.95,1.5073023507333356
5,107.92,1.4835805281959293
6,109.92999999999999,1.4593807544672561
7,114.05,1.4097702495267421
8,118.06,1.3614840394247119
9,120.22644299999999,1.3354383959651086
10,121.09,1.3267370533108263
11,125.06,1.2866677433249678
12,127.09,1.2661776877994786
13,127.97,1.2572969929894144
14,130.95000000000002,1.2272169700598785
15,131.85999999999999,1.2180457557381077
16,134.0,1.1964446054363604
17,137.12,1.1649701240188595
18,138.038426,1.1557005228978632
19,139.98999999999998,1.1416233331158838
20,142.93,1.1206049320655478
21,146.93,1.0920919258086283
22,151.05,1.0623952027170014
23,154.92000000000002,1.0345119598476817
24,158.489319,1.0087962785825921
25,158.9,1.006560578218468
26,161.85000000000002,0.990501888088851
27,166.0,0.9679172334183733
28,169.86999999999998,0.9468476816940964
29,173.03,0.9296467000298289
30,177.06,0.9077056797934371
31,179.92999999999998,0.8920827383198778
32,181.970086,0.880977500698171
33,182.01999999999998,0.8807703616843104
34,185.82999999999998,0.8649603715845923
35,191.02999999999997,0.8433754212752661
36,194.14000000000001,0.8304744518710341
37,198.20000000000002,0.8136241682372137
38,201.89,0.7983156063138648
39,205.17000000000002,0.7847021598264435
40,208.929613,0.7690557054992853
41,209.95,0.7658632545127381
42,215.83,0.7475914017839342
43,219.84,0.7350980827273861
44,222.9,0.7255410709909678
45,227.04,0.7126474654064017
46,230.2,0.7035970211099697
47,233.94000000000003,0.6936148297654583
48,239.88329199999998,0.675907505832454
49,239.94000000000003,0.6757792589348978
50,246.1,0.6606123215013854
51,251.83,0.6469652592880691
52,257.11,0.6333666266307727
53,260.08,0.6268219307610434
54,263.7,0.6182600779770637
55,269.22,0.6048696522898899
56,274.23,0.5927095381662053
57,275.42287,0.589809587636161
58,278.68,0.5837178267808906
59,283.86,0.5740663551973104
60,289.81,0.562774502297252
61,295.88,0.5515406676076126
62,300.68,0.5424995440243722
63,307.69,0.5294966756496815
64,316.227766,0.5136550690877252
65,317.77,0.5115159012005212
66,328.18,0.4969950593758568
67,338.15,0.48306021917970837
68,347.62,0.46981367051596457
69,357.35999999999996,0.4562327417847224
70,363.078055,0.44826723890954967
71,365.69,0.445535310280452
72,375.07,0.4356990823514304
73,384.69000000000005,0.42551672763317994
74,394.56,0.4152774710511497
75,404.67999999999995,0.4047094466053396
76,414.11,0.39483834430356185
77,416.86938299999997,0.3919417380374397
78,421.8,0.3879722409471556
79,429.65000000000003,0.3816714996272806
80,440.67,0.372867932514539
81,450.93,0.36464519551302094
82,460.37,0.3570865015525598
83,470.01,0.34937333582598734
84,478.630092,0.34249458118888587
85,479.86,0.34173763841064064
86,489.9,0.3355227938684941
87,500.15999999999997,0.32923145030649964
88,505.95,0.3256499784659589
89,511.80999999999995,0.32211503530092117
90,520.13,0.3169962947321304
91,529.8,0.31102775590518245
92,539.65,0.3049372032438135
93,549.5408739999999,0.2988519199375283
94,549.6800000000001,0.29878638416649206
95,559.9,0.29402648587537156
96,570.31,0.2891634005856882
97,579.58,0.2847889382873821
98,590.35,0.279750453316211
99,599.9399999999999,0.27522279296769386
100,609.69,0.270529336094071
101,619.6,0.26603824069534254
102,629.67,0.26131080577150845
103,630.957344,0.26071025432789047
104,639.9000000000001,0.25739812394366696
105,650.3000000000001,0.25352662276492227
106,657.8299999999999,0.2507093200691582
107,665.44,0.2479056535027882
108,674.7,0.24447056823017513
109,685.66,0.24037459095719038
110,695.1999999999999,0.23685916963745726
111,704.8699999999999,0.23323926515298987
112,716.33,0.22902555493871926
113,724.43596,0.22602197985278416
114,726.29,0.22551066585347146
115,734.6999999999999,0.22318989391023705
116,744.9200000000001,0.22036694869681775
117,755.28,0.21751117771609146
118,765.79,0.21455708436325036
119,774.66,0.212169857698864
120,785.44,0.20919012871621628
121,794.53,0.20669766664606165
122,805.58,0.20366484303360738
123,814.91,0.2010981181480691
124,824.3499999999999,0.19850366810964665
125,831.763771,0.19644051801477982
126,835.82,0.1955912884598167
127,845.49,0.19363676417661158
128,855.2800000000001,0.19161965496238428
129,865.1899999999999,0.18958339791713485
130,875.21,0.18752496732678167
131,885.34,0.18544287769132484
132,895.59,0.18333668082484583
133,905.9599999999999,0.18120194062734465
134,914.35,0.1795656127417096
135,924.9300000000001,0.1779336536399195
136,935.64,0.17636445862118877
137,944.3,0.17537826521575384
138,954.992586,0.17375947807206202
139,955.24,0.1737231115130738
140,964.07,0.17229412726851406
141,975.24,0.16795156771905412
142,984.26,0.16790120712495127
143,995.66,0.16558956515236006
144,1004.8700000000001,0.164527422208714
145,1014.17,0.1624950310994949
146,1025.91,0.15836167750140537
147,1035.4099999999999,0.15750018902424612
148,1044.99,0.15715161739991063
149,1054.66,0.15510754061000215
150,1064.4099999999999,0.15245846467291763
151,1074.26,0.1509378925518629
152,1084.2,0.14818808226523514
153,1094.23,0.14700037881303432
154,1096.4782,0.14651147529032557
155,1104.3600000000001,0.14508260825559222
156,1114.58,0.14328399483997947
157,1124.89,0.14123005523675364
158,1135.3,0.14014897720284672
159,1145.8,0.13811946498132677
160,1153.75,0.1369282227421759
161,1164.42,0.13523034138849793
162,1175.2,0.13243214436107079
163,1186.07,0.1314855311460306
164,1194.29,0.1292716683440407
165,1205.34,0.1268688147537744
166,1213.7,0.12470072354883087
167,1224.93,0.12407510758333855
168,1236.26,0.12313720018716509
169,1244.83,0.12198003387779116
170,1256.35,0.11995640386332354
171,1258.92541,0.11941932599546756
172,1265.0600000000002,0.11842786039454178
173,1273.83,0.11804939275074167
174,1285.6100000000001,0.11677970067845365
175,1294.5300000000002,0.11506503166446307
176,1303.5,0.11396506452707571
177,1315.5600000000002,0.11313284976376557
178,1324.68,0.11190116825618777
179,1333.8600000000001,0.11048303360053378
180,1346.1999999999998,0.10947313714620158
181,1355.53,0.10826367912035716
182,1364.93,0.10683968792175721
183,1374.39,0.1058249435750811
184,1383.9199999999998,0.10471466705564951
185,1393.51,0.1031251913881417
186,1406.4099999999999,0.10166436255176521
187,1416.1499999999999,0.100689134514067
188,1425.97,0.09955230427893384
189,1435.85,0.09838654989572458
190,1442.4799999999998,0.09771943153330782
191,1445.43977,0.09739507965541502
192,1445.81,0.09736753288384092
193,1455.83,0.09645410250023183
194,1465.92,0.09542370370975117
195,1476.08,0.09456964051239905
196,1486.3100000000002,0.09375165390817536
197,1496.62,0.09292019269609857
198,1503.5200000000002,0.09220929801876292
199,1510.46,0.09138538153750073
200,1517.4399999999998,0.09094756025231196
201,1524.44,0.09030344156515988
202,1535.01,0.08913628512756025
203,1545.65,0.08837131828308911
204,1556.36,0.08738380003174645
205,1563.55,0.08685388352594312
206,1574.3799999999999,0.08609255086282071
207,1585.3,0.08527532239086347
208,1596.29,0.0844177775120347
209,1603.65,0.08374158758954338
210,1614.77,0.08281967209795324
211,1625.9599999999998,0.0817954191994916
212,1633.47,0.08129313826227555
213,1644.79,0.08038430875105253
214,1656.1899999999998,0.0792928566319763
215,1659.58691,0.07908961717503768
216,1663.8400000000001,0.07893877743808302
217,1671.52,0.07826141951313198
218,1675.37,0.07834737249736874
219,1683.1,0.0779679138059792
220,1694.77,0.07714803111923714
221,1706.52,0.07641021500619352
222,1714.39,0.07590077656877622
223,1726.28,0.07522354470970487
224,1734.25,0.07492856273941059
225,1746.27,0.07418600568759916
226,1754.3300000000002,0.07391098373771561
227,1766.49,0.07296659193987644
228,1774.64,0.07259322401040363
229,1786.9399999999998,0.07196299246653672
230,1795.19,0.07172919800418692
231,1803.48,0.07119912632868634
232,1815.98,0.07032091971906548
233,1824.36,0.06988574906397566
234,1837.01,0.06908757815503933
235,1845.4799999999998,0.06830102252036024
236,1854.0,0.06798245311924264
237,1866.86,0.06744098359126469
238,1875.47,0.06704237721055784
239,1884.1299999999999,0.0664215440634125
240,1892.8300000000002,0.06598602170311635
241,1905.46072,0.06530784935586993
242,1905.9499999999998,0.06528902440921984
243,1914.74,0.06491598891520164
244,1923.58,0.06437447752986368
245,1936.92,0.06353571592574507
246,1945.8600000000001,0.06378179075776752
247,1954.84,0.06332336507673415
248,1968.3899999999999,0.06311509252907245
249,1977.47,0.06263054506539951
250,1982.03,0.06253882257703514
251,1995.77,0.06195810784235825
252,2004.98,0.06150321246125387
253,2014.24,0.0611376251888297
254,2023.53,0.06054004578161367
255,2032.87,0.06048899448307785
256,2046.9699999999998,0.06014328313089853
257,2056.41,0.05957294804972313
258,2065.91,0.059109933698964
259,2075.44,0.059083141213413
260,2080.23,0.0604626690249776
261,2085.02,0.06109039383654222
262,2094.65,0.060240046568351635
263,2104.31,0.059601307165369204
264,2114.03,0.05971712149280301
265,2123.79,0.05876405830718101
266,2133.59,0.05800502660850316
267,2143.44,0.05870698801850554
268,2153.33,0.0583221119154521
269,2163.27,0.05718918992107885
270,2173.25,0.0568589814136498
271,2183.29,0.05750316063663698
272,2187.7616199999998,0.057349864927560126
273,2193.36,0.05723352074425115
274,2203.49,0.05669625617222346
275,2213.66,0.05514967709349475
276,2223.88,0.0554622381313898
277,2234.14,0.05679595366258387
278,2244.4500000000003,0.05611488231040167
279,2254.81,0.05434765007484324
280,2265.22,0.05378730495590856
281,2275.68,0.05398641495359764
282,2286.18,0.05529325044458571
283,2296.73,0.05384929905219753
284,2307.33,0.054711017776433106
285,2312.65,0.05355440838520039
286,2323.33,0.05195905109603397
287,2334.05,0.05120044930016655
288,2344.83,0.04961595124424764
289,2355.65,0.05182795768162773
290,2366.52,0.049287327235631576
291,2377.4500000000003,0.04996230352958391
292,2382.93,0.04812574411154723
293,2393.93,0.04846425676877283
294,2404.97,0.04812842491929743
295,2416.08,0.04840164743309528
296,2427.23,0.050678302440192134
297,2432.82,0.05053522387872767
298,2444.05,0.05142610187242254
299,2455.33,0.051512299982741164
300,2466.67,0.05019686083300828
301,2472.35,0.04919142588146659
302,2483.77,0.04673335171833172
303,2495.23,0.04713957304849583
304,2506.75,0.04945375811860845
305,2511.88643,0.04565764956315393
306,2512.53,0.04518664795200091
307,2518.32,0.04434413149002498
308,2524.1200000000003,0.044525514633468787
309,2535.77,0.046017460947455055
310,2547.4799999999996,0.046115494893959705
311,2553.35,0.04968048227534161
312,2565.1400000000003,0.0472469740652041
313,2576.98,0.04876250688216525
314,2582.92,0.04770243150148527
315,2594.84,0.04668133616180426
316,2606.82,0.04549280645464164
317,2612.83,0.04477190331189979
318,2624.89,0.04649454744809502
319,2637.0,0.051080551611388886
320,2643.08,0.05525712170658516
321,2655.2799999999997,0.060590820318656605
322,2667.54,0.052664706563246434
323,2673.69,0.054568983896380804
324,2686.0299999999997,0.05658895698432849
325,2692.2200000000003,0.05165741273914178
326,2704.65,0.054482652275867044
327,2717.1299999999997,0.04969029983969096
328,2723.4,0.0475098324378621
329,2735.96,0.049752956845043855
330,2742.27,0.04388319486489392
331,2754.93,0.04613541132627299
332,2767.6499999999996,0.04881892642017044
333,2774.03,0.049670764677958605
334,2786.83,0.04396440661521391
335,2793.25,0.03924348029468101
336,2806.15,0.039740205286133604
337,2812.6200000000003,0.04733061199269936
338,2825.6,0.05266349982750981
339,2832.11,0.0517345429557545
340,2845.19,0.047407326844762246
341,2851.74,0.041969187394685865
342,2864.91,0.051507028732471184
343,2878.1299999999997,0.05614283709735517
344,2884.0315,0.05407903455207426
345,2884.77,0.053825339429572544
346,2898.08,0.05727900731581458
347,2911.46,0.06495211507824272
348,2931.64,0.06077135224160593
349,2951.96,0.05867959915734132
350,2972.42,0.05983577582544891
351,2993.0299999999997,0.05990209365681243
352,3006.84,0.060206122087240854
353,3027.68,0.06128232236893012
354,3048.67,0.0623558838138753
355,3069.7999999999997,0.06416749501119268
356,3091.08,0.06339023737176597
357,3112.51,0.06712155089559518
358,3126.88,0.06453597833551239
359,3148.55,0.06396752572055106
360,3170.3700000000003,0.06683019426884568
361,3192.35,0.061767515391279934
362,3207.09,0.06516937503389508
363,3229.32,0.05931519142842254
364,3251.7000000000003,0.07011903898620592
365,3266.71,0.07639807672268172
366,3289.35,0.07505959096344203
367,3311.31121,0.0724750889259218
368,3312.1600000000003,0.07237887791995543
369,3319.7900000000004,0.06978444351726376
370,3327.44,0.0700900486181037
371,3335.11,0.07599981322247526
372,3342.8,0.07101662733037842
373,3350.5099999999998,0.07428300094181317
374,3358.23,0.07563020930501374
375,3365.97,0.06783521717174593
376,3373.7299999999996,0.060948364542009706
377,3381.5099999999998,0.0703865414158051
378,3389.31,0.0740673577931321
379,3397.1200000000003,0.0680593489222249
380,3404.95,0.07578430955484931
381,3412.7999999999997,0.07034139969100534
382,3420.67,0.07232223933069296
383,3428.55,0.07276477372214639
384,3436.46,0.07246430236889723
385,3444.38,0.05849197576741388
386,3452.3199999999997,0.07525368866946214
387,3460.2699999999995,0.0709380863232762
388,3468.25,0.07137125823238766
389,3476.25,0.06893369964503074
390,3484.26,0.07193177580943962
391,3492.29,0.0691564514773801
392,3500.34,0.0662546866488522
393,3508.4100000000003,0.07565786132385591
394,3516.5,0.06711916550239122
395,3524.61,0.07012127918445814
396,3532.73,0.07515514761829085
397,3540.88,0.07790220030742098
398,3549.04,0.08055562774831693
399,3557.22,0.07351985469274448
400,3565.42,0.07836231114070363
401,3573.6400000000003,0.06237952709219439
402,3581.88,0.06717334254721676
403,3590.13,0.05689660275400493
404,3598.4100000000003,0.07511527721609051
405,3606.7,0.0707826464299419
406,3615.02,0.06901173989909071
407,3623.3500000000004,0.0655551181200053
408,3631.71,0.08754928059621733
409,3640.08,0.07582646782419514
410,3648.47,0.07306313455570457
411,3656.88,0.0845505707907456
412,3665.31,0.08687682652931825
413,3673.7599999999998,0.0813632217714225
414,3682.23,0.07754567651705835
415,3690.7200000000003,0.07214154076622581
416,3699.22,0.08201454976715909
417,3707.75,0.07251457302338978
418,3716.3,0.08747113578315205
419,3724.8700000000003,0.05969166804644595
420,3733.45,0.07734182506150565
421,3742.06,0.06749768633186276
422,3750.6800000000003,0.06025639235398568
423,3759.3300000000004,0.082697812631406
424,3768.0000000000005,0.07403796241235794
425,3776.68,0.08127440694507568
426,3785.3900000000003,0.09127349573309082
427,3794.1200000000003,0.07506285402463758
428,3801.8939600000003,0.06560729312090625
429,3802.86,0.06443523591694912
430,3811.6299999999997,0.08118011374858156
431,3820.42,0.07222391213399194
432,3829.22,0.0611453957962913
433,3838.05,0.053923065289257596
434,3846.8999999999996,0.07376562533600184
435,3855.77,0.07855594593652404
436,3864.65,0.07232779181393521
437,3873.56,0.07167695352201331
438,3882.4900000000002,0.07114925578386937
439,3884.16,0.06893881702432846
440,3885.9300000000003,0.0924985310336773
441,3887.7099999999996,0.07004345031991513
442,3889.48,0.06902787432926397
443,3891.26,0.0744152836155018
444,3893.04,0.08069492290173963
445,3894.8100000000004,0.08125533691108847
446,3896.5899999999997,0.0753563361973263
447,3898.36,0.07526009020667515
448,3900.1400000000003,0.06788961949291297
449,3901.9199999999996,0.0702373987791508
450,3903.69,0.07726786278849965
451,3905.47,0.09412932207473747
452,3907.2400000000002,0.08465497608408633
453,3909.0200000000004,0.08782016537032414
454,3910.7999999999997,0.08233393465656198
455,3912.57,0.09569507866591083
456,3914.35,0.08828979795214865
457,3916.1200000000003,0.0858912419614975
458,3917.9,0.08880718124773532
459,3919.68,0.07058184053397315
460,3921.4500000000003,0.07477126454332199
461,3923.2299999999996,0.07344177382955983
462,3925.0,0.06311801783890866
463,3926.78,0.0625283071251465
464,3928.56,0.05841947641138432
465,3930.3300000000004,0.051234200420733164
466,3932.1099999999997,0.052367909706971
467,3933.88,0.05412919371631985
468,3935.6600000000003,0.045837903002557676
469,3937.44,0.0656245722887955
470,3939.21,0.059875926298144345
471,3940.99,0.06442688558438217
472,3942.76,0.07272506959373101
473,3944.5400000000004,0.08213014887996885
474,3946.3199999999997,0.08336826816620667
475,3948.09,0.08298287217555551
476,3949.87,0.07739983146179334
477,3951.6400000000003,0.07674342547114218
478,3953.42,0.08425893475738001
479,3955.2,0.08616174404361784
480,3956.9700000000003,0.0775826080529667
481,3958.7499999999995,0.06863082733920452
482,3960.52,0.06221460134855336
483,3962.3,0.0631662306347912
484,3964.08,0.06392466992102902
485,3965.8500000000004,0.046177543930377866
486,3967.6299999999997,0.045458303216615696
487,3969.4,0.04812264722596454
488,3971.1800000000003,0.05877650651220236
489,3972.96,0.06426305579844019
490,3974.73,0.08009534980778904
491,3976.5099999999998,0.08514506909402687
492,3978.28,0.0881793231033757
493,3980.0600000000004,0.09761889238961353
494,3981.8399999999997,0.08794080167585137
495,3983.61,0.09225621568520022
496,3985.39,0.10484768497143804
497,3987.1600000000003,0.10621528898078689
498,3988.94,0.10655545826702471
499,3990.72,0.09747505755326255
500,3992.4900000000002,0.10457255156261139
501,3994.27,0.10314645084884921
502,3996.04,0.10787237485819806
503,3997.82,0.10688581414443589
504,3999.6,0.10278486343067372
505,4001.3700000000003,0.11163832744002256
506,4003.1499999999996,0.11742467672626039
507,4004.92,0.11098215073560923
508,4006.7000000000003,0.11020464002184707
509,4008.48,0.11725871930808489
510,4010.25,0.11616595331743373
511,4012.0299999999997,0.10997705260367156
512,4013.8,0.11610967661302041
513,4015.5800000000004,0.11813881589925823
514,4017.3599999999997,0.11930711518549607
515,4019.13,0.1309963891948449
516,4020.91,0.12356918848108274
517,4022.6800000000003,0.12227226249043158
518,4024.46,0.12423166177666942
519,4026.24,0.11611301106290724
520,4028.01,0.10892762507225608
521,4029.79,0.11043679435849392
522,4031.56,0.09939185836784277
523,4033.34,0.10618373765408058
524,4035.12,0.11939162694031841
525,4036.8900000000003,0.11575486094966725
526,4038.6699999999996,0.11629647023590509
527,4040.44,0.12294375424525393
528,4042.2200000000003,0.11845139353149176
529,4044.0,0.10449568281772958
530,4045.77,0.10940612682707843
531,4047.5499999999997,0.10916734611331626
532,4049.32,0.1161688101226651
533,4051.1000000000004,0.11525726940890293
534,4052.8799999999997,0.11714972869514076
535,4054.65,0.1136255127044896
536,4056.43,0.10665938199072743
537,4058.2000000000003,0.10917144600007628
538,4059.9800000000005,0.1112457052863141
539,4061.7599999999998,0.11230145457255195
540,4063.53,0.11428286858190079
541,4065.31,0.1085228278681386
542,4067.08,0.11462642187748745
543,4068.86,0.11885019116372528
544,4070.64,0.1154835804499631
545,4072.4100000000003,0.10842191445931194
546,4074.1899999999996,0.10963315374554979
547,4075.96,0.11416567775489862
548,4077.7400000000002,0.11874102704113645
549,4079.52,0.11180434632737428
550,4081.2900000000004,0.11571552033672312
551,4083.0699999999997,0.11807118962296095
552,4084.84,0.1244208836323098
553,4086.6200000000003,0.12219388291854763
554,4088.3999999999996,0.12155568220478546
555,4090.17,0.1251233562141343
556,4091.95,0.11724103550037213
557,4093.7200000000003,0.11634074950972098
558,4095.5000000000005,0.1193990887959588
559,4097.28,0.10319424808219663
560,4099.05,0.10522880209154548
561,4100.83,0.09527731137778331
562,4102.6,0.10119015538713215
563,4104.38,0.11352163467336998
564,4106.15,0.11656709868271883
565,4107.93,0.11633094796895664
566,4109.71,0.11315241725519448
567,4111.4800000000005,0.12064392126454333
568,4113.26,0.12463722055078115
569,4115.03,0.10923468456013
570,4116.81,0.11673102384636783
571,4118.59,0.11592671313260565
572,4120.360000000001,0.1186773871419545
573,4122.14,0.11663743642819233
574,4123.91,0.10855192043754117
575,4125.6900000000005,0.116972989723779
