,lambda (Angstroms),Total Flux (erg/s/cm^2/Angstrom)
0,100.09,0.004639706572119397
1,101.96000000000001,0.00557947776361484
2,104.09,0.006649903149250288
3,104.712855,0.006962923820464994
4,106.03,0.006410689772041117
5,108.0,0.0055847591657832655
6,110.0,0.004746334489569201
7,113.86999999999999,0.0031239268394179917
8,117.87,0.0014470778448898575
9,120.22644299999999,0.0004615838957396235
10,120.9,0.0004492468180485278
11,125.14000000000001,0.0003683575446454529
12,126.88,0.0003352488141875877
13,128.06,0.00031281627814144883
14,131.04,0.0002560262814147598
15,131.95,0.00023995683637070364
16,134.09,0.00019926321776160435
17,136.9,0.00014794765499918922
18,138.038426,0.00012647605576953551
19,140.09,0.0001261797575550363
20,143.02,0.00015401186902671855
21,147.03,0.000226761745136427
22,151.15,0.00023711144727408254
23,155.03,0.0002504286017143989
24,158.489319,0.00026399103597599214
25,159.0,0.0002658054589873567
26,161.95999999999998,0.00027594711085994467
27,166.11999999999998,0.0002941438783565548
28,169.98,0.00031030529194715946
29,173.14,0.0003241037797570845
30,177.18,0.00034129148569129244
31,180.06,0.0003557383631889456
32,181.970086,0.00036525750978969805
33,182.14000000000001,0.0003663407522691357
34,185.96,0.0003921823583313989
35,191.17,0.0004261761927775746
36,193.82,0.00045037140588359494
37,197.88,0.0004783887233214977
38,202.03,0.0005103146325252653
39,204.83999999999997,0.0005346731532150453
40,208.929613,0.0005484813119091098
41,210.09,0.000554393539545338
42,215.98,0.0006359995091417017
43,219.99,0.0006801690762183432
44,223.04999999999998,0.0007053354675536356
45,227.20000000000002,0.0007547944773711075
46,229.83,0.0011039129660024211
47,234.1,0.0018266673695977475
48,239.88329199999998,0.002255509791036349
49,240.11,0.002271469958379377
50,246.26999999999998,0.0021887437208576947
51,252.01000000000002,0.0023462353177124908
52,257.28000000000003,0.0020199034911314406
53,260.26,0.0023171168567459517
54,263.88,0.0024415905223582096
55,268.79,0.0024601698395284267
56,273.78,0.0024683575691983625
57,275.42287,0.002472634597362825
58,278.87,0.0024936886802283858
59,284.06,0.002525353890755531
60,290.01,0.002442916307448502
61,296.08,0.002519245861957129
62,300.89,0.002522476469401363
63,307.90000000000003,0.0025852579367992993
64,316.227766,0.0026614505343211174
65,317.99,0.002672049220406481
66,327.65000000000003,0.0026767808978641803
67,338.38,0.002656679401913985
68,347.85999999999996,0.002632597650599181
69,356.79,0.002609024866923948
70,363.078055,0.0026047562941608556
71,365.94,0.002609567150728483
72,375.33,0.002596228327520291
73,384.95,0.0025108284202505567
74,394.83,0.0025710934614329925
75,404.96,0.0025703011068963595
76,414.39,0.002546687660373117
77,416.86938299999997,0.0025352110188797926
78,422.09000000000003,0.002508885491627835
79,429.94,0.0024814845025285413
80,440.96999999999997,0.002461709143322782
81,451.23999999999995,0.0024159110989852343
82,459.63,0.0023802082545848428
83,470.34,0.002346651291113067
84,478.630092,0.0023309777886369523
85,480.19,0.0023257910652414154
86,490.24,0.002249924880306528
87,500.51,0.002227320670427793
88,506.3,0.002180491059405604
89,512.16,0.0022320874859012817
90,520.49,0.00219216695052739
91,530.16,0.0021289049904955138
92,540.02,0.0020448794180121317
93,549.5408739999999,0.002004278155865131
94,550.06,0.0020023493150203996
95,560.2900000000001,0.0020038998269386616
96,569.39,0.0020014736273742608
97,579.97,0.0019393144393092764
98,589.4,0.0019242768369035297
99,600.36,0.0018442960031424495
100,610.11,0.001654317646466306
101,620.03,0.0018311522640840146
102,630.0999999999999,0.0017856521531374747
103,630.957344,0.0017841388123212283
104,640.3399999999999,0.0017734117963943354
105,650.7400000000001,0.0017469207168872443
106,658.28,0.0017088375842446032
107,664.37,0.00172568578480247
108,675.1600000000001,0.0017076209398138628
109,684.5600000000001,0.0016363958487209149
110,695.6800000000001,0.0016825788175556407
111,705.36,0.0015994386897067326
112,716.8199999999999,0.0016548350424806495
113,724.43596,0.001641761414893436
114,726.79,0.0016373582009861665
115,735.21,0.0016253565427199403
116,745.43,0.0016139195157032142
117,755.8,0.0016025849579572801
118,764.56,0.001495155363371515
119,775.19,0.0015899536190282864
120,784.17,0.0015623817127063493
121,795.0799999999999,0.001571066844335265
122,804.28,0.0015696906262771555
123,815.4699999999999,0.0015590286338782158
124,824.92,0.0015738551979380924
125,831.763771,0.0014676369173056494
126,834.4699999999999,0.0014238869645736177
127,844.13,0.0015377432313355866
128,855.87,0.0015168204126798427
129,865.78,0.001524998972059875
130,875.8100000000001,0.0015364523918965775
131,885.9499999999999,0.001551272100485228
132,894.15,0.0015573638983577066
133,904.5,0.0015237506127455305
134,914.9699999999999,0.0019399781875900249
135,925.57,0.007563869194595911
136,934.13,0.015343755573838401
137,944.9499999999999,0.028201074158348185
138,954.992586,0.03899942942117667
139,955.89,0.039964714191949455
140,964.74,0.04311020475306227
141,975.91,0.007549397930195622
142,984.9399999999999,0.03371919089255141
143,994.05,0.03730256325545963
144,1005.5600000000001,0.05705123763494081
145,1014.8699999999999,0.05588438599923012
146,1024.26,0.024680678764071852
147,1036.12,0.03747055864596993
148,1045.71,0.07482684741219274
149,1055.38,0.07312931057896799
150,1065.15,0.05549747674643378
151,1075.0,0.06747082731445199
152,1084.95,0.05120731088316076
153,1094.99,0.071134888152491
154,1096.4782,0.07068807130327896
155,1105.12,0.06809217086667313
156,1115.35,0.06443442982441033
157,1125.67,0.057038099066233194
158,1136.08,0.07533450859214173
159,1143.96,0.0676151823543088
160,1154.54,0.07277461463904582
161,1165.22,0.07464001501721133
162,1176.01,0.049567601298148224
163,1184.1599999999999,0.07210250591257229
164,1195.1100000000001,0.04690364714299481
165,1206.17,0.032248964276188695
166,1214.53,0.023489962886812647
167,1225.77,0.04831934058817786
168,1234.27,0.07566221852960173
169,1245.69,0.08333015679913827
170,1254.32,0.07848973626201922
171,1258.92541,0.07355482589524859
172,1265.93,0.06605072652011511
173,1274.7,0.08826440317426547
174,1283.54,0.0928444109191559
175,1295.4199999999998,0.07012365603332996
176,1304.4,0.06884316595970057
177,1316.46,0.08969818387863482
178,1325.5900000000001,0.0852688261423056
179,1334.7800000000002,0.07342468934089647
180,1344.03,0.09073543347440739
181,1356.4699999999998,0.0872545273145021
182,1365.87,0.07653288378531321
183,1375.34,0.0810620613468644
184,1384.87,0.08181322984333567
185,1394.4699999999998,0.07061082943054701
186,1404.14,0.07325608010849843
187,1413.8700000000001,0.07444605172136995
188,1423.6699999999998,0.07723897442498152
189,1433.5400000000002,0.07635883821933319
190,1443.48,0.08124895310442493
191,1445.43977,0.08225154766668386
192,1446.8,0.08294742143039786
193,1453.48,0.08013861879019309
194,1463.5600000000002,0.07292408061455476
195,1473.7,0.07275562322358524
196,1483.92,0.07462237687884081
197,1494.2,0.07636043131876522
198,1504.5600000000002,0.0717574368049147
199,1511.5,0.06265369756494148
200,1518.48,0.0677472588480808
201,1525.49,0.06605521052355455
202,1536.06,0.056753698756044905
203,1546.71,0.06515308803476036
204,1553.85,0.06052792141034987
205,1564.62,0.06095074225840296
206,1575.47,0.06667001415268113
207,1586.39,0.07094048696240628
208,1593.71,0.07342808269200225
209,1604.76,0.07143100720184316
210,1615.88,0.07110443262713104
211,1623.3400000000001,0.06575727018762091
212,1634.59,0.07110507731302457
213,1645.9199999999998,0.0737670954846533
214,1653.52,0.0653006948760371
215,1659.58691,0.06996527509015449
216,1664.98,0.07411222928407021
217,1672.67,0.06208081371617162
218,1676.52,0.07886217140974645
219,1684.26,0.08352758061708909
220,1695.94,0.07566526611344077
221,1703.76,0.07276194296116938
222,1715.57,0.07094714087314825
223,1723.49,0.07094782727135934
224,1735.44,0.07760429855401367
225,1743.45,0.07514570354765895
226,1755.53,0.08277320724594049
227,1763.6399999999999,0.07193837179006825
228,1775.86,0.07689787885902521
229,1784.0600000000002,0.0772539019985872
230,1796.43,0.08687160339326785
231,1804.72,0.08411971512826405
232,1813.05,0.07869507068345322
233,1825.6200000000001,0.07887616117909882
234,1834.0400000000002,0.07412833532972221
235,1846.75,0.06699440919604326
236,1855.28,0.06950441385219737
237,1863.84,0.0736178313734962
238,1876.76,0.07797943529583042
239,1885.4299999999998,0.07294793332265996
240,1894.1299999999999,0.07244738421463426
241,1902.8700000000001,0.07430381892680152
242,1905.46072,0.07410356937340955
243,1916.06,0.07328198150981337
244,1924.9099999999999,0.07145319201479677
245,1933.79,0.06776866882657671
246,1947.19,0.07761554919570411
247,1956.1799999999998,0.0739591924657381
248,1965.21,0.08221086081150081
249,1974.28,0.08277923423299227
250,1983.3999999999999,0.07923564149914464
251,1997.14,0.07689885001196632
252,2006.3600000000001,0.07689751496744054
253,2015.62,0.0741217749986435
254,2024.93,0.07549599887450739
255,2034.27,0.07497644905716784
256,2043.6599999999999,0.07977596308448921
257,2053.1,0.07549263095647149
258,2067.33,0.07462792914697021
259,2072.09,0.08276692315869011
260,2076.87,0.08371986470827435
261,2086.46,0.08626235411423941
262,2096.0899999999997,0.0810659485959332
263,2105.76,0.07867932815335574
264,2115.48,0.08013881155543918
265,2125.25,0.08124852880218357
266,2135.06,0.07208685112465668
267,2144.91,0.07848813852285855
268,2154.81,0.08087259976572132
269,2164.76,0.07617255485324502
270,2174.75,0.07565285501649748
271,2184.79,0.07723069902441083
272,2187.7616199999998,0.07846763557926517
273,2194.87,0.08142807090037481
274,2205.0,0.0783046251813096
275,2215.18,0.07109669436985018
276,2225.41,0.06980011846599654
277,2235.68,0.07921494648822756
278,2246.0,0.0742745794180644
279,2256.37,0.068060077255507
280,2266.7799999999997,0.06916640901903426
281,2277.2400000000002,0.07259160569016732
282,2282.4900000000002,0.07759550098877617
283,2293.03,0.0712675155120785
284,2303.61,0.07363231396146545
285,2314.25,0.06860673829997939
286,2324.93,0.05033165656457795
287,2335.66,0.05929691973678232
288,2346.44,0.05375139781659249
289,2357.27,0.06585340080400845
290,2362.7000000000003,0.05430331376999817
291,2373.6099999999997,0.05930055460958341
292,2384.57,0.04994319035677445
293,2395.5699999999997,0.05555288003005013
294,2406.6299999999997,0.05346098559245276
295,2417.74,0.0562730960624612
296,2423.31,0.06612499276974716
297,2434.5,0.06392600109192487
298,2445.73,0.06948895334018722
299,2457.02,0.06938315147757652
300,2462.69,0.06735831800007408
301,2474.06,0.06334871398963267
302,2485.47,0.06181070390527589
303,2496.95,0.059211250691567234
304,2502.7,0.07201601506623406
305,2511.88643,0.059362847810939076
306,2514.2599999999998,0.056093226567897864
307,2520.0499999999997,0.055217116620544744
308,2525.8599999999997,0.05311982591344256
309,2537.52,0.05669016297974006
310,2543.37,0.05684233075313976
311,2555.1099999999997,0.06820780478044103
312,2566.8999999999996,0.06254441690836965
313,2572.82,0.06970730202264762
314,2584.7,0.06754619073170547
315,2596.6299999999997,0.06485540754139066
316,2602.61,0.06111558037642146
317,2614.6200000000003,0.0586785641471104
318,2626.69,0.06694172563855216
319,2632.75,0.07758479543458673
320,2644.9,0.09247560388703224
321,2657.1099999999997,0.10502484006023058
322,2663.2299999999996,0.08194993757701795
323,2675.5299999999997,0.0895017403313455
324,2687.88,0.09313966118630042
325,2694.07,0.08153686604396608
326,2706.5099999999998,0.08987270348005022
327,2712.75,0.07777358643834323
328,2725.27,0.07416333083543113
329,2737.85,0.08231303295327183
330,2744.16,0.06106497325244313
331,2756.83,0.06746099195141307
332,2763.1800000000003,0.07501917073108624
333,2775.94,0.0804331860111854
334,2782.33,0.06587529327136045
335,2795.18,0.043284085132588836
336,2808.08,0.04848086509444458
337,2814.55,0.07734675931562338
338,2827.54,0.09240669585860835
339,2834.06,0.0888980881804145
340,2847.1400000000003,0.08003640130452869
341,2853.71,0.0691042717269622
342,2866.88,0.0921962914322056
343,2873.4900000000002,0.10182452033514099
344,2884.0315,0.09877947870526145
345,2886.75,0.0979943077769836
346,2893.3999999999996,0.10407491260712871
347,2906.7599999999998,0.12753980222077363
348,2926.91,0.11672618655572463
349,2947.2,0.11212367078183658
350,2967.63,0.11727935489910947
351,2988.2,0.11877983890754332
352,3008.9100000000003,0.1205737228071381
353,3029.77,0.12410400659011962
354,3050.77,0.1262756902642621
355,3071.92,0.1333038738217913
356,3093.21,0.13377215727048145
357,3107.49,0.14312424616889832
358,3129.0299999999997,0.13717342942323302
359,3150.7200000000003,0.13893901256095448
360,3172.56,0.14566729558206262
361,3187.2,0.1305458842006077
362,3209.2900000000004,0.14134746702736042
363,3231.54,0.12585844972972565
364,3246.46,0.1553125381305926
365,3268.96,0.17288372063860236
366,3291.62,0.17073460302222468
367,3306.81,0.16584409121318774
368,3311.31121,0.16499416723586738
369,3322.0699999999997,0.16296252782413775
370,3329.73,0.17590081398650464
371,3337.4100000000003,0.1672874998516454
372,3345.1,0.16775088556817302
373,3352.81,0.15734947098747445
374,3360.5400000000004,0.17220095610954966
375,3368.29,0.1718839409343987
376,3376.0499999999997,0.14503002561063466
377,3383.84,0.1454294098410313
378,3391.6400000000003,0.17490669392281483
379,3399.46,0.1790579777073722
380,3407.29,0.16990416134331646
381,3415.15,0.1680360445334214
382,3423.02,0.19079642757491327
383,3430.91,0.17855631031917893
384,3438.82,0.18112249276621842
385,3446.75,0.1365337749160317
386,3454.69,0.17716245691723184
387,3462.6600000000003,0.15191513847259275
388,3470.64,0.16934421987934054
389,3478.64,0.14388260098886213
390,3486.66,0.1629981818011575
391,3494.6899999999996,0.1528966624648398
392,3502.75,0.18137004268268278
393,3510.83,0.1797894226032996
394,3518.9199999999996,0.1659483023753033
395,3527.0299999999997,0.15566538185008083
396,3535.16,0.17879706102763213
397,3543.31,0.19748953990795723
398,3551.48,0.19442091849105617
399,3559.6699999999996,0.1861910967769289
400,3567.8700000000003,0.17586397491418854
401,3576.1,0.15609835260560884
402,3584.3399999999997,0.1338526301484161
403,3592.6000000000004,0.15059360739399713
404,3600.89,0.19768068419373888
405,3609.19,0.16990076084486752
406,3617.5099999999998,0.18296963719876996
407,3625.85,0.18948981325544623
408,3633.65,0.1690154973372298
409,3636.4,0.16988935646862785
410,3639.15,0.18259711560002587
411,3641.89,0.189710474880037
412,3644.6400000000003,0.19137403401143507
413,3647.39,0.1941599931428331
414,3650.1299999999997,0.18686175242284425
415,3652.88,0.20201751155424227
416,3655.62,0.19508017083425344
417,3658.3700000000003,0.21051232996565147
418,3661.12,0.20183108909704953
419,3663.8599999999997,0.2158033483770607
420,3666.61,0.2195990075084587
421,3669.3599999999997,0.21083306663985676
422,3672.1,0.2121988259198679
423,3674.85,0.21180908505126597
424,3677.59,0.1992595443312771
425,3680.3399999999997,0.19431230346267514
426,3683.09,0.20110306259407318
427,3685.83,0.20324152187408434
428,3688.5800000000004,0.18507278100548238
429,3691.33,0.20093924013688044
430,3694.0699999999997,0.20924279941689156
431,3696.82,0.21360815854828963
432,3699.56,0.21450571782830077
433,3702.31,0.2208677769596988
434,3705.06,0.21748293609109687
435,3707.8,0.18750399537110798
436,3710.55,0.18679855450250604
437,3713.2999999999997,0.1965901136339041
438,3716.04,0.22370487291391525
439,3718.79,0.2072340320453133
440,3721.54,0.2123889911767113
441,3724.2799999999997,0.21988595045672246
442,3727.03,0.2328362095881205
443,3729.77,0.2661895688681316
444,3732.5199999999995,0.2640456279995297
445,3735.27,0.22914138713092774
446,3738.0099999999998,0.19953474641093888
447,3740.76,0.17211000554233694
448,3743.5099999999998,0.189781364673735
449,3746.25,0.18143962395374613
450,3749.0,0.17363828308514417
451,3751.7400000000002,0.1701078423651553
452,3754.49,0.18952230149655336
453,3757.2400000000002,0.20229766062795143
454,3759.98,0.20718311990796257
455,3762.73,0.2123662790393606
456,3765.48,0.21326263817075863
457,3768.22,0.2118757974507698
458,3770.9700000000003,0.20856995658216784
459,3773.71,0.220145015862179
460,3776.46,0.24024747499357701
461,3779.21,0.24745563412497507
462,3781.95,0.26041839340498624
463,3784.7,0.2616475525363843
464,3787.45,0.2581723116677823
465,3790.19,0.25118447094779345
466,3792.94,0.2239739300791915
467,3795.6800000000003,0.21053318935920265
468,3798.43,0.1991613484906007
469,3801.1800000000003,0.20013680762199876
470,3801.8939600000003,0.19920953494738428
471,3803.92,0.19657817317570528
472,3806.6699999999996,0.2237426408225632
473,3809.42,0.23543500846942117
474,3812.16,0.24715687623392688
475,3814.9100000000003,0.2432587438807848
476,3817.65,0.23091791164529052
477,3820.4,0.21584587929214846
478,3823.15,0.20066674693900638
479,3825.8900000000003,0.19600261470351213
480,3828.64,0.19099338235037006
481,3831.39,0.17385704999722798
482,3834.13,0.1680365177617337
483,3836.8799999999997,0.16277348540859166
484,3839.6200000000003,0.16593835317309738
485,3842.37,0.1729435208199553
486,3845.1200000000003,0.19233538846681325
487,3847.86,0.21351065623131896
488,3850.6099999999997,0.22456572387817691
489,3853.36,0.22682139152503483
490,3856.1,0.22335885928954055
491,3858.85,0.2238829269363985
492,3861.5899999999997,0.21554689470090424
493,3864.34,0.22703626234776214
494,3867.09,0.2303919299946201
495,3869.8300000000004,0.23996469775912582
496,3872.58,0.24056766540598373
497,3875.3300000000004,0.22942713305284168
498,3878.07,0.2223376008173474
499,3880.8199999999997,0.22581736846420533
500,3883.56,0.21959653622871106
501,3886.31,0.207649403875569
502,3889.06,0.2056747715224269
503,3891.8,0.21132723928693264
504,3894.55,0.21973120693379058
505,3897.3,0.23230357458064854
506,3900.04,0.25307284234515426
507,3902.79,0.2557798099920122
508,3905.5299999999997,0.2547483777565179
509,3908.28,0.2659443454033758
510,3911.0299999999997,0.26512591305023375
511,3913.7699999999995,0.2847276808147395
512,3916.52,0.28046854846159747
513,3919.2700000000004,0.27798611610845536
514,3922.01,0.2597904838729611
515,3924.7599999999998,0.250026151519819
516,3927.5,0.22705851928432474
517,3930.25,0.20286568693118268
518,3933.0,0.1743015545780406
519,3935.74,0.16087192234254635
520,3938.4900000000002,0.17343308998940427
521,3941.24,0.19117785763626222
522,3943.9800000000005,0.21123632540076792
523,3946.73,0.23672549304762586
524,3949.47,0.25361406081213156
525,3952.2200000000003,0.2662371284589895
526,3954.97,0.26669909610584747
527,3957.71,0.2699207638703532
528,3960.46,0.25574543151721113
529,3963.2099999999996,0.22635209916406906
530,3965.95,0.1906592669285748
531,3968.7,0.1671490345754327
532,3971.44,0.15743650233993842
533,3974.19,0.17062946998679637
534,3976.94,0.2043426376336543
535,3979.68,0.24065720539816002
536,3982.4300000000003,0.26900057304501795
537,3985.18,0.28752354069187586
538,3987.9199999999996,0.3029175084563816
539,3990.67,0.30767757610323954
540,3993.4199999999996,0.3148122437500975
541,3996.1600000000003,0.3203240115146032
542,3998.91,0.32710897916146114
543,4001.65,0.32842424692596683
544,4004.4,0.3326539145728248
545,4007.15,0.33775798221968273
546,4009.89,0.34220944998418845
547,4012.64,0.3443465176310464
548,4015.39,0.35231598527790436
549,4018.1299999999997,0.3550414530424101
550,4020.88,0.353641920689268
551,4023.62,0.3517419884537737
552,4026.3700000000003,0.34941175610063163
553,4029.12,0.3483507237474896
554,4031.8599999999997,0.3390729915119953
555,4034.61,0.33423275915885325
556,4037.3599999999997,0.3385697268057111
557,4040.1,0.3433256945702169
558,4042.85,0.34864406221707483
559,4045.59,0.34440902998158057
560,4048.34,0.3294213976284385
561,4051.09,0.3306955652752964
562,4053.83,0.33383833303980215
563,4056.5800000000004,0.33844040068666004
564,4059.33,0.335946568333518
565,4062.0699999999997,0.3264714360980237
566,4064.82,0.32822500374488167
567,4067.56,0.3245201715093874
568,4070.31,0.3284848391562453
569,4073.06,0.3305035068031033
