,lambda (Angstroms),Total Flux (erg/s/cm^2/Angstrom)
0,100.09,0.3081414261874319
1,101.94999999999999,0.30728459624180987
2,104.08000000000001,0.30630310155388785
3,104.712855,0.3060115357209501
4,106.02000000000001,0.30284722930083663
5,107.99,0.29807838979959306
6,110.0,0.29321380466803487
7,114.12,0.28324042473363187
8,118.13000000000001,0.2735331587893441
9,120.22644299999999,0.26846676287280513
10,120.89000000000001,0.2671227770490772
11,125.13,0.2585190854145769
12,126.87,0.2549883979425413
13,128.05,0.25259401488713795
14,131.03,0.24654679116755993
15,131.94,0.2447023993967827
16,134.07999999999998,0.24035970860715283
17,136.89,0.23466026415530236
18,138.038426,0.23232991683423546
19,140.07999999999998,0.22936910228944926
20,143.01,0.22514335995079915
21,147.02,0.21936428462302204
22,151.14000000000001,0.21339203584375974
23,155.02,0.2077694799531924
24,158.489319,0.20274229322492962
25,158.99,0.20219401125513697
26,161.95000000000002,0.1989525619241296
27,166.1,0.19440847286646723
28,169.97000000000003,0.19017011797390013
29,173.13,0.1867098407678247
30,177.16,0.18229658949520317
31,180.04,0.17914290045422304
32,181.970086,0.1770295395231423
33,182.13,0.1768960268632474
34,185.94,0.17371492820863987
35,191.15,0.16936383591218176
36,193.81,0.16714447330266574
37,197.87,0.16375386045129917
38,202.01,0.1602970161289697
39,204.82,0.15795154876139827
40,208.929613,0.15451413827205793
41,210.07999999999998,0.15379082638220365
42,215.96,0.15010956772832468
43,219.98,0.14758824876087687
44,223.04000000000002,0.14566688489610308
45,227.17999999999998,0.143071044090821
46,229.81,0.1415324655782867
47,234.09,0.13906570189553127
48,239.88329199999998,0.13554705312155085
49,240.09,0.1354513358250471
50,246.25,0.13242677019078802
51,251.98999999999998,0.129666136106592
52,257.26,0.1269904451498476
53,260.24,0.12563537273749495
54,263.86,0.12390370233456996
55,268.77000000000004,0.12151546153502249
56,273.76,0.11908557621165351
57,275.42287,0.11827592507714792
58,278.85,0.11699361578673532
59,284.03999999999996,0.11505516081523763
60,289.99,0.11280362226698878
61,296.06,0.11054524891188451
62,300.87,0.10872945907876236
63,307.88,0.10612001028662384
64,316.227766,0.1030108701188233
65,317.96,0.10252881511868579
66,327.62,0.0998272831940273
67,338.35999999999996,0.09682235974922067
68,347.84000000000003,0.09416712349458686
69,356.76,0.09167296793558545
70,363.078055,0.0899100737143695
71,365.90999999999997,0.08931750291784155
72,375.3,0.08734648865847051
73,384.91999999999996,0.08531353278827358
74,394.8,0.08325533711888211
75,404.93,0.08113501024641902
76,414.36,0.07915778960255652
77,416.86938299999997,0.07863062333815414
78,422.06,0.07779548483698241
79,429.91,0.07653418955468971
80,440.94,0.074769709741481
81,451.21000000000004,0.07312216467025219
82,459.6,0.07177562214497377
83,470.3,0.07006244443025635
84,478.630092,0.06873079027200203
85,480.15000000000003,0.06854359309620106
86,490.2,0.06729969245388381
87,500.47,0.06603868659372478
88,506.26,0.06533169365143454
89,512.13,0.06467995704811093
90,520.45,0.06365450190064031
91,530.12,0.06246179109823157
92,539.98,0.061236007025868566
93,549.5408739999999,0.060087029507445884
94,550.02,0.06004333877306357
95,560.24,0.05911056080578461
96,569.35,0.05827161104649779
97,579.9300000000001,0.057266937660410584
98,589.35,0.0564103586682611
99,600.3100000000001,0.05537608842898738
100,610.06,0.054473989169597004
101,619.98,0.053592854617991584
102,630.0500000000001,0.05265986290854941
103,630.957344,0.05257543729604476
104,640.2900000000001,0.051887417034808245
105,650.69,0.0511392048861913
106,658.23,0.05058607517844402
107,664.32,0.05015647597218659
108,675.11,0.049364509567996505
109,684.5,0.04865177683765869
110,695.63,0.047905805205533065
111,705.3,0.0471558977404248
112,716.76,0.046389595945891114
113,724.43596,0.045832810193196
114,726.73,0.04571010783526697
115,735.15,0.045263588965088974
116,745.3799999999999,0.044742011450134
117,755.75,0.04419775845657748
118,764.5,0.04372560574398158
119,775.13,0.04320038634730793
120,784.1099999999999,0.0427393741627238
121,795.02,0.042171936008847076
122,804.2199999999999,0.04169572112931768
123,815.41,0.04110332141823789
124,824.85,0.04064492718967728
125,831.763771,0.0401741110576049
126,834.4,0.04003111456083334
127,844.0699999999999,0.03979987255827599
128,855.8100000000001,0.039343082374199125
129,865.7199999999999,0.03899503834045111
130,875.74,0.0386383519632407
131,885.88,0.03828758412043496
132,894.08,0.037997712971420454
133,904.43,0.037584423563822876
134,914.9,0.03758497469062996
135,925.4999999999999,0.044386242229708786
136,934.0600000000001,0.05380156768390827
137,944.88,0.06951828553606229
138,954.992586,0.08063402008848854
139,955.82,0.08154424492644324
140,964.66,0.08933388829298466
141,975.83,0.04479741734324119
142,984.86,0.08506160670974221
143,993.98,0.08457595470780303
144,1005.49,0.10061529081061885
145,1014.79,0.09495241607179927
146,1024.18,0.05835155996453954
147,1036.04,0.07767686185675463
148,1045.6200000000001,0.11226672174945448
149,1055.3,0.11038788901055414
150,1065.06,0.09605899616637362
151,1074.92,0.10546578069059288
152,1084.87,0.09184900384637198
153,1094.9,0.10625905689687089
154,1096.4782,0.10567787118009953
155,1105.03,0.1025907931405983
156,1115.26,0.10022953202333841
157,1125.5800000000002,0.09293410409273019
158,1135.99,0.10525585934877366
159,1143.8700000000001,0.09813394391338676
160,1154.45,0.10079514407755005
161,1165.13,0.10217338889354852
162,1175.92,0.0814341498265657
163,1184.07,0.09763958395113383
164,1195.02,0.07819022832708732
165,1206.0800000000002,0.06516771882005953
166,1214.44,0.04843726371348155
167,1225.68,0.07220239057975711
168,1234.17,0.09259955452056487
169,1245.59,0.09831643776014379
170,1254.23,0.09566396367870433
171,1258.92541,0.09203280867618044
172,1265.83,0.08675833278016883
173,1274.61,0.10049029903257004
174,1286.4,0.10256856897742314
175,1295.3200000000002,0.08937164633179884
176,1304.3,0.08793864844416364
177,1316.3600000000001,0.09951367479996756
178,1325.49,0.09614689380730504
179,1334.68,0.0892284475726316
180,1343.93,0.09762535609594722
181,1356.3600000000001,0.09491362679268378
182,1365.76,0.0883434822109721
183,1375.23,0.09017453818024765
184,1384.76,0.0902718989075123
185,1394.3600000000001,0.08130377018576418
186,1404.03,0.08264789201500333
187,1413.76,0.08462564860223155
188,1423.5600000000002,0.08469748574044703
189,1433.43,0.08416511342964975
190,1443.36,0.08637305587684155
191,1445.43977,0.08661334679944606
192,1446.6899999999998,0.08676663754063176
193,1453.37,0.08496237339992561
194,1463.44,0.08051990979260364
195,1473.59,0.07979014835126123
196,1483.8000000000002,0.07990538603440349
197,1494.09,0.08016174588352533
198,1504.44,0.07706592485713183
199,1511.3899999999999,0.07174690677660674
200,1518.36,0.07430763173757654
201,1525.3700000000001,0.0727796427815361
202,1535.95,0.06648901173233386
203,1546.59,0.06898518980761631
204,1553.73,0.06631385562129269
205,1564.5,0.06704944846629192
206,1575.3500000000001,0.06959817347727072
207,1586.27,0.07090015413348165
208,1593.59,0.07166380732061205
209,1604.6299999999999,0.06973120622579232
210,1615.76,0.06930534381769961
211,1623.21,0.0667871517745468
212,1634.47,0.06887553413617088
213,1645.8,0.0689334221430271
214,1653.39,0.06548181139033853
215,1659.58691,0.0672474131288702
216,1664.85,0.06877273327283984
217,1672.5400000000002,0.06398072406519334
218,1676.39,0.06864018221221035
219,1684.13,0.06979774051296667
220,1695.8100000000002,0.06672224647586508
221,1703.6299999999999,0.06476148879006591
222,1715.44,0.06260188627481166
223,1723.36,0.061964383605818116
224,1735.31,0.06405464811409176
225,1743.32,0.06272615496022328
226,1755.4,0.06474624099034425
227,1763.5,0.06107134735160086
228,1775.73,0.06180185590693027
229,1783.9199999999998,0.062037511783311954
230,1796.2900000000002,0.06392955736216926
231,1804.5800000000002,0.06337614825535658
232,1817.0900000000001,0.06013507085774178
233,1825.4799999999998,0.060469126767734735
234,1833.8999999999999,0.058883349182769384
235,1846.61,0.055410731818765865
236,1855.14,0.05540944475228671
237,1863.7,0.056196574190849245
238,1876.62,0.05828956236213756
239,1885.28,0.05506464681750573
240,1893.98,0.05334380327959616
241,1905.46072,0.05480064256067835
242,1907.11,0.05501497246653527
243,1915.91,0.05359541492134735
244,1924.76,0.05249299784465268
245,1933.64,0.05316325904905396
246,1947.04,0.05468004460524509
247,1956.03,0.05204658284033152
248,1965.06,0.05462690545021256
249,1974.13,0.055341402434888186
250,1983.24,0.05322015379435842
251,1996.9899999999998,0.051979412630002296
252,2006.21,0.052554171020157685
253,2015.47,0.05145635378510767
254,2024.77,0.05239858092485225
255,2034.1200000000001,0.0506631085330901
256,2043.51,0.05140442051612253
257,2052.94,0.04908907687394956
258,2067.17,0.04940703820712865
259,2071.93,0.051722198807686096
260,2076.71,0.05030608159564084
261,2086.3,0.051230115452646274
262,2095.93,0.04916568368444632
263,2105.6,0.049349286291040954
264,2115.32,0.049444739366128844
265,2125.08,0.049541636816011335
266,2134.8900000000003,0.047373504734387076
267,2144.75,0.04780107312125607
268,2154.65,0.048584975882919657
269,2164.59,0.04720872301937785
270,2174.58,0.0468715406243293
271,2184.62,0.046368868697773985
272,2187.7616199999998,0.046711493042003886
273,2194.7,0.04748702163986444
274,2204.83,0.046413106983173844
275,2215.01,0.04480187849303462
276,2225.24,0.043874626169446776
277,2235.51,0.04557620677910004
278,2245.83,0.044228733555304676
279,2256.19,0.042852033264750414
280,2266.61,0.043098032374057814
281,2277.0699999999997,0.04365858441660632
282,2287.58,0.0441505626257062
283,2292.85,0.04234158658022155
284,2303.43,0.04252136742249336
285,2314.07,0.04136230766462682
286,2324.75,0.03626622084000139
287,2335.48,0.03935924018192734
288,2346.26,0.03823214569040466
289,2357.09,0.040044927365433365
290,2362.52,0.03790269305291313
291,2373.43,0.03845993059442405
292,2384.38,0.03646070106917606
293,2395.39,0.03770638094378973
294,2406.44,0.03675298375164451
295,2417.55,0.037029745959360934
296,2423.13,0.03840028014649483
297,2434.31,0.037288334987383195
298,2445.5499999999997,0.03838037922813321
299,2456.83,0.03792991640212433
300,2462.5,0.03757283968905071
301,2473.86,0.036545812729524035
302,2485.28,0.036629095169859016
303,2496.76,0.034888267010055644
304,2502.51,0.037548236163464234
305,2511.88643,0.03528167658881732
306,2514.0600000000004,0.03475940594253806
307,2519.8599999999997,0.0351109642625351
308,2525.67,0.034306210286532114
309,2537.32,0.03451531544652615
310,2543.17,0.034199342286523146
311,2554.9100000000003,0.03570637678251713
312,2566.71,0.034925277502511086
313,2572.62,0.03604294056650805
314,2584.5,0.03562870291850197
315,2596.4300000000003,0.035157153790495846
316,2602.41,0.03421989078249278
317,2614.42,0.03376805328648663
318,2626.4900000000002,0.03464339201448044
319,2632.55,0.03556730063847734
320,2644.7,0.037518080998471114
321,2656.8999999999996,0.038320289878464864
322,2663.03,0.035680602430461714
323,2675.3199999999997,0.03649818064645542
324,2687.6699999999996,0.03666659508644909
325,2693.87,0.03502626156644591
326,2706.2999999999997,0.035697607638439544
327,2712.54,0.034168094934436344
328,2725.0600000000004,0.03370884034242992
329,2737.64,0.03472219197442347
330,2743.95,0.031624793198420244
331,2756.6099999999997,0.032210816462413756
332,2762.9700000000003,0.0330670962064105
333,2775.72,0.033876508806403964
334,2782.1200000000003,0.03219733936640068
335,2794.96,0.0280557413023941
336,2807.8599999999997,0.02910228946238749
337,2814.34,0.03310616165438417
338,2827.33,0.03423445915037751
339,2833.84,0.033354814454374174
340,2846.92,0.03230776128636747
341,2853.4900000000002,0.0309815128143641
342,2866.66,0.03344887898235735
343,2873.27,0.03386308132635396
344,2884.0315,0.03358313259379158
345,2886.5299999999997,0.03352124118245056
346,2893.1800000000003,0.03369715687656265
347,2913.2400000000002,0.03572866537639549
348,2926.68,0.03440455856870624
349,2946.97,0.03374471003239558
350,2967.4,0.03390382330017151
351,2987.97,0.03374927837203401
352,3008.6800000000003,0.03378243524798307
353,3029.54,0.03375288405688203
354,3050.53,0.03372331454100423
355,3071.68,0.03375658708693967
356,3092.97,0.03360034143696167
357,3107.2499999999995,0.03383366545379182
358,3128.79,0.033109893025396984
359,3150.4700000000003,0.03295456240108871
360,3172.31,0.03317227383859367
361,3186.9500000000003,0.03168667249450358
362,3209.05,0.032436967282455015
363,3231.29,0.031030823874493033
364,3253.69,0.032929722528344266
365,3268.71,0.03399593608106058
366,3291.3599999999997,0.03357554795649498
367,3306.56,0.033105923828751174
368,3311.31121,0.03296183907187455
369,3321.8199999999997,0.03265230667288193
370,3329.48,0.03386210945998588
371,3337.1499999999996,0.033084911088848444
372,3344.85,0.03238960924298687
373,3352.56,0.03201563623888393
374,3360.2799999999997,0.0328188320765396
375,3368.03,0.032625574439471144
376,3375.79,0.0296603056441613
377,3383.58,0.03044966337412732
378,3391.38,0.03280053994585197
379,3399.19,0.033565325359335235
380,3407.0299999999997,0.03185935729809436
381,3414.88,0.032410468078612115
382,3422.76,0.033748405384405725
383,3430.65,0.03303265153195797
384,3438.55,0.03322091652126882
385,3446.48,0.029719858035855546
386,3454.43,0.032574967233959515
387,3462.3900000000003,0.030336025273822096
388,3470.37,0.031636510997201925
389,3478.37,0.029470854404098995
390,3486.39,0.031203385494513312
391,3494.43,0.03054604426844487
392,3502.48,0.03223329188413505
393,3510.56,0.03167216602510109
394,3518.6499999999996,0.030646709007825755
395,3526.7599999999998,0.030290509674067656
396,3534.89,0.031964558023826806
397,3543.04,0.0334236740571032
398,3551.21,0.033029627773896834
399,3559.39,0.03238742033244909
400,3567.6000000000004,0.03182089941627721
401,3575.82,0.029453757341863947
402,3584.0699999999997,0.028507081792726555
403,3592.3300000000004,0.028663865085347778
404,3600.61,0.03242626606148625
405,3606.07,0.0308996636616935
406,3608.8199999999997,0.029437445145314368
407,3611.57,0.032024816628935235
408,3614.31,0.029491279270797484
409,3617.0600000000004,0.030980900754418353
410,3619.8,0.029984873396280597
411,3622.5499999999997,0.03465840487990147
412,3625.3,0.034815346363522334
413,3628.04,0.03342301900538458
414,3630.79,0.03020554048900545
415,3633.5299999999997,0.030710743130867697
416,3636.28,0.027451724614488564
417,3639.0299999999997,0.03412927609810944
418,3641.7699999999995,0.029641368739971682
419,3644.52,0.02977779022359255
420,3647.2700000000004,0.030500081707213418
421,3650.01,0.032804474349075664
422,3652.7599999999998,0.032936585832696534
423,3655.5,0.03123722847455878
424,3658.25,0.030116409958179647
425,3661.0,0.030936111441800515
426,3663.74,0.031745954083662764
427,3666.4900000000002,0.02884935556728363
428,3669.23,0.03244487820914588
429,3671.98,0.03305304969276675
430,3674.73,0.03029875117638761
431,3677.47,0.029662743818249862
432,3680.2200000000003,0.029520315301870728
433,3682.96,0.03093751794373298
434,3685.71,0.03244528942735385
435,3688.46,0.028368340910974715
436,3691.2,0.03193807355283696
437,3693.95,0.03156500503645783
438,3696.69,0.03311829767832008
439,3699.44,0.03170095916194095
440,3702.19,0.03044311064556181
441,3704.9300000000003,0.02914864328742406
442,3707.68,0.03086317477104493
443,3710.4199999999996,0.03389525741290718
444,3713.17,0.03569285889652804
445,3715.9199999999996,0.03468759038014892
446,3718.66,0.04125121302201115
447,3721.41,0.06490922450563202
448,3724.15,0.10289284714749428
449,3726.9,0.13574772863111512
450,3729.65,0.11815571011473602
451,3732.39,0.07829885275659826
452,3735.1400000000003,0.04740740424021913
453,3737.88,0.03346233688208137
454,3740.6299999999997,0.03397978836570224
455,3743.38,0.03251660984932311
456,3746.12,0.030356462491185357
457,3748.8700000000003,0.030277533974806224
458,3751.62,0.031114905458427093
459,3754.36,0.034004218100289335
460,3757.11,0.03466586958391021
461,3759.8500000000004,0.034745632225772455
462,3762.6,0.03463136370939333
463,3765.35,0.034596835193014194
464,3768.09,0.03287025783487644
465,3770.8399999999997,0.03505127931849731
466,3773.5800000000004,0.03682471196035955
467,3776.33,0.03813717344398042
468,3779.0800000000004,0.03958094492760129
469,3781.82,0.039717077569463535
470,3784.5699999999997,0.039218889053084405
471,3787.31,0.03851845169494666
472,3790.06,0.03552061317856752
473,3792.81,0.033857844662188386
474,3795.5499999999997,0.033521237304050634
475,3798.3,0.033519658787671505
476,3801.04,0.03303837142953375
477,3801.8939600000003,0.03374515576588044
478,3803.7900000000004,0.035315586421946904
479,3806.54,0.039009545448646404
480,3809.2799999999997,0.041879549497066994
481,3812.03,0.039848878523766486
482,3814.77,0.03944091257218708
483,3817.52,0.03819142159888657
484,3820.27,0.03842167062558607
485,3823.01,0.03741015467400666
486,3825.76,0.03621795370070615
487,3828.5000000000005,0.03420083774912673
488,3831.25,0.03172706677582623
489,3834.0,0.032197985802525725
490,3836.7400000000002,0.03227273985094631
491,3839.49,0.032653408877645805
492,3842.23,0.03382449292606639
493,3844.98,0.03645556195276589
494,3847.7299999999996,0.04018342097946538
495,3850.47,0.03999511502788597
496,3853.22,0.04049035405458546
497,3855.9700000000003,0.04200457308128496
498,3858.71,0.04067410712970555
499,3861.46,0.04285632615640504
500,3864.2,0.04557975020482563
501,3866.9500000000003,0.04455896923152512
502,3869.7,0.042817168258224625
503,3872.4399999999996,0.0428938723066452
504,3875.19,0.0403250613333447
505,3877.93,0.038134635381765286
506,3880.6800000000003,0.037769924408464786
507,3883.43,0.03611695343516427
508,3886.17,0.037729237483584865
509,3888.92,0.03672184651028436
510,3891.6600000000003,0.03521898055870495
511,3894.41,0.037739749585404436
512,3897.16,0.03821160861210394
513,3899.9,0.03884935266052453
514,3902.6499999999996,0.039885121687224016
515,3905.3900000000003,0.04128923573564461
516,3908.14,0.041912934762344096
517,3910.8900000000003,0.0422549037890436
518,3913.63,0.04181351783746419
519,3916.3799999999997,0.04182459686416368
520,3919.12,0.040231980912584266
521,3921.87,0.03975601993928376
522,3924.62,0.037884828965983254
523,3927.3599999999997,0.034417573014403846
524,3930.11,0.03322826204110334
525,3932.85,0.03274864608952392
526,3935.6000000000004,0.03489698511622342
527,3938.35,0.03654920414292291
528,3941.0899999999997,0.0390104681913435
529,3943.84,0.03894228721804299
530,3946.58,0.04026475126646358
531,3949.33,0.04001512029316308
532,3952.08,0.04107761931986258
533,3954.82,0.03946973336828316
534,3957.57,0.03688517239498266
535,3960.32,0.03346932142168215
536,3963.06,0.03083002547010274
537,3965.81,0.030320174496802233
538,3968.55,0.03138189854522282
539,3971.2999999999997,0.03157682757192232
540,3974.05,0.033322166598621805
541,3976.79,0.035599110647042395
542,3979.54,0.03850425967374189
543,3982.28,0.04146308372216248
544,3985.0299999999997,0.04141447274886198
545,3987.78,0.04251087177556147
546,3990.52,0.04358122582398206
547,3993.27,0.04270703485068155
548,3996.0099999999998,0.04357397889910214
549,3998.76,0.04432754792580163
550,4001.5099999999998,0.04428179695250113
551,4004.2499999999995,0.04343885100092172
552,4007.0,0.04455961002762121
553,4009.74,0.0463586140760418
554,4012.4900000000002,0.04642841310274129
555,4015.24,0.04574187212944079
556,4017.98,0.04630275617786137
557,4020.73,0.04524806520456087
558,4023.4700000000003,0.044198359252981455
559,4026.22,0.045400288279680956
560,4028.9700000000003,0.043699087306380446
561,4031.71,0.04391139135480104
562,4034.4600000000005,0.04548337038150053
563,4037.2000000000003,0.04560687442992112
564,4039.95,0.043610093456620605
565,4042.7000000000003,0.04461912248332011
566,4045.44,0.044372556531740694
567,4048.19,0.044469105558440185
568,4050.93,0.043973289606860776
569,4053.68,0.042601068633560266
570,4056.43,0.044099997660259765
571,4059.1699999999996,0.04209102170868035
572,4061.92,0.04391512073537985
573,4064.67,0.04404365976207934
