,lambda (Angstroms),Total Flux (erg/s/cm^2/Angstrom)
0,100.04,10.665668070625635
1,101.89999999999999,10.635998482102394
2,104.03,10.602022017739177
3,104.712855,10.591129530220092
4,105.97,10.485792937364746
5,107.94,10.320725989876749
6,109.94,10.153145333599003
7,114.07000000000001,9.807091277361629
8,118.08000000000001,9.47109206139393
9,120.22644299999999,9.291240914748801
10,121.11,9.22917157827758
11,125.07000000000001,8.950983991985623
12,127.10000000000001,8.8083777301274
13,127.99,8.745855774456961
14,130.97,8.536512594880996
15,131.87,8.473288154631359
16,134.02,8.322251970131486
17,137.14000000000001,8.103073896971113
18,138.038426,8.039960024084833
19,140.01,7.940961165863716
20,142.94,7.7938369401142165
21,146.95,7.592482785971876
22,151.06,7.386107059990362
23,154.94,7.191280400750343
24,158.489319,7.013058287105536
25,158.91,6.9970884099081845
26,161.87,6.884721024856373
27,166.01999999999998,6.727178957987881
28,169.89000000000001,6.580266291602197
29,173.05,6.460306626015949
30,177.08,6.307320145234519
31,179.95000000000002,6.198369545346
32,181.970086,6.121683276970222
33,182.04000000000002,6.1196584797436975
34,185.85,6.009316212084379
35,191.06,5.858428248679583
36,194.16,5.768648561461314
37,198.23,5.65077657593792
38,201.91,5.544199677571638
39,205.19,5.4492071155837785
40,208.929613,5.340903564238683
41,209.96999999999997,5.31825084523806
42,215.86,5.190006862921297
43,219.87,5.10269633984559
44,222.93,5.036070255973555
45,227.07000000000002,4.945929460351976
46,230.23,4.877135615368502
47,233.97,4.795721976682681
48,239.88329199999998,4.666984512145082
49,239.97,4.665529882278961
50,246.13,4.56217424798558
51,251.86,4.466040431249074
52,257.14,4.377440100240463
53,260.11,4.327620321734368
54,263.73,4.266888592650206
55,269.25,4.174274284819384
56,274.26,4.090217076969508
57,275.42287,4.070706671803392
58,278.72,4.0282529767842306
59,283.9,3.9615554990010935
60,289.84,3.8850674618026697
61,295.90999999999997,3.806912034596367
62,300.72,3.744975842304882
63,307.72,3.654845856911453
64,316.227766,3.545302202050062
65,317.80999999999995,3.530086552324621
66,328.21999999999997,3.4299750207244286
67,338.19,3.334093847580248
68,347.67,3.2429251804734447
69,357.41,3.1492559136835427
70,363.078055,3.0947486007075233
71,365.73,3.0756507124653187
72,375.11,3.0080958992252165
73,384.74,2.938734828589482
74,394.6,2.867730598973767
75,404.73,2.7947762145467694
76,414.15,2.7269318204753663
77,416.86938299999997,2.7073460213526404
78,421.85,2.679952621369753
79,429.7,2.6367775834143488
80,440.72,2.576170691130201
81,450.99,2.519685231810582
82,460.43,2.4677634764063754
83,470.07,2.4147434866249617
84,478.630092,2.367664081293924
85,479.90999999999997,2.3622503784483992
86,489.96,2.3197349038119213
87,500.21999999999997,2.2763387580612475
88,506.01,2.2518467270984406
89,511.87000000000006,2.2270898626975684
90,520.19,2.1918959075161255
91,529.86,2.150989465214858
92,539.71,2.1093141997442793
93,549.5408739999999,2.0677395629583026
94,549.75,2.0670649758407738
95,559.97,2.034103054434617
96,570.38,2.000522368689207
97,579.65,1.9706033252793174
98,590.42,1.9358647432121636
99,600.02,1.9048823377656758
100,609.77,1.873409866493461
101,619.67,1.8415089465955208
102,629.74,1.80901927361509
103,630.957344,1.805091776940947
104,639.97,1.7820425622510645
105,650.37,1.755453584590395
106,657.9,1.7361958796192558
107,665.52,1.716718793614996
108,674.78,1.6930366642738608
109,685.74,1.6649889462737701
110,695.2800000000001,1.6406417387629244
111,704.96,1.6158581809672241
112,716.41,1.5866256073201404
113,724.43596,1.5661046452762852
114,726.38,1.5624157689463691
115,734.7900000000001,1.5464588289507528
116,745.01,1.527089548347281
117,755.3700000000001,1.507439884378008
118,764.1199999999999,1.4908297173654472
119,774.75,1.4706995178121294
120,785.53,1.4502607159454537
121,794.6300000000001,1.4330082217683895
122,805.6800000000001,1.412051889417669
123,815.01,1.3943570001467895
124,824.45,1.37648822435278
125,831.763771,1.3625314302371994
126,835.92,1.3565932482766838
127,845.5999999999999,1.343001585456649
128,855.39,1.3291313568841132
129,865.29,1.3151358422590778
130,875.31,1.3009708896040415
131,885.4499999999999,1.286649414019005
132,895.6999999999999,1.272154210081468
133,903.9899999999999,1.2604008313339383
134,914.46,1.2461066456914003
135,925.0400000000001,1.239821456696362
136,935.7600000000001,1.2370455296163232
137,944.41,1.246165000078792
138,954.992586,1.2484286212361075
139,955.3499999999999,1.2485160311239358
140,964.19,1.2474591217995754
141,975.35,1.1723171950507223
142,984.38,1.2149917344286665
143,995.78,1.200931096566935
144,1004.99,1.21461906261022
145,1014.2900000000001,1.1960507069861759
146,1026.04,1.1263958404181633
147,1035.53,1.1423846634964236
148,1045.1100000000001,1.185788604907354
149,1054.78,1.1712203446509555
150,1064.54,1.1357987927272275
151,1074.39,1.1398091491361697
152,1084.33,1.1046563038777828
153,1094.3700000000001,1.1179459989890295
154,1096.4782,1.1141945657086088
155,1104.49,1.1019546885699476
156,1114.71,1.0875858405272583
157,1125.03,1.0654643845780847
158,1135.44,1.0781145915130752
159,1145.94,1.05510136133223
160,1153.89,1.0532295827667326
161,1164.56,1.0459146491448645
162,1175.34,0.9972177968258633
163,1186.21,1.0173785873910262
164,1194.4299999999998,0.971590257478022
165,1205.49,0.9355153730208645
166,1213.8400000000001,0.8980493828294304
167,1225.07,0.9315660949312504
168,1236.41,0.9614840183359374
169,1244.98,0.9653007507502381
170,1253.61,0.9512432584206483
171,1258.92541,0.937334013976094
172,1265.21,0.9229403985625532
173,1273.98,0.9471744950163583
174,1285.77,0.9444954651634923
175,1294.68,0.9093268769540745
176,1303.65,0.9008430524604181
177,1315.72,0.9191125532811056
178,1324.84,0.9059463380768531
179,1334.02,0.8840123865883618
180,1346.3600000000001,0.8957576241299761
181,1355.7,0.8841569758835156
182,1365.09,0.8627317974001898
183,1374.56,0.8614592705378792
184,1384.08,0.8558182134387032
185,1393.6799999999998,0.8306157079605426
186,1406.57,0.8252018128966373
187,1416.3200000000002,0.82120541670788
188,1426.1399999999999,0.8159006781875117
189,1436.03,0.8075552973355316
190,1442.65,0.8093953939745497
191,1445.43977,0.808911989854507
192,1445.98,0.8089506247540377
193,1456.0,0.7997645917459395
194,1466.1,0.7845996938036454
195,1476.26,0.7785241471607036
196,1486.49,0.7747014937003402
197,1493.35,0.7728204255929998
198,1503.7,0.7607300747313417
199,1510.64,0.7436678416898047
200,1517.6200000000001,0.7475046761811697
201,1524.62,0.7405001944389855
202,1535.1899999999998,0.7200098650082876
203,1545.83,0.7234656287601674
204,1556.55,0.7111857275778511
205,1563.73,0.7096247997337249
206,1574.5700000000002,0.7110358011501139
207,1585.49,0.7100361376323066
208,1596.48,0.7072743672970775
209,1603.85,0.6996477352342351
210,1614.96,0.6939814674977112
211,1626.16,0.6815425767102165
212,1633.66,0.6846496891293049
213,1644.99,0.6801426428237412
214,1656.39,0.6641472897007553
215,1659.58691,0.6671398731248835
216,1664.03,0.6720522077647486
217,1671.7199999999998,0.6557577709127508
218,1675.5700000000002,0.6700981710583694
219,1683.3000000000002,0.671730582779313
220,1694.97,0.6591478289349938
221,1706.7199999999998,0.6500525722365575
222,1714.6,0.6429389411060319
223,1726.48,0.6379281672696553
224,1734.4499999999998,0.643175170428248
225,1746.47,0.6352341165971668
226,1754.54,0.641132691188113
227,1766.7,0.6241116573623271
228,1774.8500000000001,0.6258924290991563
229,1783.05,0.6248846865521624
230,1795.41,0.630393495591084
231,1803.69,0.6250407501899732
232,1816.2,0.6120757163774252
233,1824.5800000000002,0.610393142408668
234,1833.0,0.6022175170128525
235,1845.71,0.5862137260650121
236,1854.22,0.5858029349583147
237,1867.0800000000002,0.5865040011590048
238,1875.6999999999998,0.5904617186278969
239,1884.35,0.5784238475264949
240,1893.05,0.5725250621412697
241,1905.46072,0.5728738600584857
242,1906.17,0.5729688932303884
243,1914.97,0.5675996306957419
244,1923.81,0.561368151967756
245,1937.15,0.5553947514890987
246,1946.0900000000001,0.5662018322777647
247,1955.07,0.5572032968730913
248,1968.6200000000001,0.5656891113794026
249,1977.71,0.5647582314430462
250,1982.2699999999998,0.5583395854023658
251,1996.01,0.5513898229903154
252,2005.22,0.550026594473941
253,2014.4799999999998,0.5444005457158926
254,2023.78,0.5439799807645047
255,2033.12,0.5402862996197777
256,2047.2099999999998,0.5421861955160084
257,2056.66,0.5331221698395983
258,2066.15,0.5303672279698487
259,2075.69,0.5394469658584251
260,2085.27,0.5442454875536622
261,2094.9,0.5331639890072252
262,2104.57,0.5289603742674488
263,2114.28,0.5293072433343332
264,2124.04,0.5268240921595435
265,2133.8399999999997,0.5126742247914144
266,2143.69,0.5182916371816112
267,2153.59,0.5193094293301337
268,2163.5299999999997,0.5097645052853172
269,2173.5099999999998,0.5065272650471614
270,2183.5499999999997,0.5067159005189965
271,2187.7616199999998,0.5084831594780934
272,2193.63,0.5114968476071527
273,2203.75,0.5044631410483812
274,2213.92,0.4918763108406037
275,2224.14,0.48822995698382055
276,2234.41,0.5009364794780314
277,2244.7200000000003,0.49187734305303776
278,2255.08,0.4798825829790384
279,2265.49,0.4794506992560332
280,2275.95,0.48336349188402217
281,2286.45,0.48930622559280645
282,2297.0099999999998,0.47672737092278394
283,2307.61,0.4802365573335566
284,2312.93,0.47219192107934077
285,2323.61,0.44266278965170425
286,2334.33,0.45301959930486313
287,2345.11,0.44058662057921505
288,2355.93,0.4595223829343623
289,2366.81,0.4379628569107027
290,2377.73,0.44509977196783845
291,2383.21,0.4264590000368039
292,2394.21,0.43431629725553045
293,2405.2599999999998,0.42871237082525115
294,2416.3599999999997,0.4313721207459661
295,2427.52,0.4471671822878739
296,2433.11,0.4423212983290267
297,2444.34,0.45041360676232656
298,2455.63,0.44802392681681946
299,2466.96,0.4432998879521078
300,2472.65,0.43450425669524895
301,2484.06,0.429000199992128
302,2495.5299999999997,0.4217851549102001
303,2507.05,0.4435617861792662
304,2511.88643,0.41737033060435613
305,2512.83,0.41230773005831545
306,2518.62,0.4079233375212765
307,2524.43,0.40551341720345335
308,2536.08,0.4109052848966306
309,2547.78,0.4105028331378472
310,2553.66,0.4280062655872792
311,2565.44,0.41746400270535877
312,2577.29,0.4275910925906936
313,2583.2300000000005,0.4234588416977728
314,2595.15,0.4179781843503628
315,2607.1299999999997,0.4091652436606001
316,2613.14,0.4035550455349344
317,2625.2,0.41695149372203466
318,2637.32,0.43177055856678215
319,2643.4,0.45641181320837165
320,2655.6000000000004,0.47044416692998214
321,2667.86,0.4369293373092399
322,2674.01,0.44869354471808454
323,2686.35,0.4522360039742055
324,2692.54,0.43257765582148155
325,2704.97,0.4434938400640733
326,2717.46,0.4228644409643122
327,2723.7200000000003,0.4190853455788435
328,2736.29,0.43009133535594557
329,2742.6,0.39151742051851623
330,2755.2599999999998,0.40153863528208916
331,2767.98,0.41333396670330924
332,2774.36,0.4228190046331351
333,2787.1600000000003,0.39565592493121826
334,2793.59,0.35077654340908343
335,2806.48,0.35886898869363754
336,2812.9500000000003,0.41393215160993424
337,2825.94,0.4371621579905671
338,2832.4500000000003,0.43106726534529527
339,2845.53,0.41806539671239906
340,2852.0800000000004,0.3947526485055588
341,2865.2499999999995,0.43351850485913357
342,2871.8500000000004,0.4418929372003325
343,2884.0315,0.4356516008386256
344,2885.11,0.4351453975032574
345,2891.7599999999998,0.4392499817445101
346,2911.8100000000004,0.47010689588542964
347,2931.99,0.45416996986865954
348,2952.3100000000004,0.4469272698359157
349,2972.7799999999997,0.4539923619289145
350,2993.38,0.45498071386422345
351,3007.2,0.4592511217159696
352,3028.0499999999997,0.4597751271941828
353,3049.04,0.4631243586564223
354,3070.1699999999996,0.46773411610268834
355,3091.45,0.4689910656746967
356,3112.88,0.47385910737244774
357,3127.2499999999995,0.4661866530185832
358,3148.93,0.4668681482592384
359,3170.75,0.47304346948392006
360,3192.7299999999996,0.45119324897606045
361,3207.4700000000003,0.465921841865694
362,3229.7,0.4431739749007386
363,3252.09,0.4768721662032419
364,3267.1,0.49780874491921223
365,3289.75,0.49405855590633585
366,3311.31121,0.49049897329915004
367,3312.55,0.4903318158004166
368,3320.19,0.4865701388629707
369,3327.84,0.5044849296258684
370,3335.5099999999998,0.5212562557894534
371,3343.2000000000003,0.4896658173537258
372,3350.9100000000003,0.48656421431868546
373,3358.63,0.5105142789839887
374,3366.3700000000003,0.4804361790499794
375,3374.13,0.4488041145166573
376,3381.9100000000003,0.46523988538402256
377,3389.71,0.5054962916520752
378,3397.52,0.48380666562047137
379,3405.36,0.5018996426898985
380,3413.21,0.4929066874596695
381,3421.07,0.512394899929784
382,3428.9599999999996,0.5008880155009294
383,3436.8700000000003,0.4976380664727622
384,3444.79,0.4435928851449387
385,3452.73,0.5164429392178025
386,3460.69,0.48729472869135354
387,3468.6699999999996,0.488359553565592
388,3476.66,0.479600546140174
389,3484.68,0.495581641815787
390,3492.71,0.48166280519174376
391,3500.7599999999998,0.4689814039683877
392,3508.83,0.501188138145719
393,3516.92,0.4716179077237377
394,3525.03,0.48732541270244367
395,3533.15,0.5092686853814932
396,3541.3,0.5271079611615738
397,3549.46,0.528416004641998
398,3557.6400000000003,0.5059467835231095
399,3565.85,0.5261347655052521
400,3574.0699999999997,0.46028771518773826
401,3582.2999999999997,0.4632537325705681
402,3590.56,0.4305292530544289
403,3598.8399999999997,0.503451208938977
404,3607.14,0.48446650022421245
405,3615.4500000000003,0.4841015592097915
406,3623.79,0.4751570212964016
407,3632.14,0.5623156510833552
408,3640.51,0.5215288162709963
409,3648.9,0.5013626168593246
410,3654.6400000000003,0.6619863768565838
411,3657.38,0.5282502267507458
412,3660.1099999999997,0.45712960894456434
413,3662.84,0.4843789911383827
414,3665.57,0.48636277333220107
415,3668.2999999999997,0.48201495552601953
416,3671.04,0.5457111054201815
417,3673.77,0.506854887614
418,3676.4999999999995,0.4618732698078184
419,3679.23,0.49590315200163676
420,3681.96,0.4811360341954552
421,3684.7000000000003,0.4793328840896172
422,3687.43,0.44198076628343563
423,3690.1600000000003,0.44100484847725396
424,3692.89,0.4605400306710724
425,3695.6299999999997,0.5003288805652345
426,3698.36,0.4627826627590529
427,3701.09,0.46941204495287125
428,3703.8199999999997,0.5347724271466897
429,3706.55,0.533141609340508
430,3709.29,0.5129015592346702
431,3712.02,0.48903734142848854
432,3714.75,0.5088758236223069
433,3717.48,0.5457441058161253
434,3720.21,0.4642160880099437
435,3722.95,0.5516860379041058
436,3725.6800000000003,0.7419802200979242
437,3728.41,0.8820708022917425
438,3731.14,0.837926484485561
439,3733.8700000000003,0.7437232666793794
440,3736.61,0.6330934165735413
441,3739.3399999999997,0.5039817987673598
442,3742.07,0.5066569809611782
443,3744.7999999999997,0.4663815631549967
444,3747.54,0.5269967130491586
445,3750.27,0.4570283952429771
446,3753.0,0.5253119774367955
447,3755.73,0.5352891596306139
448,3758.46,0.5455816418244324
449,3761.2000000000003,0.5455855917185943
450,3763.93,0.5158022739124128
451,3766.66,0.44141875610623116
452,3769.3900000000003,0.5473645383000496
453,3772.12,0.565589720493868
454,3774.8599999999997,0.49958497038803007
455,3777.59,0.5664373525818485
456,3780.3199999999997,0.5978836347756669
457,3783.05,0.6468331169694852
458,3785.78,0.6291792991633036
459,3788.5200000000004,0.5692754490574656
460,3791.25,0.562659431251284
461,3793.98,0.46303441344510243
462,3796.7099999999996,0.4809926956389209
463,3799.44,0.49195237783273926
464,3801.8939600000003,0.5662931703854098
465,3802.18,0.5749646028937031
466,3804.9100000000003,0.5474104672066964
467,3807.64,0.5716977315196897
468,3810.3700000000003,0.575753095832683
469,3813.11,0.6221496402347348
470,3815.8399999999997,0.6032076045477281
471,3818.57,0.5393619688607215
472,3821.3,0.5072471331737147
473,3824.0299999999997,0.5417473974867081
474,3826.77,0.56537714188876
475,3829.5,0.5496614062017533
476,3832.23,0.5020572705147466
477,3834.96,0.4802765348277399
478,3837.69,0.4844166991407332
479,3840.4300000000003,0.534197843542785
480,3843.16,0.6041648078557784
481,3845.8900000000003,0.6095301721687716
482,3848.62,0.600000436481765
483,3851.35,0.6294793007947583
484,3854.09,0.6071742451968102
485,3856.82,0.6243902095098035
486,3859.5499999999997,0.6083469738227968
487,3862.28,0.6363702381357901
488,3865.0099999999998,0.6633020024487835
489,3867.75,0.6724850468508352
490,3870.48,0.6453798111638286
491,3873.21,0.6478826754768219
492,3875.94,0.5907324397898152
493,3878.68,0.6307367841918671
494,3881.4100000000003,0.5555744485048604
495,3884.14,0.5201361128178537
496,3886.87,0.536381577130847
497,3889.6,0.5342992414438403
498,3892.34,0.4640832858458922
499,3895.0699999999997,0.5615961501588855
500,3897.8,0.5708187144718788
501,3900.5299999999997,0.5936747787848721
502,3903.26,0.5860979430978653
503,3906.0,0.5871180874999172
504,3908.7300000000005,0.5980629518129106
505,3911.46,0.5778109161259039
506,3914.19,0.6609991804388972
507,3916.92,0.6030606447518905
508,3919.66,0.6078408891539424
509,3922.39,0.6092883534669357
510,3925.1200000000003,0.535448017779929
511,3927.85,0.5417229820929224
512,3930.5899999999997,0.5527138264949742
513,3933.32,0.4516307908079675
514,3936.0499999999997,0.4689677551209608
515,3938.78,0.5084896194339541
516,3941.5099999999998,0.5828354837469474
517,3944.2500000000005,0.5664984281489992
518,3946.98,0.6196660924619926
519,3949.71,0.6173897567749859
520,3952.44,0.6431570210879791
521,3955.17,0.6207942854009725
522,3957.91,0.6128628298030243
523,3960.6400000000003,0.5948303941160177
524,3963.37,0.546995758429011
525,3966.1000000000004,0.49719592274200425
526,3968.83,0.44487318705499757
527,3971.5699999999997,0.45211633145704944
528,3974.3,0.5224106957700427
529,3977.0299999999997,0.5541698600830361
530,3979.7599999999998,0.5961541243960294
531,3982.4900000000002,0.6372409887090227
532,3985.23,0.6469457331110746
533,3987.96,0.6770188974240678
534,3990.69,0.6013469617370611
535,3993.4199999999996,0.6692037260500545
536,3996.1600000000003,0.6842816704521063
537,3998.89,0.7280489347650996
538,4001.6200000000003,0.7216609990780929
539,4004.35,0.6947255633910863
540,4007.08,0.7175817277040796
541,4009.82,0.6537086721061315
542,4012.5499999999997,0.7069613364191247
543,4015.2799999999997,0.648671200732118
544,4018.01,0.7271047650451113
545,4020.74,0.7311360293581046
546,4023.48,0.7449643737601566
547,4026.21,0.7000288380731499
548,4028.9399999999996,0.6762108023861432
549,4031.67,0.6875559666991364
550,4034.4,0.6645626310121298
551,4037.1400000000003,0.7161745754141816
552,4039.87,0.7066449397271749
553,4042.6,0.7163892040401683
554,4045.33,0.7177276683531615
555,4048.0699999999997,0.7027001127552135
556,4050.8,0.7128202770682068
557,4053.53,0.6797715413812001
558,4056.2599999999998,0.6615087056941934
559,4058.9900000000002,0.6747947700071867
560,4061.73,0.6926382144092386
561,4064.4599999999996,0.6929577787222319
562,4067.19,0.7069108430352251
563,4069.92,0.6862100073482185
564,4072.65,0.6699484716612119
565,4075.39,0.6700708160632637
566,4078.12,0.652256780376257
567,4080.85,0.6519940446892503
568,4083.58,0.6813637090022435
569,4086.3100000000004,0.6975001733152368
570,4089.05,0.6398740177172888
571,4091.7799999999997,0.6822585820302821
572,4094.51,0.6620428463432753
573,4097.24,0.6224926106562687
574,4099.97,0.608038274969262
575,4102.71,0.6319468193713138
576,4105.4400000000005,0.6465305836843072
577,4108.17,0.6481480479973004
578,4110.900000000001,0.6409714123102938
579,4113.64,0.6431801567123456
580,4116.37,0.629926721025339
581,4119.1,0.6887831853383322
582,4121.83,0.6688828496513256
583,4124.5599999999995,0.6891554139643189
584,4127.3,0.6475159583663708
585,4130.03,0.6774314226793641
586,4132.76,0.6974492869923573
587,4135.49,0.7215668513053506
588,4138.22,0.7064577156183439
589,4140.96,0.6905326600203958
590,4143.69,0.6851998243333892
591,4146.42,0.6845732886463824
592,4149.15,0.6647456529593757
593,4151.88,0.716227617272369
