,lambda (Angstroms),Total Flux (erg/s/cm^2/Angstrom)
0,100.09,0.021362705536204164
1,101.94999999999999,0.025666473676045836
2,104.09,0.030618120831256992
3,104.712855,0.03205931629921061
4,106.02000000000001,0.02953569836057537
5,107.99,0.025732350504930376
6,110.0,0.021851778194297407
7,114.13,0.0138782632128914
8,117.87,0.006657696140862071
9,120.22644299999999,0.0021082854148929226
10,120.89000000000001,0.0020490125245400245
11,125.14000000000001,0.0016693597887153524
12,126.88,0.0015139280409047589
13,128.06,0.0014085198333103318
14,131.04,0.0011423218462732218
15,131.95,0.001061042285918198
16,134.09,0.0008698826847103385
17,136.9,0.0006188931691558141
18,138.038426,0.0005172055238746713
19,140.09,0.0005107541576332289
20,143.02,0.0005017096343324911
21,147.03,0.000489476661679604
22,151.15,0.00047668798078436827
23,155.02,0.0004647465678308339
24,158.489319,0.0004540876001131371
25,159.0,0.0004516542272545308
26,161.95999999999998,0.0004375896833118341
27,166.11,0.0004179383514698773
28,169.98,0.0003996931916630408
29,173.14,0.00038483741198097257
30,177.17,0.0003659842175826388
31,180.05,0.0003526071949356904
32,181.970086,0.00034370641834242764
33,182.14000000000001,0.00034400750838528533
34,185.95000000000002,0.00035088765485317584
35,191.16,0.00036039096811504184
36,193.82,0.00036551413532359537
37,197.88,0.0003732141613261244
38,202.02,0.0003812641382597377
39,204.83,0.0003869367155890744
40,208.929613,0.00039480944869719
41,210.09,0.0004062204550559293
42,215.97000000000003,0.0004657565326764808
43,219.99,0.0005064057318660412
44,223.04999999999998,0.0005372490896073484
45,227.19,0.0005795978377279407
46,229.82,0.0006199177401330512
47,234.1,0.0006927372253398472
48,239.88329199999998,0.0007735926081682798
49,240.1,0.000772878259371361
50,246.26,0.0007312601552618908
51,252.0,0.0007031707537053386
52,257.27,0.0006514233454818145
53,260.25,0.0006516652749872976
54,263.87,0.0006379872625073816
55,268.78,0.000610850627900645
56,273.78,0.0005826410498897111
57,275.42287,0.0005735422866737434
58,278.87,0.0006100720112456387
59,284.05,0.0006650822111854244
60,290.0,0.0007206208894946376
61,296.07,0.000790235467030255
62,300.88,0.0008375720526886275
63,307.89,0.0009174633908310787
64,316.227766,0.0010132448632136186
65,317.98,0.0010080815442703955
66,327.64,0.0009756484440997727
67,338.37,0.0009352984418398567
68,347.85,0.0009021356298711705
69,356.78000000000003,0.0008714961096306254
70,363.078055,0.0008505964670693777
71,365.93,0.0008721206702730782
72,375.32000000000005,0.0009390199629160816
73,384.94,0.0009958804265183913
74,394.82000000000005,0.0010799607485964396
75,404.95000000000005,0.001154187499978082
76,414.38000000000005,0.0012180201093096605
77,416.86938299999997,0.001234620466913811
78,422.08000000000004,0.0012594398903626744
79,429.93,0.001296914998766174
80,440.96000000000004,0.0013544954783445947
81,451.23,0.0014014313094661156
82,459.62,0.0014392818733521488
83,470.32,0.0014869788134690208
84,478.630092,0.0015280665228993742
85,480.16999999999996,0.0015255098952360133
86,490.22999999999996,0.0014983276201948423
87,500.49,0.0014814523718924152
88,506.29,0.0014884987473159947
89,512.15,0.0016520974107611973
90,520.47,0.0016438835830929525
91,530.15,0.0016332865172481678
92,540.0,0.0015899263841313155
93,549.5408739999999,0.0016719793851492338
94,550.04,0.0016775334106463764
95,560.27,0.0017781717205880483
96,569.37,0.0018567740881803468
97,579.96,0.00183513137090589
98,589.38,0.001973510492083852
99,600.3399999999999,0.001989565552392818
100,610.09,0.0020837312319559953
101,620.01,0.002299704593111556
102,630.0799999999999,0.0023966030262603964
103,630.957344,0.00240042153876621
104,640.32,0.0024679797995749066
105,650.72,0.0026765667394289877
106,658.26,0.0027890362958231957
107,664.3499999999999,0.0029363372836800567
108,675.1400000000001,0.003037178321278666
109,684.54,0.0030525594207621624
110,695.6600000000001,0.0035929109256830644
111,705.34,0.0035213233004703242
112,716.8,0.004075168711117225
113,724.43596,0.004217353877205711
114,726.7700000000001,0.004259161023965419
115,735.18,0.0044273818462325296
116,745.41,0.004855402903520584
117,755.7800000000001,0.005142389901964094
118,764.53,0.0053921657241801715
119,775.1700000000001,0.005877506251994922
120,784.15,0.006293056191823536
121,795.0500000000001,0.006619641896069849
122,804.26,0.006933770953511001
123,815.45,0.007235804893007904
124,824.8900000000001,0.007885954068061592
125,831.763771,0.007251773519009715
126,834.44,0.006996902275424282
127,844.11,0.008447017296254185
128,855.8499999999999,0.00878591361937136
129,865.76,0.009422504283944717
130,875.7800000000001,0.01009037666023382
131,885.9200000000001,0.010882837358394652
132,894.12,0.011521527686295916
133,904.48,0.011753753807888245
134,914.95,0.017294395641196322
135,925.54,0.10711476279637612
136,934.1099999999999,0.23632528870004854
137,944.9200000000001,0.46130724727865985
138,954.992586,0.6361405472710148
139,955.87,0.6513716266604703
140,964.71,0.7740503777107011
141,975.88,0.14824397784996338
142,984.91,0.7477827676671109
143,994.0200000000001,0.7652030317019076
144,1005.5300000000001,1.0439879222661788
145,1014.84,0.9810769218450983
146,1024.23,0.40832999564166705
147,1036.0900000000001,0.7307492734081532
148,1045.6699999999998,1.3416039859716387
149,1055.3500000000001,1.3386198663071855
150,1065.12,1.1134377176375876
151,1074.97,1.308136543185639
152,1084.92,1.083116336505752
153,1094.96,1.3791941008207198
154,1096.4782,1.3731100207760383
155,1105.09,1.338592925019034
156,1115.31,1.3171916163489548
157,1125.6299999999999,1.209637206811262
158,1136.05,1.4777276964059562
159,1143.9199999999998,1.3602957581247894
160,1154.51,1.4407810762445408
161,1165.19,1.5017333035834401
162,1175.97,1.1056914300547263
163,1184.1200000000001,1.4607842093442422
164,1195.08,1.0583591542538242
165,1206.14,0.7992495982957932
166,1214.5,0.46860356576332135
167,1225.74,0.9968418282435862
168,1234.23,1.487876664583217
169,1245.6499999999999,1.650258145501778
170,1254.2900000000002,1.6090644305399888
171,1258.92541,1.5325894760634189
172,1265.89,1.4176952545973331
173,1274.67,1.780564884531378
174,1286.46,1.864402730422311
175,1295.3799999999999,1.5579983704008624
176,1304.36,1.5437350146842024
177,1316.43,1.8644048806641482
178,1325.55,1.8053025349919944
179,1334.74,1.650245194342094
180,1343.99,1.9035238579969818
181,1356.43,1.8601677505231233
182,1365.8300000000002,1.7043184249399823
183,1375.3000000000002,1.7805721043790945
184,1384.83,1.8136897881229954
185,1394.43,1.6127664768891494
186,1404.1000000000001,1.6771631706775567
187,1413.8300000000002,1.7281228687707524
188,1423.6299999999999,1.7602155718862014
189,1433.5,1.7602142800239033
190,1443.43,1.847418992466394
191,1445.43977,1.8628925550567017
192,1446.76,1.8730572161593806
193,1453.44,1.8388986184027918
194,1463.51,1.7281472247787126
195,1473.66,1.72813183597192
196,1483.87,1.7562014507780919
197,1494.1599999999999,1.7847260704015504
198,1504.52,1.7161496942401344
199,1511.46,1.5615771121397264
200,1518.44,1.6541755324479614
201,1525.4499999999998,1.6202309545626792
202,1536.02,1.4473675910466397
203,1546.67,1.5651502323478867
204,1553.81,1.4913096622906945
205,1564.5800000000002,1.5225943108178712
206,1575.4199999999998,1.6202599635601733
207,1586.34,1.684892621119762
208,1593.66,1.7320640619014642
209,1604.71,1.688802727289143
210,1615.8300000000002,1.6965123968919475
211,1623.29,1.6239428461039007
212,1634.54,1.7161855235347956
213,1645.8700000000001,1.7441292057829767
214,1653.47,1.631411663425181
215,1659.58691,1.706683117991886
216,1664.93,1.7724343813680086
217,1672.62,1.609107763020553
218,1676.4699999999998,1.784750456045559
219,1684.2099999999998,1.8474328596854412
220,1695.8899999999999,1.7562059959275376
221,1703.71,1.7004554347471603
222,1715.5200000000002,1.6390326281563348
223,1723.44,1.6352461109506329
224,1735.39,1.732082365924353
225,1743.3999999999999,1.696547888295859
226,1755.48,1.797078200436657
227,1763.59,1.6618187667828388
228,1775.81,1.7162401404881826
229,1784.01,1.740160746411572
230,1796.37,1.8389751816814617
231,1804.6599999999999,1.8263358271820591
232,1812.9899999999998,1.7241904902725267
233,1825.56,1.7522580178892349
234,1833.99,1.700487724954378
235,1846.7,1.5797353141356316
236,1855.23,1.5980260651754503
237,1863.79,1.6428838294076715
238,1876.71,1.7481335109357439
239,1885.3700000000001,1.6353153191426406
240,1894.07,1.5834381449394075
241,1902.8200000000002,1.6618749927235121
242,1905.46072,1.653561589786574
243,1916.01,1.6203401742339374
244,1924.85,1.5907961633819545
245,1933.7299999999998,1.6240341298564336
246,1947.1399999999999,1.7084335285526904
247,1956.13,1.6165274326749386
248,1965.1499999999999,1.7442063197920332
249,1974.2299999999998,1.78479717289882
250,1983.3400000000001,1.704388009000453
251,1997.08,1.6656402206400183
252,2006.3,1.7004749943894208
253,2015.5600000000002,1.6656247454652848
254,2024.87,1.7202394681992261
255,2034.2099999999998,1.6618231739280136
256,2043.6000000000001,1.712310851314878
257,2053.04,1.6352255003598193
258,2067.27,1.6541984342485394
259,2072.03,1.7642737360974716
260,2076.81,1.712272026609635
261,2086.4,1.7602215906288075
262,2096.03,1.6848871319744416
263,2105.7000000000003,1.6965046506465373
264,2115.42,1.71617114097671
265,2125.1800000000003,1.7360666086333445
266,2134.99,1.6351910479480558
267,2144.85,1.6771664589208441
268,2154.75,1.7281118472200943
269,2164.69,1.677150212845806
270,2174.69,1.66943254446121
271,2184.72,1.66172885907146
272,2187.7616199999998,1.6817303835608943
273,2194.81,1.728087320381375
274,2204.94,1.6848508984936972
275,2215.12,1.612727499202822
276,2225.34,1.57962411798939
277,2235.61,1.6809597593727608
278,2245.93,1.6202334233529347
279,2256.3,1.561116109929912
280,2266.71,1.5857308145843316
281,2277.18,1.6256415463549152
282,2282.43,1.6669389190192478
283,2292.96,1.5802266779059952
284,2303.54,1.5977184593895457
285,2314.1800000000003,1.5427342679892602
286,2324.86,1.285560094666417
287,2335.5899999999997,1.455101943940377
288,2346.3700000000003,1.39851681581114
289,2357.2000000000003,1.5117087102787066
290,2362.63,1.3974961642915305
291,2373.54,1.442584094913982
292,2384.5,1.3394120481332366
293,2395.5,1.4148730194299337
294,2406.56,1.3724400178427945
295,2417.67,1.3971640388524587
296,2423.2400000000002,1.4829765561363315
297,2434.43,1.4352486133008808
298,2445.66,1.5055406885428726
299,2456.95,1.4875997909010281
300,2462.62,1.4768973533785075
301,2473.98,1.4260714873721871
302,2485.4,1.441827648482031
303,2496.87,1.363624832188678
304,2502.63,1.5155684353404029
305,2511.88643,1.3929766129068841
306,2514.18,1.3625992174839596
307,2519.98,1.38110620299926
308,2525.79,1.3369381867654484
309,2537.44,1.3579941490504908
310,2543.2900000000004,1.348216125820233
311,2555.0299999999997,1.4405710723632714
312,2566.83,1.4037590084116405
313,2572.7400000000002,1.4728919746867133
314,2584.6200000000003,1.45862189674219
315,2596.55,1.437804810052109
316,2602.53,1.3917927640834011
317,2614.5499999999997,1.371893661651316
318,2626.62,1.4357155504736732
319,2632.6699999999996,1.4892144922611845
320,2644.82,1.6132003670906494
321,2657.03,1.6612722314254447
322,2663.16,1.5181811592200636
323,2675.45,1.5743130095619666
324,2687.8,1.5915568494092005
325,2693.99,1.50564976670915
326,2706.4300000000003,1.5504955908143798
327,2712.6699999999996,1.4666474993687715
328,2725.19,1.452383309481109
329,2737.77,1.5198951090987767
330,2744.08,1.3357490054093877
331,2756.75,1.375424789285052
332,2763.1,1.4332856785992167
333,2775.8500000000004,1.4895324484819883
334,2782.25,1.3929133290505953
335,2795.1,1.1447060814422514
336,2808.0,1.2146248250883498
337,2814.4700000000003,1.4698536934131758
338,2827.46,1.5487534213172702
339,2833.98,1.5061902808965386
340,2847.06,1.4540919930586291
341,2853.62,1.3787568456414512
342,2866.79,1.5318395420615376
343,2873.3999999999996,1.552659385898802
344,2884.0315,1.5432526146126946
345,2886.67,1.5409185168860913
346,2893.3199999999997,1.5511564930817765
347,2906.68,1.6802084452583712
348,2926.82,1.6141983731653036
349,2947.11,1.5869343005352967
350,2967.54,1.6111962274041463
351,2988.11,1.6132661537718522
352,3008.8199999999997,1.6304120796384147
353,3029.6800000000003,1.6362710049680378
354,3050.68,1.6422519297965175
355,3071.83,1.6557058540880576
356,3093.12,1.6578957778784544
357,3107.4,1.6720337267618206
358,3128.94,1.6436326496573181
359,3150.62,1.6458225720516726
360,3172.4599999999996,1.6669874938732914
361,3187.11,1.5834774414322068
362,3209.2,1.6374163623589266
363,3231.44,1.5585262827487072
364,3246.3599999999997,1.6803172293411317
365,3268.86,1.749565148800217
366,3291.52,1.7355360676865672
367,3306.71,1.7224240133125008
368,3311.31121,1.7172912521701216
369,3321.98,1.705389266797102
370,3329.64,1.7768137426379307
371,3337.31,1.7317352177944787
372,3345.0,1.7073486915824647
373,3352.7200000000003,1.6678941633176083
374,3360.44,1.7258706350527517
375,3368.1899999999996,1.7173551047350524
376,3375.96,1.5585105730487911
377,3383.7400000000002,1.575874040678249
378,3391.54,1.7352945069391452
379,3399.35,1.7872879725157607
380,3407.19,1.675139436039533
381,3415.05,1.705611898194744
382,3422.92,1.8100523596656737
383,3430.8100000000004,1.7601378197680417
384,3438.7200000000003,1.7756572785018483
385,3446.6400000000003,1.5603547365513735
386,3454.59,1.737936192548056
387,3462.5499999999997,1.6027906478604579
388,3470.54,1.6892751011200169
389,3478.54,1.554360553695295
390,3486.5600000000004,1.6648920049020113
391,3494.59,1.6300504554244466
392,3502.65,1.7379279038940396
393,3510.72,1.7015903516793514
394,3518.8199999999997,1.6470607974118203
395,3526.93,1.6238352424600084
396,3535.06,1.723323686139635
397,3543.21,1.8162551284506996
398,3551.37,1.8071755700774834
399,3559.56,1.7654210096514242
400,3567.77,1.7324064478568035
401,3575.99,1.5866828853779018
402,3584.23,1.504326321530438
403,3592.5,1.545842755630132
404,3593.6400000000003,1.188484677622109
405,3596.33,1.8785944935505463
406,3599.02,1.7103223094789837
407,3601.71,1.4506111254074208
408,3604.3999999999996,2.066417941335858
409,3607.09,2.2252567572642956
410,3609.78,1.4120785731927326
411,3612.47,1.79600938912117
412,3615.16,1.5904712050496073
413,3617.8500000000004,1.2938390209780444
414,3620.54,1.7372338369064817
415,3623.23,1.8658236528349192
416,3625.92,1.7624224687633563
417,3628.6099999999997,1.3539922846917936
418,3631.3,1.413571100620231
419,3633.9900000000002,1.7093979165486681
420,3636.68,1.0323437324771054
421,3639.37,1.1814645484055428
422,3642.06,1.7792123643339801
423,3644.75,1.2645071802624173
424,3647.44,1.4233459961908546
425,3650.1299999999997,1.7125018121192919
426,3652.82,1.471998628047729
427,3655.51,1.2590994439761662
428,3658.2,1.2899242599046037
429,3660.89,0.9049356758330409
430,3663.5800000000004,1.495230891761478
431,3666.27,1.8178557076899156
432,3668.96,1.8514405236183527
433,3671.65,2.23675033954679
434,3674.3399999999997,1.7269911554752273
435,3677.03,1.1018219714036643
436,3679.7200000000003,1.7266447873321018
437,3682.41,1.0858686032605391
438,3685.0899999999997,1.8351164198732572
439,3687.7799999999997,2.3057722358016948
440,3690.4700000000003,1.2741700517301318
441,3693.16,1.7107808676585692
442,3695.85,1.8547826835870063
443,3698.54,1.8007244995154434
444,3701.23,2.2808113154438807
445,3703.92,1.687085131372318
446,3706.61,2.4772619473007556
447,3709.2999999999997,2.0666457632291926
448,3711.9900000000002,1.55078757915763
449,3714.6800000000003,1.234946395086067
450,3717.37,1.6529232110145045
451,3720.06,1.3025770269429418
452,3722.75,1.474758842871379
453,3725.44,1.9704886587998163
454,3728.13,3.4086784747282537
455,3730.82,3.576604290656691
456,3733.5099999999998,3.6012181065851285
457,3736.2000000000003,2.5053219225135654
458,3738.8900000000003,1.6806397384420027
459,3741.58,1.57217755437044
460,3744.27,2.0845843702988773
461,3746.9599999999996,2.4930141862273145
462,3749.65,2.463454002155752
463,3752.34,1.376874818084189
464,3755.0299999999997,2.016376634012626
465,3757.72,1.4202364499410636
466,3760.4100000000003,2.392256265869501
467,3763.1,2.600208081797938
468,3765.79,2.6133198977263756
469,3768.48,2.682215713654813
470,3771.1699999999996,2.4702375295832497
471,3773.86,2.040873345511687
472,3776.55,2.2751651614401243
473,3779.24,2.8853369773685618
474,3781.93,2.8024077932969993
475,3784.6200000000003,1.8918086092254363
476,3787.31,2.9321474251538735
477,3790.0,2.280799241082311
478,3792.69,2.5676540570107482
479,3795.3799999999997,2.388110872939185
480,3798.07,2.390755688867623
481,3800.76,2.94180750479606
482,3801.8939600000003,2.524492442249565
483,3803.45,1.9518453429102158
484,3806.14,2.331980197192155
485,3808.8300000000004,2.6073330514740944
486,3811.52,2.957562905756034
487,3814.21,2.628380760037973
488,3816.8999999999996,2.6626566143199124
489,3819.59,2.3258824686018515
490,3822.28,2.2349033228837913
491,3824.97,3.0296781771657306
492,3827.66,3.10547503144767
493,3830.3500000000004,2.116548885729609
494,3833.04,1.8314187400115485
495,3835.73,1.9840475942934876
496,3838.42,2.392591448575427
497,3841.1099999999997,2.0721503028573665
498,3843.8,2.047996157139306
499,3846.4900000000002,2.2079860114212453
500,3849.18,2.4039768657031844
501,3851.87,2.3186327199851235
502,3854.5600000000004,2.676683574267063
503,3857.25,2.7315464285490023
504,3859.94,2.8582962828309415
505,3862.63,2.882220137112881
506,3865.3199999999997,2.7954959913948207
507,3868.01,3.01184384567676
508,3870.7000000000003,2.862320699958699
509,3873.38,3.212336554782341
510,3876.0699999999997,3.1283724090642804
511,3878.7599999999998,2.6059572633462196
512,3881.4500000000003,2.7116591176281593
513,3884.14,2.1944209719100987
514,3886.83,2.386961826192038
515,3889.52,2.539360680473977
516,3892.21,2.593189534755916
517,3894.9,2.730176389037856
518,3897.59,2.561098243319795
519,3900.2799999999997,2.4129540976017343
520,3902.9700000000003,2.574554951883674
521,3905.6600000000003,2.722698806165613
522,3908.35,2.5462596604475523
523,3911.04,2.5525855147294916
524,3913.7300000000005,2.761688369011431
525,3916.42,3.11053922329337
526,3919.11,2.9841330775753097
527,3921.7999999999997,2.229496931857249
528,3924.49,2.3684387861391887
529,3927.1800000000003,2.5085316404211278
530,3929.87,2.6603544947030673
531,3932.56,2.2395023489850066
532,3935.25,2.2660712032669457
533,3937.9399999999996,2.693824057548885
534,3940.63,2.8610609118308243
535,3943.32,3.3930197661127632
536,3946.0099999999998,3.193462620394703
537,3948.7,2.8160874746766424
538,3951.3900000000003,3.174599328958582
539,3954.08,2.9649201832405208
540,3956.77,3.0420970375224603
541,3959.46,2.7737588918043996
542,3962.1499999999996,2.554074746086339
543,3964.84,2.4292786003682783
544,3967.53,1.9868034546502176
545,3970.22,1.9258433089321567
546,3972.91,1.7442291632140963
547,3975.6000000000004,1.8529210174960355
548,3978.29,2.206831871777975
549,3980.98,2.108261726059914
550,3983.67,2.2521485803418533
551,3986.36,3.019319434623793
552,3989.05,3.035882288905732
553,3991.74,3.1228351431876717
554,3994.43,3.162631997469611
555,3997.12,3.16987685175155
556,3999.81,3.1597547060334894
557,4002.5,3.2250855603154287
558,4005.19,3.219448414597368
559,4007.8799999999997,2.9665242688793074
560,4010.57,3.240956123161247
561,4013.26,3.2960499774431864
562,4015.95,3.0562368317251254
563,4018.64,3.0468046860070648
564,4021.3300000000004,3.4247545402890043
565,4024.02,3.1782703945709434
566,4026.71,2.9692822488528825
567,4029.4,3.164812103134822
568,4032.0899999999997,2.9714659574167617
569,4034.78,2.895668811698701
570,4037.4700000000003,2.9192476659806403
571,4040.16,3.0537035202625793
572,4042.85,3.0703803745445186
573,4045.5400000000004,2.984577228826458
574,4048.23,3.032654083108397
575,4050.92,3.0698049373903364
576,4053.61,3.1453707916722764
577,4056.2999999999997,3.0813056459542154
578,4058.9900000000002,3.3565435002361546
579,4061.68,3.439240354518094
580,4064.37,3.4225622088000334
581,4067.0499999999997,3.3350500636236755
582,4069.7400000000002,2.953532917905615
