,lambda (Angstroms),Total Flux (erg/s/cm^2/Angstrom)
0,100.03,1.7884194429563982
1,101.89,1.7834462952230457
2,104.02,1.7777503182684165
3,104.712855,1.775897732744083
4,105.95,1.7585172636155582
5,107.92,1.7308414575152509
6,109.92999999999999,1.7026074162934655
7,114.05,1.644727666541199
8,118.06,1.5883929924354971
9,120.22644299999999,1.557999085010431
10,121.09,1.547844599434297
11,125.06,1.501094806979129
12,127.09,1.4771887868660583
13,127.97,1.4668272798209836
14,130.95000000000002,1.4317326881865249
15,131.85999999999999,1.4210301793944589
16,134.0,1.3958279629757537
17,137.12,1.3591033290886694
18,138.038426,1.3482882547202277
19,139.98999999999998,1.331863719768531
20,142.93,1.3073090988264724
21,146.93,1.2739849090433997
22,151.05,1.2393326669198348
23,154.92000000000002,1.2067946039889619
24,158.489319,1.176785760530776
25,158.9,1.1741766132548792
26,161.85000000000002,1.1554353826869925
27,166.0,1.129076984688102
28,169.86999999999998,1.1044883036431126
29,173.03,1.0844138210348002
30,177.06,1.05880817775901
31,179.92999999999998,1.040575442706524
32,181.970086,1.0276150819686996
33,182.01999999999998,1.027373315798362
34,185.82999999999998,1.0089201901820244
35,191.02999999999997,0.9837278108211437
36,194.14000000000001,0.9686693213495396
37,198.20000000000002,0.9490024681100826
38,201.89,0.9311340190328422
39,205.17000000000002,0.9152451172975173
40,208.929613,0.8969904827475127
41,209.95,0.8932658377648611
42,215.83,0.8719272067479232
43,219.84,0.8573424283486171
44,222.9,0.846189440156129
45,227.04,0.8311365723074685
46,230.2,0.8204379954616312
47,233.94000000000003,0.8085051662263679
48,239.88329199999998,0.7876980533706357
49,239.94000000000003,0.7875470144240473
50,246.1,0.7699042530849496
51,251.83,0.7539541923360806
52,257.11,0.738233424902568
53,260.08,0.7304950282212174
54,263.7,0.720478226973241
55,269.22,0.7048692058382049
56,274.23,0.6906954751939062
57,275.42287,0.6873160869914177
58,278.68,0.6802196472443723
59,283.86,0.668970377396862
60,289.81,0.6558432156801273
61,295.88,0.6427370575422146
62,300.68,0.6322153486951008
63,307.69,0.6170502089246284
64,316.227766,0.598575083503089
65,317.77,0.5960806067339414
66,328.18,0.5791614482718329
67,338.15,0.5629296612096597
68,347.62,0.5475013586019587
69,357.35999999999996,0.5316764717488428
70,363.078055,0.5223936099456854
71,365.69,0.5192110304938607
72,375.07,0.5077564282433354
73,384.69000000000005,0.4959142909053766
74,394.56,0.4839721180596746
75,404.67999999999995,0.47165804370622955
76,414.11,0.4601599403541555
77,416.86938299999997,0.4567872451125116
78,421.8,0.4521680991050148
79,429.65000000000003,0.44483305639849396
80,440.67,0.4345775146002954
81,450.93,0.4250029390985244
82,460.37,0.4162004483113197
83,470.01,0.4072171341303185
84,478.630092,0.3992026122182343
85,479.86,0.39832103781241407
86,489.9,0.39108879884657644
87,500.15999999999997,0.38375776735758294
88,505.95,0.3795895710436187
89,511.80999999999995,0.37546081001774134
90,520.13,0.36949896968748547
91,529.8,0.3625505300560462
92,539.65,0.3554618364511158
93,549.5408739999999,0.34837427027102263
94,549.6800000000001,0.34829797969424076
95,559.9,0.34274804852126683
96,570.31,0.3370802428499695
97,579.58,0.3319891851686124
98,590.35,0.3261181508689128
99,599.9399999999999,0.3208491582956428
100,609.69,0.3154020007764161
101,619.6,0.3101448363112329
102,629.67,0.3046389639000932
103,630.957344,0.30393889737915064
104,639.9000000000001,0.30007875226761144
105,650.3000000000001,0.29556992889240935
106,657.8299999999999,0.29229118041401786
107,665.44,0.2890211655865862
108,674.7,0.2850186184352043
109,685.66,0.2802510016167221
110,695.1999999999999,0.2761509597437002
111,704.8699999999999,0.27193846817848816
112,716.33,0.2670224779285058
113,724.43596,0.2635221616664557
114,726.29,0.26292651032905
115,734.6999999999999,0.2602231808286099
116,744.9200000000001,0.2569353440296207
117,755.28,0.25360831308544
118,765.79,0.2501761365071254
119,774.66,0.24738542761534132
120,785.44,0.24391533353558564
121,794.53,0.2410093817870719
122,805.58,0.23747391120587527
123,814.91,0.23448277942274728
124,824.3499999999999,0.23145891876125443
125,831.763771,0.22905852798583554
126,835.82,0.22807138083645281
127,845.49,0.22578806270604682
128,855.2800000000001,0.22343807947278166
129,865.1899999999999,0.2210648682366573
130,875.21,0.21866574329791194
131,885.34,0.21623921915654562
132,895.59,0.21378450761232015
133,905.9599999999999,0.21129717256523542
134,914.35,0.20937557266532786
135,924.9300000000001,0.20738387841323944
136,935.64,0.20545052805805356
137,944.3,0.2041698822517128
138,954.992586,0.20218753187250227
139,955.24,0.20214293459858607
140,964.07,0.20042020297993307
141,975.24,0.19570605133889646
142,984.26,0.19535562264577647
143,995.66,0.1926647371777534
144,1004.8700000000001,0.19129620541016631
145,1014.17,0.1889544314494107
146,1025.91,0.18443052358497292
147,1035.4099999999999,0.18325299886162044
148,1044.99,0.18258572963322905
149,1054.66,0.18021996121166917
150,1064.4099999999999,0.17724653228507053
151,1074.26,0.17539828047717337
152,1084.2,0.17231779647610765
153,1094.23,0.17079642528187336
154,1096.4782,0.17023273094982866
155,1104.3600000000001,0.1685891842981909
156,1114.58,0.16651220481330936
157,1124.89,0.16417744777621257
158,1135.3,0.16281282856998783
159,1145.8,0.16049732381154788
160,1153.75,0.15908954436587186
161,1164.42,0.15710104011991424
162,1175.2,0.1540092240879159
163,1186.07,0.15276654050370236
164,1194.29,0.15032878640138078
165,1205.34,0.1476249597127368
166,1213.7,0.145229163973636
167,1224.93,0.14429767218056164
168,1236.26,0.14305116521835928
169,1244.83,0.1416605745240897
170,1256.35,0.13932316984054413
171,1258.92541,0.13871594454035394
172,1265.0600000000002,0.1376053631269654
173,1273.83,0.1370566077091986
174,1285.6100000000001,0.13555818245819592
175,1294.5300000000002,0.13367031310854025
176,1303.5,0.13239617478158833
177,1315.5600000000002,0.1313297900577265
178,1324.68,0.12992102479888573
179,1333.8600000000001,0.1283246413672894
180,1346.1999999999998,0.12707513817056848
181,1355.53,0.12568451880708334
182,1364.93,0.12407800707538341
183,1374.39,0.12287957717092796
184,1383.9199999999998,0.12158425589825775
185,1393.51,0.11980857045283198
186,1406.4099999999999,0.11809726131039273
187,1416.1499999999999,0.11693291093307816
188,1425.97,0.11560540499208949
189,1435.85,0.11424780987834533
190,1442.4799999999998,0.11345195628885912
191,1445.43977,0.11307013432604576
192,1445.81,0.11303756969781441
193,1455.83,0.11198833475027045
194,1465.92,0.11082118266137637
195,1476.08,0.10982941743113221
196,1486.3100000000002,0.1088727800595379
197,1496.62,0.10790158381211498
198,1503.5200000000002,0.10709717102189006
199,1510.46,0.10617919429375083
200,1517.4399999999998,0.10564677062769728
201,1524.44,0.10490777849268651
202,1535.01,0.10359736314882029
203,1545.65,0.10268818866360395
204,1556.36,0.10155551403703751
205,1563.55,0.10092814894693364
206,1574.3799999999999,0.10002003350662415
207,1585.3,0.09905480245600738
208,1596.29,0.09804830626404049
209,1603.65,0.0972723636878006
210,1614.77,0.09619973494761211
211,1625.9599999999998,0.09502382006607352
212,1633.47,0.09441975347265481
213,1644.79,0.0933575000428946
214,1656.1899999999998,0.09211153973730568
215,1659.58691,0.09186226077125768
216,1663.8400000000001,0.09167104834443018
217,1671.52,0.09092078759865396
218,1675.37,0.0909701942469302
219,1683.1,0.09051735810697573
220,1694.77,0.08958669730577666
221,1706.52,0.08873734367389244
222,1714.39,0.08815319883023892
223,1726.28,0.08736310049465568
224,1734.25,0.08699246286264568
225,1746.27,0.08613580530219901
226,1754.3300000000002,0.08578427336066821
227,1766.49,0.0847244520965225
228,1774.64,0.0842737198454709
229,1786.9399999999998,0.08352672987762616
230,1795.19,0.08321462183821807
231,1803.48,0.0826058568834674
232,1815.98,0.08160899333890972
233,1824.36,0.08109427507463826
234,1837.01,0.08017602334754588
235,1845.4799999999998,0.07930906577375361
236,1854.0,0.07890961980578308
237,1866.86,0.07824607602314212
238,1875.47,0.0777657387456508
239,1884.1299999999999,0.07706270007398125
240,1892.8300000000002,0.07654459248696907
241,1905.46072,0.07574652233802305
242,1905.9499999999998,0.07572429381075647
243,1914.74,0.07529011240106859
244,1923.58,0.07468710728484096
245,1936.92,0.07375554858003591
246,1945.8600000000001,0.07393943405072877
247,1954.84,0.07341854075618985
248,1968.3899999999999,0.07311601028391786
249,1977.47,0.07256829957629943
250,1982.03,0.07244485633987433
251,1995.77,0.07176856198275128
252,2004.98,0.07124959903812951
253,2014.24,0.07081959638696798
254,2023.53,0.07015739291188261
255,2032.87,0.07004136973025749
256,2046.9699999999998,0.06959757448604828
257,2056.41,0.06896157189134365
258,2065.91,0.06843247264879133
259,2075.44,0.06833938658231516
260,2080.23,0.0696855936958072
261,2085.02,0.07027999780929925
262,2094.65,0.06936266132974357
263,2104.31,0.06865672402626406
264,2114.03,0.06870492307493685
265,2123.79,0.06768396635837784
266,2133.59,0.06685676287658701
267,2143.44,0.06749020468825646
268,2153.33,0.06703653073469411
269,2163.27,0.06583446307459198
270,2173.25,0.06543483064925809
271,2183.29,0.06600916857607647
272,2187.7616199999998,0.0658247669171217
273,2193.36,0.06568207520162633
274,2203.49,0.06509713603426069
275,2213.66,0.0635026941090772
276,2223.88,0.06376715698662144
277,2234.14,0.06505258610634786
278,2244.4500000000003,0.06432299302880196
279,2254.81,0.06250700375398378
280,2265.22,0.061897666281893325
281,2275.68,0.062047548612530576
282,2286.18,0.06330496818534999
283,2296.73,0.061811365560897114
284,2307.33,0.06262319773917195
285,2312.65,0.06144155094940046
286,2323.33,0.05979593061203963
287,2334.05,0.05898687751686098
288,2344.83,0.05735164578495558
289,2355.65,0.05951273029523235
290,2366.52,0.05692094260823683
291,2377.4500000000003,0.05754447928451456
292,2382.93,0.055682129463471765
293,2393.93,0.05596887306356829
294,2404.97,0.055581083905847
295,2416.08,0.05580201967194449
296,2427.23,0.058026199680224155
297,2432.82,0.05785681302518229
298,2444.05,0.058694839517826294
299,2455.33,0.058727950813198024
300,2466.67,0.05735914247184299
301,2472.35,0.056326975861711016
302,2483.77,0.05381515600472034
303,2495.23,0.0541674433899118
304,2506.75,0.05642741213837652
305,2511.88643,0.052607130115821146
306,2512.53,0.0521338717773344
307,2518.32,0.05127105223836248
308,2524.1200000000003,0.05143209723904691
309,2535.77,0.05288319193869756
310,2547.4799999999996,0.05294016387628632
311,2553.35,0.05648456765456521
312,2565.1400000000003,0.05400971690940478
313,2576.98,0.05548373186252612
314,2582.92,0.05440282741839948
315,2594.84,0.053339933688771636
316,2606.82,0.052109395197081916
317,2612.83,0.051367417530549755
318,2624.89,0.05304777235611085
319,2637.0,0.0575913118799537
320,2643.08,0.06174656199101601
321,2655.2799999999997,0.06703748037176605
322,2667.54,0.05906837599045417
323,2673.69,0.06095108787911094
324,2686.0299999999997,0.06292778981504991
325,2692.2200000000003,0.05797453986233207
326,2704.65,0.06075619265517821
327,2717.1299999999997,0.05592007814630612
328,2723.4,0.05371762451083911
329,2735.96,0.05591670631921783
330,2742.27,0.05002481784237624
331,2754.93,0.052232641047318486
332,2767.6499999999996,0.054871552490198844
333,2774.03,0.055701018790951705
334,2786.83,0.049949776551082896
335,2793.25,0.04520633801046118
336,2806.15,0.04565782816715587
337,2812.6200000000003,0.053225547324815915
338,2825.6,0.058512919798761456
339,2832.11,0.0575611351150469
340,2845.19,0.05318805298555595
341,2851.74,0.04772694546046684
342,2864.91,0.05721860518788304
343,2878.1299999999997,0.061808056613581026
344,2884.0315,0.05972356000804245
345,2884.77,0.05946803600116797
346,2898.08,0.06288874186845034
347,2911.46,0.07052871425794983
348,2931.64,0.06629797594854026
349,2951.96,0.06415590068356487
350,2972.42,0.06526140846302374
351,2993.0299999999997,0.06527668593294783
352,3006.84,0.065546514101781
353,3027.68,0.06657110443041847
354,3048.67,0.06759268444952118
355,3069.7999999999997,0.06935196751305811
356,3091.08,0.06852201026706028
357,3112.51,0.0722002527115277
358,3126.88,0.06957909305809779
359,3148.55,0.06895697500730957
360,3170.3700000000003,0.07176560664698661
361,3192.35,0.06664849462315992
362,3207.09,0.07001385087287759
363,3229.32,0.06410461499982628
364,3251.7000000000003,0.07485303881724023
365,3266.71,0.08109490450979534
366,3289.35,0.07970035112401569
367,3311.31121,0.07706146247339277
368,3312.1600000000003,0.07696376257328133
369,3319.7900000000004,0.07435594410347438
370,3327.44,0.07464813005445431
371,3335.11,0.08054444042622112
372,3342.8,0.0755477652187748
373,3350.5099999999998,0.07880061443211538
374,3358.23,0.08013428085584937
375,3365.97,0.07232571170037025
376,3373.7299999999996,0.065425246965678
377,3381.5099999999998,0.07484977665177261
378,3389.31,0.07851691075865411
379,3397.1200000000003,0.07249520207592905
380,3404.95,0.08020642781399087
381,3412.7999999999997,0.07474974797283956
382,3420.67,0.0767167825524751
383,3428.55,0.07714549434250412
384,3436.46,0.07683114776371344
385,3444.38,0.06284492839531619
386,3452.3199999999997,0.07959271344770581
387,3460.2699999999995,0.07526316571048888
388,3468.25,0.07568233960445227
389,3476.25,0.07323074791920252
390,3484.26,0.07621477344434621
391,3492.29,0.07342536339027679
392,3500.34,0.07050947775699423
393,3508.4100000000003,0.07989849654449856
394,3516.5,0.07134560975278975
395,3524.61,0.07433349738186781
396,3532.73,0.07935312222133933
397,3540.88,0.08208587869199116
398,3549.04,0.08472499237303642
399,3557.22,0.07767487047486855
400,3565.42,0.08250294299748756
401,3573.6400000000003,0.06650573994089345
402,3581.88,0.07128510130508621
403,3590.13,0.06099388987967243
404,3598.4100000000003,0.07919804008543893
405,3606.7,0.07485086750159889
406,3615.02,0.07306536654893915
407,3623.3500000000004,0.06959413280667286
408,3631.71,0.09157363069558688
409,3640.08,0.07983613579489433
410,3648.47,0.07705808531498867
411,3656.88,0.08853076925586988
412,3665.31,0.09084223761753796
413,3673.7599999999998,0.08531381039999292
414,3682.23,0.08148140760323475
415,3690.7200000000003,0.07606237922726344
416,3699.22,0.08592047806168561
417,3707.75,0.07640553852728807
418,3716.3,0.0913471034136774
419,3724.8700000000003,0.06355260272085361
420,3733.45,0.08118770923842326
421,3742.06,0.07132846738717322
422,3750.6800000000003,0.06407205274631662
423,3759.3300000000004,0.08649829973664033
424,3768.0000000000005,0.07782324114775092
425,3776.68,0.08504445976925495
426,3785.3900000000003,0.0950282700219393
427,3794.1200000000003,0.0788023146954105
428,3801.8939600000003,0.06933311719896733
429,3802.86,0.0681598569031073
430,3811.6299999999997,0.08489381270667848
431,3820.42,0.07592666415632393
432,3829.22,0.06483718842900651
433,3838.05,0.05760386117080052
434,3846.8999999999996,0.07743539955866881
435,3855.77,0.08221467359261136
436,3864.65,0.07597546044959108
437,3873.56,0.0753135257756822
438,3882.4900000000002,0.07477470674784759
439,3884.16,0.07256218819504986
440,3885.9300000000003,0.0961196978726235
441,3887.7099999999996,0.07366240037323432
442,3889.48,0.07264462005080796
443,3891.26,0.07802981255141878
444,3893.04,0.08430723505202956
445,3894.8100000000004,0.08486544472960321
446,3896.5899999999997,0.07896422723021401
447,3898.36,0.07886577690778768
448,3900.1400000000003,0.07149308940839846
449,3901.9199999999996,0.07383865190900926
450,3903.69,0.08086691158658292
451,3905.47,0.09772615408719372
452,3907.2400000000002,0.08824960376476738
453,3909.0200000000004,0.09141257626537816
454,3910.7999999999997,0.08592412876598898
455,3912.57,0.09928306844356263
456,3914.35,0.09187557094417342
457,3916.1200000000003,0.08947481062174707
458,3917.9,0.09238853312235787
459,3919.68,0.07416097562296867
460,3921.4500000000003,0.07834819530054232
461,3923.2299999999996,0.07701648780115314
462,3925.0,0.06669052747872678
463,3926.78,0.06609859997933758
464,3928.56,0.061987552479948374
465,3930.3300000000004,0.05480007215752203
466,3932.1099999999997,0.05593156465813283
467,3933.88,0.05769064433570649
468,3935.6600000000003,0.04939713683631728
469,3937.44,0.06918158933692808
470,3939.21,0.06343073901450173
471,3940.99,0.06797948151511253
472,3942.76,0.07627546119268619
473,3944.5400000000004,0.08567832369329698
474,3946.3199999999997,0.08691422619390778
475,3948.09,0.08652662587148144
476,3949.87,0.08094136837209223
477,3951.6400000000003,0.08028275804966589
478,3953.42,0.08779605055027667
479,3955.2,0.08969664305088748
480,3956.9700000000003,0.08111530272846114
481,3958.7499999999995,0.07216130522907194
482,3960.52,0.0657428749066456
483,3962.3,0.06669228740725638
484,3964.08,0.06744850990786719
485,3965.8500000000004,0.049699179585440845
486,3967.6299999999997,0.04897772208605164
487,3969.4,0.0516398617636253
488,3971.1800000000003,0.06229150426423609
489,3972.96,0.06777583676484689
490,3974.73,0.08360592644242054
491,3976.5099999999998,0.08865342894303135
492,3978.28,0.091685478620605
493,3980.0600000000004,0.10112283112121578
494,3981.8399999999997,0.0914425236218266
495,3983.61,0.09575573329940025
496,3985.39,0.10834498580001105
497,3987.1600000000003,0.1097103854775847
498,3988.94,0.11004833797819549
499,3990.72,0.10096572047880631
500,3992.4900000000002,0.10806101015637995
501,3994.27,0.10663269265699074
502,3996.04,0.11135641233456439
503,3997.82,0.1103676348351752
504,3999.6,0.10626446733578601
505,4001.3700000000003,0.11511572701335965
506,4003.1499999999996,0.12089985951397046
507,4004.92,0.1144551291915441
508,4006.7000000000003,0.1136754016921549
509,4008.48,0.12072726419276571
510,4010.25,0.11963229387033936
511,4012.0299999999997,0.11344117637095015
512,4013.8,0.11957159604852381
513,4015.5800000000004,0.1215985185491346
514,4017.3599999999997,0.1227646010497454
515,4019.13,0.13445167072731906
516,4020.91,0.12702225322792987
517,4022.6800000000003,0.1257231229055035
518,4024.46,0.1276803054061143
519,4026.24,0.11955943790672512
520,4028.01,0.11237184758429876
521,4029.79,0.11387880008490957
522,4031.56,0.10283165976248322
523,4033.34,0.10962132226309401
524,4035.12,0.12282699476370482
525,4036.8900000000003,0.11918802444127846
526,4038.6699999999996,0.11972741694188926
527,4040.44,0.12637249661946293
528,4042.2200000000003,0.12187791912007373
529,4044.0,0.10791999162068452
530,4045.77,0.11282823129825817
531,4047.5499999999997,0.11258723379886897
532,4049.32,0.11958649347644262
533,4051.1000000000004,0.11867273597705341
534,4052.8799999999997,0.12056297847766421
535,4054.65,0.11703655815523788
536,4056.43,0.11006821065584867
537,4058.2000000000003,0.11257807033342232
538,4059.9800000000005,0.11465011283403312
539,4061.7599999999998,0.11570364533464392
540,4063.53,0.11768285501221758
541,4065.31,0.11192059751282837
542,4067.08,0.11802198719040202
543,4068.86,0.12224353969101281
544,4070.64,0.11887471219162363
545,4072.4100000000003,0.11181084186919726
546,4074.1899999999996,0.11301986436980808
547,4075.96,0.11755018404738173
548,4077.7400000000002,0.12212331654799254
549,4079.52,0.11518441904860333
550,4081.2900000000004,0.11909338872617697
551,4083.0699999999997,0.12144684122678778
552,4084.84,0.12779433090436143
553,4086.6200000000003,0.12556511340497223
554,4088.3999999999996,0.12492469590558303
555,4090.17,0.12849016558315668
556,4091.95,0.12060562808376749
557,4093.7200000000003,0.11970313776134114
558,4095.5000000000005,0.12275926026195194
559,4097.28,0.10655220276256273
560,4099.05,0.10858455244013639
561,4100.83,0.09863084494074718
562,4102.6,0.10454148461832084
563,4104.38,0.11687074711893164
564,4106.15,0.11991400679650531
565,4107.93,0.11967563929711608
566,4109.71,0.11649489179772689
567,4111.4800000000005,0.12398419147530054
568,4113.26,0.12797527397591135
569,4115.03,0.112570533653485
570,4116.81,0.12006465615409578
571,4118.59,0.11925812865470659
572,4120.360000000001,0.12200659833228024
573,4122.14,0.11996443083289104
574,4123.91,0.1118767105104647
575,4125.6900000000005,0.1202955630110755
