,lambda (Angstroms),Total Flux (erg/s/cm^2/Angstrom)
0,101.98,0.002290998232102407
1,104.11,0.002729732025388008
2,104.712855,0.002853907077481134
3,106.05,0.002624099689196201
4,108.02000000000001,0.0022855271672169116
5,110.03,0.0019400800763104916
6,113.9,0.0012749655281955787
7,117.9,0.000587508631078967
8,120.22644299999999,0.00018767631149193203
9,120.92,0.00018216084924134563
10,124.88000000000001,0.00015066923258202165
11,126.91,0.0001345258032228781
12,128.09,0.00012514193804343674
13,131.07,0.0001014437030659112
14,131.98,9.420699600120915e-05
15,134.12,7.718880162060835e-05
16,136.93,5.4842487271230426e-05
17,138.038426,4.6027812087823404e-05
18,140.12,4.544318643660651e-05
19,143.06,4.461754274885494e-05
20,147.06,4.3494358997686824e-05
21,150.84,4.243285950600195e-05
22,155.06,4.124784281695059e-05
23,158.489319,4.028493335763975e-05
24,159.04000000000002,4.0047335220182414e-05
25,162.0,3.877026233767776e-05
26,166.15,3.697987351868643e-05
27,170.02,3.531041861098608e-05
28,173.18,3.394732607798785e-05
29,176.80999999999997,3.2381741590679795e-05
30,180.10000000000002,3.096280070151074e-05
31,181.970086,3.0156358999892924e-05
32,182.18,3.018557314939095e-05
33,185.99999999999997,3.071748577638836e-05
34,191.20999999999998,3.144325914762043e-05
35,193.87,3.181437160099036e-05
36,197.93,3.238074187318657e-05
37,202.07,3.295879542611569e-05
38,204.88,3.335171265435987e-05
39,208.929613,3.391742623193244e-05
40,210.14000000000001,3.493916998147313e-05
41,216.03,3.991517818622248e-05
42,220.04,4.33035219560773e-05
43,223.1,4.588903744968223e-05
44,227.25,4.93974545827739e-05
45,229.88000000000002,5.1650883407865735e-05
46,234.16,5.533734253539156e-05
47,239.88329199999998,6.0237265037764426e-05
48,240.16,6.0048584972253124e-05
49,245.76000000000002,5.618907104008851e-05
50,252.06,5.187922647890336e-05
51,256.75,4.8608092794465525e-05
52,259.71999999999997,4.6623763058478265e-05
53,263.94,4.3754358234954215e-05
54,268.84999999999997,4.040290680710992e-05
55,273.85,3.699100045696293e-05
56,275.42287,3.5919132049597175e-05
57,278.94,3.857421514318496e-05
58,284.12,4.248945132896623e-05
59,290.07,4.696180187074201e-05
60,296.15,5.158597514015322e-05
61,300.96000000000004,5.522707916266444e-05
62,307.97,6.0573538845159936e-05
63,316.227766,6.689196654117177e-05
64,318.06,6.593958566615927e-05
65,327.72,6.0926083941964605e-05
66,337.68,5.5760079934409896e-05
67,347.94,5.04492076434951e-05
68,356.87000000000006,4.585980840880996e-05
69,363.078055,4.269137546427483e-05
70,366.02000000000004,4.40354894970989e-05
71,375.40999999999997,4.829427120828601e-05
72,385.03999999999996,5.260974122519038e-05
73,394.92,5.725245747721691e-05
74,405.05,6.194382396436554e-05
75,413.53000000000003,6.587719809970813e-05
76,416.86938299999997,6.739691268980366e-05
77,422.19,6.891587629982002e-05
78,430.04,7.120985662188076e-05
79,441.07,7.449166490752787e-05
80,451.34000000000003,7.74775881326952e-05
81,459.73,7.995444752404419e-05
82,470.44,8.310167873159453e-05
83,478.630092,8.557439394159696e-05
84,480.29,8.509962716151782e-05
85,490.35,8.207446944503811e-05
86,499.46999999999997,7.955742156290146e-05
87,506.42,7.759133725579071e-05
88,512.28,7.750627745871608e-05
89,519.41,7.565233514077371e-05
90,530.28,7.26557163755516e-05
91,540.14,6.962888755999594e-05
92,549.5408739999999,6.814681090985383e-05
93,550.18,6.818984342906039e-05
94,560.41,6.883614260760781e-05
95,569.52,6.944968030228691e-05
96,580.11,6.860897745779201e-05
97,589.53,7.014068118818465e-05
98,600.49,6.996377070889626e-05
99,610.25,7.062518363974894e-05
100,620.16,7.367840239433398e-05
101,630.24,7.486188574914904e-05
102,630.957344,7.488339791263926e-05
103,640.4799999999999,7.759624835419814e-05
104,649.39,8.272260426570594e-05
105,658.43,8.655200359679801e-05
106,664.52,9.004447763732355e-05
107,675.3199999999999,9.346196480278754e-05
108,684.71,9.569155103276041e-05
109,694.24,0.00010763523402228557
110,705.52,0.00010892695150621463
111,715.33,0.00012085393801484443
112,724.43596,0.00012598713081286812
113,725.28,0.0001264096938729988
114,735.37,0.00013135335208757306
115,745.6,0.0001421053866301989
116,754.24,0.00014998394858995324
117,764.73,0.00015734978059896057
118,775.37,0.0001694774415308803
119,784.34,0.00018066337912104195
120,795.26,0.00018956807270906483
121,804.46,0.0001988943599810255
122,815.66,0.00020766866622515154
123,825.1,0.00022520533577377204
124,831.763771,0.00021075055452233235
125,834.65,0.00020372567977618633
126,844.3199999999999,0.0002398198823625835
127,854.1,0.0002474719188977401
128,865.9799999999999,0.00026294668536375854
129,876.01,0.000280458944509732
130,884.11,0.00030298161710019914
131,894.35,0.00031976115923925877
132,904.7099999999999,0.0003246036202315106
133,915.1800000000001,0.0004810725151725218
134,925.78,0.0030987642138711577
135,934.34,0.007014914492065528
136,945.1600000000001,0.013944322558661683
137,953.9100000000001,0.020271394350040276
138,954.992586,0.02060202005004178
139,964.9499999999999,0.023644572180302966
140,973.88,0.003935312985934765
141,985.1600000000001,0.021518162371995986
142,994.28,0.02305308072668378
143,1005.79,0.033842380514233834
144,1015.1,0.032845433417977625
145,1024.49,0.013876754026587102
146,1033.97,0.023751262053170467
147,1045.94,0.04659015864369819
148,1055.6200000000001,0.04669719093244577
149,1065.3899999999999,0.03770335063916723
150,1075.24,0.04563465805075438
151,1085.19,0.03676160259342363
152,1095.23,0.049346744554066777
153,1096.4782,0.049208484750347975
154,1105.37,0.04822302033229342
155,1115.6000000000001,0.047125761760783945
156,1125.92,0.04318005510800021
157,1133.72,0.055359454730896214
158,1144.21,0.05095809281348328
159,1154.8,0.054976891916876706
160,1165.49,0.057697112041076484
161,1176.27,0.04095003408400199
162,1184.42,0.05729901227972026
163,1195.38,0.039742158160097206
164,1203.67,0.028931953784944373
165,1214.81,0.018519103502772773
166,1226.05,0.040014604241407535
167,1234.55,0.062242591009948056
168,1245.97,0.06967613558603425
169,1254.6,0.06746413068162305
170,1258.92541,0.06412103862243525
171,1266.21,0.058491508820207115
172,1274.99,0.07674430489667791
173,1283.83,0.08129251135635922
174,1295.7099999999998,0.0653238472320395
175,1304.69,0.06517373458587866
176,1313.7299999999998,0.08241861232292831
177,1325.89,0.07962599998692431
178,1335.08,0.07146079868200024
179,1344.33,0.08570944776028666
180,1353.65,0.08395222728565202
181,1366.1799999999998,0.07586245731277948
182,1375.6499999999999,0.08054331779617109
183,1385.18,0.08241885866277322
184,1394.78,0.07295372997645427
185,1404.4499999999998,0.07674564173721425
186,1414.1899999999998,0.07871017394505314
187,1423.99,0.08147430653610255
188,1433.8600000000001,0.08166916957423088
189,1440.48,0.08670262185512344
190,1445.43977,0.08805451529347236
191,1447.13,0.08851522259271674
192,1453.8100000000002,0.08670307840026052
193,1463.8799999999999,0.08091907237959677
194,1474.03,0.08129426678776584
195,1484.25,0.0833765215711637
196,1494.54,0.0855153667297903
197,1504.9,0.08185605226364563
198,1511.8400000000001,0.07329524946489621
199,1515.33,0.07889107817272974
200,1525.83,0.07692001445704258
201,1536.41,0.06777528117018829
202,1543.4999999999998,0.07551725917550049
203,1554.2,0.07178825653189551
204,1564.97,0.07329495426351924
205,1575.82,0.07871104242397586
206,1586.74,0.08318372095966123
207,1594.07,0.085711130251472
208,1605.12,0.08453725948401078
209,1616.24,0.08531567909177828
210,1623.6999999999998,0.08129486908044248
211,1634.96,0.08709954943866749
212,1646.29,0.08892637017212125
213,1653.89,0.08261399091124294
214,1659.58691,0.0867765107099098
215,1665.36,0.0909948874428409
216,1673.0400000000002,0.08167016808470522
217,1676.9,0.0920512191885589
218,1684.64,0.09660731217918775
219,1696.3200000000002,0.0912046294053564
220,1704.15,0.0881154159191321
221,1715.96,0.08434553823429064
222,1723.88,0.08453972827121321
223,1735.83,0.09058150606682239
224,1743.8400000000001,0.08892956962689182
225,1755.93,0.09550597290295164
226,1764.03,0.08770858998616789
227,1776.26,0.09079214874267838
228,1784.46,0.09290962974050225
229,1796.8300000000002,0.0995483539774634
230,1805.1200000000001,0.0993208684984341
231,1813.46,0.09248055497670862
232,1826.03,0.09485562704288499
233,1834.45,0.09163513665284559
234,1842.92,0.08473926822010999
235,1855.7,0.08571853850696233
236,1864.26,0.08873259359737358
237,1872.8700000000001,0.09617684064508865
238,1885.8500000000001,0.0893450387611562
239,1894.5500000000002,0.08631779933201811
240,1903.3,0.09163717186018383
241,1905.46072,0.09119482322302903
242,1916.4900000000002,0.0889358899094288
243,1925.3400000000001,0.08771232334083945
244,1934.22,0.09017082525845828
245,1943.1499999999999,0.09507266465309074
246,1956.6200000000001,0.08976008496055982
247,1965.6499999999999,0.09841159930921951
248,1974.73,0.10140372113489281
249,1983.8400000000001,0.0963895414467743
250,1993.0,0.09420148923566939
251,2006.81,0.09706269238683109
252,2016.0800000000002,0.09441533462515615
253,2025.3799999999999,0.0988595753496894
254,2034.7299999999998,0.09463081355123623
255,2044.1200000000001,0.09863660973439398
256,2053.56,0.09485128339456533
257,2063.04,0.0957253250363476
258,2072.56,0.10257198465974075
259,2077.34,0.09863481346224277
260,2086.93,0.10233495955345501
261,2096.56,0.09727970362627814
262,2106.2400000000002,0.09840363517611488
263,2115.96,0.0997714547075625
264,2125.7200000000003,0.10139620222062103
265,2135.54,0.0948470067060959
266,2145.39,0.09795072967777894
267,2155.3,0.10162290962187834
268,2165.24,0.09863073805218589
269,2175.24,0.0981712534549098
270,2185.28,0.09749739683924459
271,2187.7616199999998,0.09868596513789056
272,2195.37,0.1023306777113539
273,2205.5,0.09976894525303852
274,2215.68,0.09528370480628132
275,2225.9100000000003,0.09290160637108227
276,2236.1800000000003,0.09976961954512976
277,2246.5,0.09572261473073543
278,2256.87,0.09225721192789925
279,2267.29,0.09441024113662125
280,2272.52,0.09727829154560551
281,2283.01,0.10022980357050894
282,2293.54,0.0950439172046589
283,2304.13,0.09589060325267866
284,2314.77,0.0919676413122566
285,2325.45,0.07387979098108106
286,2336.18,0.08617084266146369
287,2346.97,0.08321302675571611
288,2352.38,0.09059454440630979
289,2363.23,0.08336689091443202
290,2374.14,0.08646413983642405
291,2385.1,0.08011066076997425
292,2396.11,0.0856111437150826
293,2407.17,0.08248657867174915
294,2412.72,0.08458373195470567
295,2423.86,0.09038898012986527
296,2435.04,0.0870914899142714
297,2446.28,0.09221696211254733
298,2457.58,0.09112609672469307
299,2463.24,0.09069634443307757
300,2474.6099999999997,0.08758625186140473
301,2486.0299999999997,0.08959381130129007
302,2497.51,0.0851358231550452
303,2503.2700000000004,0.09462817488654604
304,2511.88643,0.08707591850599021
305,2514.8199999999997,0.08450449585834009
306,2520.62,0.08625402554932744
307,2526.4300000000003,0.08312202508460959
308,2532.25,0.08445559446418655
309,2543.94,0.08365010244481447
310,2555.6800000000003,0.09001072964691642
311,2567.4799999999996,0.08772543591478722
312,2573.4,0.09311354373731223
313,2585.2799999999997,0.09222463875954148
314,2597.2099999999996,0.09113435300324475
315,2603.2,0.08802308973583339
316,2615.21,0.08698205273389512
317,2627.28,0.09125240479772567
318,2633.34,0.09487671044037796
319,2645.49,0.10327173125856695
320,2657.7099999999996,0.1061185409868196
321,2663.83,0.09632087569524071
322,2676.13,0.10082035417785179
323,2682.3,0.10150025810774695
324,2694.68,0.09644485534471649
325,2707.12,0.09956234164745485
326,2713.36,0.09441016448741364
327,2725.88,0.09393765954451044
328,2732.1600000000003,0.09902771176164846
329,2744.78,0.08621580526169333
330,2757.4500000000003,0.08859024798321223
331,2763.8,0.09253449911041389
332,2776.56,0.09685319043058603
333,2782.96,0.09099958077926172
334,2795.7999999999997,0.07393850085379232
335,2802.25,0.07920845042394203
336,2815.18,0.09628370909712587
337,2828.1800000000003,0.10171328668037335
338,2834.7,0.09846364516058671
339,2847.7799999999997,0.09551951149819266
340,2854.35,0.09141504919988004
341,2867.52,0.10158097413613922
342,2874.1299999999997,0.10249767121500582
343,2884.0315,0.10211376862979259
344,2887.4,0.10198321597012111
345,2894.06,0.10219161384788421
346,2907.4100000000003,0.11123280959385079
347,2927.5699999999997,0.10713550316978235
348,2947.86,0.10559419670428885
349,2968.29,0.10773299019418377
350,2988.8700000000003,0.10840668363628056
351,3009.5899999999997,0.11009337703376577
352,3030.4500000000003,0.1105238703866394
353,3051.45,0.11095506369490143
354,3072.61,0.11190625695217879
355,3086.79,0.11288525243366239
356,3108.18,0.11358704561764929
357,3129.73,0.11221183875065154
358,3151.4199999999996,0.11290663183904218
359,3173.2700000000004,0.11386442487644814
360,3187.92,0.10844092020816427
361,3210.0099999999998,0.11268391316909324
362,3232.27,0.107537906075851
363,3247.1800000000003,0.11543410132471706
364,3269.69,0.12022539415181126
365,3292.3599999999997,0.11957888692792079
366,3307.55,0.11924648208756367
367,3311.31121,0.11929936443763035
368,3322.82,0.11946111078392793
369,3330.48,0.1222112641234931
370,3338.16,0.11668351734122946
371,3345.8500000000004,0.12075307049805142
372,3353.57,0.11555102347213016
373,3361.2999999999997,0.11766917638529449
374,3369.05,0.11682862917662999
375,3376.81,0.11001698190705111
376,3384.6,0.11306493445472901
377,3392.3999999999996,0.1219603869414925
378,3400.22,0.12737623930642716
379,3408.06,0.11830089154953305
380,3415.91,0.12018994373172451
381,3423.79,0.12727919573117277
382,3431.68,0.1263698476697066
383,3439.59,0.1254666994864116
384,3447.52,0.11308595118128782
385,3455.47,0.11920310275433524
386,3463.4300000000003,0.11250935426646823
387,3471.42,0.12080000559585802
388,3479.4199999999996,0.11167585686433339
389,3487.44,0.11798810801097995
390,3495.4800000000005,0.1171404590357977
391,3503.54,0.12291110993878664
392,3511.62,0.12063296071994678
393,3519.7099999999996,0.12116091144019249
394,3527.8199999999997,0.11461296203860939
395,3535.96,0.1222091124542831
396,3544.1099999999997,0.12705606280904239
397,3552.2799999999997,0.12848671304197287
398,3560.47,0.12640296315307453
399,3568.6800000000003,0.11766071314234738
400,3576.9,0.11416116307070583
401,3585.1499999999996,0.10874501281632105
402,3593.4100000000003,0.11436276250102188
403,3601.7,0.1268057120029795
404,3609.33,0.049712485525287876
405,3612.07,0.0849824788347407
406,3614.8,0.0893642822051079
407,3617.5299999999997,0.12186211557547515
408,3620.27,0.10549489888492794
409,3623.0,0.1272018822552952
410,3625.7400000000002,0.128243065564748
411,3628.47,0.1283127489351152
412,3631.2100000000005,0.10802923224456802
413,3633.94,0.11672321561493523
414,3636.67,0.14381869898530247
415,3639.4100000000003,0.13852008229475526
416,3642.14,0.1399160656651225
417,3644.8799999999997,0.13702004897457531
418,3647.61,0.12513233234494256
419,3650.35,0.11418831565439536
420,3653.0800000000004,0.14426269902476258
421,3655.81,0.1552274823951298
422,3658.5499999999997,0.1380268657045826
423,3661.28,0.13844384907494983
424,3664.02,0.12867333238440265
425,3666.7499999999995,0.09395395575476988
426,3669.48,0.1336803991251371
427,3672.22,0.14483888243458992
428,3674.9500000000003,0.12188256580495713
429,3677.69,0.13687404911440995
430,3680.4199999999996,0.1261668324847772
431,3683.16,0.13217291579423
432,3685.89,0.14606099916459722
433,3688.6200000000003,0.12877788253496442
434,3691.36,0.13453396584441726
435,3694.0899999999997,0.12381974921478446
436,3696.83,0.13079803252423727
437,3699.56,0.10718201589460451
438,3702.3,0.1323393992040573
439,3705.03,0.12743038257442454
440,3707.7599999999998,0.13667296594479178
441,3710.5,0.13271454925424458
442,3713.23,0.1278610326246118
443,3715.9700000000003,0.12451361593406461
444,3718.7,0.13001349930443185
445,3721.4399999999996,0.18049528261388464
446,3724.17,0.26816966598425185
447,3726.9,0.34269264935461907
448,3729.6400000000003,0.3176726326640719
449,3732.37,0.2816343160344391
450,3735.1099999999997,0.15914969934389195
451,3737.84,0.13448528271425916
452,3740.58,0.143136966023712
453,3743.3100000000004,0.14879654939407921
454,3746.04,0.12986073276444643
455,3748.7799999999997,0.12925621607389923
456,3751.51,0.14290129944426647
457,3754.25,0.1383386827537193
458,3756.9799999999996,0.1343462661240865
459,3759.72,0.1585314494335393
460,3762.45,0.15262253280390653
461,3765.1800000000003,0.1371726161742738
462,3767.92,0.14753939948372657
463,3770.6499999999996,0.1585875828540938
464,3773.39,0.15658716616354662
465,3776.12,0.16980184953391383
466,3778.86,0.18186973284336666
467,3781.59,0.18502271621373387
468,3784.3199999999997,0.1876478995841011
469,3787.06,0.1876125828935539
470,3789.79,0.17700966626392114
471,3792.53,0.16203104957337394
472,3795.2599999999998,0.14333143294374118
473,3798.0000000000005,0.13971321625319397
474,3800.73,0.16024669962356122
475,3801.8939600000003,0.1579020166256751
476,3803.46,0.15474738498158425
477,3806.2000000000003,0.17166237176871135
478,3808.93,0.2115694586040606
479,3811.6699999999996,0.20290284539118766
480,3814.4,0.1988549322265369
481,3817.13,0.17578761906188614
482,3819.8700000000003,0.1738427058490132
483,3822.6,0.17812759268436246
484,3825.3399999999997,0.17437727947148954
485,3828.07,0.1611494663068388
486,3830.81,0.14081025309396586
487,3833.5399999999995,0.1381024399293151
488,3836.27,0.12683962676466434
489,3839.0099999999998,0.1447893135517914
490,3841.7400000000002,0.17219730038714065
491,3844.48,0.18754978717426773
492,3847.2099999999996,0.18002297400961698
493,3849.95,0.19183396079674403
494,3852.68,0.18921654763209328
495,3855.4100000000003,0.1828910344674425
496,3858.15,0.19095932125456958
497,3860.8799999999997,0.18606420808991883
498,3863.62,0.19979179487704593
499,3866.35,0.20678478171239514
500,3869.09,0.22199816849952222
501,3871.82,0.19461875533487147
502,3874.5499999999997,0.1729541421702207
503,3877.29,0.17180782895734778
504,3880.02,0.16123261579269701
505,3882.76,0.1837235025798241
506,3885.49,0.17203028941517332
507,3888.2299999999996,0.16533587620230042
508,3890.96,0.18734146303764965
509,3893.69,0.1864322498729989
510,3896.4300000000003,0.18508453666012598
511,3899.16,0.1880916234954752
512,3901.8999999999996,0.20222191028260228
513,3904.63,0.1936743971179515
514,3907.37,0.2060339839050786
515,3910.1000000000004,0.21091597074042784
516,3912.83,0.19885475757577709
517,3915.5699999999997,0.19159084436290416
518,3918.3,0.2052013311982534
519,3921.04,0.19934011798538046
520,3923.77,0.2023125048207297
521,3926.5099999999998,0.1818065916078568
522,3929.24,0.148996878443206
523,3931.9700000000003,0.14537246527855524
524,3934.71,0.13300495206568236
525,3937.44,0.1553091389010316
526,3940.18,0.18152192568815864
527,3942.91,0.18398041252350789
528,3945.65,0.17734149931063495
529,3948.38,0.1992568861459842
530,3951.1099999999997,0.19950727298133344
531,3953.85,0.18501475976846055
532,3956.58,0.1870427466038098
533,3959.32,0.18650753339093684
534,3962.0499999999997,0.16823842022628607
535,3964.7799999999997,0.14303920706163534
536,3967.52,0.14195559384876238
537,3970.25,0.15109408068411165
538,3972.9900000000002,0.14965626747123872
539,3975.72,0.18063345430658798
540,3978.4599999999996,0.20802664109371505
541,3981.19,0.19254212792906428
542,3983.92,0.20820801476441353
543,3986.6600000000003,0.2089365015515406
544,3989.39,0.22275538838688982
545,3992.1299999999997,0.23099017517401688
546,3994.86,0.21269346200936612
547,3997.6,0.22236564879649323
548,4000.3300000000004,0.23057383563184247
549,4003.06,0.22333872246719172
550,4005.7999999999997,0.23180970925431876
551,4008.53,0.239851196089668
552,4011.27,0.2376075828767951
553,4014.0,0.24684356971214433
554,4016.74,0.25079395649927144
555,4019.47,0.24866264333462065
556,4022.2000000000003,0.2556002301699699
557,4024.94,0.23514961695709696
558,4027.67,0.2306018037924462
559,4030.41,0.23627429057957328
560,4033.14,0.21765117741492251
561,4035.88,0.2333090642020496
562,4038.61,0.24536415103739884
563,4041.34,0.25054483787274806
564,4044.08,0.24141982465987516
