,lambda (Angstroms),Total Flux (erg/s/cm^2/Angstrom)
0,101.98,14.275261629351508
1,104.11,14.229659369752053
2,104.712855,14.21675325642757
3,106.05,14.0663644290686
4,108.02000000000001,13.844800731017209
5,110.03,13.618748426934829
6,113.9,13.183500385241288
7,117.9,12.733632487352022
8,120.22644299999999,12.472224645513498
9,120.92,12.406900292553098
10,124.88000000000001,12.033573097806574
11,126.91,11.842182906073637
12,128.09,11.730940466005228
13,131.07,11.449980632788401
14,131.98,11.364284027532255
15,134.12,11.162521965998023
16,136.93,10.8977396951741
17,138.038426,10.793240989367835
18,140.12,10.652981395421806
19,143.06,10.456677957074412
20,147.06,10.191088767431697
21,150.84,9.936634804699334
22,155.06,9.652628420146272
23,158.489319,9.421893439567123
24,159.04000000000002,9.393897850804706
25,162.0,9.24338993907106
26,166.15,9.03250447310665
27,170.02,8.835728247549477
28,173.18,8.675082300239229
29,176.80999999999997,8.490525349173978
30,180.10000000000002,8.323188766888938
31,181.970086,8.228117360357846
32,182.18,8.219981883857177
33,185.99999999999997,8.071910747179475
34,191.20999999999998,7.869902144825852
35,193.87,7.766937212165462
36,197.93,7.609474788104865
37,202.07,7.449035868249973
38,204.88,7.3401339297252735
39,208.929613,7.182630706101058
40,210.14000000000001,7.1472328882788885
41,216.03,6.9763096371387165
42,220.04,6.859623385343794
43,223.1,6.770329135345674
44,227.25,6.649608993812277
45,229.88000000000002,6.580610635153761
46,234.16,6.470806276006064
47,239.88329199999998,6.31252907023348
48,240.16,6.306731910378834
49,245.76000000000002,6.177056930340237
50,252.06,6.037607416546818
51,256.75,5.9235560573894945
52,259.71999999999997,5.862952465172598
53,263.94,5.770035847679227
54,268.84999999999997,5.6587959939132455
55,273.85,5.545438782807356
56,275.42287,5.509785775738507
57,278.94,5.448482405769501
58,284.12,5.3585339953694495
59,290.07,5.253082507342364
60,296.15,5.147791392702922
61,300.96000000000004,5.06331800804573
62,307.97,4.941964293025584
63,316.227766,4.7991500884306335
64,318.06,4.775478208689226
65,327.72,4.649666634191483
66,337.68,4.519566623653439
67,347.94,4.385658767075093
68,356.87000000000006,4.269541180608752
69,363.078055,4.189172498310953
70,366.02000000000004,4.160623851514892
71,375.40999999999997,4.068643095894423
72,385.03999999999996,3.9731205035807786
73,394.92,3.8779630797117437
74,405.05,3.779509214287319
75,413.53000000000003,3.6964537111284708
76,416.86938299999997,3.663692061544771
77,422.19,3.6236509019436647
78,430.04,3.564766008846129
79,441.07,3.4826850502008018
80,451.34000000000003,3.405798729422241
81,459.74,3.342643914579018
82,470.44,3.262779436981103
83,478.630092,3.2018903114740525
84,480.29,3.192379726945363
85,490.35,3.133962744478501
86,499.46999999999997,3.082017015502579
87,506.42,3.0416354850110583
88,512.28,3.009327141546266
89,519.41,2.968172520811801
90,530.28,2.9054107872516823
91,540.14,2.847979856165872
92,549.5408739999999,2.7938168879122673
93,550.18,2.7909952698099976
94,560.41,2.7469392273883466
95,569.52,2.7074317627587052
96,580.11,2.6607917828324807
97,589.53,2.619574264796123
98,600.49,2.570879398545752
99,610.25,2.5262806106439633
100,620.1700000000001,2.485327571629029
101,630.24,2.4409434803205237
102,630.957344,2.4378335397007276
103,640.4799999999999,2.405099086067316
104,649.39,2.3738782396225875
105,658.43,2.342170745205041
106,664.52,2.3214533217091495
107,675.3199999999999,2.284137309351903
108,684.71,2.2508645934690747
109,694.24,2.2183491590001347
110,705.52,2.1785056372047884
111,715.33,2.1453009255636233
112,724.43596,2.113742523331826
113,725.28,2.1115643066302527
114,735.37,2.0855919291868465
115,745.6,2.059053120817566
116,754.24,2.0367135665350067
117,764.73,2.008681145874816
118,775.37,1.982295777508331
119,784.35,1.9587604166915038
120,795.26,1.9309962852536888
121,804.47,1.90738065648721
122,815.66,1.8786521751976457
123,825.1,1.8544109604815158
124,831.763771,1.8366846088181596
125,834.66,1.8308446494155763
126,844.3199999999999,1.8129852715982309
127,854.1,1.794083387261415
128,865.9799999999999,1.7713469118338718
129,876.01,1.7520969007481602
130,884.11,1.7364689956839263
131,894.35,1.7168052366891418
132,904.7099999999999,1.6968233191748874
133,915.1800000000001,1.677542938851118
134,925.78,1.6643877982979234
135,934.35,1.6561098888657646
136,945.1700000000001,1.6448210646935413
137,953.9100000000001,1.6353163521921332
138,954.992586,1.633515757976599
139,964.96,1.617347847222181
140,973.89,1.5745420013243934
141,985.1600000000001,1.5722313960088206
142,994.28,1.5556402395600164
143,1005.79,1.545154883022107
144,1015.1,1.527155386022286
145,1024.49,1.4892699319483527
146,1033.97,1.4818975886660428
147,1045.94,1.4799032339519875
148,1055.6200000000001,1.460068557984397
149,1065.3899999999999,1.4318383728084303
150,1075.25,1.419477788424087
151,1085.2,1.3908918148313676
152,1095.24,1.3835092820302717
153,1096.4782,1.3809014932413153
154,1105.37,1.3651787736569503
155,1115.6000000000001,1.3474484828208428
156,1125.92,1.3266447625052395
157,1133.73,1.32398495434004
158,1144.22,1.3039827083409425
159,1154.8,1.2893932028623494
160,1165.49,1.2734161413532603
161,1176.27,1.2422760903646743
162,1184.43,1.242282567556988
163,1195.39,1.2138217876094088
164,1203.67,1.1933671454957269
165,1214.81,1.1690603765891552
166,1226.05,1.1664572949275869
167,1234.55,1.1655653707529137
168,1245.97,1.1512664301323523
169,1254.61,1.1358212501006844
170,1258.92541,1.1272989238736535
171,1266.22,1.1160898749433412
172,1274.99,1.1156550149233357
173,1283.83,1.1076098683581308
174,1295.7099999999998,1.0842963775442582
175,1304.69,1.074132527888654
176,1313.7299999999998,1.073028112622879
177,1325.89,1.0573741656282076
178,1335.08,1.042056496337005
179,1344.34,1.0389002205006024
180,1353.65,1.0270552699890574
181,1366.1799999999998,1.0084191483983316
182,1375.6499999999999,0.9994451829263302
183,1385.18,0.9890762518441578
184,1394.79,0.9713769732817574
185,1404.4499999999998,0.9613935500442148
186,1414.1899999999998,0.9537292093264437
187,1423.99,0.9434490229985015
188,1433.8600000000001,0.9327094701253595
189,1440.48,0.9271712611364844
190,1445.43977,0.9220747194793066
191,1447.13,0.920893274368888
192,1453.8100000000002,0.914332510259961
193,1463.8899999999999,0.9034914889698437
194,1474.03,0.8957018875529993
195,1484.25,0.8883907459671856
196,1494.54,0.8807578192335241
197,1504.9,0.8706720773520144
198,1511.8500000000001,0.8614756976728163
199,1515.33,0.8608195203226569
200,1525.84,0.85186908312433
201,1536.41,0.8392470357992761
202,1543.4999999999998,0.8350557258243823
203,1554.2,0.8255965032247532
204,1564.98,0.8184576504561555
205,1575.82,0.8120519275608308
206,1586.75,0.8049768994754155
207,1594.07,0.799810184014735
208,1605.12,0.7905610956758661
209,1616.25,0.7819531671680282
210,1623.7099999999998,0.7746428214116516
211,1634.96,0.7678978126503596
212,1646.3,0.7595151186989775
213,1653.89,0.7515768276680257
214,1659.58691,0.7483688121059817
215,1665.36,0.7464316151550716
216,1673.0500000000002,0.7388083301262517
217,1676.9,0.7405259878946578
218,1684.64,0.7373615656939995
219,1696.3200000000002,0.7290426363524372
220,1704.15,0.7236156492424686
221,1715.96,0.7155674872541253
222,1723.88,0.7110149752348466
223,1735.83,0.7064040211653545
224,1743.8400000000001,0.7013627242367658
225,1755.93,0.6965125780861249
226,1764.04,0.6897862368138585
227,1776.27,0.6835566385820687
228,1784.46,0.6796843718348601
229,1796.8300000000002,0.6747562215219212
230,1805.13,0.6700468209966671
231,1813.46,0.6630264021683098
232,1826.03,0.6568794631680155
233,1834.46,0.6512574599959805
234,1842.93,0.6444232190864743
235,1855.7,0.6376301813988243
236,1864.27,0.6337429161456404
237,1872.8700000000001,0.631023052589353
238,1885.8500000000001,0.6218329667799799
239,1894.5600000000002,0.616127879445647
240,1903.3,0.612917983808211
241,1905.46072,0.6115810983229514
242,1916.4999999999998,0.6063198225352667
243,1925.3400000000001,0.6021734691033729
244,1934.23,0.599347554814964
245,1943.1599999999999,0.597011817841343
246,1956.63,0.5899184210961385
247,1965.6599999999999,0.588613542409487
248,1974.73,0.5856455010376233
249,1983.8500000000001,0.5807220288092442
250,1993.0,0.576438082066956
251,2006.82,0.5717069593261451
252,2016.0800000000002,0.5672663626995234
253,2025.3899999999999,0.5644097452163865
254,2034.7299999999998,0.5595887832193406
255,2044.13,0.5568032521944761
256,2053.56,0.5514548566557027
257,2063.04,0.547983630260414
258,2072.56,0.5462021511799133
259,2077.34,0.5450788552970565
260,2086.93,0.5434132590174345
261,2096.56,0.5379007300526002
262,2106.2400000000002,0.5341906202312504
263,2115.96,0.5313011277246886
264,2125.73,0.5270390043616117
265,2135.54,0.5216514283133225
266,2145.4,0.5195004814085179
267,2155.3,0.5161632418185013
268,2165.25,0.5108097813719694
269,2175.24,0.5066673982402254
270,2185.28,0.504149804251966
271,2187.7616199999998,0.5033114237748512
272,2195.37,0.5017003564639233
273,2205.5,0.49843857924226675
274,2215.68,0.49303735550915084
275,2225.9100000000003,0.4909931252645755
276,2236.1800000000003,0.4918802558108328
277,2246.5099999999998,0.4879494625433391
278,2256.88,0.4822298000666777
279,2267.29,0.47907585838084893
280,2272.52,0.4787005892822049
281,2283.01,0.47939284917804126
282,2293.55,0.4734557925624183
283,2304.13,0.4727486267376279
284,2314.77,0.46742603709908637
285,2325.45,0.4598845282513774
286,2336.19,0.45867374558991714
287,2346.97,0.4534295337192895
288,2352.38,0.4566625031793919
289,2363.2400000000002,0.4495124228904293
290,2374.15,0.44822589609000746
291,2385.11,0.4421187827781263
292,2396.12,0.4409219329547858
293,2407.18,0.4375703766199861
294,2412.72,0.4369258211502943
295,2423.86,0.43901566639715955
296,2435.05,0.43575786513256554
297,2446.29,0.43582912735651225
298,2457.58,0.4336601230689996
299,2463.25,0.42928099266951364
300,2474.62,0.42441404996366616
301,2486.04,0.41692643074635927
302,2497.51,0.4144266050175931
303,2503.2700000000004,0.41901547889748025
304,2511.88643,0.4108942391177406
305,2514.83,0.4083177302246978
306,2520.62,0.40651690714207084
307,2526.4300000000003,0.4052863440315245
308,2532.26,0.40802593089305916
309,2543.94,0.4059341445882089
310,2555.69,0.4147720231856413
311,2567.4799999999996,0.40615855172723525
312,2573.4,0.4105064634631329
313,2585.2799999999997,0.40559744687909016
314,2597.2099999999996,0.4013351352252492
315,2603.2,0.3977532318634296
316,2615.22,0.39391545508395187
317,2627.29,0.39641252323467596
318,2633.35,0.410754564775139
319,2645.5,0.419922062814186
320,2657.7099999999996,0.4405434307694754
321,2663.84,0.41036089721222085
322,2676.13,0.41373621505583313
323,2682.3,0.42179772144274014
324,2694.68,0.40187093416071573
325,2707.12,0.4105452367949335
326,2713.36,0.39423206808412303
327,2725.8900000000003,0.3820673155927041
328,2732.17,0.38950706682605524
329,2744.78,0.37270721422295927
330,2757.4500000000003,0.37739128153610546
331,2763.81,0.3851976126577795
332,2776.56,0.38492227985924865
333,2782.96,0.36842306092508414
334,2795.8100000000004,0.3533432379869569
335,2802.2599999999998,0.35457846398299436
336,2815.19,0.37242306093319016
337,2828.1800000000003,0.38511236779962804
338,2834.7,0.37934618869794806
339,2847.79,0.3613572854247897
340,2854.35,0.3476620962672711
341,2867.5299999999997,0.3709284378684762
342,2874.14,0.39182193364115925
343,2884.0315,0.3855016948478725
344,2887.4100000000003,0.38353800134446464
345,2894.06,0.40131572302681234
346,2907.42,0.4320181197600702
347,2927.5699999999997,0.4128750593689883
348,2947.8700000000003,0.4003425423993126
349,2968.2999999999997,0.4007283943948559
350,2988.8799999999997,0.3991644798118055
351,3009.5899999999997,0.3942484341939739
352,3030.46,0.40074457422564236
353,3051.4599999999996,0.40171265322252975
354,3072.61,0.41338621564082323
355,3086.79,0.40692345507776917
356,3108.19,0.4295563231984067
357,3129.74,0.4128945747404506
358,3151.4300000000003,0.412249197475807
359,3173.28,0.42435081586066353
360,3187.92,0.39963901778992217
361,3210.02,0.40956564187712263
362,3232.27,0.38338634938572946
363,3247.1899999999996,0.43537439370161324
364,3269.7,0.46363141914065764
365,3292.3599999999997,0.45717532800110844
366,3307.56,0.43845251470361735
367,3311.31121,0.43572218220756975
368,3322.83,0.42780445509666576
369,3330.49,0.441020190287142
370,3338.16,0.41329614249483826
371,3345.86,0.44159614575419426
372,3353.57,0.4258551660307703
373,3361.2999999999997,0.4150153203417862
374,3369.05,0.4187859086872419
375,3376.8199999999997,0.3960554310671376
376,3384.6,0.4049501704642532
377,3392.3999999999996,0.4372566438958087
378,3400.23,0.453661068379024
379,3408.06,0.43136929286223924
380,3415.92,0.42068046839711437
381,3423.8,0.4594302779664294
382,3431.69,0.44947950455296437
383,3439.6,0.4394734651739392
384,3447.5299999999997,0.37980265982935396
385,3455.48,0.4252444885192086
386,3463.44,0.3886002342262831
387,3471.42,0.4335308139677975
388,3479.43,0.3816760447609719
389,3487.4500000000003,0.408634392571366
390,3495.49,0.3950933744162002
391,3503.55,0.44828419029547406
392,3511.62,0.43938502319196804
393,3519.7200000000003,0.4334982071401219
394,3527.83,0.3741898081054955
395,3535.96,0.42823794310530916
396,3544.1099999999997,0.44751581213956265
397,3552.29,0.45264763222547594
398,3560.47,0.43297205231138924
399,3568.6800000000003,0.38304452344896234
400,3576.91,0.3968023286209754
401,3585.1499999999996,0.34671055081020835
402,3593.42,0.4005515240511011
403,3601.7,0.46106271430921386
404,3610.01,0.40204015561898643
405,3618.3300000000004,0.44084551394597893
406,3626.67,0.44801280630741136
407,3630.14,0.4582618112827316
408,3632.89,0.44329169101821586
409,3635.64,0.42003057075370015
410,3638.38,0.4332805334719645
411,3641.13,0.42737691320744875
412,3643.88,0.4395605929429331
413,3646.62,0.43755625566119744
414,3649.37,0.4150654353966818
415,3652.12,0.428807415132166
416,3654.87,0.45828769486765036
417,3657.61,0.4854112575859147
418,3660.3599999999997,0.49074053732139905
419,3663.11,0.49543621705688334
420,3665.85,0.5003878797751476
421,3668.6000000000004,0.5020934595106319
422,3671.35,0.4668239392461163
423,3674.0899999999997,0.4935472019643807
424,3676.84,0.4582800816998649
425,3679.5899999999997,0.46856066143534925
426,3682.33,0.4548218241536136
427,3685.08,0.4333040038890979
428,3687.8300000000004,0.4532439836245822
429,3690.57,0.45784074634284655
430,3693.3199999999997,0.4764529260783309
431,3696.07,0.47684100581381517
432,3698.8199999999997,0.48427338554929944
433,3701.56,0.4818005482675638
434,3704.31,0.4587471280030481
435,3707.06,0.4488094077385324
436,3709.7999999999997,0.4499295704567968
437,3712.55,0.45822605019228113
438,3715.3,0.44777152992776537
439,3718.0400000000004,0.4628840926460297
440,3720.79,0.4423873723815141
441,3723.54,0.43894415211699833
442,3726.28,0.44233721483526267
443,3729.0299999999997,0.433884394570747
444,3731.78,0.4190207743062313
445,3734.5299999999997,0.40376955404171566
446,3737.27,0.4018512167599799
447,3740.02,0.3978176964954643
448,3742.7700000000004,0.4161537762309485
449,3745.51,0.3934395389492129
450,3748.2599999999998,0.3931283186846973
451,3751.01,0.4179740984201815
452,3753.75,0.4129163611384459
453,3756.5,0.43227114087393026
454,3759.25,0.4322816206094145
455,3761.9900000000002,0.43324468332767885
456,3764.74,0.43773776306316314
457,3767.49,0.4383083427986475
458,3770.23,0.44994940551691187
459,3772.98,0.45045158525239615
460,3775.73,0.47121506498788046
461,3778.48,0.4801932447233647
462,3781.2200000000003,0.4761999074416291
463,3783.97,0.4783110871771134
464,3786.7200000000003,0.48168916691259767
465,3789.46,0.45497152963086207
466,3792.2099999999996,0.4389827093663464
467,3794.96,0.4295290891018307
468,3797.7,0.4250516518200951
469,3800.4500000000003,0.4314047315555793
470,3801.8939600000003,0.43348454839152517
471,3803.2,0.4354029457455113
472,3805.94,0.4345055242988086
473,3808.69,0.4453587049636143
474,3811.44,0.4315920856284201
475,3814.18,0.42912366418171743
476,3816.93,0.4272868448465232
477,3819.68,0.4060476255113289
478,3822.43,0.3903477061761347
479,3825.17,0.386850384729432
480,3827.92,0.3737831653942378
481,3830.67,0.3602751460590435
482,3833.41,0.35400302461234084
483,3836.1600000000003,0.3559419052771466
484,3838.91,0.3660020859419523
485,3841.6499999999996,0.37903606449524974
486,3844.4,0.3977344451600554
487,3847.1499999999996,0.4050046258248612
488,3849.8900000000003,0.40253360437815855
489,3852.64,0.39804888504296426
490,3855.3900000000003,0.39659476570776997
491,3858.13,0.39452144426106733
492,3860.8799999999997,0.3901533249258731
493,3863.63,0.4014804055906788
494,3866.3799999999997,0.41709478625548463
495,3869.12,0.40682936480878196
496,3871.87,0.40736944547358767
497,3874.62,0.4047243261383934
498,3877.36,0.40835250469169077
499,3880.11,0.40574028535649653
500,3882.86,0.41231366602130226
501,3885.6000000000004,0.4154908445745996
502,3888.35,0.4193377252394053
503,3891.1,0.4388544059042111
504,3893.84,0.4595665844575084
505,3896.5899999999997,0.4633018651223142
506,3899.34,0.4768181457871199
507,3902.0899999999997,0.48217512645192573
508,3904.8300000000004,0.476714205005223
509,3907.58,0.48262868567002876
510,3910.3300000000004,0.4937629663348345
511,3913.07,0.5035819448881318
512,3915.8199999999997,0.49819492555293765
513,3918.57,0.47519710621774336
514,3921.31,0.4624637847710407
515,3924.06,0.43675966543584643
516,3926.81,0.4127205461006522
517,3929.55,0.3821936246539495
518,3932.3,0.35139390531875525
519,3935.0499999999997,0.34321478598356103
520,3937.79,0.3624290645368584
521,3940.54,0.3844392452016641
522,3943.29,0.40593252586646983
523,3946.04,0.42417720653127555
524,3948.78,0.4614080850845729
525,3951.5299999999997,0.4786999657493787
526,3954.28,0.4847664464141844
527,3957.02,0.48713552496748175
528,3959.7700000000004,0.4584109056322875
529,3962.52,0.4250036862970933
530,3965.2599999999998,0.39409936485039065
531,3968.01,0.3743779455151963
532,3970.7599999999998,0.37583282618000213
533,3973.5,0.4008398047332995
534,3976.25,0.4397361853981052
535,3978.9999999999995,0.48509396606291094
536,3981.74,0.5203791446162083
537,3984.49,0.538405725281014
538,3987.2400000000002,0.5526060059458198
539,3989.99,0.5659447866106255
540,3992.73,0.5762707651639228
541,3995.48,0.5810954458287285
542,3998.23,0.5861481264935343
543,4000.97,0.5906207050468317
544,4003.7200000000003,0.5954707857116375
545,4006.47,0.6052365663764432
546,4009.2100000000005,0.5958485449297405
547,4011.96,0.5991275255945463
548,4014.71,0.6093494062593521
549,4017.4500000000003,0.6208411848126494
550,4020.2,0.6307336654774551
551,4022.9500000000003,0.6252451461422608
552,4025.69,0.6207223246955582
553,4028.4399999999996,0.610444705360364
554,4031.19,0.5899298860251697
555,4033.9399999999996,0.5861138666899754
556,4036.6800000000003,0.6017358452432728
557,4039.43,0.6058763259080785
558,4042.1800000000003,0.6095860065728842
559,4044.92,0.5848422851261816
560,4047.67,0.6071510657909873
561,4050.42,0.600294346455793
562,4053.1600000000003,0.5865731250090904
563,4055.91,0.6014070056738963
564,4058.66,0.5917121863387019
565,4061.4,0.5776108648919993
566,4064.15,0.5841586455568051
567,4066.9,0.5870829262216108
568,4069.65,0.5821519068864165
569,4072.3900000000003,0.5806443854397139
570,4075.14,0.5844047661045196
571,4077.8900000000003,0.5919914467693254
572,4080.63,0.6027482253226227
573,4083.3799999999997,0.6131982059874285
574,4086.13,0.6326943866522342
575,4088.87,0.6320738652055315
576,4091.6200000000003,0.6335536458703372
577,4094.37,0.6121519265351429
578,4097.11,0.6089214050884404
579,4099.860000000001,0.5763450857532461
580,4102.61,0.5756711664180518
581,4105.349999999999,0.5791300449713492
582,4108.1,0.589453425636155
583,4110.849999999999,0.5999034063009607
584,4113.59,0.603109184854258
585,4116.34,0.6012694655190638
586,4119.09,0.6082480461838695
587,4121.84,0.5941948268486752
588,4124.58,0.5972737054019726
589,4127.33,0.5892512860667783
590,4130.08,0.5931637667315841
591,4132.82,0.5815204452848814
592,4135.57,0.5718003259496873
593,4138.32,0.583846806614493
