,lambda (Angstroms),Total Flux (erg/s/cm^2/Angstrom)
0,102.01,0.0022119244222574847
1,103.91,0.002540806619618965
2,104.712855,0.0026852801761599707
3,106.08,0.002513593735313729
4,108.06,0.002272509999688439
5,110.06,0.002151478416228551
6,113.93,0.0016882987602336664
7,117.94000000000001,0.00118146726939659
8,120.22644299999999,0.0015768279975699809
9,120.96000000000001,0.0018008981993211694
10,124.92,0.0019517665298646857
11,126.95,0.0020206796715321954
12,128.13,0.00206635471447193
13,131.10999999999999,0.0021638799076587178
14,132.02,0.0023433371780613938
15,133.86,0.002411013109425048
16,136.98,0.00267105603651994
17,138.038426,0.0027196388445848204
18,139.84,0.0028135087036774806
19,143.1,0.00423844632774778
20,147.11,0.006151409619932412
21,150.88,0.006542870418320458
22,155.11,0.006991166746485295
23,158.489319,0.007412809052664485
24,159.09,0.007487683665915249
25,162.05,0.007856731780986356
26,165.82,0.008376579248492463
27,170.07999999999998,0.008848993731669124
28,172.84,0.009242325636262453
29,176.87,0.00974197137738967
30,180.15,0.010105945829225223
31,181.82,0.010387473086714664
32,181.970086,0.01040558289044558
33,186.06,0.01090096997625045
34,190.82999999999998,0.011519845605666313
35,193.93,0.011951293708640983
36,197.99,0.012486009611246516
37,202.14,0.013011575620067444
38,204.95,0.013408471158570289
39,208.929613,0.0135964894517093
40,210.21,0.01365771115882428
41,216.1,0.014838817680986466
42,220.10999999999999,0.015398912189283642
43,223.17,0.015687058871425626
44,226.79999999999998,0.016276234249260724
45,229.95999999999998,0.02422311912362957
46,234.23,0.03944497093171659
47,239.88329199999998,0.0503502072762177
48,240.24,0.05103785566013626
49,245.84,0.04873783991402886
50,252.14000000000001,0.05091632094965804
51,256.83,0.04063510638729309
52,259.8,0.04907213801837542
53,264.02,0.05149768747398735
54,268.93,0.05114161932873962
55,273.93,0.050670480626858014
56,275.42287,0.05039804798775732
57,279.03000000000003,0.04974397534758682
58,284.21,0.04975053198059345
59,290.17,0.047187546407759386
60,296.24,0.047192116805896495
61,301.05,0.04425218153654551
62,308.07,0.04487023168397921
63,316.227766,0.04529513190724399
64,318.15999999999997,0.045393765379260986
65,327.83,0.04435560744284151
66,337.79,0.04284850211225846
67,348.05,0.041390904994609665
68,356.98,0.040726102132952385
69,363.078055,0.04066070522079577
70,366.14,0.040630263098886364
71,374.67,0.03943437759269452
72,385.16,0.036809754068667266
73,395.03999999999996,0.03723989140733368
74,405.18,0.036731517886491316
75,413.66,0.03565346523789731
76,416.86938299999997,0.03520687887598854
77,422.32,0.034447676787026496
78,430.17,0.03328109157023652
79,441.21,0.03267611255197393
80,451.49,0.031643557198012026
81,459.88,0.030363193061850518
82,469.51,0.029403043999724723
83,478.630092,0.028903473379864018
84,480.45,0.028802919199891877
85,490.51,0.027380055918603104
86,499.63,0.027127316164591807
87,506.58000000000004,0.026326351680997673
88,512.4399999999999,0.02781992118116147
89,519.57,0.026936768149790798
90,530.45,0.0257227737064089
91,540.3100000000001,0.02406184436709406
92,549.5408739999999,0.023261669421431878
93,550.36,0.023190812802746506
94,560.59,0.023620464767838266
95,569.7,0.02334973505151236
96,580.29,0.022506215414202654
97,589.7199999999999,0.02199380760685322
98,600.6800000000001,0.020717015489297573
99,610.44,0.018425148713080132
100,620.36,0.02033814789135093
101,630.44,0.019467643024109967
102,630.957344,0.0194631020161737
103,640.69,0.01937967925708659
104,649.6,0.018681013561411434
105,658.6400000000001,0.0179254232484032
106,664.73,0.018049763867184154
107,675.53,0.017764011811820336
108,684.93,0.01665814409696664
109,694.4599999999999,0.016813151764779856
110,705.74,0.015623656506955422
111,715.56,0.01606093848994869
112,724.43596,0.015736557714361266
113,725.51,0.01569725107619317
114,735.61,0.015377431059340137
115,745.84,0.014856969794745436
116,754.48,0.014454501483298885
117,764.9699999999999,0.013157117723220839
118,775.61,0.0137765240619024
119,784.59,0.013129198640977629
120,795.51,0.013069683830677126
121,804.72,0.012891063894517087
122,815.92,0.012628287935234522
123,825.36,0.012399683483839215
124,831.763771,0.011655877194538894
125,834.92,0.01128860137280027
126,844.59,0.011788562089738813
127,854.37,0.011467926661782138
128,864.26,0.011335455088930245
129,874.2700000000001,0.011102405903465385
130,884.39,0.010849540573105308
131,894.63,0.010650837630132266
132,904.99,0.010360307074546259
133,915.47,0.010287828906347286
134,923.94,0.016695015749415485
135,934.6400000000001,0.023028425291426072
136,945.46,0.028647707220823698
137,954.21,0.03126170296779498
138,954.992586,0.03140886795856838
139,965.26,0.03334091991696168
140,974.19,0.019113492753753472
141,985.4699999999999,0.029312081073911533
142,994.59,0.0278017895029755
143,1006.11,0.03097399225547735
144,1015.42,0.03083159627681348
145,1024.81,0.020760998442264207
146,1034.3,0.027545838287858178
147,1043.87,0.03326198627756675
148,1055.95,0.03206021603887077
149,1065.72,0.02877575938886583
150,1075.59,0.030198870419004136
151,1085.54,0.025708069593257037
152,1095.58,0.029991076679638854
153,1096.4782,0.029865776430259436
154,1105.72,0.028576074820386425
155,1115.95,0.027990222047537046
156,1126.28,0.025528382013956002
157,1134.08,0.027988875676886092
158,1144.5800000000002,0.026728853300061216
159,1155.1699999999998,0.02654488438857784
160,1165.86,0.0261801382163628
161,1173.94,0.020658411549244228
162,1184.8,0.024944223033785354
163,1195.76,0.02228523725759482
164,1204.05,0.01963701534293975
165,1215.19,0.014297686497432216
166,1223.62,0.02123296441775282
167,1234.94,0.023492512502928282
168,1246.36,0.023764173327372084
169,1255.0,0.023169256000156183
170,1258.92541,0.022791220209634828
171,1263.7,0.022331775645091888
172,1275.3999999999999,0.023491086069870583
173,1284.24,0.02338301172414782
174,1296.1200000000001,0.020986873078538495
175,1305.1,0.020938849455847276
176,1314.15,0.02248713619467182
177,1326.31,0.021575048995125575
178,1335.5,0.020275916456981662
179,1344.7600000000002,0.02137727428035352
180,1354.08,0.020891032413596036
181,1363.47,0.01967819090835432
182,1376.0800000000002,0.019544206032838025
183,1385.62,0.019364945302272965
184,1395.23,0.016333914933223666
185,1404.9,0.016036654874045035
186,1414.64,0.01815650517638217
187,1424.4399999999998,0.01762236578858997
188,1434.32,0.017866996813958643
189,1440.94,0.01794895100302146
190,1445.43977,0.01786614464127598
191,1447.59,0.01782657356235037
192,1454.27,0.017381002516951138
193,1464.3500000000001,0.016676336208923555
194,1474.5,0.016523440204312446
195,1484.72,0.016486354503117813
196,1495.01,0.016223079105339655
197,1505.38,0.015601194054323185
198,1512.3300000000002,0.014627624179244644
199,1515.81,0.014933819263377978
200,1526.32,0.014830944819194456
201,1533.36,0.013435785334222811
202,1543.99,0.012773831410181818
203,1554.69,0.012541097789557303
204,1565.47,0.01319119451569447
205,1576.32,0.013622931545248114
206,1583.6,0.013653453100561526
207,1594.58,0.013653410693602909
208,1605.63,0.013251438590060768
209,1616.7599999999998,0.01304067683328031
210,1624.22,0.012774139168807515
211,1635.48,0.0130406679755148
212,1646.82,0.012891067128983769
213,1654.42,0.012627790071343925
214,1659.58691,0.012760339651141478
215,1665.88,0.012921951670127635
216,1673.5700000000002,0.01214424509089381
217,1677.43,0.013498137276089834
218,1685.18,0.013437032596107758
219,1696.8600000000001,0.012862832317115418
220,1704.69,0.012687150169469015
221,1716.5,0.012629734005522137
222,1724.43,0.012717235023295317
223,1736.3799999999999,0.01343885329093586
224,1744.4,0.013194177157586667
225,1756.49,0.01403924985681463
226,1764.5900000000001,0.012894546255801108
227,1776.8300000000002,0.01331661370315845
228,1785.03,0.013752773267564513
229,1793.2699999999998,0.01511110409813841
230,1805.7,0.014905057559792967
231,1814.0300000000002,0.014301181239244492
232,1826.61,0.014466449449028427
233,1835.04,0.014236246293899538
234,1843.5099999999998,0.012233644404938484
235,1856.29,0.013723308945561593
236,1864.8500000000001,0.015359459905478164
237,1873.46,0.01535962244810453
238,1886.45,0.01497650363610877
239,1895.1599999999999,0.015898839344154723
240,1903.9,0.01582611600182655
241,1905.46072,0.015878481448981296
242,1917.1,0.016268160492153023
243,1925.9499999999998,0.014737039389048764
244,1934.84,0.01179301665384008
245,1943.77,0.017268892286526973
246,1957.24,0.017228012675361507
247,1966.28,0.019730863819761225
248,1975.35,0.018585413740082626
249,1984.47,0.01954982162027349
250,1993.63,0.019820397868359936
251,2002.83,0.018842282484341947
252,2016.7199999999998,0.019548495736080012
253,2026.03,0.017067815863774854
254,2035.3799999999999,0.02070364435936527
255,2044.77,0.022698551222851263
256,2054.21,0.02147871604620672
257,2063.69,0.020797759237457757
258,2073.2200000000003,0.024151670388578253
259,2078.0,0.03348232535209934
260,2082.79,0.03739163990759433
261,2097.23,0.03465723071789654
262,2106.9,0.03279516615665154
263,2116.63,0.03654011914724991
264,2126.4,0.032643540505743855
265,2136.2200000000003,0.03053528982410727
266,2146.08,0.03773538751036625
267,2155.98,0.037561373564520814
268,2165.9300000000003,0.03302008757854484
269,2175.9300000000003,0.03363271955243833
270,2185.9700000000003,0.0403378798942274
271,2187.7616199999998,0.04055524091977913
272,2196.06,0.04156261675116762
273,2206.2000000000003,0.039693506621756205
274,2216.38,0.032046557793609445
275,2226.61,0.03603719059204349
276,2236.89,0.04620557501705835
277,2247.2200000000003,0.04362253106865402
278,2257.5899999999997,0.03410204842151435
279,2262.79,0.032493857585918745
280,2273.24,0.035300047541308374
281,2283.73,0.04494497879796264
282,2294.27,0.03796915168119772
283,2304.86,0.04529881619101361
284,2315.5,0.03988617232741032
285,2326.19,0.032105800090387826
286,2336.9300000000003,0.02859763947994616
287,2342.31,0.019922494500041486
288,2353.13,0.03688010649212911
289,2363.99,0.021711699785481386
290,2374.9,0.028725754705414473
291,2385.86,0.016721291251928373
292,2396.87,0.021174189425023082
293,2402.4,0.021166669324860842
294,2413.4900000000002,0.02507524010048485
295,2424.63,0.04224193250268967
296,2435.8199999999997,0.0417277765314753
297,2447.06,0.04943894218684175
298,2452.7,0.0515106056651573
299,2464.02,0.04640957392305304
300,2475.4,0.04011645413284575
301,2486.8199999999997,0.026617375643903117
302,2492.56,0.031041522375380284
303,2504.0600000000004,0.04769360648896695
304,2511.88643,0.030028132666924046
305,2515.62,0.02160071408752768
306,2527.2299999999996,0.018417737910754805
307,2533.06,0.029771054507603572
308,2544.75,0.031947407323583345
309,2556.5,0.05307968938412758
310,2562.39,0.04062820522554084
311,2574.22,0.050982816278837724
312,2586.1,0.04540582670260502
313,2592.06,0.040828861662676824
314,2604.0200000000004,0.03488829107919676
315,2616.04,0.031001559740281178
316,2622.07,0.043359253819011546
317,2634.18,0.07056986134694268
318,2646.3399999999997,0.09576764824534421
319,2652.4399999999996,0.12647937144273316
320,2664.68,0.08584184733388733
321,2676.98,0.09690157246960598
322,2683.15,0.10993678478565348
323,2695.54,0.08124810878821888
324,2707.98,0.09827131216125466
325,2714.22,0.07215858359596071
326,2726.75,0.06108756583584322
327,2733.03,0.07546377676692559
328,2745.65,0.04202333787365482
329,2751.98,0.05770685817520759
330,2764.68,0.07530247827468946
331,2777.44,0.08117525761873583
332,2783.84,0.048122027038947156
333,2796.69,0.019069925249840226
334,2803.14,0.023715704040521965
335,2816.0800000000004,0.07183169111826176
336,2822.5699999999997,0.10353092940531983
337,2835.6,0.09720660534990633
338,2842.1400000000003,0.07354341300743479
339,2855.26,0.04239125781886804
340,2861.84,0.09748247497277282
341,2875.05,0.12431266865105277
342,2884.0315,0.11719876086254678
343,2888.3199999999997,0.11380205446363612
344,2894.9799999999996,0.13332715274755855
345,2908.3399999999997,0.17681334930509668
346,2928.5,0.15592274411048354
347,2948.7999999999997,0.14565223887979672
348,2969.2400000000002,0.1512576336130362
349,2989.82,0.15385812831020193
350,3010.55,0.15541942296871733
351,3031.41,0.16325441759373568
352,3052.42,0.17188701218010363
353,3066.51,0.18189570854954318
354,3087.7700000000004,0.1779070030714938
355,3109.17,0.19932309755737074
356,3130.73,0.1857407920020206
357,3152.43,0.18333598641059673
358,3166.98,0.2012886826615084
359,3188.93,0.1778954770056672
360,3211.03,0.1961106713111756
361,3233.29,0.16898026557545695
362,3248.22,0.22770846172845427
363,3270.73,0.2622364559283183
364,3293.4,0.25703455008695525
365,3308.61,0.24296034616780512
366,3311.31121,0.23968257661435372
367,3323.88,0.2244309835623953
368,3331.54,0.24257954583195865
369,3339.22,0.21164720800300912
370,3346.92,0.2537339700755467
371,3354.63,0.23128183209882786
372,3362.37,0.19450259397433967
373,3370.12,0.21462865580059504
374,3377.89,0.2096244175283375
375,3385.67,0.21737237920682353
376,3393.48,0.2488604407375402
377,3401.2999999999997,0.28296270221900044
378,3409.14,0.23850346360194785
379,3417.0,0.2158967248863823
380,3424.88,0.2754230860723039
381,3432.77,0.28560604720896904
382,3440.69,0.25973240819786486
383,3448.62,0.2076356691375042
384,3456.5699999999997,0.24719942997863067
385,3464.54,0.21468259072124424
386,3472.52,0.2701126514146014
387,3480.53,0.21101201196018918
388,3488.55,0.24607417245652055
389,3496.59,0.231106132854339
390,3504.65,0.27705089315364456
391,3512.73,0.26020205335443725
392,3520.83,0.2831795134567171
393,3528.9500000000003,0.197615573460484
394,3537.0800000000004,0.27578303341499444
395,3545.2299999999996,0.28662299327099205
396,3553.4100000000003,0.2938102529792203
397,3561.6,0.2702760126381921
398,3569.81,0.212114872198651
399,3578.04,0.232973931660597
400,3586.29,0.18839409102403015
401,3594.55,0.2504998503382068
402,3602.84,0.3079934095046142
403,3611.15,0.24059946857250863
404,3619.4700000000003,0.27671152759114664
405,3627.8100000000004,0.2942817865112718
406,3636.18,0.2293556452836276
407,3644.56,0.31933410400672696
408,3652.96,0.2535039626313134
409,3661.38,0.3497218211573869
410,3669.8199999999997,0.3254315795849476
411,3678.2799999999997,0.3305239379139954
412,3686.76,0.3061462961445303
413,3695.26,0.33548405427655237
414,3703.7799999999997,0.35677831231006146
415,3712.32,0.2559401702450577
416,3712.74,0.25796106817628706
417,3715.4700000000003,0.26792565472927765
418,3718.2,0.25083674128226824
419,3720.9199999999996,0.21760012788451527
420,3723.65,0.23873141443750587
421,3726.38,0.29190960099049645
422,3729.11,0.26907338754348703
423,3731.84,0.27391357409647765
424,3734.5699999999997,0.25010506064946825
425,3737.3,0.22037444720245886
426,3740.0299999999997,0.24938353375544947
427,3742.7500000000005,0.2685713203576965
428,3745.48,0.2131639069106871
429,3748.21,0.21503209346367771
430,3750.94,0.23841428001666828
431,3753.67,0.2430359665696589
432,3756.3999999999996,0.2684502531226495
433,3759.13,0.2859649396756401
434,3761.86,0.2474277262286307
435,3764.5899999999997,0.2440186127816213
436,3767.31,0.2601469993838683
437,3770.04,0.2648450859368589
438,3772.7699999999995,0.27871047248984954
439,3775.5,0.29924075904284014
440,3778.23,0.36312654559583074
441,3780.96,0.38334003214882134
442,3783.69,0.387240418701812
443,3786.4199999999996,0.28007530525480256
444,3789.15,0.3002777918077931
445,3791.87,0.2737609784100402
446,3794.6000000000004,0.27081066496303074
447,3797.33,0.24527575151602138
448,3800.06,0.209721438069012
449,3801.8939600000003,0.28864902141361526
450,3802.79,0.3272116255416234
451,3805.52,0.32843521489645855
452,3808.2500000000005,0.31309450425129365
453,3810.98,0.3331876936061288
454,3813.7,0.2603980829999572
455,3816.4300000000003,0.2500944723547923
456,3819.16,0.2480947617096275
457,3821.89,0.27066835106446263
458,3824.6200000000003,0.25480314041929775
459,3827.35,0.2467831297741329
460,3830.08,0.24148371912896804
461,3832.81,0.1463266084838032
462,3835.54,0.14349659783863833
463,3838.26,0.18263528723246672
464,3840.9900000000002,0.20924077658730184
465,3843.72,0.262200465942137
466,3846.4500000000003,0.22980385529697211
467,3849.18,0.27465604465180726
468,3851.91,0.3000704340066424
469,3854.64,0.31085452336147756
470,3857.37,0.2885647127163127
471,3860.0899999999997,0.26108630211014106
472,3862.82,0.2694884914649762
473,3865.5499999999997,0.27491868081981136
474,3868.28,0.3006936701746465
475,3871.0099999999998,0.25777495952948165
476,3873.74,0.25556764888431677
477,3876.4700000000003,0.3270363382391519
478,3879.2,0.31227472759398706
479,3881.9300000000003,0.3140992169488222
480,3884.65,0.29127560634265065
481,3887.3799999999997,0.2682317956974858
482,3890.11,0.26523778505232093
483,3892.84,0.30931427440715603
484,3895.5699999999997,0.33531866376199115
485,3898.3,0.34352415311682627
486,3901.0299999999997,0.35378374247166144
487,3903.76,0.35354313182649655
488,3906.4900000000002,0.3869335211813317
489,3909.21,0.36827311057516016
490,3911.94,0.37882779992999527
491,3914.67,0.37357198928483043
492,3917.3999999999996,0.3697693786396656
493,3920.13,0.3641530679945007
494,3922.86,0.34531585734933584
495,3925.5899999999997,0.310318746704171
496,3928.32,0.2533053360590061
497,3931.04,0.2146382254528345
498,3933.77,0.14436001480766966
499,3936.5,0.1480421041625048
500,3939.23,0.21823259351733992
501,3941.96,0.25551288287217505
502,3944.69,0.2756826722270102
503,3947.4199999999996,0.32494906158184533
504,3950.15,0.3452172509366805
505,3952.8799999999997,0.3744666402915156
506,3955.6000000000004,0.399620629685344
507,3958.33,0.36059161904017917
508,3961.06,0.2912639083950143
509,3963.79,0.22178349774984943
510,3966.52,0.19694788710468458
511,3969.2499999999995,0.1598857764595197
512,3971.98,0.20662826581435487
513,3974.71,0.27880715516918997
514,3977.44,0.3205780445240251
515,3980.16,0.3682182339178535
516,3982.89,0.4179436232726887
517,3985.6200000000003,0.4578898126275238
518,3988.35,0.47569940198235894
519,3991.0800000000004,0.47278189133719406
520,3993.81,0.45357318069202923
521,3996.54,0.49799917004686434
522,3999.27,0.4755999594016995
523,4001.9900000000002,0.48911794879552795
524,4004.72,0.515340838150363
525,4007.4500000000003,0.4634187275051982
526,4010.18,0.49355311686003334
527,4012.9100000000003,0.49975900621486846
528,4015.64,0.4990702955697036
529,4018.37,0.5246920849245388
530,4021.1000000000004,0.5368417742793739
531,4023.83,0.529160363634209
532,4026.5499999999997,0.5284196530280374
533,4029.28,0.5456938423828726
534,4032.0099999999998,0.5126852317377076
535,4034.74,0.4941757210925429
536,4037.4700000000003,0.5195681104473779
537,4040.2,0.5300679998022131
538,4042.9300000000003,0.4904598891570483
539,4045.66,0.4825599785118834
540,4048.3799999999997,0.47738296790571183
541,4051.11,0.507725057260547
542,4053.84,0.4976506466153821
543,4056.5699999999997,0.4660405359702172
544,4059.3,0.4786055253250524
545,4062.0299999999997,0.4732623146798875
546,4064.76,0.49547510403472267
547,4067.4900000000002,0.4803200933895578
548,4070.22,0.5006644827443929
549,4072.94,0.5104129721382213
550,4075.67,0.5096914614930566
551,4078.3999999999996,0.4911274508478916
552,4081.13,0.4823970402027267
553,4083.86,0.49880792955756187
554,4086.59,0.5066200189123969
555,4089.32,0.5426436082672321
556,4092.0499999999997,0.5215337976220672
557,4094.77,0.4877190870158957
558,4097.5,0.47484757637073083
559,4100.2300000000005,0.474705265725566
560,4102.96,0.4473892550804011
561,4105.6900000000005,0.4518359444352363
562,4108.42,0.4885371337900714
563,4111.15,0.5029377231449066
564,4113.88,0.5094931124997417
565,4116.61,0.5445225018545768
566,4119.33,0.5262121912484052
567,4122.06,0.49932228060324035
568,4124.79,0.5056046699580755
569,4127.52,0.5139629593129107
570,4130.25,0.5071337486677459
571,4132.98,0.522670638022581
572,4135.71,0.49257932737741605
573,4138.44,0.49091821673225117
574,4141.17,0.5143439060870864
575,4143.89,0.48555519548091475
576,4146.62,0.4896740848357499
577,4149.35,0.507778774190585
578,4152.08,0.49852386354542016
579,4154.8099999999995,0.47287955290025535
