,lambda (Angstroms),Total Flux (erg/s/cm^2/Angstrom)
0,100.07000000000001,4.502923e-06
1,101.93,5.526834e-06
2,104.07,6.229476e-06
3,104.712855,6.564739871347155e-06
4,106.0,7.236016e-06
5,107.97,8.52078e-06
6,109.98,1.200739e-05
7,114.11,1.529264e-05
8,118.11999999999999,1.851112e-05
9,120.22644299999999,4.666657247810166e-05
10,120.87,5.526858e-05
11,125.12,6.537664e-05
12,126.86,6.973969e-05
13,128.03,7.285794e-05
14,131.01,7.934219e-05
15,131.92000000000002,9.025874e-05
16,134.07,9.494428e-05
17,136.87,0.0001138963
18,138.038426,0.00011708265996921625
19,140.06,0.0001225956
20,142.98999999999998,0.0002514833
21,147.0,0.0004780513
22,151.12,0.0005146087
23,154.99,0.0005578347
24,158.489319,0.0006014047384535172
25,158.97000000000003,0.0006073897
26,161.92999999999998,0.0006433665
27,166.08,0.0006973815
28,169.95,0.0007455854
29,173.11,0.000787893
30,177.14000000000001,0.0008384694
31,180.02,0.000875902
32,181.970086,0.0009028718768882694
33,182.1,0.0009046686
34,185.92000000000002,0.0009582063
35,191.12,0.001026881
36,193.78,0.001072765
37,197.84,0.001128438
38,201.98000000000002,0.001187082
39,204.79000000000002,0.001231712
40,208.929613,0.0012519441617878328
41,210.04999999999998,0.00125742
42,215.93,0.001391473
43,219.95000000000002,0.001456981
44,223.01000000000002,0.001490983
45,227.14999999999998,0.001561303
46,229.77999999999997,0.002363029
47,234.04999999999998,0.003939793
48,239.88329199999998,0.005053465502567051
49,240.06,0.005087202
50,246.22000000000003,0.004835563
51,251.95,0.005146082
52,257.23,0.004192457
53,260.21,0.005005868
54,263.83,0.005290046
55,268.73,0.005290138
56,273.73,0.005265846
57,275.42287,0.005249747770803537
58,278.82,0.005217443
59,284.0,0.005241937
60,289.95,0.004994256
61,296.02,0.005028728
62,300.83,0.004824696
63,307.83000000000004,0.004903316
64,316.227766,0.0049791763743906835
65,317.92,0.004994463
66,328.33,0.00492599
67,338.31,0.004813686
68,347.78999999999996,0.004693238
69,356.71000000000004,0.004650226
70,363.078055,0.004657791110147541
71,365.86,0.004661096
72,375.25,0.004555014
73,384.87,0.004290221
74,394.75000000000006,0.004380131
75,404.87,0.004349992
76,414.3,0.004250755
77,416.86938299999997,0.004205796136477663
78,422.0,0.004116021
79,429.85,0.004003835
80,440.88,0.003957871
81,451.15000000000003,0.003850028
82,459.53000000000003,0.003711024
83,470.24,0.003617953
84,478.630092,0.0035758848740756097
85,480.08000000000004,0.003568615
86,490.14000000000004,0.003399837
87,500.40000000000003,0.003392089
88,506.19,0.003284513
89,512.0600000000001,0.003470959
90,520.38,0.003376338
91,530.05,0.003239434
92,539.9,0.003037219
93,549.5408739999999,0.0029382598455235075
94,549.94,0.002934163
95,560.17,0.002995529
96,570.5799999999999,0.002988677
97,579.85,0.002887187
98,590.63,0.002834497
99,600.23,0.002669756
100,609.98,0.00233602
101,619.89,0.002639282
102,629.97,0.002532069
103,630.957344,0.002532071991951515
104,640.1999999999999,0.0025321
105,650.6,0.002446155
106,658.14,0.00234677
107,665.76,0.00237946
108,675.0200000000001,0.002346795
109,684.41,0.002195234
110,695.5300000000001,0.002230906
111,705.21,0.00206764
112,716.67,0.00214027
113,724.43596,0.002109858126752257
114,726.6400000000001,0.002101227
115,735.05,0.002062912
116,745.28,0.001992833
117,755.6400000000001,0.001943025
118,764.39,0.001747773
119,775.03,0.001859846
120,785.81,0.001763942
121,794.9100000000001,0.001767986
122,804.11,0.00174776
123,815.3000000000001,0.001715842
124,824.74,0.00168843
125,831.763771,0.0015687692127823044
126,834.2900000000001,0.001525731
127,845.9,0.001608719
128,855.69,0.001564889
129,865.6,0.001550502
130,875.62,0.001525749
131,885.76,0.001494462
132,896.02,0.001467171
133,904.31,0.001427149
134,914.7800000000001,0.00144702
135,925.3699999999999,0.002412584
136,933.94,0.003431386
137,944.75,0.00444097
138,954.992586,0.005023966947358131
139,955.69,0.005063663
140,964.53,0.005426141
141,975.7,0.002706941
142,984.73,0.004704221
143,996.1299999999999,0.00456545
144,1005.35,0.005413419
145,1014.65,0.005339368
146,1024.04,0.003322487
147,1035.9,0.004555025
148,1045.48,0.006130197
149,1055.16,0.005935765
150,1064.92,0.005134277
151,1074.77,0.005577998
152,1084.72,0.004650288
153,1094.76,0.005616559
154,1096.4782,0.005573631844347826
155,1104.88,0.005363723
156,1115.11,0.005217726
157,1125.43,0.004714933
158,1135.8400000000001,0.005401115
159,1143.71,0.005087109
160,1154.3,0.00514588
161,1164.98,0.005122507
162,1175.76,0.003850026
163,1183.8999999999999,0.004880767
164,1194.86,0.004059672
165,1205.92,0.003399812
166,1214.27,0.002451801
167,1225.51,0.00388579
168,1234.01,0.004704202
169,1245.42,0.004891762
170,1254.06,0.004736694
171,1258.92541,0.004604051179306895
172,1265.66,0.00442045
173,1274.43,0.004960052
174,1286.2199999999998,0.005028972
175,1295.1399999999999,0.004309964
176,1304.12,0.004290109
177,1316.18,0.004846971
178,1325.3100000000002,0.004639496
179,1334.49,0.004270685
180,1343.75,0.004693134
181,1356.1799999999998,0.004565399
182,1365.5800000000002,0.004211797
183,1375.04,0.004250832
184,1384.58,0.004241051
185,1394.17,0.003560128
186,1403.8400000000001,0.003560102
187,1413.5700000000002,0.003939713
188,1423.37,0.003894883
189,1436.54,0.003921857
190,1443.17,0.004013188
191,1445.43977,0.004013168914846847
192,1446.5,0.00401316
193,1456.52,0.003894872
194,1466.62,0.003676795
195,1473.3899999999999,0.003659889
196,1483.6,0.003676811
197,1493.8799999999999,0.003651476
198,1504.24,0.003487303
199,1511.18,0.003202405
200,1518.16,0.003322502
201,1525.17,0.003269516
202,1535.7399999999998,0.002907176
203,1546.3799999999999,0.002893867
204,1553.52,0.002795636
205,1564.2900000000002,0.002920619
206,1575.1299999999999,0.003051261
207,1586.05,0.003115142
208,1593.3700000000001,0.003136751
209,1604.42,0.003051238
210,1615.54,0.003023262
211,1626.7400000000002,0.00291393
212,1634.2400000000002,0.003030257
213,1645.5700000000002,0.003023273
214,1653.1699999999998,0.002887206
215,1659.58691,0.002967290268667539
216,1664.63,0.003030229
217,1672.31,0.002782773
218,1676.1699999999998,0.003079441
219,1683.9,0.003107976
220,1695.5700000000002,0.002954468
221,1703.3999999999999,0.002867318
222,1715.21,0.002763604
223,1723.1299999999999,0.002744582
224,1735.07,0.002880548
225,1743.08,0.00282148
226,1755.16,0.002954455
227,1763.2600000000002,0.002750941
228,1775.48,0.002782797
229,1783.68,0.002834501
230,1796.0400000000002,0.003002481
231,1804.3300000000002,0.002968083
232,1816.8400000000001,0.002776378
233,1825.23,0.002827984
234,1833.65,0.0027446
235,1846.36,0.002485872
236,1854.8899999999999,0.002573204
237,1863.45,0.002700701
238,1876.36,0.002815011
239,1885.02,0.00265141
240,1893.7300000000002,0.002645321
241,1905.46072,0.0027171886480853668
242,1906.85,0.0027257
243,1915.65,0.002675955
244,1924.5,0.002537934
245,1933.38,0.002401475
246,1946.78,0.002802043
247,1955.77,0.002682094
248,1964.79,0.002968105
249,1973.8600000000001,0.002920637
250,1982.97,0.002934142
251,1996.7199999999998,0.002913923
252,2005.94,0.002900519
253,2015.19,0.002907227
254,2024.5,0.002782762
255,2033.8400000000001,0.00295446
256,2043.23,0.003136755
257,2052.66,0.002947668
258,2066.8900000000003,0.002934107
259,2071.65,0.003239484
260,2076.43,0.004280383
261,2086.01,0.004903173
262,2095.64,0.004555036
263,2105.31,0.004430892
264,2115.0299999999997,0.004835864
265,2124.79,0.004440965
266,2134.6,0.004221544
267,2144.46,0.005005827
268,2154.35,0.005005847
269,2164.3,0.00449227
270,2174.29,0.004523491
271,2184.3199999999997,0.005339346
272,2187.7616199999998,0.005351864423748266
273,2194.41,0.005376047
274,2204.54,0.005217774
275,2214.71,0.004280391
276,2224.93,0.004780637
277,2235.2,0.006018343
278,2245.52,0.005734231
279,2255.8900000000003,0.004586555
280,2266.3,0.004349906
281,2276.7599999999998,0.004682428
282,2287.27,0.005977054
283,2292.54,0.005052012
284,2303.12,0.005967328
285,2313.75,0.005202814
286,2324.4300000000003,0.004233576
287,2335.16,0.003946256
288,2345.94,0.002976039
289,2356.77,0.004898917
290,2367.65,0.003195816
291,2373.1,0.003943006
292,2384.06,0.002662544
293,2395.06,0.003175195
294,2406.12,0.003156836
295,2417.22,0.00360367
296,2422.7999999999997,0.005675081
297,2433.98,0.005681268
298,2445.21,0.006697987
299,2456.5,0.007053913
300,2462.16,0.006161372
301,2473.5299999999997,0.005472261
302,2484.95,0.003611127
303,2496.42,0.004237799
304,2502.17,0.006373605
305,2511.88643,0.003659134784018133
306,2513.72,0.003146892
307,2519.5099999999998,0.002600933
308,2525.3199999999997,0.002833855
309,2536.9799999999996,0.004363898
310,2542.83,0.004603776
311,2554.5699999999997,0.008009813
312,2566.3599999999997,0.006041413
313,2572.27,0.007662689
314,2584.15,0.006805852
315,2596.0699999999997,0.006143164
316,2602.06,0.005328912
317,2614.07,0.004832267
318,2626.1400000000003,0.006541297
319,2632.1899999999996,0.01121821
320,2644.34,0.01511602
321,2656.54,0.02108397
322,2662.6699999999996,0.01346518
323,2674.96,0.0152662
324,2687.31,0.01779302
325,2693.5,0.01283821
326,2705.93,0.01595984
327,2712.17,0.01148932
328,2724.69,0.009116243
329,2737.27,0.01165045
330,2743.58,0.00661603
331,2756.24,0.009081142
332,2762.5899999999997,0.01195087
333,2775.34,0.01279206
334,2788.1600000000003,0.007611605
335,2794.58,0.003497371
336,2807.48,0.004200095
337,2813.9500000000003,0.01126017
338,2826.94,0.01652279
339,2833.46,0.01546513
340,2846.54,0.01106351
341,2853.1,0.006341089
342,2866.27,0.01544236
343,2872.8799999999997,0.02118278
344,2884.0315,0.019561254345399667
345,2886.14,0.01925466
346,2892.79,0.02370339
347,2912.8399999999997,0.03233224
348,2933.0299999999997,0.02821401
349,2953.3599999999997,0.02601966
350,2967.0,0.02721804
351,2987.5600000000004,0.02771418
352,3008.27,0.02783212
353,3029.1200000000003,0.02994999
354,3050.12,0.03149579
355,3071.26,0.03444401
356,3092.55,0.03357283
357,3106.83,0.03913411
358,3128.36,0.03617644
359,3150.0499999999997,0.0361666
360,3171.88,0.04019367
361,3186.52,0.03489577
362,3208.61,0.03878307
363,3230.85,0.0328513
364,3253.2499999999995,0.04649613
365,3268.26,0.05457993
366,3290.92,0.05369566
367,3311.31121,0.05058351973814113
368,3313.7299999999996,0.05021436
369,3321.3700000000003,0.04700326
370,3329.02,0.05326661
371,3336.7000000000003,0.05305853
372,3344.39,0.04943788
373,3352.1,0.0456414
374,3359.83,0.05541839
375,3367.5699999999997,0.05057856
376,3375.34,0.03717735
377,3383.12,0.0416465
378,3390.91,0.05246711
379,3398.73,0.05037381
380,3406.5699999999997,0.05401412
381,3414.42,0.05233688
382,3422.29,0.05889956
383,3430.18,0.05450502
384,3438.0899999999997,0.0560716
385,3446.0099999999998,0.03681675
386,3453.9599999999996,0.05759259
387,3461.92,0.04727951
388,3469.9,0.05093282
389,3477.9,0.0441883
390,3485.92,0.05171599
391,3493.9500000000003,0.04559581
392,3502.0099999999998,0.05131634
393,3510.08,0.05708885
394,3518.17,0.04987332
395,3526.2799999999997,0.04551778
396,3534.41,0.05708241
397,3542.56,0.06513663
398,3550.7300000000005,0.06282555
399,3558.9100000000003,0.0574725
400,3567.11,0.05404685
401,3575.34,0.0460344
402,3583.58,0.03823051
403,3591.84,0.03915029
404,3600.12,0.06339479
405,3608.42,0.05180397
406,3616.74,0.05606506
407,3625.07,0.05495691
408,3633.4300000000003,0.05812265
409,3641.81,0.06849437
410,3650.2000000000003,0.05370229
411,3658.6200000000003,0.07521581
412,3667.05,0.07475454
413,3675.5,0.07655225
414,3683.98,0.06198407
415,3692.47,0.06540331
416,3700.98,0.07412099
417,3709.5099999999998,0.05179099
418,3718.07,0.08176875
419,3726.64,0.05418954
420,3735.23,0.06043039
421,3743.84,0.06570232
422,3752.47,0.03871795
423,3761.12,0.06112593
424,3769.79,0.05788523
425,3778.48,0.07242747
426,3787.1899999999996,0.08283817
427,3795.92,0.06332301
428,3801.8939600000003,0.06365602242624002
429,3804.67,0.06381077
430,3813.44,0.07537534
431,3822.23,0.05630578
432,3831.04,0.04158163
433,3839.8700000000003,0.04085368
434,3848.73,0.06332291
435,3857.6,0.06235774
436,3866.4900000000002,0.06671667
437,3875.4,0.05242803
438,3884.34,0.05726766
439,3893.29,0.05410524
440,3895.09,0.06758142
441,3899.15,0.07439394
442,3903.2099999999996,0.07534968
443,3907.27,0.08080999
444,3911.33,0.07592812
445,3915.3900000000003,0.0765491
446,3919.45,0.06877402
447,3923.51,0.05742067
448,3927.57,0.04888209
449,3931.6400000000003,0.03920546
450,3935.7,0.04023913
451,3939.7599999999998,0.04610283
452,3943.82,0.06486033
453,3947.8799999999997,0.06969695
454,3951.94,0.07166678
455,3956.0,0.07043467
456,3960.0600000000004,0.06167514
457,3964.12,0.05298059
458,3968.18,0.04566392
459,3972.2400000000002,0.05081254
460,3976.2999999999997,0.05942279
461,3980.36,0.07934715
462,3984.42,0.08759015
463,3988.48,0.09411654
464,3992.54,0.1007636
465,3996.6000000000004,0.1012449
466,4000.66,0.09984042
467,4004.72,0.1023206
468,4008.78,0.1068583
469,4012.8399999999997,0.1089446
470,4016.9,0.1072189
471,4020.96,0.108295
472,4025.0200000000004,0.1044267
473,4029.08,0.1065624
474,4033.14,0.1040501
475,4037.2000000000003,0.09787084
476,4041.2599999999998,0.1011344
477,4045.32,0.1046156
478,4049.38,0.1033639
479,4053.4399999999996,0.1016219
480,4057.5,0.1051937
481,4061.56,0.1035232
482,4065.62,0.1001951
483,4069.68,0.100328
484,4073.7400000000002,0.1003932
485,4077.7999999999997,0.1055647
486,4081.86,0.1129719
487,4085.92,0.1150718
488,4089.9799999999996,0.1096862
489,4094.04,0.106793
490,4098.1,0.1040077
491,4102.16,0.1000522
492,4106.22,0.09855671
493,4110.28,0.1066047
494,4114.34,0.1059159
495,4118.4,0.1066436
496,4122.46,0.1086363
497,4126.52,0.104307
498,4130.58,0.1047682
499,4134.64,0.1069396
500,4138.7,0.1033769
501,4142.76,0.1038549
502,4146.82,0.1036503
503,4150.88,0.1001721
504,4154.94,0.1068648
505,4159.0,0.1035333
506,4163.06,0.1076057
507,4167.12,0.1076026
508,4171.18,0.1051943
509,4175.24,0.1027205
510,4179.3,0.1046254
511,4183.36,0.1049376
512,4187.42,0.1060846
513,4191.4800000000005,0.1067966
514,4195.54,0.1054154
515,4199.6,0.1051908
516,4203.66,0.1046677
517,4207.719999999999,0.1072454
518,4211.78,0.1090913
519,4215.84,0.1086754
520,4219.9,0.1055483
521,4223.96,0.1056492
522,4228.02,0.1019277
523,4232.08,0.100208
524,4236.14,0.1018171
525,4240.2,0.1034262
526,4244.26,0.1050348
527,4248.32,0.1066439
528,4252.38,0.1069041
529,4256.4400000000005,0.1100956
530,4260.5,0.1073232
531,4264.56,0.1046451
532,4268.62,0.1045473
533,4272.679999999999,0.1047328
534,4276.74,0.1042616
535,4280.8,0.1039493
536,4284.86,0.1032766
537,4288.92,0.1011316
538,4292.9800000000005,0.09339222
539,4297.04,0.0836283
540,4301.1,0.08764223
541,4305.17,0.08677087
542,4309.23,0.09492285
543,4313.29,0.1006172
544,4317.349999999999,0.1055318
545,4321.41,0.1164369
546,4325.47,0.1199469
547,4329.53,0.116089
548,4333.59,0.1186992
549,4337.650000000001,0.1170087
550,4341.71,0.1168691
551,4345.7699999999995,0.1153676
552,4349.83,0.1174865
553,4353.89,0.1228628
554,4357.95,0.1227817
555,4362.01,0.1270166
556,4365.15832,0.12540110860689704
557,4366.070000000001,0.1249333
558,4370.13,0.1218516
559,4374.19,0.1126566
560,4378.25,0.1118735
561,4382.3099999999995,0.1097442
562,4386.37,0.1128744
563,4390.43,0.1118637
564,4394.49,0.1187736
565,4398.55,0.115738
566,4402.610000000001,0.1197101
567,4406.67,0.1220598
568,4410.73,0.1220015
569,4414.79,0.1246897
570,4418.849999999999,0.1226839
571,4422.91,0.1260027
572,4426.97,0.127667
573,4431.030000000001,0.130449
574,4435.09,0.1324839
575,4439.15,0.1308232
576,4443.21,0.1335694
577,4447.2699999999995,0.1335208
578,4451.33,0.1348368
579,4455.39,0.1286094
580,4459.45,0.1267894
581,4463.51,0.1275919
582,4467.57,0.1342098
583,4471.63,0.136976
584,4475.69,0.1399887
585,4479.75,0.1439023
586,4483.8099999999995,0.1450467
587,4487.87,0.138058
588,4491.93,0.1431515
589,4495.990000000001,0.1440131
590,4500.05,0.1468405
591,4504.11,0.154219
592,4508.17,0.1500068
593,4512.23,0.1522979
594,4516.29,0.1463305
595,4520.35,0.1415267
596,4524.41,0.1342553
597,4528.47,0.1354126
598,4532.53,0.136505
599,4536.59,0.1361438
600,4540.65,0.1402394
601,4544.71,0.1399693
602,4548.7699999999995,0.1443835
603,4552.83,0.1431421
604,4556.89,0.1454071
605,4560.95,0.1517163
606,4565.01,0.1519701
607,4569.07,0.1526717
608,4573.13,0.1477152
609,4577.19,0.1486482
610,4581.25,0.1480498
611,4585.31,0.1455635
612,4589.37,0.1434412
613,4593.43,0.1466912
614,4597.49,0.1462818
615,4601.55,0.1484722
616,4605.61,0.1497303
617,4609.67,0.1492105
618,4613.73,0.1475823
619,4617.79,0.157736
620,4621.85,0.1544436
621,4625.91,0.155155
622,4629.97,0.1486773
623,4634.03,0.1496462
624,4638.09,0.1500033
625,4642.15,0.1462851
626,4646.21,0.1448031
627,4650.27,0.1458299
628,4654.33,0.1428885
629,4658.39,0.1444684
630,4662.45,0.1466165
631,4666.51,0.1461617
632,4670.57,0.142515
633,4674.63,0.1450012
634,4678.69,0.1431812
635,4682.75,0.14282
636,4686.81,0.1461291
637,4690.87,0.1480697
638,4694.93,0.1503738
639,4698.99,0.1539104
640,4703.06,0.1496586
641,4707.12,0.1398909
642,4711.179999999999,0.1462715
643,4715.24,0.1484755
644,4719.3,0.1484979
645,4723.36,0.1504548
646,4727.42,0.1474419
647,4731.4800000000005,0.14894
648,4735.54,0.1479878
649,4739.6,0.1503771
650,4743.66,0.1517581
651,4747.72,0.154274
652,4751.78,0.1556557
653,4755.84,0.1511666
654,4759.900000000001,0.1479555
655,4763.96,0.1505852
656,4768.02,0.1504808
657,4772.08,0.145989
658,4776.139999999999,0.1528923
659,4780.2,0.1491514
660,4784.26,0.1493337
661,4788.32,0.1470126
662,4792.38,0.1510009
663,4796.4400000000005,0.1545506
664,4800.5,0.1540431
665,4804.5599999999995,0.1549079
666,4808.62,0.1530749
667,4812.679999999999,0.1531428
668,4816.74,0.1518136
669,4820.8,0.1533545
670,4824.860000000001,0.152236
671,4828.92,0.1519209
672,4832.9800000000005,0.1505658
673,4837.04,0.1494668
674,4841.099999999999,0.1484886
675,4845.16,0.1494705
676,4849.22,0.1441753
677,4853.28,0.1437627
678,4857.34,0.1366278
679,4861.400000000001,0.1326561
680,4865.46,0.1326888
681,4869.5199999999995,0.1356495
682,4873.58,0.1407073
683,4877.639999999999,0.1462558
684,4881.7,0.1397287
685,4885.76,0.144988
686,4889.820000000001,0.1520317
687,4893.88,0.1467365
688,4897.9400000000005,0.1527661
689,4902.0,0.1532052
690,4906.0599999999995,0.1571441
691,4910.12,0.1543426
692,4914.18,0.1492723
693,4918.24,0.1456022
694,4922.3,0.152828
695,4926.360000000001,0.1479131
696,4930.42,0.1496197
697,4934.48,0.1542972
698,4938.54,0.153975
699,4942.599999999999,0.1570988
700,4946.66,0.1553731
701,4950.72,0.1552004
702,4954.78,0.1559352
703,4958.84,0.1521651
704,4962.9,0.1515179
705,4966.96,0.1547294
706,4971.0199999999995,0.1511998
707,4975.08,0.1476825
708,4979.14,0.1480175
709,4983.2,0.1467078
710,4987.26,0.1441364
711,4991.320000000001,0.1425472
712,4995.38,0.1424532
713,4999.44,0.1456609
714,5003.5,0.1431323
715,5007.5599999999995,0.1382109
716,5011.62,0.1363324
717,5011.87234,0.13658857482216746
718,5015.68,0.1404541
719,5019.740000000001,0.1428817
720,5023.8,0.1418548
721,5027.86,0.1447966
722,5031.92,0.1438861
723,5035.98,0.1422547
724,5040.04,0.1453232
725,5044.1,0.1481961
726,5048.160000000001,0.1437824
727,5052.219999999999,0.1507741
728,5056.28,0.1489308
729,5060.34,0.1501206
730,5064.4,0.1473158
731,5068.46,0.141208
732,5072.52,0.143984
733,5076.580000000001,0.1425313
734,5080.65,0.1450819
735,5084.71,0.1448675
736,5088.77,0.1454555
737,5092.830000000001,0.1482965
738,5096.889999999999,0.1451146
739,5100.95,0.1460341
740,5105.01,0.145589
741,5109.07,0.1448449
742,5113.13,0.1480039
743,5117.1900000000005,0.1450008
744,5121.250000000001,0.143288
745,5125.3099999999995,0.1416008
746,5129.37,0.1395402
747,5133.43,0.1416141
748,5137.49,0.1381229
749,5141.55,0.1375836
750,5145.610000000001,0.1376423
751,5149.669999999999,0.1387633
752,5153.73,0.1401059
753,5157.79,0.1329678
754,5161.85,0.1299582
755,5165.91,0.1264902
756,5169.97,0.1196707
757,5174.03,0.115764
758,5178.089999999999,0.1217513
759,5182.15,0.12675
760,5186.21,0.1329649
761,5190.27,0.1334981
762,5194.33,0.1392638
763,5198.39,0.1422283
764,5202.45,0.1363682
765,5206.509999999999,0.1402813
766,5210.57,0.138107
767,5214.63,0.14165
768,5218.6900000000005,0.1463399
769,5222.75,0.1496327
770,5226.8099999999995,0.1498539
771,5230.87,0.1483942
772,5234.93,0.1513392
