,lambda (Angstroms),Total Flux (erg/s/cm^2/Angstrom)
0,100.09,0.00029356659308918
1,101.94999999999999,0.0003525806031561108
2,104.08000000000001,0.0004198749612650167
3,104.712855,0.00043992011035820196
4,106.02000000000001,0.0004057736967130671
5,107.99,0.0003544025809527418
6,110.0,0.0003030719949891606
7,114.12,0.00019566655205386008
8,118.13000000000001,9.096315892751171e-05
9,120.22644299999999,4.482286394574696e-05
10,120.89000000000001,4.685605641055982e-05
11,125.13,4.396379356487485e-05
12,126.87,4.2849648576315425e-05
13,128.05,4.208528622775214e-05
14,131.03,3.976301182205846e-05
15,131.94,4.129752128206475e-05
16,134.07999999999998,3.957622583636526e-05
17,136.89,4.018984812495611e-05
18,138.038426,3.941366365993706e-05
19,140.07999999999998,4.042959349591383e-05
20,143.01,6.540914425226672e-05
21,147.02,0.00010387469583348687
22,151.14000000000001,0.00010875021157279536
23,155.02,0.00011513661823991112
24,158.489319,0.00012109330794079155
25,158.99,0.00012194141853733557
26,161.95000000000002,0.00012692052789795767
27,166.1,0.00013441188494072172
28,169.97000000000003,0.00014054282488180531
29,173.13,0.00014604733217219915
30,177.16,0.00015276451045710015
31,180.04,0.00015776260064581353
32,181.970086,0.0001612550759016515
33,182.13,0.00016155839190356918
34,185.94,0.00016866632438006972
35,191.15,0.00017730009582431322
36,193.81,0.00018382449986302488
37,197.87,0.00019061814286947952
38,202.01,0.0001981242852455195
39,204.82,0.0002040638756022036
40,208.929613,0.000205576020636173
41,210.07999999999998,0.00020612327138365131
42,215.96,0.00022474278610213423
43,219.98,0.00023293236249130112
44,223.04000000000002,0.00023701529974275653
45,227.17999999999998,0.00024619075602413736
46,229.81,0.0003624897236618261
47,234.09,0.0005888346398174566
48,239.88329199999998,0.0007155046745292217
49,240.09,0.0007199757035974266
50,246.25,0.000681071415405987
51,251.98999999999998,0.0007025308582276001
52,257.26,0.0005811313452781054
53,260.24,0.0006704210776140648
54,263.86,0.0006933114007872773
55,268.77000000000004,0.0006848753429918278
56,273.76,0.0006735695840510349
57,275.42287,0.0006698870668401661
58,278.85,0.0006630504949246521
59,284.03999999999996,0.0006561544106006965
60,289.99,0.0006190234497668745
61,296.06,0.0006197180031683368
62,300.87,0.0005940627070993143
63,307.88,0.0005935210053438367
64,316.227766,0.0005911634204617976
65,317.96,0.000590333726348491
66,327.62,0.00057240947605378
67,338.35999999999996,0.0005511243772789151
68,347.84000000000003,0.0005294906850642298
69,356.76,0.0005133662290985133
70,363.078055,0.0005056667164801261
71,365.90999999999997,0.0005026345659516773
72,375.3,0.00048637856845914703
73,384.91999999999996,0.00045606108796094236
74,394.8,0.00045462917015197537
75,404.93,0.00044310966646727537
76,414.36,0.0004289742632346278
77,416.86938299999997,0.00042419747183195303
78,422.06,0.00041418209628079375
79,429.91,0.0004007570645038628
80,440.94,0.00038965417654213694
81,451.21000000000004,0.0003746731145868401
82,459.6,0.0003618415959106044
83,470.3,0.0003495825666095648
84,478.630092,0.00034211617789147927
85,480.15000000000003,0.0003406171695543367
86,490.2,0.00032459780887483407
87,500.47,0.00031835222358344184
88,506.26,0.00031876551220689256
89,512.13,0.0003842093191532925
90,520.45,0.0003752688247400128
91,530.12,0.0003640119520265013
92,539.98,0.00034289548532999425
93,549.5408739999999,0.00036203918289705783
94,550.02,0.0003630150238837819
95,560.24,0.0003829977088580265
96,569.35,0.00039332872667753425
97,579.9300000000001,0.0003749770334316936
98,589.35,0.0003965786033394612
99,600.3100000000001,0.0003840555997501971
100,610.06,0.00039090118962288654
101,619.98,0.0004345597564472023
102,630.0500000000001,0.0004403449323464825
103,630.957344,0.0004405065665402669
104,640.2900000000001,0.00044253296816708154
105,650.69,0.00046328576305372705
106,658.23,0.00046765563934654503
107,664.32,0.000488344558659975
108,675.11,0.0004941792833548697
109,684.5,0.0004757331702765621
110,695.63,0.0005527019055735202
111,705.3,0.0005177839600498532
112,716.76,0.0005988223821076375
113,724.43596,0.0006095889513102089
114,726.73,0.0006127845183392048
115,735.15,0.0006283589543575358
116,745.3799999999999,0.0006682083422990471
117,755.75,0.0006930655132622408
118,764.5,0.0007011166521173948
119,775.13,0.0007592763344065704
120,784.1099999999999,0.0007910905025116312
121,795.02,0.0008223979508441716
122,804.2199999999999,0.0008510831208404478
123,815.41,0.0008727955352163531
124,824.85,0.0009324726618212278
125,831.763771,0.0008410873254346331
126,834.4,0.0008061352203652329
127,844.0699999999999,0.0009712128348669174
128,855.8100000000001,0.0009955800762577942
129,865.7199999999999,0.0010536919272103994
130,875.74,0.0011076697240363434
131,885.88,0.0011724841890877477
132,894.08,0.0012186855178275423
133,904.43,0.0012295851522735027
134,914.9,0.0016592434549449232
135,925.4999999999999,0.008894946148193927
136,934.0600000000001,0.018661098481610103
137,944.88,0.03482126806660578
138,954.992586,0.046351461379217807
139,955.82,0.047294883661720834
140,964.66,0.05543920486765953
141,975.83,0.0113508958484667
142,984.86,0.0519773862205964
143,993.98,0.05185764619776393
144,1005.49,0.06835878568649181
145,1014.79,0.06306904487373502
146,1024.18,0.02684493366601607
147,1036.04,0.04664608161877999
148,1045.6200000000001,0.08162030957725203
149,1055.3,0.08012985709687723
150,1065.06,0.06619255426542493
151,1074.92,0.0759949409951258
152,1084.87,0.0627773773298645
153,1094.9,0.07758985331352572
154,1096.4782,0.07707198802278793
155,1105.03,0.07426574892771527
156,1115.26,0.07224043841752106
157,1125.5800000000002,0.0652839166711668
158,1135.99,0.07794753368865245
159,1143.8700000000001,0.07108439545597109
160,1154.45,0.07409304013848773
161,1165.13,0.0758220134474932
162,1175.92,0.055437115245636354
163,1184.07,0.07191019330447479
164,1195.02,0.05282043290500005
165,1206.0800000000002,0.040161130994663015
166,1214.44,0.02370521616912796
167,1225.68,0.047839461786470784
168,1234.17,0.06851543517537119
169,1245.59,0.07460734832039388
170,1254.23,0.07223860964902752
171,1258.92541,0.06876165072078731
172,1265.83,0.06364889190262006
173,1274.61,0.07758650048041255
174,1286.4,0.07994091199888335
175,1295.3200000000002,0.06695291071345157
176,1304.3,0.06573023948663799
177,1316.3600000000001,0.07758773126889054
178,1325.49,0.07443479018862237
179,1334.68,0.06773158916697239
180,1343.93,0.07634514820394056
181,1356.3600000000001,0.07392455034767186
182,1365.76,0.06757456953118546
183,1375.23,0.06962742878308693
184,1384.76,0.06994799809360659
185,1394.3600000000001,0.061204717472514096
186,1404.03,0.06277532691980947
187,1413.76,0.06498097642572304
188,1423.5600000000002,0.06528234600002446
189,1433.43,0.06498114564271373
190,1443.36,0.06742166534402119
191,1445.43977,0.06771066796811535
192,1446.6899999999998,0.06788439840103233
193,1453.37,0.06618934387836849
194,1463.44,0.06191151213537073
195,1473.59,0.06134769045796982
196,1483.8000000000002,0.061629848829766534
197,1494.09,0.06205443726716009
198,1504.44,0.05912782575375127
199,1511.3899999999999,0.05392243145247676
200,1518.36,0.056597107167601454
201,1525.3700000000001,0.05518372291552456
202,1535.95,0.049066061590706665
203,1546.59,0.0517361903150864
204,1553.73,0.04918158616960438
205,1564.5,0.05009325500057897
206,1575.3500000000001,0.05281936389715041
207,1586.27,0.054299872851119084
208,1593.59,0.055183198853229955
209,1604.6299999999999,0.05343108790559388
210,1615.76,0.053187187031754256
211,1623.21,0.05079079314045999
212,1634.47,0.05306326237321523
213,1645.8,0.053306381663367715
214,1653.39,0.049978857886867914
215,1659.58691,0.05184577132811552
216,1664.85,0.053431384483567115
217,1672.5400000000002,0.0487274705314257
218,1676.39,0.05343103358529508
219,1684.13,0.05467725993255457
220,1695.8100000000002,0.05173556987260506
221,1703.6299999999999,0.04986439669890599
222,1715.44,0.04784008741739882
223,1723.36,0.04729331484250155
224,1735.31,0.04952047639931691
225,1743.32,0.048283744363341256
226,1755.4,0.05044221669859896
227,1763.5,0.046860115201544934
228,1775.73,0.04773072843500534
229,1783.9199999999998,0.04806020747687293
230,1796.2900000000002,0.050093961548655856
231,1804.5800000000002,0.04963552118932526
232,1817.0900000000001,0.0465377560994307
233,1825.4799999999998,0.0469679263389019
234,1833.8999999999999,0.04547860675801364
235,1846.61,0.042151592865722703
236,1855.14,0.04224802394351643
237,1863.7,0.04313321520095069
238,1876.62,0.045374212566143525
239,1885.28,0.04224850442237959
240,1893.98,0.04062732651813638
241,1905.46072,0.04221568686056868
242,1907.11,0.04244384253472599
243,1915.91,0.04109805461085369
244,1924.76,0.04006982630105029
245,1933.64,0.04081452775968824
246,1947.04,0.04244364433015541
247,1956.03,0.039885544939744964
248,1965.06,0.042541565240589635
249,1974.13,0.04333209523268943
250,1983.24,0.041287214916044354
251,1996.9899999999998,0.04016173878499388
252,2006.21,0.04081378761930041
253,2015.47,0.03979359614486205
254,2024.77,0.04081378436167882
255,2034.1200000000001,0.0391566921925645
256,2043.51,0.0399767197147053
257,2052.94,0.03774042692810123
258,2067.17,0.038177677092112276
259,2071.93,0.04053274035147225
260,2076.71,0.0391566934564598
261,2086.3,0.040161119434876234
262,2095.93,0.03817741510454779
263,2105.6,0.03844208046547448
264,2115.32,0.03861901544047007
265,2125.08,0.03879773010672079
266,2134.8900000000003,0.03671183438704042
267,2144.75,0.03722205828142895
268,2154.65,0.03808895186707261
269,2164.59,0.03679602514397139
270,2174.58,0.036542588034939094
271,2184.62,0.03612408053997569
272,2187.7616199999998,0.036493040806673496
273,2194.7,0.037307998989785686
274,2204.83,0.03629165132980022
275,2215.01,0.034738273977514736
276,2225.24,0.03386915693292922
277,2235.51,0.03562910013450368
278,2245.83,0.03434027364377812
279,2256.19,0.033022447399212534
280,2266.61,0.03332766152388691
281,2277.0699999999997,0.033947655894721276
282,2287.58,0.03449936057325561
283,2292.85,0.03272033300483277
284,2303.43,0.03296023811414706
285,2314.07,0.03186164359270132
286,2324.75,0.026826249317415566
287,2335.48,0.02998024534982978
288,2346.26,0.028914411689943968
289,2357.09,0.03078873833775813
290,2362.52,0.0286773617539752
291,2373.43,0.029296598894109318
292,2384.38,0.027359596280403412
293,2395.39,0.02866784403593748
294,2406.44,0.02777724203763152
295,2417.55,0.02811714040856553
296,2423.13,0.02951938474788252
297,2434.31,0.028470973549596493
298,2445.5499999999997,0.029626892720550434
299,2456.83,0.029240532137664352
300,2462.5,0.028915677030841292
301,2473.86,0.02795320694027517
302,2485.28,0.028101387218949014
303,2496.76,0.02642579786686282
304,2502.51,0.02911844325235972
305,2511.88643,0.026905168269511028
306,2514.0600000000004,0.026392085777983205
307,2519.8599999999997,0.02676816196377628
308,2525.67,0.025987968125751756
309,2537.32,0.026246320378249918
310,2543.17,0.025955076444954997
311,2554.9100000000003,0.027511738483094773
312,2566.71,0.02678052037832896
313,2572.62,0.027923166302128453
314,2584.5,0.027559148006821858
315,2596.4300000000003,0.027138029592427268
316,2602.41,0.026226045349503575
317,2614.42,0.0258249767445682
318,2626.4900000000002,0.026751337996727236
319,2632.55,0.02770086356326276
320,2644.7,0.02970300462488101
321,2656.8999999999996,0.03055678556741127
322,2663.03,0.027943010967223608
323,2675.3199999999997,0.02881254169539548
324,2687.6699999999996,0.02903316228066177
325,2693.87,0.02741903751375092
326,2706.2999999999997,0.028142927908476424
327,2712.54,0.026639793046295178
328,2725.0600000000004,0.0262334632266623
329,2737.64,0.02729999326412383
330,2743.95,0.0242292682352194
331,2756.6099999999997,0.024868808082140145
332,2762.9700000000003,0.025751972934147726
333,2775.72,0.026615282566710086
334,2782.1200000000003,0.024963167323447274
335,2794.96,0.02087584674165125
336,2807.8599999999997,0.02197692601694964
337,2814.34,0.026008190583146042
338,2827.33,0.02719139964408605
339,2833.84,0.026339274138829655
340,2846.92,0.02534751298541128
341,2853.4900000000002,0.024049037337249293
342,2866.66,0.026572075969472534
343,2873.27,0.027014220226040157
344,2884.0315,0.026779762702575045
345,2886.5299999999997,0.0267253344729469
346,2893.1800000000003,0.02692111414880428
347,2913.2400000000002,0.029012543171014656
348,2926.68,0.02772858251590536
349,2946.97,0.02712934152690479
350,2967.4,0.027349480531080165
351,2987.97,0.027256379528431483
352,3008.6800000000003,0.02735139851895875
353,3029.54,0.027384157502174527
354,3050.53,0.02741728647905368
355,3071.68,0.027513735448133916
356,3092.97,0.027421084410390095
357,3107.2499999999995,0.027697063714336462
358,3128.79,0.02703763266440683
359,3150.4700000000003,0.02694706160765314
360,3172.31,0.027230010543100532
361,3186.9500000000003,0.025788139829499335
362,3209.05,0.026604448752273475
363,3231.29,0.02526473766822357
364,3253.69,0.027230546576374737
365,3268.71,0.028341625844251102
366,3291.3599999999997,0.02798889474021646
367,3306.56,0.027564673999319042
368,3311.31121,0.027434781415180468
369,3321.8199999999997,0.027147473975815663
370,3329.48,0.02837347683835637
371,3337.1499999999996,0.02761249969157924
372,3344.85,0.026933482516848614
373,3352.56,0.026575815332800158
374,3360.2799999999997,0.02739533813943387
375,3368.03,0.027218470918114086
376,3375.79,0.02426961368747647
377,3383.58,0.02507544642888536
378,3391.38,0.027442819160976413
379,3399.19,0.028224121883749637
380,3407.0299999999997,0.026534734578569367
381,3414.88,0.027102447264071263
382,3422.76,0.02845704992161966
383,3430.65,0.02775798256985023
384,3438.55,0.027962955208762966
385,3446.48,0.024478667819722206
386,3454.43,0.027350590412045784
387,3462.3900000000003,0.025128482995051528
388,3470.37,0.02644584555942161
389,3478.37,0.024297108105156024
390,3486.39,0.026046600632254776
391,3494.43,0.025406263140717863
392,3502.48,0.027110535639863122
393,3510.56,0.02656649811105488
394,3518.6499999999996,0.02555815057292881
395,3526.7599999999998,0.025219103016167074
396,3534.89,0.026910345440769676
397,3543.04,0.02838669784673661
398,3551.21,0.028009930234067885
399,3559.39,0.02738502261208133
400,3567.6000000000004,0.02683586496214127
401,3575.82,0.02448610730288338
402,3584.0699999999997,0.023556879615672002
403,3592.3300000000004,0.023731131919142785
404,3600.61,0.027511044203977906
405,3606.07,0.02599598911644164
406,3608.8199999999997,0.02453958655403785
407,3611.57,0.027132773991634055
408,3614.31,0.024605031438548093
409,3617.0600000000004,0.0261004688761443
410,3619.8,0.025110236323058335
411,3622.5499999999997,0.029789583760654544
412,3625.3,0.029952341198250746
413,3628.04,0.028565808645164784
414,3630.79,0.025354146082760994
415,3633.5299999999997,0.025865143529675026
416,3636.28,0.022611940967271236
417,3639.0299999999997,0.02929530840486744
418,3641.7699999999995,0.02481319585178148
419,3644.52,0.02495543328937768
420,3647.2700000000004,0.02568354072697389
421,3650.01,0.027993728173887927
422,3652.7599999999998,0.028131655611484133
423,3655.5,0.02643809305839817
424,3658.25,0.025323090495994374
425,3661.0,0.02614860793359058
426,3663.74,0.02696424538050462
427,3666.4900000000002,0.024073462818100824
428,3669.23,0.027674780265014864
429,3671.98,0.028288767702611066
430,3674.73,0.025540285140207272
431,3677.47,0.02491007258712131
432,3680.2200000000003,0.024773460024717517
433,3682.96,0.026196457471631556
434,3685.71,0.02771004490922776
435,3688.46,0.023638912346823967
436,3691.2,0.027214439793738002
437,3693.95,0.02684718723133421
438,3696.69,0.028406274678248244
439,3699.44,0.026994752115844452
440,3702.19,0.025742719553440655
441,3704.9300000000003,0.024454047000354695
442,3707.68,0.0261743944379509
443,3710.4199999999996,0.029212271884864936
444,3713.17,0.031015689322461144
445,3715.9199999999996,0.03001623676005735
446,3718.66,0.03658565420697139
447,3721.41,0.060249481644567594
448,3724.15,0.09823889909148163
449,3726.9,0.13109959652907782
450,3729.65,0.11351339396667405
451,3732.39,0.07366233141358808
452,3735.1400000000003,0.042776698851184285
453,3737.88,0.02883742629809832
454,3740.6299999999997,0.02936069373569453
455,3743.38,0.027903331173290732
456,3746.12,0.02574897862020477
457,3748.8700000000003,0.025675866057800974
458,3751.62,0.026519053495397182
459,3754.36,0.02941416094231122
460,3757.11,0.030081628379907424
461,3759.8500000000004,0.030167185826821465
462,3762.6,0.03005873326441767
463,3765.35,0.030030020702013875
464,3768.09,0.02830923814892791
465,3770.8399999999997,0.03049607558652412
466,3773.5800000000004,0.03227530303343815
467,3776.33,0.03359358047103436
468,3779.0800000000004,0.03504316790863057
469,3781.82,0.0351850953555446
470,3784.5699999999997,0.034692722793140805
471,3787.31,0.03399808024005485
472,3790.06,0.031006057677651053
473,3792.81,0.02934910511524726
474,3795.5499999999997,0.029018292562161294
475,3798.3,0.0290225299997575
476,3801.04,0.028547037446671537
477,3801.8939600000003,0.02925562781649342
478,3803.7900000000004,0.030828905252380353
479,3806.54,0.0345269932238839
480,3809.2799999999997,0.037401111202763807
481,3812.03,0.03537456917426736
482,3814.77,0.03497071715314726
483,3817.52,0.03372535512465081
484,3820.27,0.033959733096154354
485,3823.01,0.03295233107503426
486,3825.76,0.03176425904653781
487,3828.5000000000005,0.029751257025417706
488,3831.25,0.027281614996921257
489,3834.0,0.027756662968424807
490,3836.7400000000002,0.027835530947304708
491,3839.49,0.028220328918808258
492,3842.23,0.029395526897688155
493,3844.98,0.03203072486919171
494,3847.7299999999996,0.03576271284069526
495,3850.47,0.03557852081957515
496,3853.22,0.036077888791078705
497,3855.9700000000003,0.03759623676258226
498,3858.71,0.03626988474146216
499,3861.46,0.03845623271296571
500,3864.2,0.04118377069184561
501,3866.9500000000003,0.040167118663349155
502,3869.7,0.03842944663485271
503,3872.4399999999996,0.03851026461373261
504,3875.19,0.035945582585236155
505,3877.93,0.03375927056411606
506,3880.6800000000003,0.03339868853561961
507,3883.43,0.031749846507123154
508,3886.17,0.03336624448600306
509,3888.92,0.03236298245750661
510,3891.6600000000003,0.03086423043638651
511,3894.41,0.03338912840789006
512,3897.16,0.03386511637939361
513,3899.9,0.03450697435827351
514,3902.6499999999996,0.03554687232977705
515,3905.3900000000003,0.03695510030865696
516,3908.14,0.03758292828016051
517,3910.8900000000003,0.037929026251664055
518,3913.63,0.03749175423054396
519,3916.3799999999997,0.03750696220204751
520,3919.12,0.035918460180927404
521,3921.87,0.03544662815243096
522,3924.62,0.033579566123934514
523,3927.3599999999997,0.03011642410281441
524,3930.11,0.02893124207431796
525,3932.85,0.02845574005319786
526,3935.6000000000004,0.03060820802470141
527,3938.35,0.03226455599620496
528,3941.0899999999997,0.03472993397508486
529,3943.84,0.03466588194658841
530,3946.58,0.03599245992546831
531,3949.33,0.03574695789697186
532,3952.08,0.03681358586847541
533,3954.82,0.03520981384735531
534,3957.57,0.03262938181885886
535,3960.32,0.029217659790362407
536,3963.06,0.02658247776924231
537,3965.81,0.02607675574074586
538,3968.55,0.02714259371962576
539,3971.2999999999997,0.02734165169112931
540,3974.05,0.02909111966263286
541,3976.79,0.03137217764151276
542,3979.54,0.03428145561301631
543,3982.28,0.03724439359189621
544,3985.0299999999997,0.037199911563399767
545,3987.78,0.03830043953490331
546,3990.52,0.03937490751378321
547,3993.27,0.03850484548528676
548,3996.0099999999998,0.03937590346416666
549,3998.76,0.04013360143567021
550,4001.5099999999998,0.04009197940717376
551,4004.2499999999995,0.03925314738605366
552,4007.0,0.04037803535755721
553,4009.74,0.042181153336437106
554,4012.4900000000002,0.04225508130794066
555,4015.24,0.04157266927944421
556,4017.98,0.04213766725832411
557,4020.73,0.04108710522982766
558,4023.4700000000003,0.04004151320870756
559,4026.22,0.041247571180211114
560,4028.9700000000003,0.039550499151714665
561,4031.71,0.03976691713059456
562,4034.4600000000005,0.04134302510209811
