,lambda (Angstroms),Total Flux (erg/s/cm^2/Angstrom)
0,101.98,110.37118398961383
1,104.11,110.01856334645764
2,104.712855,109.91876094372365
3,106.05,108.75596918412633
4,108.02000000000001,107.0428417623509
5,110.03,105.29493002748018
6,113.89,101.9382438102902
7,117.9,98.45111641895225
8,120.22644299999999,96.42802337567767
9,120.92,95.9223683964697
10,124.88000000000001,93.03523191233586
11,126.91,91.55520992688494
12,128.09,90.69490158077527
13,131.07,88.52225846956857
14,131.98,87.85880033969147
15,134.12,86.29858011933396
16,136.93,84.24987973970951
17,138.038426,83.44175419924898
18,140.12,82.35698188345465
19,143.05,80.83006869557362
20,147.06,78.74033434468761
21,150.82999999999998,76.77567129569371
22,155.06,74.5712880966305
23,158.489319,72.78416443177937
24,159.04000000000002,72.56720469999624
25,162.0,71.40101084119843
26,166.15,69.76597555582842
27,170.02,68.24125592390334
28,173.18,66.99626522945705
29,176.80999999999997,65.5661019114534
30,180.10000000000002,64.2698932724825
31,181.970086,63.53310859895045
32,182.18,63.470014232800864
33,185.99999999999997,62.32182750095321
34,191.20999999999998,60.75584510212613
35,193.87,59.95632249839183
36,197.93,58.73599848357005
37,202.07,57.491628738437925
38,204.88,56.64702034369693
39,208.929613,55.42981836640355
40,210.14000000000001,55.15630161334524
41,216.02,53.82757138183993
42,220.04,52.91915374102203
43,223.1,52.22767160421633
44,227.25,51.28987739472774
45,229.88000000000002,50.69556843852682
46,234.14999999999998,49.7306659819442
47,239.88329199999998,48.435094523392735
48,240.16,48.386909480171546
49,245.75,47.41347893149929
50,252.06,46.314672746936736
51,256.74,45.49970346288975
52,259.71999999999997,44.98077863785486
53,263.94,44.24592037889666
54,268.84999999999997,43.39090553166527
55,273.84,42.521959649564934
56,275.42287,42.246322752743794
57,278.93,41.77762099164605
58,284.12,41.08401624499266
59,290.07,40.28884061686171
60,296.14,39.47763182687064
61,300.96000000000004,38.833474521456814
62,307.97,37.896641910972996
63,316.227766,36.79305536193113
64,318.05,36.61116465762436
65,327.72,35.64592919680994
66,337.68,34.65174582355285
67,347.94,33.62761683811747
68,356.86,32.73724429255377
69,363.078055,32.116573878524065
70,366.02000000000004,31.896656269640662
71,375.40999999999997,31.194728683334066
72,385.03999999999996,30.474857169634646
73,394.90999999999997,29.737053237942416
74,405.03999999999996,28.979810460866286
75,413.53000000000003,28.34516076315776
76,416.86938299999997,28.095532311638948
77,422.18,27.792371414687157
78,430.03,27.344248716308616
79,441.06,26.714595769635576
80,451.34000000000003,26.127754123045193
81,459.73,25.648804978175132
82,470.44,25.0374170405267
83,478.630092,24.569882098813977
84,480.29,24.497005950535783
85,490.35,24.0553296505472
86,499.46,23.65536953474502
87,506.40999999999997,23.350272461423483
88,512.27,23.0933595651695
89,520.6,22.72768398609088
90,530.28,22.302747949036867
91,540.13,21.870283814320015
92,549.5408739999999,21.457462116341492
93,550.18,21.43608051982394
94,560.4,21.094054943495482
95,569.51,20.78918496666649
96,580.1,20.434457062171543
97,589.52,20.11946639017604
98,600.48,19.752554053514604
99,610.24,19.426222994852587
100,620.16,19.09447208052399
101,630.2299999999999,18.757625337695462
102,630.957344,18.733271529760284
103,640.47,18.48079074995595
104,649.38,18.244968738796757
105,658.42,18.005426329582487
106,664.51,17.844094068541022
107,675.31,17.55745718419654
108,684.7,17.308182230910923
109,694.23,17.057225418796765
110,705.51,16.75745288632587
111,715.3199999999999,16.498794795554637
112,724.43596,16.25727676148582
113,725.27,16.240886548101432
114,735.36,16.042581949692515
115,745.59,15.842711974415685
116,754.23,15.673532800281588
117,764.72,15.467862231107201
118,775.3599999999999,15.259754203145771
119,784.34,15.084418767761022
120,795.25,14.870349049982899
121,804.46,14.689925038458009
122,815.65,14.470306194944058
123,825.09,14.286752007279025
124,831.763771,14.151986016308944
125,834.65,14.108067831684036
126,844.3100000000001,13.972035018578802
127,854.09,13.828940474938097
128,865.9699999999999,13.656330801926691
129,876.0,13.511058440503758
130,884.1,13.395057384359616
131,894.34,13.246536291999616
132,904.6899999999999,13.094230965815436
133,915.17,12.961058732384497
134,925.7700000000001,13.189577888418087
135,934.33,13.566679983554648
136,945.15,14.112335501939885
137,954.992586,14.399355378025795
138,956.1,14.432001100069472
139,964.9399999999999,14.430880157829044
140,976.12,12.358805930877917
141,985.1500000000001,13.472972232186622
142,994.26,13.548167657094957
143,1005.78,14.311323655442276
144,1015.08,14.247352523899744
145,1024.48,12.880627046856757
146,1033.96,13.324537493413404
147,1045.93,14.709500437008662
148,1055.6100000000001,14.371045192564392
149,1065.3700000000001,13.465022871719757
150,1075.23,13.84675120537467
151,1085.18,13.123258328079162
152,1095.22,13.824162239833248
153,1096.4782,13.773068594888507
154,1105.36,13.43559477154049
155,1115.5800000000002,13.19717416329831
156,1125.9099999999999,12.552159440877404
157,1133.71,13.358546344567326
158,1144.2,12.962376456068263
159,1154.79,12.98248046377035
160,1165.47,12.856496378053475
161,1176.26,11.315776178157869
162,1184.41,12.594255718551826
163,1195.3700000000001,11.92640734219818
164,1203.65,10.974452747653636
165,1214.79,10.593799184462068
166,1226.03,11.61038251747165
167,1234.53,12.284308694569642
168,1245.95,12.251292840741296
169,1254.59,11.997658872520907
170,1258.92541,11.906961404102644
171,1266.2,11.779424128896087
172,1274.98,12.166404065016371
173,1283.81,12.165361362959665
174,1295.6899999999998,11.181589732106474
175,1304.67,11.29167211551879
176,1313.7199999999998,11.923077605483321
177,1325.8700000000001,11.569732528474372
178,1335.0600000000002,11.224447231543323
179,1344.32,11.54698004116449
180,1353.64,11.388339084973264
181,1366.1599999999999,10.922536285454582
182,1375.6299999999999,10.85881941473238
183,1385.17,10.754777650562392
184,1394.77,9.773953120580014
185,1404.44,9.888180697149847
186,1414.1699999999998,10.243122507907295
187,1423.97,10.17535242521695
188,1433.8400000000001,10.212551449078816
189,1440.46,10.281553954445137
190,1445.43977,10.221849973617054
191,1447.1100000000001,10.206068388516323
192,1453.7900000000002,10.07352203720367
193,1463.87,9.735390177737871
194,1474.02,9.775619263692446
195,1484.23,9.730360017150202
196,1494.52,9.669904993945533
197,1504.88,9.343752916161236
198,1511.8300000000002,8.95194606861289
199,1515.31,9.07652378379732
200,1525.82,9.083783874770972
201,1536.3899999999999,8.577989633247808
202,1543.48,8.541676676540217
203,1554.18,8.441668047940606
204,1564.95,8.576253364761374
205,1575.8,8.721313904919715
206,1586.73,8.751746668415628
207,1594.05,8.715310103803557
208,1605.1000000000001,8.70216320230583
209,1616.2299999999998,8.630249524145677
210,1623.69,8.496528850374359
211,1634.94,8.661294507220564
212,1646.27,8.629275387404343
213,1653.8700000000001,8.482179604473778
214,1659.58691,8.534713257914742
215,1665.34,8.59770139174913
216,1673.02,8.360164063810142
217,1676.88,8.666076643778306
218,1684.6200000000001,8.641560547652292
219,1696.3,8.407136007245077
220,1704.13,8.305917758838529
221,1715.94,8.085594554026098
222,1723.8600000000001,8.040236153339015
223,1735.8100000000002,8.175624156090194
224,1743.8200000000002,8.068987603122576
225,1755.91,8.14105781343737
226,1764.01,7.992484108189218
227,1776.24,7.844134526067624
228,1784.4399999999998,7.908450540507765
229,1796.8100000000002,8.00762516594978
230,1805.1000000000001,8.008832028109385
231,1813.43,7.633941378144311
232,1826.0000000000002,7.724213442962916
233,1834.4299999999998,7.592014512686136
234,1842.9,7.30696807028467
235,1855.68,7.277767446448694
236,1864.24,7.314136851766696
237,1872.8500000000001,7.492002616928842
238,1885.83,7.136216432469457
239,1894.5300000000002,6.936873045351069
240,1903.28,7.15355501807683
241,1905.46072,7.115640105359839
242,1916.47,6.936325929693857
243,1925.3200000000002,6.826572635448413
244,1934.2,6.963048923256373
245,1943.13,7.031068514486677
246,1956.6,6.743234856465646
247,1965.6299999999999,6.987319054540633
248,1974.7,7.072113695353494
249,1983.82,6.8604806395886975
250,1992.97,6.785915165877306
251,2006.79,6.869516631812671
252,2016.05,6.787166625630432
253,2025.36,6.8815309228705335
254,2034.71,6.625439662848512
255,2044.1000000000001,6.696634845564362
256,2053.53,6.557277471018087
257,2063.01,6.557437399894153
258,2072.54,6.733030632192563
259,2077.31,6.451577178684001
260,2086.9,6.57962157508922
261,2096.53,6.399296414232313
262,2106.21,6.456303556797749
263,2115.93,6.4563881421010585
264,2125.7000000000003,6.462672030826708
265,2135.5099999999998,6.344693362290235
266,2145.37,6.2520759971761
267,2155.27,6.343754074799841
268,2165.22,6.296034455845924
269,2175.21,6.248347279629879
270,2185.25,6.143232406836178
271,2187.7616199999998,6.1572107123540665
272,2195.34,6.206775700142437
273,2205.47,6.162733909520643
274,2215.65,6.073110165341977
275,2225.88,5.985238467606442
276,2236.1600000000003,6.014367816314038
277,2246.48,5.982094602176137
278,2256.85,5.878455434481369
279,2267.26,5.911911703941103
280,2272.4900000000002,5.912347361892534
281,2282.98,5.919295505661278
282,2293.52,5.7354526958731515
283,2304.1,5.7946203232395295
284,2314.7400000000002,5.682948606337662
285,2325.42,5.2754413265903
286,2336.16,5.523333702574696
287,2346.94,5.506916515713594
288,2352.35,5.556693140860297
289,2363.21,5.464696828308204
290,2374.1200000000003,5.4430455621992415
291,2385.07,5.362687733244783
292,2396.08,5.389582560022083
293,2407.1400000000003,5.30922543324251
294,2412.69,5.317491588429977
295,2423.83,5.344406335959415
296,2435.02,5.249056129931982
297,2446.26,5.28998497034768
298,2457.55,5.262628857206508
299,2463.21,5.2220397145688615
300,2474.58,5.156143475736698
301,2486.0099999999998,5.1334228926362915
302,2497.48,4.872786746690389
303,2503.24,5.099180696939003
304,2511.88643,4.985192099060266
305,2514.79,4.948422672366338
306,2520.5899999999997,5.022082842596296
307,2526.3999999999996,4.962909820016306
308,2532.22,4.9543696046263666
309,2543.91,4.892245209796748
310,2555.65,4.947415850917388
311,2567.45,4.902611335178337
312,2573.37,4.944588191688914
313,2585.25,4.908550133470277
314,2597.18,4.872632111201898
315,2603.17,4.827480618042837
316,2615.18,4.787440053294871
317,2627.25,4.796608331687215
318,2633.31,4.805811488858515
319,2645.46,4.848148224771272
320,2657.6699999999996,4.8490878038243395
321,2663.8,4.7159306113260016
322,2676.1000000000004,4.747499455089532
323,2682.27,4.738433491351403
324,2694.65,4.643975792635347
325,2707.0899999999997,4.625677937059602
326,2713.33,4.585920623651833
327,2725.8500000000004,4.5718532255965005
328,2732.1299999999997,4.593269140948939
329,2744.7500000000005,4.450802814794122
330,2757.4100000000003,4.444596717399513
331,2763.77,4.460360090272365
332,2776.5299999999997,4.484233064778273
333,2782.9300000000003,4.423696666411329
334,2795.77,4.236559098437651
335,2802.2200000000003,4.285253736020965
336,2815.15,4.393128432757752
337,2828.1499999999996,4.3996157798249
338,2834.67,4.314115067738576
339,2847.75,4.294848872326137
340,2854.32,4.248339196190071
341,2867.49,4.303330265488097
342,2874.1,4.2851598181122394
343,2884.0315,4.261131232077071
344,2887.3700000000003,4.2545439440100274
345,2894.02,4.2352286445946135
346,2907.38,4.267686667122442
347,2927.5299999999997,4.209104173405058
348,2947.8300000000004,4.1510897330843175
349,2968.2599999999998,4.138262805707338
350,2988.8399999999997,4.104804931727003
351,3009.5499999999997,4.0632305706904255
352,3030.41,4.045780263050493
353,3051.42,4.016076008807206
354,3072.57,3.98627153773412
355,3086.7499999999995,3.9477427188302743
356,3108.15,3.925693003418263
357,3129.69,3.8760020711764533
358,3151.39,3.849706462557732
359,3173.23,3.807846637109212
360,3187.88,3.7433725188481866
361,3209.98,3.7431597192871844
362,3232.23,3.671577973122827
363,3247.1499999999996,3.693441150975762
364,3269.66,3.6777634306989224
365,3292.32,3.6392857638187266
366,3307.52,3.6123555080120653
367,3311.31121,3.6235585498478695
368,3322.78,3.661038249140482
369,3330.44,3.6594255850282185
370,3338.12,3.589142720748559
371,3345.8199999999997,3.583578656301505
372,3353.53,3.555760991770753
373,3361.2599999999998,3.5687321270726065
374,3369.01,3.5299310622070648
375,3376.77,3.4918103972578254
376,3384.56,3.5297179320574945
377,3392.3599999999997,3.5651258667734655
378,3400.18,3.5938436013220416
379,3408.02,3.4981691357032227
380,3415.88,3.5108584699170087
381,3423.75,3.580760204047098
382,3431.6400000000003,3.5673737380097914
383,3439.55,3.55783107180509
384,3447.48,3.469721205432994
385,3455.43,3.453063138893503
386,3463.39,3.4114694722703147
387,3471.38,3.459819005396034
388,3479.38,3.4141589384380557
389,3487.4,3.390581671312682
390,3495.44,3.4461592040199136
391,3503.5,3.4147785365597505
392,3511.57,3.40172326901589
393,3519.6699999999996,3.4140182012209372
394,3527.7799999999997,3.3720995333422863
395,3535.92,3.428070065212543
396,3544.07,3.4371119969991026
397,3552.24,3.4463037286182674
398,3560.43,3.4253312600700374
399,3568.6299999999997,3.3569511914381094
400,3576.86,3.284006322555089
401,3585.11,3.2608712535046736
402,3593.3700000000003,3.2824365843705605
403,3601.65,3.3549337150690537
404,3609.96,3.3091930455164533
405,3618.2799999999997,3.324751775880156
406,3626.62,3.3852223060764635
407,3634.98,3.323584636105376
408,3643.36,3.384528765966893
409,3649.6099999999997,3.290357713655973
410,3652.34,3.069506890806563
411,3655.06,3.3086376680408502
412,3657.7799999999997,3.3016844452751375
413,3660.5,3.321105222509425
414,3663.22,3.2720129997437124
415,3665.9399999999996,3.182298776978
416,3668.67,3.1682969541285892
417,3671.39,3.243188731362877
418,3674.1099999999997,3.345788508597164
419,3676.83,3.3474862858314514
420,3679.5499999999997,3.198277063065739
421,3682.2700000000004,3.2092548403000256
422,3685.0,3.288156017450616
423,3687.72,3.2161907946849038
424,3690.44,3.249414571919191
425,3693.16,3.2633993491534783
426,3695.88,3.2558181263877652
427,3698.6000000000004,3.2164229036220524
428,3701.33,3.264243080772643
429,3704.0499999999997,3.18647485800693
430,3706.77,3.201766635241217
431,3709.49,3.464973412475505
432,3712.21,3.642936189709792
433,3714.9300000000003,4.1926159669440795
434,3717.66,5.647694144094669
435,3720.3799999999997,8.046093921328957
436,3723.1,10.376011698563245
437,3725.82,10.486093475797531
438,3728.54,8.385485253031819
439,3731.26,5.618816030266106
440,3733.99,4.156684207416696
441,3736.7099999999996,3.620833984650983
442,3739.4300000000003,3.3089797618852703
443,3742.15,3.2921445391195574
444,3744.8700000000003,3.2787863163538447
445,3747.59,3.1721060935881322
446,3750.3199999999997,3.286035270738723
447,3753.0400000000004,3.3575280479730094
448,3755.76,3.4149838252072975
449,3758.48,3.3090366024415845
450,3761.2000000000003,3.3690023796758712
451,3763.92,3.3896791569101588
452,3766.65,3.308940334060749
453,3769.3700000000003,3.2828511112950363
454,3772.09,3.3733218885293237
455,3774.81,3.568328665763611
456,3777.53,3.511133442997899
457,3780.25,3.4723662202321854
458,3782.98,3.5101993973827756
459,3785.7000000000003,3.415388174617063
460,3788.42,3.4074409518513504
461,3791.14,3.309335729085638
462,3793.86,3.2418405063199254
463,3796.58,3.2836642835542125
464,3799.3100000000004,3.350200460704802
465,3801.8939600000003,3.439648014418891
466,3802.03,3.4443872245652356
467,3804.75,3.489947557982397
468,3807.47,3.525914891399557
469,3810.19,3.4540532248167177
470,3812.91,3.4904385582338784
471,3815.6400000000003,3.4573274958180136
472,3818.36,3.399319829235174
473,3821.08,3.376993162652335
474,3823.8,3.4200184960694955
475,3826.52,3.230079829486656
476,3829.24,3.1305091629038166
477,3831.9700000000003,3.206195100487952
478,3834.69,3.3445794339051123
479,3837.41,3.279749767322273
480,3840.13,3.3571751007394335
481,3842.85,3.3962524341565943
482,3845.5699999999997,3.5368327675737548
483,3848.3,3.53553470515789
484,3851.02,3.52094603857505
485,3853.74,3.6120693719922112
486,3856.46,3.6301307054093717
487,3859.18,3.7007070388265326
488,3861.8999999999996,3.735445372243693
489,3864.63,3.8793033098278284
490,3867.35,3.757095643244989
491,3870.0699999999997,3.6295289766621495
492,3872.79,3.54616531007931
493,3875.5099999999998,3.4504896434964705
494,3878.2299999999996,3.426620976913631
495,3880.96,3.5229829144977662
496,3883.68,3.565432247914927
497,3886.3999999999996,3.5686725813320876
498,3889.12,3.4653629147492477
499,3891.8399999999997,3.3773462481664085
500,3894.5600000000004,3.3934205815835687
501,3897.29,3.3503245191677045
502,3900.0099999999998,3.429735852584865
503,3902.73,3.557142186002026
504,3905.45,3.576928519419186
505,3908.17,3.5348928528363466
506,3910.8900000000003,3.496202186253507
507,3913.62,3.4966811238376425
508,3916.3399999999997,3.4835834572548032
509,3919.06,3.442618790671964
510,3921.78,3.324044124089124
511,3924.5,3.2453854575062846
512,3927.2200000000003,3.242089790923445
513,3929.95,3.187962728507581
514,3932.6699999999996,3.1520170619247416
515,3935.3900000000003,3.2746653953419016
516,3938.11,3.3928437287590625
517,3940.8300000000004,3.370517062176223
518,3943.55,3.424730395593383
519,3946.2799999999997,3.476628333177519
520,3948.9999999999995,3.4624576665946796
521,3951.7200000000003,3.34840500001184
522,3954.44,3.3505203334290004
523,3957.1600000000003,3.2528836668461607
524,3959.88,3.226950000263322
525,3962.6099999999997,3.2917089378474573
526,3965.3300000000004,3.311103271264617
527,3968.05,3.297978604681778
528,3970.77,3.2456429380989387
529,3973.4900000000002,3.251365271516099
530,3976.21,3.37111260493326
531,3978.94,3.382858542517395
532,3981.6600000000003,3.4126038759345554
533,3984.38,3.4363892093517165
534,3987.1,3.479178542768877
535,3989.82,3.4902078761860373
536,3992.54,3.460536209603198
537,3995.2700000000004,3.5148381471873336
538,3997.9900000000002,3.549263480604494
539,4000.71,3.5263098140216544
540,4003.43,3.572053147438815
541,4006.15,3.5602094808559754
542,4008.87,3.5513458142731364
543,4011.6000000000004,3.6402837518572717
544,4014.32,3.617592085274432
545,4017.04,3.5785624186915923
546,4019.76,3.641087752108753
547,4022.48,3.5917850855259137
548,4025.2,3.4712764189430745
549,4027.9300000000003,3.5610763565272094
550,4030.65,3.55315368994437
551,4033.37,3.5003740233615304
552,4036.09,3.535844356778691
553,4038.81,3.604434690195852
554,4041.5299999999997,3.5657190236130125
555,4044.26,3.5058139611971475
556,4046.98,3.4961922946143082
557,4049.7,3.5152196280314687
558,4052.42,3.5637609614486294
559,4055.14,3.49775429486579
560,4057.8599999999997,3.574813628282951
561,4060.59,3.5437145658670857
562,4063.31,3.6310208992842465
563,4066.0299999999997,3.5219092327014074
564,4068.75,3.5484665661185675
565,4071.47,3.515213899535728
566,4074.1899999999996,3.4804442329528893
567,4076.92,3.481394170537024
568,4079.64,3.4981485039541846
569,4082.3599999999997,3.4875848373713456
570,4085.08,3.415958170788506
571,4087.7999999999997,3.418230504205666
572,4090.5200000000004,3.4494398376228266
573,4093.25,3.5223797752069617
574,4095.97,3.652165108624123
575,4098.69,3.826806442041284
576,4101.41,3.7334047754584443
577,4104.13,3.4705351088756045
578,4106.85,3.3559074422927653
579,4109.58,3.3816643798769004
580,4112.3,3.304104713294061
581,4115.0199999999995,3.336961046711222
582,4117.74,3.413993380128382
583,4120.46,3.3691867135455427
584,4123.18,3.3874830469627026
585,4125.91,3.3805649845468384
586,4128.63,3.3499263179639986
587,4131.349999999999,3.40565565138116
588,4134.070000000001,3.45568598479832
589,4136.79,3.398828318215481
590,4139.51,3.350649651632641
591,4142.24,3.385372589216777
592,4144.96,3.3482509226339374
593,4147.68,3.3887402560510975
594,4150.400000000001,3.4064355894682583
595,4153.12,3.416757922885419
596,4155.84,3.5236182563025795
597,4158.57,3.430776193886715
598,4161.29,3.4791855273038754
599,4164.01,3.3531088607210355
600,4166.7300000000005,3.366072194138196
