,lambda (Angstroms),Total Flux (erg/s/cm^2/Angstrom)
0,100.02000000000001,0.0012750701920527891
1,102.12,0.0015673093856004242
2,104.01,0.0018303246134520966
3,104.712855,0.001928135012926213
4,105.95,0.0017844860641357124
5,107.92,0.0015557430412810281
6,109.92,0.0013235176585344453
7,114.05,0.0008439707656220517
8,118.06,0.0003783577019482521
9,120.22644299999999,0.00012681577585883208
10,121.09,0.0001221806033316896
11,125.05000000000001,0.0001009124212726058
12,127.08000000000001,9.00102891300452e-05
13,127.97,8.523123333631182e-05
14,130.95000000000002,6.922812681639515e-05
15,131.85,6.439922445205806e-05
16,134.0,5.285418568225246e-05
17,137.12,3.610754980388343e-05
18,138.038426,3.1177532125470704e-05
19,139.98999999999998,3.081669068932748e-05
20,142.92,3.0326135095141034e-05
21,146.92000000000002,2.9676331943691964e-05
22,151.04,2.8951787324699435e-05
23,154.91,2.8287064871422472e-05
24,158.489319,2.7681022771033297e-05
25,158.89000000000001,2.7572391936338317e-05
26,161.84,2.6782362086546915e-05
27,165.98999999999998,2.5679268499552235e-05
28,169.86,2.466991165457163e-05
29,173.02,2.384837942326965e-05
30,177.04999999999998,2.28206631399953e-05
31,179.92999999999998,2.210227165070742e-05
32,181.970086,2.1598299007836536e-05
33,182.01,2.1603820586230303e-05
34,185.82000000000002,2.215002166770788e-05
35,191.02999999999997,2.2902305175450176e-05
36,194.13,2.3376670333607786e-05
37,198.20000000000002,2.40152918799631e-05
38,201.88000000000002,2.4647184229001808e-05
39,205.16,2.5181132170536304e-05
40,208.929613,2.579367966961518e-05
41,209.94,2.6438742249918047e-05
42,215.82,3.0429666064250954e-05
43,219.82999999999998,3.313568698865145e-05
44,222.89,3.517679862672267e-05
45,227.04,3.802399540384539e-05
46,230.19000000000003,4.247444209009518e-05
47,233.93,5.0259828869959974e-05
48,239.88329199999998,5.807245952168512e-05
49,239.93,5.808522120516479e-05
50,246.09,5.597876232170847e-05
51,251.82,5.553007064927266e-05
52,257.09,5.0733486458393644e-05
53,260.07,5.308077625178652e-05
54,264.3,5.3052058106166356e-05
55,269.21,5.2053437161723106e-05
56,274.21999999999997,5.0951921982158805e-05
57,275.42287,5.068324180973001e-05
58,279.31,5.358717966293493e-05
59,283.85,5.717132072152724e-05
60,289.8,6.048875633796428e-05
61,295.86,6.563283167168e-05
62,300.67,6.833439658177447e-05
63,307.68,7.412099583744231e-05
64,316.227766,8.126644524438065e-05
65,317.76,8.121714058332142e-05
66,328.17,7.980117244278315e-05
67,338.14,7.821600901711873e-05
68,347.61,7.681843231290185e-05
69,357.35,7.52117465791033e-05
70,363.078055,7.460271509343999e-05
71,365.67,7.60209333620986e-05
72,375.04999999999995,8.040010737453776e-05
73,384.67,8.338801048750843e-05
74,395.45,8.956488091971465e-05
75,404.66,9.41985376526107e-05
76,414.09000000000003,9.818632439432726e-05
77,416.86938299999997,9.926436054134253e-05
78,421.79,0.00010060908510782858
79,429.63,0.00010262592154915587
80,440.65,0.00010627968282255214
81,450.90999999999997,0.00010886972331847282
82,460.36,0.00011105554956471555
83,470.0,0.00011355883100532717
84,478.630092,0.00011605325677294441
85,479.84,0.00011592237150736206
86,489.88,0.00011366139199217072
87,500.14000000000004,0.00011266751623262259
88,505.93,0.0001128626496197782
89,511.79,0.00012235724874736572
90,520.11,0.00012101554532441833
91,529.78,0.0001193678040383725
92,539.63,0.00011590373037058022
93,549.5408739999999,0.00011852251721801427
94,549.66,0.00011857210163584606
95,559.88,0.00012324563370615978
96,570.2900000000001,0.0001263659201887396
97,579.55,0.00012464936364970882
98,590.33,0.00012939277240880682
99,599.92,0.0001284714919542382
100,609.67,0.00012907495626789366
101,619.5699999999999,0.00014010711880175922
102,629.6400000000001,0.00014239703265186285
103,630.957344,0.00014263348220081517
104,639.87,0.00014576806115885958
105,650.27,0.00015270205672578434
106,657.8000000000001,0.0001559541098622212
107,665.4200000000001,0.0001621632608449103
108,674.67,0.00016605706170972316
109,685.64,0.0001656397103029121
110,695.17,0.00018468889335606522
111,704.84,0.00018065221750338854
112,716.3,0.00020172020992617292
113,724.43596,0.00020654999268683274
114,726.26,0.000207555075496026
115,734.6700000000001,0.00021349294709397792
116,744.89,0.00022640743314999087
117,755.25,0.00023526249435745604
118,765.7600000000001,0.00024080269322719145
119,774.63,0.0002579237403227721
120,785.4,0.000270726964473776
121,794.5000000000001,0.0002808334493181711
122,805.5500000000001,0.0002914694237720794
123,814.88,0.00030064844636528885
124,824.32,0.0003200586565774965
125,831.763771,0.0003022251982934329
126,835.78,0.00029188486667613023
127,845.4599999999999,0.00033637950849177244
128,855.25,0.00034611846100986523
129,865.15,0.00036506012423040846
130,875.17,0.0003837349718536249
131,885.31,0.0004053049038795147
132,895.56,0.0004230409466078549
133,905.9300000000001,0.00042981167373886835
134,914.31,0.0005945444345255504
135,924.9,0.003217663183061465
136,935.61,0.006948288816000053
137,944.26,0.013484743066692749
138,954.992586,0.018587095316364058
139,955.1999999999999,0.018685722909658076
140,964.0400000000001,0.02261425156619594
141,975.1999999999999,0.004870287254766366
142,984.2199999999999,0.023033650422410207
143,995.62,0.023033429459121933
144,1004.83,0.029800710944044302
145,1014.13,0.027306460684519654
146,1025.87,0.011167743131098222
147,1035.3600000000001,0.020912969188852108
148,1044.94,0.03682452350215898
149,1054.61,0.03673944607101883
150,1064.3700000000001,0.03127480689543168
151,1074.22,0.035986705975397514
152,1084.16,0.030492653310916336
153,1094.19,0.037421648901988146
154,1096.4782,0.0371536502315371
155,1104.32,0.03623487883166031
156,1114.53,0.03573771944730334
157,1124.85,0.0329717633898534
158,1135.25,0.03900152247924493
159,1145.76,0.03606550489554349
160,1153.7,0.03767754321955972
161,1164.38,0.039089345322896416
162,1175.1499999999999,0.029657361966429763
163,1186.02,0.03767543254351495
164,1194.24,0.028322873881476338
165,1205.29,0.021788713538954844
166,1213.65,0.011928026383888807
167,1224.88,0.025476505121760626
168,1236.21,0.03681492779318429
169,1244.78,0.04064438789857712
170,1256.3,0.039994199043749276
171,1258.92541,0.038683505033166025
172,1265.01,0.03564626602977031
173,1273.78,0.04334835387253906
174,1285.56,0.044975274703532894
175,1294.47,0.03863680315040513
176,1306.45,0.038282644844403954
177,1315.51,0.04487157393852994
178,1324.6299999999999,0.04344826329155742
179,1333.81,0.040178382903486395
180,1346.15,0.0450782561508942
181,1355.48,0.04415457641007692
182,1364.8799999999999,0.04092475697131138
183,1374.34,0.04236256779144734
184,1383.8600000000001,0.042951728870484804
185,1393.46,0.038459880294724254
186,1406.3500000000001,0.039810575915395774
187,1416.1000000000001,0.04101973798688897
188,1425.9099999999999,0.04139973031728367
189,1435.8000000000002,0.041399562992880355
190,1442.43,0.04305089160149573
191,1445.43977,0.04341202259529461
192,1445.75,0.04344924571224371
193,1455.7700000000002,0.042755132000236284
194,1465.86,0.04045744854173779
195,1476.0200000000002,0.04027205533674822
196,1486.26,0.04064378242148315
197,1496.5600000000002,0.04111430972351144
198,1503.46,0.03962864471224885
199,1510.4,0.03656170984584849
200,1517.38,0.03837159512431039
201,1524.3799999999999,0.03758526047520341
202,1534.9499999999998,0.033965848755051854
203,1545.59,0.03605986728840924
204,1556.3,0.03443806607527556
205,1563.4799999999998,0.03515860207804868
206,1574.32,0.037070131335717287
207,1585.23,0.03819592084689483
208,1596.22,0.03908550064779687
209,1603.59,0.03802056733866566
210,1614.71,0.038020187610369995
211,1625.9,0.03664591813558325
212,1633.4,0.03828396529725435
213,1644.72,0.03863806629326991
214,1656.13,0.03639394761522552
215,1659.58691,0.03761175622664795
216,1663.77,0.03908548076708638
217,1671.4499999999998,0.03606043388424333
218,1675.3000000000002,0.03926603570729727
219,1686.92,0.04027302302778733
220,1694.7,0.038462028789698934
221,1706.4499999999998,0.03732845954837005
222,1714.33,0.03614470795503629
223,1726.21,0.03589623215188845
224,1734.1799999999998,0.03767445293883388
225,1746.2,0.036901950838342544
226,1754.26,0.03872957400556716
227,1766.4199999999998,0.03606303560773233
228,1774.57,0.037073421155236125
229,1786.8700000000001,0.0375025464600578
230,1795.1200000000001,0.03917919465231624
231,1803.4,0.03899928363800108
232,1815.91,0.03698918449680751
233,1824.2900000000002,0.037417016127247
234,1836.93,0.03648286042423448
235,1845.41,0.03404958469942861
236,1853.93,0.03428556003252461
237,1866.7800000000002,0.03516424988349685
238,1875.4,0.03699068786134749
239,1884.05,0.03484284663262452
240,1897.11,0.033738812037581514
241,1905.46072,0.03517656739738112
242,1905.8700000000001,0.035247008940798005
243,1914.67,0.034365088938399346
244,1923.5,0.033738547913265235
245,1936.84,0.034128213136901814
246,1945.78,0.03589976836173772
247,1954.7600000000002,0.03412764222292636
248,1968.3100000000002,0.03639859028741479
249,1977.3899999999999,0.037159960739485264
250,1981.95,0.03565204528369686
251,1995.69,0.034840306870860774
252,2004.9,0.035405782891077625
253,2014.16,0.0347598072067354
254,2023.45,0.035568890499657724
255,2032.79,0.034599802088020964
256,2046.88,0.035485981743271285
257,2056.33,0.033889699581604545
258,2065.8199999999997,0.03428137605629054
259,2075.36,0.036394910826417444
260,2080.14,0.03573096787056908
261,2084.94,0.03664647423289708
262,2094.56,0.03507873627572946
263,2104.23,0.035321046614002746
264,2113.94,0.03564751558862877
265,2123.7,0.03589361285869571
266,2133.5,0.03404346876511538
267,2143.35,0.03491564296697597
268,2153.24,0.0357284058051893
269,2163.1800000000003,0.03459522693884354
270,2173.17,0.03443566636793869
271,2183.2,0.03451478443338658
272,2187.7616199999998,0.03506328591362047
273,2193.2799999999997,0.03572716891549332
274,2203.4,0.034834063983611704
275,2213.57,0.033267380410762305
276,2223.79,0.0328113881969451
277,2234.0499999999997,0.03491541707035367
278,2244.36,0.033653337302794434
279,2254.7200000000003,0.03236272889426742
280,2265.13,0.0325874018447726
281,2275.59,0.03342265615430998
282,2286.09,0.034437921551073135
283,2296.64,0.03269091830686849
284,2307.2400000000002,0.03326714642169606
285,2312.56,0.03223467102272272
286,2323.2400000000002,0.027413411312001812
287,2333.96,0.030306382688506668
288,2344.73,0.028916635424043727
289,2355.56,0.031601899790419434
290,2366.43,0.02906370524402091
291,2377.35,0.030195132056654587
292,2382.83,0.02775079100658431
293,2393.83,0.029299559993669514
294,2404.88,0.02860756033978693
295,2415.98,0.029180222044936543
296,2427.13,0.03138135510911837
297,2432.73,0.03040831732072538
298,2443.96,0.031958922559358734
299,2455.24,0.03178438915702429
300,2466.5699999999997,0.03139318711372205
301,2472.26,0.030280061771587038
302,2483.67,0.03011554190273633
303,2495.13,0.028802303392917825
304,2506.65,0.03228599651393797
305,2511.88643,0.02882816535560613
306,2512.43,0.028469203125325707
307,2518.22,0.028489882216697612
308,2524.02,0.027861661202873273
309,2535.67,0.028683078649243347
310,2547.38,0.028658485464435928
311,2553.2500000000005,0.031083903714237845
312,2565.04,0.030003699687860437
313,2576.8799999999997,0.031680325135501786
314,2582.82,0.031269292648929956
315,2594.74,0.03074348725500131
316,2606.71,0.02967652133509142
317,2612.7200000000003,0.029156878112145852
318,2624.7799999999997,0.030786251245469725
319,2636.8999999999996,0.032883683747616105
320,2642.9799999999996,0.03616346978829679
321,2655.18,0.03818594144887318
322,2667.4300000000003,0.03416554258346832
323,2673.58,0.035636307887775276
324,2685.92,0.03643671807560417
325,2692.1099999999997,0.033720592959126126
326,2704.5400000000004,0.035280412200188786
327,2717.02,0.032749980915270205
328,2723.29,0.03210301495722217
329,2735.86,0.033977202725537343
330,2742.1600000000003,0.029212536451900566
331,2754.82,0.030634963273449504
332,2767.54,0.03249828946382095
333,2773.92,0.03382049234861417
334,2786.72,0.03068186769741563
335,2793.14,0.024677250161423858
336,2806.0400000000004,0.026238134458262823
337,2812.5,0.03328111650148606
338,2825.49,0.03604526985155879
339,2832.0,0.03492935136880077
340,2845.07,0.03310422387730351
341,2858.2000000000003,0.030310355754628752
342,2864.79,0.035553606430300755
343,2878.02,0.037030237255663505
344,2884.0315,0.03651964080577712
345,2884.65,0.036467113883783805
346,2897.9700000000003,0.037375041016167704
347,2911.34,0.04161433813778728
348,2931.5200000000004,0.03974587379330584
349,2951.84,0.03884557941868428
350,2972.2999999999997,0.039662795013922614
351,2992.91,0.03994243057686798
352,3006.72,0.04037680760376149
353,3027.5600000000004,0.040849983117190965
354,3048.5499999999997,0.04161528859832745
355,3069.6800000000003,0.04229803404932384
356,3090.96,0.042304999468027245
357,3112.38,0.04359751485659055
358,3126.75,0.04248045176292363
359,3148.42,0.0425869970976653
360,3170.25,0.04388950239796114
361,3192.2200000000003,0.04134939766811688
362,3206.96,0.043370344494793954
363,3229.19,0.04076720970897519
364,3251.5699999999997,0.04585577489086346
365,3266.58,0.048879061659413185
366,3289.22,0.048555736785326965
367,3311.31121,0.04792384591037028
368,3312.02,0.04790356911239911
369,3319.66,0.04663848767037302
370,3327.31,0.047327696187192445
371,3334.98,0.050638574621702896
372,3342.6699999999996,0.047192502973904385
373,3350.37,0.04957211128495138
374,3358.1,0.04984370947253493
375,3365.84,0.04207503761896399
376,3373.6,0.04211183568308408
377,3381.3700000000003,0.04707178370604968
378,3389.17,0.04933218160555184
379,3396.98,0.04629415946389951
380,3404.81,0.050802607239938215
381,3412.6600000000003,0.04702013493366795
382,3420.5299999999997,0.048826562545088714
383,3428.41,0.04954943011535499
384,3436.3199999999997,0.049478657562157816
385,3444.2400000000002,0.04225052496780616
386,3452.1800000000003,0.05166313229114553
387,3460.14,0.04803674953217593
388,3468.1099999999997,0.04852447673205186
389,3476.11,0.047244423808464324
390,3484.12,0.0492867708437223
391,3492.15,0.047986917796671316
392,3500.2,0.04597434466731136
393,3508.27,0.05033696145564244
394,3516.36,0.046269098161664544
395,3524.4700000000003,0.04860384478537769
396,3532.5899999999997,0.05129180136793634
397,3540.7300000000005,0.05277594786818602
398,3548.8999999999996,0.054929834244972255
399,3557.0800000000004,0.051786990580604
400,3565.28,0.05402613683392678
401,3573.5,0.04508453300494059
402,3581.73,0.047142599134799915
403,3589.9900000000002,0.04053586514119579
404,3598.27,0.051307861065282685
405,3606.56,0.049044126948215104
406,3614.87,0.048304602748838556
407,3619.08,0.053078475422800614
408,3621.81,0.03415591418762637
409,3624.55,0.05024357291129764
410,3627.2900000000004,0.04778966163496891
411,3630.03,0.05847000035864018
412,3632.77,0.06367735908231145
413,3635.5,0.057335287847137206
414,3638.24,0.056395796570808475
415,3640.9799999999996,0.05709078529447974
416,3643.72,0.039473924018151016
417,3646.46,0.05693316274182229
418,3649.19,0.04641640150664803
419,3651.93,0.04066424023031931
420,3654.67,0.04457492895399058
421,3657.41,0.052394717677661844
422,3660.1499999999996,0.050096646401333114
423,3662.88,0.047679375166158874
424,3665.62,0.05391629388983014
425,3668.36,0.04946736261350141
426,3671.1,0.04700150133717268
427,3673.8399999999997,0.05499992006084395
428,3676.57,0.0634004888256697
429,3679.31,0.051896787549340975
430,3682.05,0.052986536273012246
431,3684.79,0.062449984996683514
432,3687.5200000000004,0.05728079376150927
433,3690.26,0.05134780248518054
434,3693.0,0.03996357120885181
435,3695.7400000000002,0.047245789932523076
436,3698.48,0.05942537865619435
437,3701.2099999999996,0.0503932074210201
438,3703.95,0.047432116144691366
439,3706.69,0.04541857486836264
440,3709.4300000000003,0.04316503359203391
441,3712.17,0.05652023231570518
442,3714.9,0.046193511080530936
443,3717.64,0.052398949804202205
444,3720.3799999999997,0.055542898527873474
445,3723.12,0.08043970725154474
446,3725.8599999999997,0.11076110597521602
447,3728.59,0.13499059474004177
448,3731.33,0.12516748346371304
449,3734.0699999999997,0.0811293621873843
450,3736.81,0.05415754091105558
451,3739.5499999999997,0.05677530963472685
452,3742.28,0.0556515083995526
453,3745.02,0.04063237712322387
454,3747.7599999999998,0.04872204584689514
455,3750.5,0.05322948457056641
456,3753.24,0.04854109329423768
457,3755.9700000000003,0.05387690205906343
458,3758.71,0.05624326078273471
459,3761.4500000000003,0.05742694950640598
460,3764.19,0.05302471823007725
461,3766.93,0.049605326953748516
462,3769.6600000000003,0.044697275718574264
463,3772.4,0.05459245444224554
464,3775.1400000000003,0.0627049231659168
465,3777.88,0.06424698188958808
466,3780.62,0.059419570613259344
467,3783.35,0.0622054393780851
468,3786.0899999999997,0.05952833810175637
469,3788.8300000000004,0.05944137682542764
470,3791.57,0.05395366554909892
471,3794.3100000000004,0.05015038427277018
472,3797.04,0.050880923037595935
473,3799.7799999999997,0.050480121761267205
474,3801.8939600000003,0.053067862417578694
475,3802.52,0.05383421102176946
476,3805.2599999999998,0.057502712094998104
477,3807.99,0.0571879932008062
478,3810.73,0.06438821427403485
479,3813.47,0.06455646534726349
480,3816.21,0.057356116420492126
481,3818.95,0.054445527493720766
482,3821.6800000000003,0.05732368859952887
483,3824.42,0.05440766967275751
484,3827.16,0.05124187074598614
485,3829.9,0.05337093181921479
486,3832.64,0.051549622892443435
487,3835.3700000000003,0.04209765399825153
488,3838.11,0.04135477507148017
489,3840.85,0.04610712614470881
490,3843.59,0.054274437217937455
491,3846.33,0.05417934829116609
492,3849.0600000000004,0.0572095593969742
493,3851.8,0.06320973047020283
494,3854.54,0.06515362154343149
495,3857.28,0.06299780261666012
496,3860.02,0.06612544368988875
497,3862.75,0.06980188479569686
498,3865.49,0.06802615586892549
499,3868.2299999999996,0.06307384694215415
500,3870.9700000000003,0.06522407801538278
501,3873.71,0.06262300908861143
502,3876.44,0.05780676019441953
503,3879.18,0.05799675126764817
504,3881.9199999999996,0.057524262340876806
505,3884.66,0.05636758341410545
506,3887.3999999999996,0.05578650448733409
507,3890.13,0.05506451559314219
508,3892.87,0.050034556666370834
509,3895.61,0.051463697739599475
510,3898.35,0.057024568812828115
511,3901.0899999999997,0.061411989886056756
512,3903.82,0.06480061099186486
513,3906.56,0.0613524320650935
514,3909.3,0.06136865313832214
515,3912.04,0.06653800421155077
516,3914.77,0.07051308531735888
517,3917.51,0.06380685639058752
518,3920.25,0.06311715746381616
519,3922.9900000000002,0.0623134285370448
520,3925.73,0.06032594961027345
521,3928.4599999999996,0.05616131071608155
522,3931.2000000000003,0.048388611789310185
523,3933.94,0.041156772862538826
524,3936.6800000000003,0.04197883393576747
525,3939.42,0.046241935008996114
526,3942.1499999999996,0.05319316611480421
527,3944.89,0.05660645718803285
528,3947.6299999999997,0.061243678261261494
529,3950.3700000000003,0.06531071933449013
530,3953.11,0.06485996040771878
531,3955.8399999999997,0.05996769151352687
532,3958.58,0.06225369258675551
533,3961.3199999999997,0.05685611365998416
534,3964.06,0.0497393947332128
535,3966.7999999999997,0.04685976580644144
536,3969.53,0.04516575691224954
537,3972.27,0.04769938798547818
538,3975.0099999999998,0.052600519058706816
539,3977.75,0.05404268013193546
540,3980.49,0.0588596212051641
541,3983.2200000000003,0.06552800231097221
542,3985.96,0.07027924338420084
543,3988.7,0.07587758445742948
544,3991.44,0.07954822553065813
545,3994.18,0.07531810660388677
546,3996.9100000000003,0.07163136770969487
547,3999.65,0.0739879487829235
548,4002.3900000000003,0.07055604985615216
549,4005.13,0.0720492409293808
550,4007.87,0.07157130200260943
551,4010.6000000000004,0.07272275310841753
552,4013.34,0.07269552418164617
553,4016.0800000000004,0.07863595525487482
554,4018.82,0.07812543632810345
555,4021.56,0.0784348574013321
556,4024.29,0.0747209785071402
557,4027.0299999999997,0.08741099958036884
558,4029.7699999999995,0.07898885065359748
559,4032.51,0.07523658172682611
