,lambda (Angstroms),Total Flux (erg/s/cm^2/Angstrom)
0,102.08999999999999,0.010537779550817299
1,103.97999999999999,0.012310883297848877
2,104.712855,0.012998416052148642
3,105.92,0.012053538438403748
4,107.89,0.010511557388725383
5,109.89,0.008946185240236182
6,114.02000000000001,0.005713562699377476
7,118.02,0.0025827217741990842
8,120.22644299999999,0.0008567919814299016
9,121.05,0.0008274058395424428
10,125.02,0.0006843370699499164
11,127.05,0.0006111831427099094
12,127.93,0.0005795466589211375
13,130.91,0.0004722343460909796
14,132.12,0.00042906220438141844
15,133.96,0.0003629197724594414
16,137.07999999999998,0.0002513400280265249
17,138.038426,0.00021696577869877179
18,139.95000000000002,0.00021519766980328237
19,142.88,0.00021934702314027103
20,146.88,0.00022842395455595512
21,151.0,0.00022801525321410976
22,154.87,0.00022879837928378418
23,158.489319,0.0002302603991871173
24,158.83999999999997,0.00023016140034348758
25,162.17,0.00022902960484053622
26,165.95,0.00022969759994529416
27,169.81,0.00023034305960253378
28,172.97,0.00023114237942555894
29,177.0,0.00023290640375682204
30,179.87,0.00023490153207710122
31,181.96,0.00023632077601068436
32,181.970086,0.0002363285617725179
33,186.19,0.0002505490806134093
34,190.97,0.00026878183145104826
35,194.07,0.00028129921714073046
36,198.14,0.0002977178077075068
37,201.82,0.000315292531364936
38,205.1,0.00032918946332047066
39,208.929613,0.0003424824272664713
40,209.88,0.00034883057332074164
41,215.76000000000002,0.0004047683754225431
42,219.77,0.0004395575595089756
43,222.83,0.00046396487080685184
44,226.96999999999997,0.0005020088743275077
45,230.13,0.0006678547774978637
46,233.87,0.0009890181135286014
47,239.86,0.0012931165166901303
48,239.88329199999998,0.0012932057449366006
49,246.01999999999998,0.001273727461606857
50,251.75,0.0013722187662103236
51,257.02,0.0011709109088386426
52,260.0,0.0013860008016341628
53,264.22,0.0014773607397539931
54,269.13,0.001506793520836545
55,274.14,0.0015343259023484765
56,275.42287,0.0015375255822259778
57,279.23,0.0015719274157619677
58,283.77,0.0016397095637202407
59,289.71,0.0016465189203000079
60,295.78000000000003,0.0017243414176803422
61,301.28,0.0017122374515504966
62,308.3,0.0018226520547811303
63,316.227766,0.0019499885248014726
64,317.66,0.0019646113252700633
65,328.07000000000005,0.0020054398964770696
66,338.04,0.0020170711582382468
67,348.31,0.0020288451309852166
68,357.25,0.0020658889183618385
69,363.078055,0.0021047469292347007
70,366.41,0.0021416408578768995
71,374.94,0.0021852030329988148
72,384.55999999999995,0.002154313093335606
73,395.34,0.0022940712150019893
74,404.54999999999995,0.0023790455295240103
75,413.97,0.002406989372390182
76,416.86938299999997,0.0024089503437824205
77,421.66,0.0024084898873653693
78,430.48999999999995,0.002413830591292749
79,440.52,0.0024745606513597506
80,450.78,0.0024915171963535124
81,460.22,0.002482521664651866
82,469.86,0.0024986278589734907
83,478.630092,0.002539853459265909
84,479.7,0.0025420178143261956
85,489.73999999999995,0.0024820586738513975
86,500.0,0.002531460323127151
87,505.78999999999996,0.0025949655170166854
88,511.64,0.003489154562656369
89,519.96,0.0034984793386772534
90,529.62,0.003491102470451502
91,539.47,0.0033316059661012264
92,549.5,0.003754524017001403
93,549.5408739999999,0.003756282854470332
94,559.71,0.004204287852120713
95,570.12,0.004511583681564997
96,579.38,0.004390764122550016
97,590.16,0.004881418007411629
98,599.75,0.0048447362816066986
99,609.49,0.005181798389079064
100,619.39,0.005991066385380543
101,629.46,0.006258331326062958
102,630.957344,0.006284472468367564
103,639.6899999999999,0.006447068131509642
104,650.0799999999999,0.007008295881145948
105,657.61,0.007235463491806333
106,665.22,0.0077073544210394685
107,674.4799999999999,0.007958291045835638
108,685.4399999999999,0.00778973269030281
109,694.97,0.00949076426528202
110,704.64,0.008980205147763551
111,716.09,0.010776060368488835
112,724.43596,0.011175416366389843
113,726.0500000000001,0.011252184858148523
114,734.4599999999999,0.011719923993969709
115,744.6700000000001,0.012799115703450603
116,755.03,0.01354502429406981
117,765.54,0.014014709765827322
118,774.4,0.015447079545063436
119,785.1800000000001,0.016385777402869905
120,794.27,0.017303054399851428
121,805.32,0.018150504643706853
122,814.64,0.01890835885843378
123,824.0799999999999,0.020565888578071356
124,831.763771,0.01868108886473203
125,835.5400000000001,0.01775024055083109
126,845.21,0.0220083164565811
127,855.0000000000001,0.022814353159506907
128,864.9,0.024528518926510534
129,874.92,0.026133835490689962
130,885.05,0.02810290111894721
131,895.3,0.02960730754438026
132,905.66,0.030145543033891123
133,914.04,0.041986835370001266
134,924.63,0.24265982072076575
135,935.33,0.519712875135608
136,943.99,0.9809948159984618
137,954.92,1.3447283802745575
138,954.992586,1.3462001687731242
139,965.98,1.5689938845908948
140,974.92,0.30822201644003633
141,983.9399999999999,1.4342675378359262
142,995.3299999999999,1.4475440495542395
143,1004.54,1.957030846123657
144,1013.83,1.8603756322398228
145,1025.57,0.8178580982251608
146,1035.06,1.3919858582081979
147,1044.64,2.435676606431327
148,1054.31,2.374644342894548
149,1064.06,1.9526610689045178
150,1073.91,2.267789781847923
151,1083.84,1.8689854843380769
152,1093.87,2.3583061737616657
153,1096.4782,2.3229791556868045
154,1103.99,2.2212327609352247
155,1114.21,2.150855581365956
156,1124.52,1.9213283649903046
157,1134.9199999999998,2.35827711180827
158,1145.43,2.160693813640657
159,1156.02,2.262588482756258
160,1164.04,2.3152782028985737
161,1174.81,1.6390977984014092
162,1185.68,2.2677393530082637
163,1193.8999999999999,1.752304991358617
164,1204.94,1.3201414764423034
165,1216.09,0.8272747165404108
166,1224.52,1.650447469009204
167,1235.85,2.2729168354945455
168,1244.42,2.407694330708965
169,1255.93,2.3152496235815403
170,1258.92541,2.2451895072405406
171,1264.6399999999999,2.111532564811194
172,1276.34,2.4636529051530105
173,1285.19,2.5095441625910517
174,1294.1,2.0682124217744353
175,1306.07,2.1066787699702947
176,1315.12,2.463647033226144
177,1324.2399999999998,2.342021298518227
178,1336.49,2.145755654859019
179,1345.76,2.402156924514458
180,1355.09,2.34734719591524
181,1364.4800000000002,2.160674469061365
182,1373.9399999999998,2.1958757442437236
183,1383.46,2.2161530211714235
184,1396.26,1.8646863935111895
185,1405.94,1.939131675093137
186,1415.69,2.0729079587113177
187,1425.5,2.072933244074841
188,1435.3799999999999,2.106662531474598
189,1442.01,2.170722724334961
190,1445.43977,2.168141986648053
191,1448.6599999999999,2.165718902722826
192,1455.35,2.1164050660533973
193,1465.44,1.9887493123920317
194,1475.59,1.998009560195514
195,1485.82,2.0025628099521273
196,1496.12,2.0025460614177306
197,1506.49,1.895022314592323
198,1513.45,1.7162754845147112
199,1516.9299999999998,1.801443569475905
200,1523.94,1.801407740619
201,1534.5,1.5907639984322783
202,1545.14,1.6239782581986877
203,1555.85,1.5689155196740865
204,1566.6299999999999,1.646704782858475
205,1573.86,1.7402949593726798
206,1584.77,1.7766222257309057
207,1595.76,1.7972154940422629
208,1606.82,1.7685007640626094
209,1614.23,1.7644699449713588
210,1625.4199999999998,1.716289218165543
211,1636.69,1.801429493312858
212,1644.2499999999998,1.8014286778837276
213,1655.6399999999999,1.732180955960739
214,1659.58691,1.78078634608323
215,1663.29,1.8263897125519628
216,1670.96,1.7203370800505735
217,1678.6799999999998,1.8432744564637775
218,1686.4199999999998,1.860322836442819
219,1694.2099999999998,1.7766282253364536
220,1705.95,1.7242433184829578
221,1713.8300000000002,1.6428177234228605
222,1725.71,1.627896841530226
223,1733.6699999999998,1.7085172607334778
224,1745.69,1.6695894038017047
225,1753.75,1.728293840834143
226,1765.8999999999999,1.6428340070803127
227,1774.0500000000002,1.6353824601590188
228,1786.35,1.665705653148968
229,1794.6000000000001,1.7203521240568609
230,1807.04,1.7242543420076715
231,1815.38,1.5944408289618321
232,1823.76,1.6390963230476676
233,1836.3999999999999,1.5944515766568512
234,1844.8700000000001,1.4812290867889546
235,1853.39,1.471013605835651
236,1866.24,1.5052708968861266
237,1874.8500000000001,1.5981424319790911
238,1883.51,1.467643975986649
239,1896.56,1.3919643026954978
240,1905.31,1.4949388627493234
241,1905.46072,1.493730166603291
242,1914.11,1.4243639018422254
243,1922.95,1.385545870231669
244,1936.27,1.4508498090266224
245,1945.21,1.488048754434046
246,1954.19,1.3791796906486617
247,1967.74,1.4846215765849695
248,1976.82,1.5332534898175652
249,1985.9399999999998,1.4508333938573532
250,1995.11,1.4178012864061311
251,2004.32,1.460882169762101
252,2013.5700000000002,1.4342210439252632
253,2022.86,1.4914779088956174
254,2036.89,1.3983446845182297
255,2046.29,1.424328524208362
256,2055.73,1.3415793547056865
257,2065.2200000000003,1.3759801737120008
258,2074.7599999999998,1.4642139812273052
259,2079.54,1.3696628826867554
260,2084.33,1.4210507818480038
261,2093.95,1.3539825709776923
262,2103.62,1.3854973486163709
263,2113.33,1.3919011170622415
264,2123.08,1.4080158763153043
265,2132.88,1.363360624077357
266,2142.73,1.3415573603484001
267,2152.62,1.385490087426635
268,2162.55,1.360210805312062
269,2172.54,1.3508465094082769
270,2182.56,1.323150206609886
271,2187.7616199999998,1.3406492630634166
272,2192.64,1.3570629050572598
273,2202.76,1.3353867593845823
274,2212.93,1.3019876228736014
275,2223.1400000000003,1.2694274936919772
276,2233.4,1.3020023736720494
277,2243.71,1.2811712628138177
278,2254.07,1.2462741611172823
279,2264.4700000000003,1.2636170667501039
280,2274.92,1.272379981544622
281,2285.42,1.278109905500836
282,2295.97,1.2203948386187464
283,2306.57,1.2314917808983532
284,2317.2200000000003,1.1977267323396559
285,2322.56,1.0264367108088164
286,2333.28,1.151472675076494
287,2344.05,1.138109648505868
288,2354.87,1.1617416310969382
289,2365.7400000000002,1.1272926228497047
290,2376.66,1.1297096237641673
291,2387.63,1.0936966338403264
292,2393.13,1.1216576416269148
293,2404.18,1.0934196663617877
294,2415.2799999999997,1.098267700258357
295,2426.42,1.115937741484283
296,2437.62,1.082841793704245
297,2443.2400000000002,1.1079638234789044
298,2454.52,1.09761389035758
299,2465.85,1.084870966397952
300,2477.23,1.0648950516000204
301,2482.94,1.074641097865733
302,2494.4,0.9889917977265155
303,2505.9199999999996,1.0742683085813334
304,2511.6899999999996,1.0164363658410815
305,2511.88643,1.0174806698527217
306,2517.4800000000005,1.0472170051581353
307,2523.2900000000004,1.0232895931341228
308,2534.9300000000003,1.020751767667771
309,2546.64,1.0042489372372747
310,2552.51,1.029903520958281
311,2564.29,1.0155966855636398
312,2576.12,1.036672846623181
313,2582.06,1.0294344253800427
314,2593.98,1.022166580057112
315,2605.9500000000003,1.0010217311883636
316,2617.9799999999996,0.9916609780646342
317,2624.0200000000004,0.9984353497298605
318,2636.1299999999997,1.0051635909328227
319,2642.21,1.0308401597613952
320,2654.4,1.035401295291049
321,2666.6600000000003,0.9908921258565582
322,2672.8,1.004582990430149
323,2685.14,1.0020801153223502
324,2697.53,0.9723528366687335
325,2703.7499999999995,0.9767492955690164
326,2716.23,0.9565186105329277
327,2722.4900000000002,0.9476635665965566
328,2735.0600000000004,0.9606560751779962
329,2747.6800000000003,0.9130374802136183
330,2754.02,0.9150420306039387
331,2766.73,0.923330129257089
332,2773.1099999999997,0.9382351768107553
333,2785.91,0.9209289690814336
334,2792.33,0.8534733137984459
335,2805.22,0.8772007996866525
336,2818.1699999999996,0.9183472813198781
337,2824.66,0.9203641210727456
338,2837.7000000000003,0.8910053963234991
339,2844.2400000000002,0.882732432530549
340,2857.3700000000003,0.8724470013988308
341,2863.96,0.894730834060063
342,2877.18,0.8924894965458731
343,2883.81,0.888309526370451
344,2884.0315,0.8883062272702924
345,2897.1200000000003,0.888112191666888
346,2910.4900000000002,0.904448072262751
347,2930.67,0.8835691429751306
348,2950.9800000000005,0.8651828134988386
349,2971.44,0.8629220838048489
350,2992.0400000000004,0.8527675539076743
351,3012.7799999999997,0.8446778238073152
352,3026.68,0.840607103633979
353,3047.66,0.8326457731853033
354,3068.79,0.8285382425189296
355,3090.06,0.8150286116493712
356,3111.48,0.814753080562115
357,3133.05,0.799603649257161
358,3147.51,0.7920919282710861
359,3169.3300000000004,0.7881860966033022
360,3191.29,0.7629353647323337
361,3213.41,0.7661972326291541
362,3228.2499999999995,0.7485792110915779
363,3250.6200000000003,0.7639877786255684
364,3273.16,0.7689994459128348
365,3288.26,0.7600135239979157
366,3311.06,0.747604690907839
367,3311.31121,0.7479439129380104
368,3318.69,0.7579076858288232
369,3326.3399999999997,0.7613126735900428
370,3334.01,0.7665020607963899
371,3341.7000000000003,0.7336043474478643
372,3349.4,0.7680894338219024
373,3357.12,0.7334281196410679
374,3364.86,0.7003400049053607
375,3372.62,0.698635789614781
376,3380.39,0.726438274046765
377,3388.1800000000003,0.7398501579238762
378,3395.99,0.7329760412461148
379,3403.82,0.729519924013481
380,3411.67,0.7111907062259744
381,3419.53,0.7160426881610313
382,3427.42,0.7275686692637796
383,3435.32,0.7308473500890914
384,3443.2400000000002,0.6930551303595307
385,3451.17,0.7189755103525335
386,3459.13,0.6992996895132274
387,3467.1000000000004,0.694403468396485
388,3475.1,0.6975154464474338
389,3483.1099999999997,0.6894525242209462
390,3491.14,0.7021701014395859
391,3499.1899999999996,0.679818078103353
392,3507.25,0.6907674544896838
393,3515.34,0.6672313300437057
394,3523.44,0.6890150053202913
395,3531.5600000000004,0.6826098800420042
396,3539.7000000000003,0.6984086542088445
397,3547.86,0.7096620278208122
398,3556.04,0.6966231008779072
399,3564.2400000000002,0.6949335733801296
400,3572.45,0.6635869456049157
401,3580.69,0.6498952169973929
402,3588.9500000000003,0.6191410878349974
403,3597.22,0.6557320583951657
404,3605.51,0.6632259284004612
405,3613.8199999999997,0.6465695978508842
406,3622.15,0.6509656667464344
407,3630.5,0.7136493350871121
408,3638.8700000000003,0.6705557028729173
409,3644.89,0.6807911358562562
410,3647.62,0.6763125601161424
411,3650.34,0.658035184653465
412,3653.0699999999997,0.6932610089133512
413,3655.79,0.7125634334506737
414,3658.52,0.6772847577105601
415,3661.2400000000002,0.6712852822478826
416,3663.97,0.6362014065077688
417,3666.69,0.5806526310450913
418,3669.4100000000003,0.5664135555824139
419,3672.14,0.6238759798423001
420,3674.8599999999997,0.5534540043796227
421,3677.59,0.651480428639509
422,3680.31,0.6444266531768316
423,3683.0400000000004,0.7117662774367178
424,3685.76,0.5923142019740404
425,3688.49,0.6444080262339265
426,3691.2099999999996,0.7142166507712491
427,3693.94,0.6286751750311353
428,3696.66,0.6374996995684579
429,3699.38,0.7061569241057805
430,3702.11,0.6757114483656667
431,3704.83,0.7139253729029893
432,3707.56,0.6262103971628755
433,3710.28,0.472081521700198
434,3713.0099999999998,0.5896521459600843
435,3715.73,0.6704247704974069
436,3718.46,0.7786363947572931
437,3721.18,1.1308520192946157
438,3723.9100000000003,2.112183943554502
439,3726.63,3.397390868091825
440,3729.3599999999997,4.099665792351711
441,3732.08,3.5438477168890334
442,3734.7999999999997,2.225240641426356
443,3737.53,1.165380565686242
444,3740.25,0.7708695902235646
445,3742.98,0.6729851144834508
446,3745.7000000000003,0.6664179390207734
447,3748.43,0.6845164632806596
448,3751.1499999999996,0.6489333878179822
449,3753.88,0.7069957120778685
450,3756.6,0.725989836615191
451,3759.3300000000004,0.7424661608750773
452,3762.05,0.7420786854123999
453,3764.77,0.7496548099497224
454,3767.4999999999995,0.6249925342096085
455,3770.2200000000003,0.6677314587469311
456,3772.95,0.7219660830068174
457,3775.67,0.76439700754414
458,3778.4,0.7694551318040262
459,3781.12,0.7900713563413487
460,3783.8500000000004,0.755522380601235
461,3786.57,0.7806638051385576
462,3789.2999999999997,0.7725195293984438
463,3792.02,0.7066717539357664
464,3794.74,0.7046459784730889
465,3797.47,0.7786354027329752
466,3800.19,0.6973306272702977
467,3801.8939600000003,0.6706746536490026
468,3802.92,0.6546237574614298
469,3805.6400000000003,0.7711434977222998
470,3808.37,0.7624477377635407
471,3811.0899999999997,0.7500904780244108
472,3813.82,0.7710272180656516
473,3816.54,0.7564966583265216
474,3819.27,0.7460006983677624
475,3821.9900000000002,0.7236525386286325
476,3824.72,0.6923638786698734
477,3827.4399999999996,0.7565444189307434
478,3830.1600000000003,0.6807380591916135
479,3832.89,0.6314136992328543
480,3835.6099999999997,0.6319016394937244
481,3838.34,0.7832725795349652
482,3841.06,0.6850189197958352
483,3843.7900000000004,0.7043176598370761
484,3846.51,0.7254528000979461
485,3849.24,0.7751621401391869
486,3851.96,0.762853580400057
487,3854.69,0.8326259204412978
488,3857.41,0.7938478607021678
489,3860.13,0.7918224009630379
490,3862.86,0.9096679410042788
491,3865.58,0.8750258812651488
492,3868.31,0.9295034213063896
493,3871.0299999999997,1.0091902615672599
494,3873.7599999999998,0.8910799016085006
495,3876.48,0.8409648418693706
496,3879.21,0.8339882819106115
497,3881.9300000000003,0.8028819221714815
498,3884.66,0.7703928622127224
499,3887.3799999999997,0.8747158024735925
500,3890.11,0.8951817425148333
501,3892.83,0.8516355827757033
502,3895.5499999999997,0.8151444230365733
503,3898.28,0.7274617630778142
504,3901.0,0.7614100033386842
505,3903.7300000000005,0.7472809433799251
506,3906.4500000000003,0.7577440836407952
507,3909.18,0.787439023682036
508,3911.8999999999996,0.7745141639429061
509,3914.63,0.7886875039841469
510,3917.35,0.8485215442450169
511,3920.0800000000004,0.8514384842862578
512,3922.8,0.7833851245471278
513,3925.52,0.7889175648079979
514,3928.25,0.7275910048492387
515,3930.97,0.7307877451101087
516,3933.7,0.6624870851513497
517,3936.42,0.6474534254122197
518,3939.15,0.6992391654534605
519,3941.87,0.7097830057143305
520,3944.6,0.8181082457555715
521,3947.32,0.7924028860164415
522,3950.0499999999997,0.8093170260576823
523,3952.77,0.7932458663185523
524,3955.5,0.8457284063597933
525,3958.2200000000003,0.7539464466206632
526,3960.94,0.7802555868815333
527,3963.67,0.7048508269227741
528,3966.3900000000003,0.7784223671836441
529,3969.12,0.7837238072248851
530,3971.8399999999997,0.9133163474857551
531,3974.57,0.7658337875269959
532,3977.29,0.8070157277878659
533,3980.0200000000004,0.7010380678291068
534,3982.7400000000002,0.8312791080899768
535,3985.47,0.8040125481312177
536,3988.1899999999996,0.8676418883920878
537,3990.91,0.8649839286529578
538,3993.64,0.8691010686941987
539,3996.36,0.9596220089550688
540,3999.09,0.8662135489963095
541,4001.81,0.9070876892571795
542,4004.54,0.8777448292984205
543,4007.26,0.9394929695592905
544,4009.99,0.8863892096005314
545,4012.71,0.9316585498614014
546,4015.44,0.8743540899026423
547,4018.16,0.9107841301635123
548,4020.89,0.9025585702047532
549,4023.61,0.9210989104656232
550,4026.3300000000004,0.9306378507264932
551,4029.06,0.8823023907677341
552,4031.7799999999997,0.9043137310286041
553,4034.51,0.9107178710698449
554,4037.23,0.850676611330715
555,4039.96,0.8965742513719559
556,4042.6800000000003,0.8783459916328259
557,4045.41,0.8395475316740667
558,4048.1299999999997,0.8723443719349367
559,4050.86,0.8214627119761777
560,4053.58,0.8764797522370478
561,4056.2999999999997,0.8082477924979178
562,4059.03,0.8579895325391586
563,4061.75,0.8746160728000286
564,4064.4799999999996,0.8128189128412695
565,4067.2000000000003,0.8625971531021396
566,4069.93,0.8978063931433804
567,4072.65,0.8879147334042504
568,4075.38,0.8782944734454914
569,4078.1,0.7925458137063613
570,4080.83,0.8234085537476021
571,4083.55,0.8243835940084722
572,4086.27,0.8157243342693422
573,4089.0,0.8033793743105831
574,4091.72,0.7648930145714532
575,4094.45,0.767242654612694
576,4097.17,0.816177594873564
577,4099.900000000001,0.929514334914805
578,4102.62,1.011423175175675
579,4105.349999999999,1.002937115216916
580,4108.07,0.8945474554777858
581,4110.8,0.8088920955190266
582,4113.5199999999995,0.7917826357798968
583,4116.25,0.8080967758211376
584,4118.97,0.8125263160820076
