,lambda (Angstroms),Total Flux (erg/s/cm^2/Angstrom)
0,100.00999999999999,0.00486699224941036
1,102.10000000000001,0.005978429353630083
2,104.0,0.0069888292203207246
3,104.712855,0.007367932887675364
4,105.93,0.00682802775189634
5,107.89999999999999,0.005954225760077239
6,109.91000000000001,0.005062888138957734
7,114.03,0.003235669758717777
8,118.04,0.00145740601607888
9,120.22644299999999,0.0004931564632408648
10,121.07,0.0004780757023259244
11,125.03,0.000400023211371145
12,127.07,0.00035961582784898617
13,127.95,0.0003426672231923683
14,130.93,0.00028383969196882217
15,132.14,0.0002627020005659734
16,133.98,0.00022678784719304558
17,137.1,0.0001701334588650376
18,138.038426,0.00015214724424759488
19,139.97,0.0001533789095560277
20,142.9,0.00022069643854415467
21,146.9,0.00039477658699210954
22,151.02,0.0004197613308935032
23,154.89,0.00045083873426689957
24,158.489319,0.00048311719095861874
25,158.86,0.0004862972519888266
26,161.82,0.0005122223040192233
27,165.97,0.0005557488928456238
28,169.84,0.0005923497024259058
29,172.98999999999998,0.00062468889394474
30,177.01999999999998,0.0006652566630942327
31,179.89999999999998,0.0006965015353400239
32,181.970086,0.0007201707537577434
33,181.98,0.0007202987079914466
34,185.79,0.0007708239391856192
35,191.0,0.0008393854506086214
36,194.1,0.0008873117568296017
37,198.17000000000002,0.0009403431943519855
38,201.85000000000002,0.0010029501223820525
39,205.13,0.001049628856061025
40,208.929613,0.0010742595393069879
41,209.91,0.0010823976782252827
42,215.79000000000002,0.0012343893105800923
43,219.79999999999998,0.0013129781299241034
44,222.86,0.001353336787578137
45,227.00000000000003,0.0014415946185218295
46,230.16,0.002165249977406387
47,233.9,0.0036480610034279833
48,239.88329199999998,0.004526291668459823
49,239.9,0.004528677740680965
50,246.04999999999998,0.004349559724659043
51,251.78,0.004650670909731302
52,257.06,0.003986147095975897
53,260.03,0.004573976888238481
54,264.26,0.0048190690772185255
55,269.17,0.004832145797760374
56,274.17,0.004845165118067755
57,275.42287,0.004848289919980261
58,279.27,0.004872150154574698
59,283.81,0.004902991601671951
60,289.75,0.00471961353906351
61,295.82,0.0048380883791252546
62,301.32,0.004816457876710032
63,308.34,0.004905718620900058
64,316.227766,0.005014050511200787
65,317.71,0.00502949110908291
66,328.12,0.005014794935434251
67,338.09,0.004967160825801483
68,348.36,0.0048976889907033335
69,357.29999999999995,0.004841553371835033
70,363.078055,0.004825864341618034
71,365.61999999999995,0.0048253093574044635
72,375.0,0.004770750049191134
73,384.62,0.004582080428187698
74,395.39,0.004655943516731667
75,404.6,0.004635037138411328
76,414.03000000000003,0.004563167556700059
77,416.86938299999997,0.004533035734833579
78,421.72,0.004479436773009951
79,429.56,0.0044057733432499805
80,440.58,0.004345258236623083
81,450.85,0.004247836600955367
82,460.29,0.004161343899815811
83,469.92,0.004086569972699929
84,478.630092,0.004037218078927132
85,479.76,0.0040291010421287495
86,489.80999999999995,0.0038903305996357946
87,500.07000000000005,0.003839284338941495
88,505.86,0.003750874922818689
89,511.71000000000004,0.0038207408443526407
90,520.03,0.0037469889994231503
91,529.7,0.0036331077517707255
92,539.54,0.003483704127479117
93,549.5408739999999,0.0033920050458487
94,549.58,0.0033916690193803623
95,559.79,0.003373881680223304
96,570.2,0.0033487692913276154
97,579.47,0.0032369453859421174
98,590.24,0.003191346107516895
99,599.83,0.0030509465225495892
100,609.5799999999999,0.00270038209779138
101,619.48,0.0029854616357291976
102,629.55,0.0028918495313891798
103,630.957344,0.0028870927713832177
104,639.78,0.002863077958750628
105,650.1700000000001,0.002792253870015118
106,657.6999999999999,0.0027104703918458795
107,665.3100000000001,0.0027194021343601017
108,674.57,0.002681602178470706
109,685.53,0.0025542764121048557
110,695.07,0.002574785228607573
111,704.7399999999999,0.0024423231537209146
112,716.19,0.0024839184890412627
113,724.43596,0.0024431113152641997
114,726.15,0.0024343498743713923
115,734.56,0.0023997134595933824
116,744.78,0.0023407610732638627
117,755.14,0.0022933217775325684
118,765.64,0.0020901595723995005
119,774.5100000000001,0.002210947026729947
120,785.29,0.0021346960027933295
121,794.38,0.002123116742349559
122,805.4300000000001,0.002098714750280949
123,814.7600000000001,0.0020611460737198516
124,824.19,0.002037316890443201
125,831.763771,0.001938550347067889
126,835.66,0.0018850781114637775
127,845.3299999999999,0.001948812101359573
128,855.12,0.0019037638636222242
129,865.02,0.0018752690838878265
130,875.04,0.0018509580765202847
131,885.17,0.0018153395271556941
132,895.42,0.0017839387501579593
133,905.7900000000001,0.0017381397455270803
134,914.17,0.0019832671824791762
135,924.76,0.0036080870938541994
136,935.46,0.005622403463232174
137,944.12,0.0084014247023736
138,954.992586,0.01074498286097809
139,955.0500000000001,0.010757380952117621
140,963.89,0.011570056256483004
141,975.05,0.003936501740274596
142,984.0699999999999,0.009576786713733392
143,995.4699999999999,0.009998700422982868
144,1004.6800000000001,0.013819975324929155
145,1013.98,0.01356912656142215
146,1025.72,0.006857526090070293
147,1035.21,0.010110129255050778
148,1044.79,0.01732547475457797
149,1054.45,0.016933369329257788
150,1064.21,0.013442186497878393
151,1074.06,0.015701067001045704
152,1084.0,0.01229566083875972
153,1094.03,0.01635911801102044
154,1096.4782,0.016199334376906405
155,1104.15,0.015697418401440053
156,1114.37,0.014959069443807765
157,1124.68,0.013371899624513357
158,1135.08,0.016843848943556824
159,1145.59,0.015367792765013249
160,1156.18,0.01623342804277001
161,1164.2,0.016493649036878527
162,1174.97,0.01141115259131104
163,1185.84,0.015859012966118972
164,1194.06,0.011174627600978326
165,1205.11,0.00837964825246201
166,1216.26,0.006049808724321111
167,1224.69,0.011269997681968843
168,1236.03,0.01632663911254124
169,1244.59,0.017688334936677014
170,1256.11,0.016777384643925163
171,1258.92541,0.016047482669471622
172,1264.8200000000002,0.014520759229600907
173,1273.58,0.01860069366023698
174,1285.3700000000001,0.019429278048045128
175,1294.28,0.01513288495180853
176,1306.25,0.014926602307369469
177,1315.3100000000002,0.018729681684260206
178,1324.42,0.017808331885526718
179,1333.6100000000001,0.015626953405794473
180,1345.9499999999998,0.01872994686173616
181,1355.27,0.018055430525380934
182,1364.67,0.01602651550802695
183,1374.13,0.0167785114799239
184,1383.6499999999999,0.01685582844107178
185,1396.46,0.014423699646145769
186,1406.1399999999999,0.014791889245296135
187,1415.8799999999999,0.015414969833697435
188,1425.7,0.015808431741099978
189,1435.58,0.015700374637753447
190,1442.2099999999998,0.016512513949981437
191,1445.43977,0.016772427490744
192,1445.53,0.016779688449449406
193,1455.55,0.016212537104231046
194,1465.64,0.01486085672765886
195,1475.8,0.014826867319732857
196,1486.0300000000002,0.015135938880453031
197,1496.33,0.015345631409819385
198,1506.7,0.01442540490783192
199,1513.66,0.012776821218937726
200,1517.1499999999999,0.013685299512868655
201,1524.1499999999999,0.013253786377486566
202,1534.71,0.011474262504681585
203,1545.3500000000001,0.01257419973890081
204,1556.06,0.011875297941766212
205,1563.25,0.012094717435566608
206,1574.08,0.01304360729896832
207,1584.99,0.013749268269394233
208,1595.9799999999998,0.014100020346844351
209,1603.3500000000001,0.01374932233144921
210,1614.46,0.013749566069435636
211,1625.6499999999999,0.012866430914446267
212,1633.1499999999999,0.013781404697965457
213,1644.48,0.014197741480268446
214,1655.8700000000001,0.012778969092839588
215,1659.58691,0.013500096208000403
216,1663.52,0.014263507984649338
217,1671.1999999999998,0.012292314086137622
218,1678.91,0.016517483219272346
219,1686.66,0.01725326639460232
220,1694.44,0.015563832601578733
221,1706.1899999999998,0.015247519996433855
222,1714.07,0.015745136308898396
223,1725.95,0.015964136840888085
224,1733.9099999999999,0.01786157123774313
225,1745.93,0.017141225917416198
226,1753.99,0.01948897041975937
227,1766.1499999999999,0.01648849924711582
228,1774.3,0.018238002844398308
229,1786.6000000000001,0.018365085819438142
230,1794.8500000000001,0.021910659522208758
231,1803.13,0.020361816256625816
232,1815.63,0.0198106594426419
233,1824.01,0.019630716282547086
234,1836.6499999999999,0.018370093616246554
235,1845.13,0.016234240561639867
236,1853.65,0.018079341549228432
237,1866.5,0.020321490104452968
238,1875.1100000000001,0.020462670186980853
239,1883.77,0.019908495322252796
240,1896.83,0.021035245099002405
241,1905.46072,0.02089396191922743
242,1905.5800000000002,0.020891981737871292
243,1914.3799999999999,0.021131695442247696
244,1923.2099999999998,0.019636785238798107
245,1936.54,0.015869008861450092
246,1945.48,0.02284007432930521
247,1954.46,0.022526814586725674
248,1968.01,0.025787889551987065
249,1977.09,0.0249721867833209
250,1986.22,0.025552027501611417
251,1995.3899999999999,0.02525779300946728
252,2004.6,0.024124973306888495
253,2013.8500000000001,0.023630598393875057
254,2023.1499999999999,0.022517776967818297
255,2037.17,0.025080980710472524
256,2046.5700000000002,0.02736439625832913
257,2056.02,0.02583604529314243
258,2065.51,0.024846109117521074
259,2075.04,0.028845057731465066
260,2079.83,0.0362913237819154
261,2084.62,0.03914984983236574
262,2094.24,0.03637309672283176
263,2103.91,0.03387030710025447
264,2113.62,0.035789162267242526
265,2123.38,0.03465621092118726
266,2133.1800000000003,0.030261844364697345
267,2143.0299999999997,0.03628304129516411
268,2152.92,0.03703926301519622
269,2162.85,0.03324552952479369
270,2172.84,0.033706338218739175
271,2182.87,0.037635801702250005
272,2187.7616199999998,0.03845231279404191
273,2192.94,0.03931790232149816
274,2203.07,0.03737962438292249
275,2213.23,0.031031929560027243
276,2223.45,0.03219550096849285
277,2233.71,0.04051325653119903
278,2244.02,0.03781502728670592
279,2254.38,0.031250553235013516
280,2264.79,0.030965394376121832
281,2275.2400000000002,0.03434004967147071
282,2285.74,0.04042587015962031
283,2296.29,0.03522378584057062
284,2306.89,0.03953238671432164
285,2317.54,0.03518079278087337
286,2322.88,0.024822857371989453
287,2333.6,0.025943800708462184
288,2344.38,0.01989253027629577
289,2355.2000000000003,0.03222809399836992
290,2366.07,0.02113934291324479
291,2376.99,0.026243547020920372
292,2382.47,0.017492066151878444
293,2393.4700000000003,0.021365388568035163
294,2404.5099999999998,0.020989675138432456
295,2415.61,0.0238800579401906
296,2426.76,0.03554219593474946
297,2432.36,0.03522823752842924
298,2443.58,0.0404564127929091
299,2454.86,0.0418990642887498
300,2466.19,0.03841945097739123
301,2477.58,0.0347468938973935
302,2483.29,0.028925236915234853
303,2494.75,0.029958087105158127
304,2506.27,0.04278807352644226
305,2511.88643,0.024448297133027305
306,2512.04,0.023946810653728386
307,2517.84,0.020590107522659655
308,2523.64,0.021364964391590927
309,2535.29,0.027447686119702875
310,2546.9900000000002,0.028950555838064235
311,2552.86,0.04378062989334468
312,2564.65,0.03513679599415497
313,2576.48,0.042833800487164786
314,2582.42,0.0395362817287944
315,2594.34,0.03633402260425315
316,2606.3199999999997,0.03241202106801119
317,2612.33,0.029507629495989975
318,2624.38,0.03934180514609719
319,2636.5,0.057380177982553564
320,2642.58,0.07650992359688152
321,2654.77,0.09814123361968707
322,2667.03,0.0652097908288418
323,2673.17,0.07470829403146904
324,2685.5099999999998,0.08214327802502282
325,2697.91,0.06500607960687586
326,2704.13,0.07779879959390217
327,2716.6099999999997,0.06017145796015428
328,2722.87,0.05328409633938011
329,2735.44,0.06334866108808115
330,2748.07,0.03719012342508149
331,2754.4,0.04702675899065648
332,2767.1200000000003,0.05813477771010576
333,2773.5,0.06390197126593015
334,2786.2999999999997,0.04247005676977848
335,2792.7200000000003,0.0196905087178024
336,2805.61,0.023942000604099657
337,2812.08,0.058797610542372994
338,2825.06,0.08230840881111919
339,2838.1,0.07974929466816466
340,2844.64,0.06652017179278716
341,2857.77,0.04769196403228158
342,2864.36,0.0843795791471535
343,2877.58,0.10219421776909685
344,2884.0315,0.0949545288740548
345,2884.21,0.09475422830414379
346,2897.5299999999997,0.10710834734711212
347,2910.9,0.14158643634895043
348,2931.08,0.12544791974888292
349,2951.4,0.11855060303365143
350,2971.85,0.12685418621148192
351,2992.45,0.12904066926592245
352,3013.2,0.13217285219697295
353,3027.11,0.13817144075460727
354,3048.09,0.1428363234964598
355,3069.22,0.15461490611492232
356,3090.4900000000002,0.15548468861822085
357,3111.91,0.1722279709981294
358,3133.48,0.1627630532546479
359,3147.95,0.16475914135162628
360,3169.77,0.17671762340249478
361,3191.7400000000002,0.15408400532997332
362,3206.4700000000003,0.17101509321307568
363,3228.7,0.14572167492667823
364,3251.08,0.19449775651689077
365,3273.61,0.22353843798371334
366,3288.72,0.2196155255542277
367,3311.31121,0.21196828330144457
368,3311.52,0.2118976036874881
369,3319.15,0.2024388837061751
370,3326.81,0.20065226325311378
371,3334.47,0.22781484280005246
372,3342.1600000000003,0.20832982187524288
373,3349.87,0.22433340063593443
374,3357.5899999999997,0.23016797923937654
375,3365.3300000000004,0.17508485752831981
376,3373.09,0.16421683550276422
377,3380.86,0.2262126133199592
378,3388.65,0.22422119082265535
379,3396.47,0.1935785678536032
380,3404.3,0.24432014472730162
381,3412.1400000000003,0.20997172144375062
382,3420.01,0.22351549768845133
383,3427.8900000000003,0.2180076737759026
384,3435.8,0.22783614939160562
385,3443.7200000000003,0.1733140248500592
386,3451.66,0.22384239999401392
387,3459.61,0.2244417749807192
388,3467.5899999999997,0.21891124949567625
389,3475.58,0.22409052385338382
390,3483.5899999999997,0.22314489789659256
391,3491.62,0.2237429716253024
392,3499.6699999999996,0.19183874503951345
393,3507.74,0.24720091813922562
394,3515.83,0.20760889092443893
395,3523.9300000000003,0.23301906355240282
396,3532.0499999999997,0.22727773586586786
397,3540.2,0.2539181077075846
398,3548.3599999999997,0.2659966793920519
399,3556.5400000000004,0.2377041507620204
400,3564.7400000000002,0.25072612181749
401,3572.95,0.18984789271571018
402,3581.19,0.2039656631421821
403,3589.4500000000003,0.15515773325415513
404,3597.72,0.23489100320887876
405,3606.01,0.24100657284910354
406,3614.33,0.21837774201758003
407,3622.66,0.19160031102880706
408,3630.4599999999996,0.2710706883742538
409,3633.2,0.2446510452879107
410,3635.95,0.2373935020443182
411,3638.69,0.2298323589579751
412,3641.44,0.2555132157143826
413,3644.1800000000003,0.27340507262803954
414,3646.92,0.21464972954169645
415,3649.67,0.2668770862981039
416,3652.41,0.2572529432117609
417,3655.16,0.26447039996816835
418,3657.9,0.2868649568818253
419,3660.64,0.33070071379548216
420,3663.3900000000003,0.2841009705518897
421,3666.13,0.3013497274655466
422,3668.8700000000003,0.2555615843792035
423,3671.62,0.243410741135611
424,3674.3599999999997,0.2712607980492679
425,3677.11,0.28167065480567544
426,3679.85,0.2728566117193323
427,3682.59,0.24755656863298928
428,3685.3399999999997,0.27287992538939676
429,3688.0800000000004,0.27426218230305366
430,3690.83,0.29293883905946116
431,3693.5699999999997,0.27230829597311806
432,3696.31,0.313833152886775
433,3699.06,0.3249337096431825
434,3701.8,0.3035885665568394
435,3704.54,0.26423282347049637
436,3707.29,0.2796455802269038
437,3710.03,0.26427993714056075
438,3712.7799999999997,0.2747137938969682
439,3715.52,0.2939397508106252
440,3718.2599999999998,0.32240940772428206
441,3721.01,0.28965106448068956
442,3723.75,0.2863163213943465
443,3726.5,0.28238457815075396
444,3729.24,0.2812892350644109
445,3731.9799999999996,0.27828799197806786
446,3734.73,0.23111904873447534
447,3737.47,0.22957340564813225
448,3740.21,0.2609683625617891
449,3742.96,0.26108661931819666
450,3745.7000000000003,0.25351127623185354
451,3748.45,0.24138423298826106
452,3751.1899999999996,0.24259968990191796
453,3753.93,0.26759094681557494
454,3756.68,0.26951980357198235
455,3759.42,0.2975128604856393
456,3762.17,0.2891260172420468
457,3764.9100000000003,0.29274767415570374
458,3767.65,0.2973700310693606
459,3770.3999999999996,0.2698052878257681
460,3773.14,0.308423644739425
461,3775.8799999999997,0.326125101653082
462,3778.63,0.33458125840948943
463,3781.37,0.3266249153231464
464,3784.1200000000003,0.3024191720795539
465,3786.86,0.3402513289932108
466,3789.6000000000004,0.3079950859068677
467,3792.35,0.31416424266327525
468,3795.0899999999997,0.26549359957693214
469,3797.84,0.27263965633333964
470,3800.58,0.30916151324699653
471,3801.8939600000003,0.29905109788723827
472,3803.32,0.28807827483304366
473,3806.0699999999997,0.31016164059976864
474,3808.8100000000004,0.30570720649097816
475,3811.55,0.29465367238218776
476,3814.2999999999997,0.27354513814891274
477,3817.04,0.2899839040401223
478,3819.79,0.28657616980684725
479,3822.53,0.26277713569805683
480,3825.27,0.2467921015892664
481,3828.02,0.20361606735599136
482,3830.76,0.21569733324720092
483,3833.5099999999998,0.22888999901392587
484,3836.25,0.19686216490513544
485,3838.99,0.21459673079634506
486,3841.7400000000002,0.24769629656307
487,3844.48,0.24931666245427958
488,3847.2200000000003,0.28398032834548914
489,3849.97,0.3074692941122141
490,3852.7099999999996,0.2774522600034237
491,3855.46,0.2970580257701486
492,3858.2,0.30046539166135816
493,3860.94,0.2806209575525678
494,3863.69,0.2649919233192927
495,3866.4300000000003,0.3029907892105023
496,3869.18,0.30077415497722726
497,3871.9199999999996,0.3066353208684368
498,3874.66,0.2735689867596464
499,3877.41,0.27497355252637135
500,3880.15,0.269351818417581
501,3882.89,0.2784051843087905
502,3885.6400000000003,0.25536705007551547
503,3888.38,0.2915554159667251
504,3891.1299999999997,0.28476478173345
505,3893.87,0.29560484762465955
506,3896.6099999999997,0.33574801351586914
507,3899.36,0.3244069792825941
508,3902.1,0.3230496451738037
509,3904.8500000000004,0.34210731094052865
510,3907.59,0.33436527683173817
511,3910.3300000000004,0.35564034272294776
512,3913.08,0.3336740084896727
513,3915.8199999999997,0.35180427438088235
514,3918.56,0.34572984027209186
515,3921.31,0.32798030603881684
516,3924.05,0.2929842719300264
517,3926.7999999999997,0.2577723376967514
518,3929.5400000000004,0.23835680358796094
519,3932.28,0.2089899694791705
520,3935.0299999999997,0.18914913524589547
521,3937.77,0.19377840113710507
522,3940.52,0.21491866690383
523,3943.26,0.26665873279503954
524,3946.0,0.29260299868624917
525,3948.7499999999995,0.3161156644529741
526,3951.49,0.3402971303441837
527,3954.23,0.34220359623539326
528,3956.98,0.33310196200211817
529,3959.72,0.3237400278933278
530,3962.4700000000003,0.28855179366005274
531,3965.21,0.2370984595512623
532,3967.9500000000003,0.21260592544247187
533,3970.7,0.20058869120919684
534,3973.4399999999996,0.21989565710040643
535,3976.19,0.2592964228671314
536,3978.93,0.30568108875834094
537,3981.67,0.3620717546495505
538,3984.42,0.39992602041627545
539,3987.1600000000003,0.4054060863074851
540,3989.9,0.4145550521986946
541,3992.6499999999996,0.43366021796541954
542,3995.39,0.43973588385662915
543,3998.14,0.4533377496233541
544,4000.88,0.4585082155145637
545,4003.62,0.44735968140577326
546,4006.3700000000003,0.4542670471724982
547,4009.11,0.4569361130637078
548,4011.8599999999997,0.4685604788304327
549,4014.6,0.4726113447216423
550,4017.3399999999997,0.4851433106128519
551,4020.09,0.47549337637957684
552,4022.83,0.47625654227078645
553,4025.57,0.48695420816199597
554,4028.32,0.4750409739287209
555,4031.0600000000004,0.46170073981993054
556,4033.81,0.45429020558665545
557,4036.5499999999997,0.46246247147786507
558,4039.29,0.4791873373690746
559,4042.04,0.47430210313579957
560,4044.78,0.44709656902700917
561,4047.5299999999997,0.4526936347937341
562,4050.2700000000004,0.46112800068494364
563,4053.01,0.45536356657615323
564,4055.7599999999998,0.4629856323428782
565,4058.5,0.4667267982340878
566,4061.24,0.45498266412529736
567,4063.9900000000002,0.4530515298920223
568,4066.73,0.4507414957832319
