,lambda (Angstroms),Total Flux (erg/s/cm^2/Angstrom)
0,100.05999999999999,0.0023109596365694534
1,101.92,0.002778274061982394
2,104.05,0.0033132478102294656
3,104.712855,0.003479809210735202
4,105.99000000000001,0.0032129030736648533
5,107.96,0.00280145208705721
6,109.97,0.002382628218559051
7,114.09,0.0015228167218364584
8,118.1,0.0006863882628127726
9,120.22644299999999,0.0002646002752436571
10,121.13000000000001,0.00026578741291978427
11,125.10000000000001,0.00023789977957698667
12,127.13000000000001,0.00022269611993318842
13,128.01,0.00021749405402848786
14,131.0,0.00019504226430683416
15,131.9,0.00019890460485884475
16,134.05,0.0001830197339553145
17,136.85,0.0001787606978949033
18,138.038426,0.0001707224693720414
19,140.04000000000002,0.00017588910945527138
20,142.97,0.0003932667733593364
21,146.98,0.0009022284386341832
22,151.1,0.0009532509697893872
23,154.97,0.001018693833034688
24,158.489319,0.0010829010927659653
25,158.95,0.0010912213072212784
26,161.9,0.001143807575643318
27,166.06,0.001230818781282533
28,169.92,0.0012992636884381513
29,173.08,0.001359806565798709
30,177.11999999999998,0.0014324918520444855
31,179.99,0.0014867071742042325
32,181.970086,0.0015240837570264843
33,182.07999999999998,0.001526234892158152
34,185.89000000000001,0.0016043313958382422
35,191.1,0.0017056977250175785
36,194.2,0.001780698124337337
37,197.81,0.0018550707958032491
38,201.95999999999998,0.001945586814247442
39,204.76999999999998,0.0020085641568566423
40,208.929613,0.002019997226064495
41,210.02,0.002023929935299823
42,215.9,0.0022413723476114567
43,219.92000000000002,0.0023434490172530844
44,222.98,0.002378521497129547
45,227.12,0.0024921944404918198
46,229.75,0.003744106189535969
47,234.01999999999998,0.006304763679428941
48,239.88329199999998,0.00761187292146687
49,240.01999999999998,0.007642093241090249
50,246.18,0.007196747444984551
51,251.92,0.007544887066795151
52,257.19,0.0063687144181787505
53,260.16999999999996,0.007251067643439306
54,263.79,0.007534979279494074
55,268.69,0.007479313737137269
56,273.69,0.00738999557146706
57,275.42287,0.007359895270047429
58,278.78,0.007307455231572575
59,283.96000000000004,0.00726213021523823
60,289.90999999999997,0.006848338872151484
61,295.98,0.006901050945674752
62,300.79,0.0067806556447928615
63,307.79,0.006771642947043747
64,316.227766,0.006766339204431743
65,317.87,0.006762736451958712
66,328.28999999999996,0.006603581826920972
67,338.26,0.006404775997590236
68,347.74,0.006197051434696016
69,356.66,0.006051525462014956
70,363.078055,0.005960904503876329
71,365.81,0.005925549200310787
72,375.18999999999994,0.005757157811172723
73,384.82000000000005,0.005430824542793242
74,394.69,0.005423509230341997
75,404.81000000000006,0.005306801038649333
76,414.24,0.005145693473662986
77,416.86938299999997,0.005092094331354545
78,421.95000000000005,0.004987477906567667
79,429.79,0.004856339396010476
80,440.81,0.00471897031612014
81,451.08000000000004,0.004533964823336678
82,460.53,0.004395694225790065
83,470.17,0.004262086506176376
84,478.630092,0.004167114763928883
85,480.02000000000004,0.004150516426775769
86,490.07,0.003963984070387399
87,500.33,0.0038715733901341985
88,506.11999999999995,0.0037746708892895556
89,511.98,0.003823629947156636
90,520.3,0.0037266934968928317
91,529.98,0.003574597473028213
92,539.83,0.0033977223774634933
93,549.5408739999999,0.003284554624547202
94,549.87,0.00328080928482833
95,560.09,0.003249894763617124
96,570.5,0.003197786116277725
97,579.77,0.003062290225707482
98,590.5500000000001,0.0030062556485394975
99,600.15,0.0028594341178518673
100,609.9,0.0025251037507472425
101,619.8100000000001,0.0027617682247978244
102,629.88,0.002662644540003612
103,630.957344,0.0026575033192527396
104,640.11,0.0026166675792970388
105,650.51,0.002542987435346387
106,658.0500000000001,0.002460028480982164
107,665.67,0.00245581578704909
108,674.93,0.0024029544319545677
109,684.32,0.0022840142500606614
110,695.43,0.002296307667436455
111,705.11,0.002173411179605464
112,716.5699999999999,0.0021996869863675334
113,724.43596,0.0021591934220697856
114,726.53,0.0021482525173610106
115,734.95,0.002111055488615085
116,745.17,0.0020657440190446153
117,755.54,0.002021532762738766
118,764.29,0.0018552272031750077
119,774.9200000000001,0.001948846316527836
120,785.7,0.0018863966431452853
121,794.8,0.0018748695811989765
122,805.85,0.0018513622916927445
123,815.1899999999999,0.0018199705709698293
124,824.6199999999999,0.0018049889782056875
125,831.763771,0.0016869690772661698
126,834.1700000000001,0.00164644048480051
127,845.78,0.0017289314654025006
128,855.5699999999999,0.0016929358555914313
129,865.48,0.0016796107132801242
130,875.5,0.0016701132495102657
131,885.64,0.0016568762532401696
132,895.89,0.001640079935511522
133,904.18,0.0015989769819534255
134,914.6500000000001,0.0019842410213076755
135,925.2399999999999,0.005897968528161687
136,935.96,0.011178677291473775
137,944.62,0.01951376252937328
138,954.992586,0.026351990466228183
139,955.5600000000001,0.026726169277693782
140,964.4,0.029569840342191615
141,975.57,0.0062078629791193045
142,984.59,0.024548294753075236
143,995.9899999999999,0.025820076352088276
144,1005.21,0.03712424413655321
145,1014.51,0.03561945912522174
146,1023.9,0.015794550968619325
147,1035.75,0.024943576841277616
148,1045.34,0.0465075216951842
149,1055.01,0.045345243753294386
150,1064.77,0.03553618266613362
151,1074.6200000000001,0.0420320484337019
152,1084.57,0.03278746070652469
153,1094.6,0.043605950183551075
154,1096.4782,0.04322472304514237
155,1104.73,0.04154920196989746
156,1114.95,0.03958934411439782
157,1125.27,0.03528823532097745
158,1135.68,0.044718966683428396
159,1146.19,0.04041352710795861
160,1154.13,0.042705928637051846
161,1164.81,0.043799480467116805
162,1175.59,0.030036241359261015
163,1183.74,0.041826919918720694
164,1194.69,0.028618162216399654
165,1205.75,0.02050527248236579
166,1214.1100000000001,0.013843378072191919
167,1225.3400000000001,0.027836619743692805
168,1233.8300000000002,0.041919101114221965
169,1245.25,0.045957482003673444
170,1253.8799999999999,0.04358855806111357
171,1258.92541,0.04076758286274428
172,1265.48,0.03710356719334604
173,1274.2600000000002,0.04800987550237439
174,1286.05,0.05015577722941814
175,1294.96,0.039210986549855796
176,1303.94,0.03840696641489845
177,1316.0,0.04823237024256153
178,1325.12,0.04585076119681421
179,1334.31,0.0402163926956719
180,1343.56,0.048010514661333874
181,1355.99,0.04616907136762343
182,1365.3899999999999,0.04086873450029615
183,1374.85,0.04289179809977316
184,1384.38,0.04309040224385518
185,1393.98,0.03719038693254221
186,1403.6399999999999,0.038496762088033536
187,1416.63,0.039211953151163166
188,1426.45,0.04012426955146594
189,1436.3400000000001,0.03966611649637372
190,1442.97,0.0418199880782482
191,1445.43977,0.04225357839236205
192,1446.29,0.042402842845011474
193,1456.3200000000002,0.041058118338245596
194,1466.4099999999999,0.03753489422326377
195,1476.5800000000002,0.037276530630660686
196,1483.3899999999999,0.037881995098150656
197,1493.68,0.038408762289115675
198,1504.0300000000002,0.03609607987186474
199,1510.97,0.031953415188220154
200,1517.95,0.034235780765764945
201,1524.9499999999998,0.03299864647390441
202,1535.52,0.02848174549319501
203,1546.17,0.031371115034864346
204,1553.3,0.02941401159186926
205,1564.07,0.0298236719171067
206,1574.9099999999999,0.031734082699425535
207,1585.83,0.03322724400412311
208,1596.82,0.03376717576590207
209,1604.19,0.03299920389004319
210,1615.3100000000002,0.032923416500687606
211,1626.51,0.030941819633710756
212,1634.02,0.032847658672014675
213,1645.3400000000001,0.033304742588605926
214,1656.75,0.030446597092873263
215,1659.58691,0.03150798756720696
216,1664.39,0.03330519465453621
217,1672.08,0.029415031355465207
218,1675.9299999999998,0.03338258494435683
219,1683.6699999999998,0.03479333402955715
220,1695.34,0.032399990518483204
221,1703.1599999999999,0.030944543418517625
222,1714.97,0.029283136583403375
223,1726.8600000000001,0.029015063563123236
224,1734.83,0.030874413615971624
225,1746.8500000000001,0.030034196794796915
226,1754.92,0.03203167161618794
227,1763.0199999999998,0.029084027868141755
228,1775.2399999999998,0.02982983058405233
229,1783.43,0.03024445112769452
230,1795.79,0.03240499051956479
231,1804.0800000000002,0.031887045831749616
232,1816.59,0.02935512237643385
233,1824.97,0.029832211980307055
234,1833.4,0.028490573968451584
235,1846.1,0.025988909573366824
236,1854.6299999999999,0.026109106330053995
237,1863.19,0.026963084517303955
238,1876.1,0.02902249013615874
239,1884.76,0.02671723309195134
240,1893.4599999999998,0.025694217955160994
241,1905.46072,0.02691339798015583
242,1906.59,0.02702800080110649
243,1915.3899999999999,0.02599088989110895
244,1924.23,0.0253423465224296
245,1933.1100000000001,0.025693100695068447
246,1946.51,0.0272125370366631
247,1955.49,0.025456175062597432
248,1969.05,0.027907781569464857
249,1978.1399999999999,0.028425532834024218
250,1982.7,0.02702315254429822
251,1996.4399999999998,0.026165887987097514
252,2005.6599999999999,0.026773281260941004
253,2014.91,0.02580658269077313
254,2024.2099999999998,0.026649781047253004
255,2033.5600000000002,0.025569756330380618
256,2042.94,0.02664847976949688
257,2057.1,0.0253914193961372
258,2066.6,0.02533352545920804
259,2076.14,0.027204529063597067
260,2085.7200000000003,0.029756480209304294
261,2095.35,0.027900078281659253
262,2105.02,0.027771023895332415
263,2114.74,0.028481116435653316
264,2124.5,0.028220726517292405
265,2134.3,0.02615754414024969
266,2144.16,0.027961158075184265
267,2154.05,0.028677450166107482
268,2163.9900000000002,0.027136479183678446
269,2173.98,0.026887465127897144
270,2184.02,0.02789470799876359
271,2187.7616199999998,0.028208703565870547
272,2194.1,0.028741318638791268
273,2204.23,0.02789500508188215
274,2214.4,0.025268993485261643
275,2224.62,0.025385094339001903
276,2234.89,0.028743217643102927
277,2245.21,0.027324683397564713
278,2255.57,0.02469557111231511
279,2265.98,0.024583481277426274
280,2276.44,0.0256817538928982
281,2286.9500000000003,0.028351778958730894
282,2297.5,0.025691465984852196
283,2302.8,0.027217775723093234
284,2313.43,0.024954106669791757
285,2324.11,0.01970252006685105
286,2334.84,0.021611645914271106
287,2345.61,0.019543743721979773
288,2356.44,0.023826934470121356
289,2367.32,0.019744547668623706
290,2372.77,0.021305294757947034
291,2383.73,0.018275021877026607
292,2394.73,0.01999857095639479
293,2405.7799999999997,0.01928826248612374
294,2416.89,0.020298026956285603
295,2422.46,0.024458189926474767
296,2433.64,0.023914937827141703
297,2444.87,0.026475218178169405
298,2456.16,0.02685682146963002
299,2467.5,0.025024257211451406
300,2473.1800000000003,0.023362995572434247
301,2484.6,0.020695485234832854
302,2496.07,0.020898657347592223
303,2507.59,0.025951471910712356
304,2511.88643,0.020778513149066005
305,2513.37,0.01899217432778763
306,2519.16,0.01856532450837946
307,2524.9700000000003,0.018189714309629634
308,2536.62,0.020793433343117507
309,2542.47,0.020943162385684378
310,2554.21,0.028120629712134818
311,2566.0,0.02406330609023113
312,2577.84,0.02776482151997331
313,2583.7900000000004,0.026040118665831925
314,2595.71,0.0246566225782075
315,2607.6899999999996,0.022763465352558118
316,2613.7,0.021747021360391774
317,2625.77,0.025205652427704964
318,2637.89,0.034239112546664015
319,2643.97,0.0423192172268019
320,2656.17,0.05391236582839435
321,2662.3,0.0375806395601781
322,2674.58,0.04170182664440394
323,2686.9300000000003,0.046168472400934
324,2693.12,0.036692254994692794
325,2705.5600000000004,0.042828869044185425
326,2718.04,0.03397082233499475
327,2724.31,0.02939805341138694
328,2736.8799999999997,0.03463128499515883
329,2743.1899999999996,0.02386878531286771
330,2755.8500000000004,0.028245465189602175
331,2762.21,0.03372568455895693
332,2774.96,0.035659762728653954
333,2787.77,0.026099059760326032
334,2794.1899999999996,0.01679267799165583
335,2807.0899999999997,0.018761023316290468
336,2813.56,0.03280828059926613
337,2826.5499999999997,0.04286522421686334
338,2833.06,0.04085661074115571
339,2846.14,0.03255496265171548
340,2852.7000000000003,0.02392950822765372
341,2865.87,0.04148406843117606
342,2872.48,0.052350393058760165
343,2884.0315,0.04865151443220377
344,2885.73,0.04810767330120637
345,2892.3900000000003,0.05666142071602335
346,2912.44,0.07372364293330268
347,2932.6200000000003,0.06516862510012049
348,2952.95,0.060877267208713434
349,2973.42,0.06365663926296321
350,2987.15,0.06443301393344925
351,3007.8500000000004,0.06493864589842094
352,3028.7,0.06869057780516777
353,3049.69,0.07100731965757141
354,3070.83,0.07685918145175022
355,3092.12,0.0755283931877042
356,3113.5499999999997,0.08619827486931496
357,3127.92,0.08031390929137502
358,3149.61,0.08057762087206273
359,3171.4399999999996,0.08782551239840726
360,3193.42,0.07639643386652695
361,3208.16,0.08420530814496573
362,3230.4,0.07158125951216235
363,3252.79,0.09821267082113413
364,3267.81,0.11361410499088653
365,3290.46,0.11139759619893524
366,3311.31121,0.105578628772639
367,3313.27,0.10503197357053741
368,3320.9,0.10057211695417213
369,3328.56,0.10929736011519993
370,3336.23,0.11085530320202541
371,3343.92,0.10397144614044625
372,3351.63,0.10305338893046245
373,3359.36,0.11407493157207406
374,3367.1,0.10798257413948334
375,3374.86,0.07844304655848798
376,3382.64,0.091553768829088
377,3390.44,0.1108644009512834
378,3398.26,0.10738524292507418
379,3406.09,0.11094118482466263
380,3413.9399999999996,0.10845482657584644
381,3421.81,0.11544836817862565
382,3429.7,0.10928110963300022
383,3437.6099999999997,0.11135085093897017
384,3445.53,0.0732702321707378
385,3453.4700000000003,0.11694723325410082
386,3461.44,0.09575702411485687
387,3469.4199999999996,0.10382691490141063
388,3477.4100000000003,0.09046661561376206
389,3485.43,0.10342309610350656
390,3493.4700000000003,0.09200089644484644
391,3501.52,0.105419876711984
392,3509.59,0.11589431683071692
393,3517.6800000000003,0.09665902680104523
394,3525.79,0.0984903866229689
395,3533.9199999999996,0.11817343629648794
396,3542.0600000000004,0.12842957589580467
397,3550.2299999999996,0.12555131527251448
398,3558.4100000000003,0.11614265457502194
399,3566.62,0.11998759365492248
400,3574.84,0.0881745426606207
401,3583.08,0.08560613151791431
402,3591.34,0.08178477022680328
403,3599.62,0.12669454878728761
404,3607.92,0.10469968719936734
405,3616.2300000000005,0.11326402553724474
406,3624.5699999999997,0.1117504636525152
407,3632.92,0.13720880169358335
408,3641.3,0.13789223951204457
409,3649.69,0.11395157725630345
410,3658.11,0.1485469147779554
411,3666.54,0.14893285222540503
412,3674.9900000000002,0.14763408952445006
413,3683.46,0.12398032667509044
414,3691.95,0.1192667636773262
415,3700.46,0.14779080053115734
416,3709.0,0.10564703716238152
417,3717.55,0.1614232737194034
418,3726.12,0.09510292012802066
419,3734.7000000000003,0.11976304646243559
420,3743.32,0.13318978250004126
421,3751.94,0.07865307853764696
422,3760.5899999999997,0.1218454543526457
423,3769.2599999999998,0.1193916900192398
424,3777.95,0.14392132553742928
425,3786.66,0.16758996090721415
426,3795.3900000000003,0.12719149612859437
427,3801.8939600000003,0.11792014580142023
428,3804.14,0.11471843467415797
429,3812.91,0.1505735831579695
430,3821.7000000000003,0.1169395315242983
431,3830.5099999999998,0.08813992977314435
432,3839.34,0.07913309790450762
433,3848.19,0.12777627591838814
434,3857.06,0.13323272381478593
435,3865.9500000000003,0.13328367159370091
436,3874.86,0.10964041925513317
437,3883.8,0.11806696674034128
438,3892.75,0.10821971416680803
439,3901.7200000000003,0.14977376147579202
440,3910.72,0.15227150860855188
441,3919.73,0.16586225568257035
442,3928.77,0.1383410025803647
443,3937.82,0.05312544941941765
444,3946.8999999999996,0.12626979608224648
445,3956.0,0.16574814262759255
446,3965.12,0.1257883890554559
447,3976.5499999999997,0.14162322191406088
448,3979.29,0.09610640581892332
449,3982.0299999999997,0.12684908972378578
450,3984.7700000000004,0.13254357362864821
451,3987.51,0.20774655753351065
452,3990.25,0.1559399414383731
453,3992.9900000000002,0.18367752534323553
454,3995.73,0.188716709248098
455,3998.4599999999996,0.1811227932117018
456,4001.2,0.19606937711656425
457,4003.94,0.1894453610214267
458,4006.6800000000003,0.2790968449262891
459,4009.42,0.1694306288311516
460,4012.1600000000003,0.23906741273601403
461,4014.9,0.18402019664087646
462,4017.6400000000003,0.1337966805457389
463,4020.38,0.16524736445060134
464,4023.12,0.2157832483554638
465,4025.8500000000004,0.24696243231906764
466,4028.59,0.17900971622393008
467,4031.3300000000004,0.2534861001287925
468,4034.07,0.267347684033655
469,4036.81,0.25805406793851743
470,4039.55,0.26480635184337986
471,4042.29,0.2712017357482423
472,4045.03,0.19057241965310476
473,4047.77,0.1988665035579672
474,4050.5,0.18306408752157102
475,4053.2400000000002,0.17190037142643347
476,4055.98,0.1971254553312959
477,4058.7200000000003,0.19933803923615834
478,4061.46,0.1806510231410208
479,4064.2,0.22723260704588322
480,4066.94,0.23676869095074568
481,4069.68,0.19431257485560813
482,4072.42,0.29405685876047055
483,4075.16,0.279638142665333
484,4077.8900000000003,0.20960252662893683
485,4080.63,0.19564071053379928
486,4083.37,0.2267616944386617
487,4086.11,0.19930937834352416
488,4088.85,0.2573828622483866
489,4091.59,0.18391984615324905
490,4094.33,0.20911643005811148
491,4097.07,0.19244231396297393
492,4099.8099999999995,0.20282059786783638
493,4102.55,0.15629598177269882
494,4105.28,0.19900976573630264
495,4108.02,0.1868609496411651
496,4110.76,0.20474833354602753
497,4113.5,0.21665421745088997
498,4116.24,0.2499450013557524
499,4118.98,0.21234268526061487
500,4121.72,0.2085737691654773
501,4124.46,0.23007285307033976
502,4127.2,0.18530413697520218
503,4129.9400000000005,0.18172082088006464
504,4132.67,0.19229990484366843
505,4135.41,0.1795943887485309
506,4138.15,0.22764647265339333
507,4140.889999999999,0.2266326565582558
508,4143.63,0.19755294046311822
509,4146.37,0.24817452436798068
510,4149.11,0.2309579082728431
511,4151.85,0.22997269217770555
512,4154.59,0.233655776082568
513,4157.32,0.2723297600461718
514,4160.0599999999995,0.2416367439510343
515,4162.8,0.16680322785589674
516,4165.54,0.18223511176075918
517,4168.28,0.22270679566562163
518,4171.0199999999995,0.24706097957048406
519,4173.76,0.2112716634753465
520,4176.5,0.26491964738020896
521,4179.24,0.2703156312850714
522,4181.9800000000005,0.2502725151899338
523,4184.71,0.23240029915353766
524,4187.45,0.28260788305840007
525,4190.19,0.2793957669632625
526,4192.93,0.232756750868125
527,4195.67,0.19475473477298744
528,4198.41,0.25641141867784983
529,4201.150000000001,0.28661870258271227
530,4203.89,0.22196378648757475
531,4206.63,0.1492575703924372
532,4209.37,0.18607445429729966
533,4212.099999999999,0.24068003826090348
534,4214.84,0.2350124221657659
535,4217.58,0.22513350607062835
536,4220.320000000001,0.2414933899754908
537,4223.06,0.26559067388035323
538,4225.8,0.25752475778521566
539,4228.54,0.19826604169007814
540,4231.28,0.17862262559494058
541,4234.02,0.21075710949980303
542,4236.76,0.20734509340466548
543,4239.49,0.2040196773682693
544,4242.2300000000005,0.21672496127313173
545,4244.97,0.2503727451779942
546,4247.71,0.2344980290828566
547,4250.45,0.22243491298771906
548,4253.19,0.2317710968925815
549,4255.93,0.17097078079744393
550,4258.67,0.23332696470230638
551,4261.41,0.25583954860716884
552,4264.15,0.23683853251203127
553,4266.88,0.2224352164756351
554,4269.62,0.22904480038049754
555,4272.36,0.24100778428536
556,4275.1,0.21939416819022242
557,4277.84,0.21716705209508486
558,4280.58,0.23172813599994732
559,4283.32,0.20800181990480976
560,4286.0599999999995,0.2115991038096722
561,4288.8,0.19926478771453465
562,4291.53,0.16765917167813849
563,4294.27,0.19808065558300092
564,4297.01,0.23498333948786337
565,4299.75,0.18182032339272583
566,4302.49,0.17658100729758827
567,4305.23,0.18269099120245072
568,4307.97,0.19659537510731315
569,4310.71,0.2103142590121756
570,4313.45,0.23678124291703803
