,lambda (Angstroms),Total Flux (erg/s/cm^2/Angstrom)
0,100.09,0.0028998631139496235
1,101.96000000000001,0.003487237929496775
2,104.09,0.00415627065161893
3,104.712855,0.004351916004790175
4,106.03,0.004006785444413198
5,108.0,0.0034906110695895405
6,110.0,0.0029666597247807506
7,113.86999999999999,0.0019527579708987447
8,117.87,0.0009048556391811608
9,120.22644299999999,0.00028988093026924386
10,120.9,0.00028244437640532983
11,125.14000000000001,0.00023240359990340804
12,126.88,0.0002119543941172423
13,128.06,0.00019810705296340552
14,131.04,0.00016299831113422486
15,131.95,0.00015354965198168978
16,134.09,0.00012842579360100272
17,136.9,9.755463562449326e-05
18,138.038426,8.436575595455451e-05
19,140.09,8.45966234718977e-05
20,143.02,0.0001131816181416991
21,147.03,0.00018696189071026686
22,151.15,0.00019837025454630158
23,155.03,0.00021268440107149935
24,158.489319,0.00022713573060682444
25,159.0,0.00022915177436709793
26,161.95999999999998,0.00024046205678746543
27,166.11999999999998,0.0002603012239728468
28,169.98,0.00027798659496697464
29,173.14,0.0002930326748481778
30,177.18,0.0003118154035570578
31,180.06,0.000327399326993091
32,181.970086,0.00033767259009671033
33,182.14000000000001,0.00033873424516820983
34,185.96,0.0003640905239571243
35,191.17,0.0003974224329859841
36,193.82,0.00042128096617724683
37,197.88,0.00044878246457593604
38,202.03,0.00048018112032829083
39,204.83999999999997,0.0005041826332594033
40,208.929613,0.0005174712106114937
41,210.09,0.0005224881497158363
42,215.98,0.0005995497307135636
43,219.99,0.0006406254101364645
44,223.04999999999998,0.0006634308797210223
45,227.20000000000002,0.0007096879858569422
46,229.83,0.0010567773162515133
47,234.1,0.0017762372309985922
48,239.88329199999998,0.0022006175936549553
49,240.11,0.0022167218489871107
50,246.26999999999998,0.002137910700536059
51,252.01000000000002,0.0022990504485703067
52,257.28000000000003,0.0019760680569571505
53,260.26,0.00227517541046622
54,263.88,0.002401949826473881
55,268.79,0.0024236497747052665
56,273.78,0.0024350089807489766
57,275.42287,0.0024403301618974435
58,278.87,0.0024590451751427414
59,284.06,0.002487188681722207
60,290.01,0.0024007136921553136
61,296.08,0.0024729244137232055
62,300.89,0.002472891168375852
63,307.90000000000003,0.002530915960499562
64,316.227766,0.002601457705150946
65,317.99,0.0026129322627540504
66,327.65000000000003,0.0026224651861651124
67,338.38,0.0026076967511962407
68,347.85999999999996,0.002588326781624488
69,356.79,0.0025691924168274676
70,363.078055,0.0025680491544808628
71,365.94,0.002571749844205302
72,375.33,0.0025547685797001818
73,384.95,0.002465637012656598
74,394.83,0.0025220695383956202
75,404.96,0.0025173476918102246
76,414.39,0.0024900762877331983
77,416.86938299999997,0.0024776378776530683
78,422.09000000000003,0.002450097307267397
79,429.94,0.0024208693140803385
80,440.96999999999997,0.0023985268395767386
81,451.23999999999995,0.0023503385618657714
82,459.63,0.0023126830341155266
83,470.34,0.002276633431945667
84,478.630092,0.0022590304986451005
85,480.19,0.0022543197907758847
86,490.24,0.00218152042519158
87,500.51,0.0021620501690173704
88,506.3,0.002116987412128502
89,512.16,0.002170372053688301
90,520.49,0.002132993469079619
91,530.16,0.002072682369059696
92,540.02,0.0019916656362575823
93,549.5408739999999,0.0019539697274058715
94,550.06,0.0019520924468877498
95,560.2900000000001,0.0019546590168366632
96,569.39,0.001953136642108913
97,579.97,0.0018920282745682978
98,589.4,0.001877927273064706
99,600.36,0.001799035001964031
100,610.11,0.0016100250290414413
101,620.03,0.001787844915052509
102,630.0999999999999,0.0017433449707109218
103,630.957344,0.0017419167825101427
104,640.3399999999999,0.0017299336227464598
105,650.7400000000001,0.0017020501980545277
106,658.28,0.0016629576151528768
107,664.37,0.001678990490501544
108,675.1600000000001,0.001659481087383664
109,684.5600000000001,0.0015869975304505719
110,695.6800000000001,0.0016316917609722754
111,705.36,0.001547255681066708
112,716.8199999999999,0.001601117776550406
113,724.43596,0.0015870245292291597
114,726.79,0.001582442000616354
115,735.21,0.0015697989641999628
116,745.43,0.001557583447314509
117,755.8,0.0015454589737233001
118,764.56,0.0014373621021071968
119,775.19,0.001531350636892679
120,784.17,0.0015030946954414683
121,795.0799999999999,0.0015109487777095407
122,804.28,0.0015088717664232221
123,815.4699999999999,0.0014973573961738849
124,824.92,0.0015114641237113078
125,831.763771,0.0014047245312992765
126,834.4699999999999,0.001361423977858511
127,844.13,0.0014768843945847415
128,855.87,0.0014579111329249017
129,865.78,0.001467735357537422
130,875.8100000000001,0.001480854369935361
131,885.9499999999999,0.0014973579378032675
132,894.15,0.0015048114364735667
133,904.5,0.0014729168829659565
134,914.9699999999999,0.0018908831172437656
135,925.57,0.007516534371622445
136,934.13,0.015297842233649002
137,944.9499999999999,0.028156957598967615
138,954.992586,0.038956980544402
139,955.89,0.03992228886996841
140,964.74,0.04306801172066392
141,975.91,0.007507498081372264
142,984.9399999999999,0.03367752805784463
143,994.05,0.037261139534662265
144,1005.5600000000001,0.05701011602183801
145,1014.8699999999999,0.05584350874951882
146,1024.26,0.024640047977544908
147,1036.12,0.037430239153731205
148,1045.71,0.07478677963262045
149,1055.38,0.07308949661185499
150,1065.15,0.055457919216521115
151,1075.0,0.06743152832153249
152,1084.95,0.05116827305197547
153,1094.99,0.07109611384530688
154,1096.4782,0.07064933605749112
155,1105.12,0.0680541455416707
156,1115.35,0.06439724489025646
157,1125.67,0.05700176191639574
158,1136.08,0.07529902662008858
159,1143.96,0.067580347721443
160,1154.54,0.07274064914940363
161,1165.22,0.07460692688575708
162,1176.01,0.04953539956134264
163,1184.1599999999999,0.07207097369535768
164,1195.1100000000001,0.04687301446437176
165,1206.17,0.03221924017261794
166,1214.53,0.023460925554257904
167,1225.77,0.04829122661761116
168,1234.27,0.07563480283100109
169,1245.69,0.08330367924946143
170,1254.32,0.07846396766376201
171,1258.92541,0.07352943562977904
172,1265.93,0.06602529532507194
173,1274.7,0.08823892073391591
174,1283.54,0.09281887682447244
175,1295.4199999999998,0.07009805252083122
176,1304.4,0.06881750997481285
177,1316.46,0.08967245742414676
178,1325.5900000000001,0.085243046338941
179,1334.7800000000002,0.07339885583806029
180,1344.03,0.09070954592150463
181,1356.4699999999998,0.0872285670715638
182,1365.87,0.07650686861582076
183,1375.34,0.08103599084179025
184,1384.87,0.0817871036520848
185,1394.4699999999998,0.07058464714409188
186,1404.14,0.07322984131781152
187,1413.8700000000001,0.07441975607585621
188,1423.6699999999998,0.07721262151561345
189,1433.5400000000002,0.07633242763708324
190,1443.48,0.08122248444026559
191,1445.43977,0.08222506755109758
192,1446.8,0.08292093464399866
193,1453.48,0.08011209924387068
194,1463.5600000000002,0.07289751163409673
195,1473.7,0.07272900451474076
196,1483.92,0.07459570804927551
197,1494.2,0.07633371207422826
198,1504.5600000000002,0.07173066675307169
199,1511.5,0.06262689347808842
200,1518.48,0.0677204205300505
201,1525.49,0.06602833782722159
202,1536.06,0.056726774222528066
203,1546.71,0.06512611127172523
204,1553.85,0.06050090963146867
205,1564.62,0.06092367766150185
206,1575.47,0.06664289634542571
207,1586.39,0.07091331560150392
208,1593.71,0.07340087543250141
209,1604.76,0.07140374575115196
210,1615.88,0.0710771166419569
211,1623.3400000000001,0.06572991761726307
212,1634.59,0.07107766957064035
213,1645.9199999999998,0.07373963217790831
214,1653.52,0.06527319429752318
215,1659.58691,0.06993774475842116
216,1664.98,0.07408450580254389
217,1672.67,0.062052814822607265
218,1676.52,0.07883403463109154
219,1684.26,0.08349916663568067
220,1695.94,0.07563643382090048
221,1703.76,0.07273283060073087
222,1715.57,0.07091760554571766
223,1723.49,0.07091800829459959
224,1735.44,0.07757405159625855
225,1743.45,0.07511516971728684
226,1755.53,0.08274224077871281
227,1763.6399999999999,0.07190711486879266
228,1775.86,0.07686618428689077
229,1784.0600000000002,0.077221913749117
230,1796.43,0.08683917212079241
231,1804.72,0.08408698695516503
232,1813.05,0.07866204417715826
233,1825.6200000000001,0.07884268448693676
234,1834.0400000000002,0.07409455708107637
235,1846.75,0.06696017574752704
236,1855.28,0.06946987490762335
237,1863.84,0.07358298585843512
238,1876.76,0.07794412705989401
239,1885.4299999999998,0.07291231457666247
240,1894.1299999999999,0.07241145388414641
241,1902.8700000000001,0.07426757557925096
242,1905.46072,0.07406723324101175
243,1916.06,0.07324613469363336
244,1924.9099999999999,0.07141775375924798
245,1933.79,0.06773364051661045
246,1947.19,0.07758113949731507
247,1956.1799999999998,0.0739251977910863
248,1965.21,0.082177283007188
249,1974.28,0.08274607514562017
250,1983.3999999999999,0.0792029034369654
251,1997.14,0.07686674625747895
252,2006.3600000000001,0.07686583685465034
253,2015.62,0.07409052437415219
254,2024.93,0.07546517804656712
255,2034.27,0.07494605941072989
256,2043.6599999999999,0.07974600692780576
257,2053.1,0.07546311059779469
258,2067.33,0.07459906571685639
259,2072.09,0.08273827947418132
260,2076.87,0.08369144169267147
261,2086.46,0.08623437382139963
262,2096.0899999999997,0.08103841287245825
263,2105.76,0.07865223884584734
264,2115.48,0.0801121709721495
265,2125.25,0.08122233925136473
266,2135.06,0.07206111445291043
267,2144.91,0.07846285657678659
268,2154.81,0.08084777485357583
269,2164.76,0.07614818928327814
270,2174.75,0.07562895063531092
271,2184.79,0.07720725814025677
272,2187.7616199999998,0.07844433188007642
273,2194.87,0.08140450556273425
274,2205.0,0.0782806869883185
275,2215.18,0.07107238148115635
276,2225.41,0.06977542904124784
277,2235.68,0.07918987905514223
278,2246.0,0.07424913213629025
279,2256.37,0.06803424828469187
280,2266.7799999999997,0.06914019688689642
281,2277.2400000000002,0.07256500855635457
282,2282.4900000000002,0.0775687106179851
283,2293.03,0.07124033719504906
284,2303.61,0.07360474622591591
285,2314.25,0.06857877893748712
286,2324.93,0.05030330410286122
287,2335.66,0.05926817233548895
288,2346.44,0.0537222536353703
289,2357.27,0.06582385800250529
290,2362.7000000000003,0.05427357110624886
291,2373.6099999999997,0.05927041038098963
292,2384.57,0.04991264272298403
293,2395.5699999999997,0.05552192751878133
294,2406.6299999999997,0.053429625995282976
295,2417.74,0.05624132753903825
296,2423.31,0.06609301923109198
297,2434.5,0.06389361568245304
298,2445.73,0.069456154587617
299,2457.02,0.06934993717348532
300,2462.69,0.0673248950000463
301,2474.06,0.06331487249352041
302,2485.47,0.06177644244079743
303,2496.95,0.05917656668222952
304,2502.7,0.07198111941639629
305,2511.88643,0.05932761403577278
306,2514.2599999999998,0.05605802660493616
307,2520.0499999999997,0.055181999137840464
308,2525.8599999999997,0.0530847911959016
309,2537.52,0.05665529436233754
310,2543.37,0.05680754547071235
311,2555.1099999999997,0.06817318673777564
312,2566.8999999999996,0.06250996681773104
313,2572.82,0.06967293626415476
314,2584.7,0.06751199420731592
315,2596.6299999999997,0.06482138096336916
316,2602.61,0.06108163898526341
317,2614.6200000000003,0.058644793841944
318,2626.69,0.0669081272740951
319,2632.75,0.07755128339661671
320,2644.9,0.09244226492939515
321,2657.1099999999997,0.10499167503764412
322,2663.2299999999996,0.08191685973563621
323,2675.5299999999997,0.08946883770709094
324,2687.88,0.09310693449143777
325,2694.07,0.08150422752747881
326,2706.5099999999998,0.08984024217503139
327,2712.75,0.07774121402396451
328,2725.27,0.07413113677214445
329,2737.85,0.08228101809579488
330,2744.16,0.061033048282776954
331,2756.83,0.06742924746963318
332,2763.1800000000003,0.0749875167069289
333,2775.94,0.08040171375699089
334,2782.33,0.06584391204460029
335,2795.18,0.043252886957868025
336,2808.08,0.048449850684027865
337,2814.55,0.07731583707226461
338,2827.54,0.09237595866163022
339,2834.06,0.08886744386275906
340,2847.1400000000003,0.08000594331533044
341,2853.71,0.06907390732935137
342,2866.88,0.09216611464512851
343,2873.4900000000002,0.10179443770946311
344,2884.0315,0.09874954624635968
345,2886.75,0.09796437611061476
346,2893.3999999999996,0.10404498287945545
347,2906.7599999999998,0.12750987638798353
348,2926.91,0.11669626659732789
349,2947.2,0.11209375673864787
350,2967.63,0.11724944681194342
351,2988.2,0.11874993681721457
352,3008.9100000000003,0.12054382675446132
353,3029.77,0.12407411661882477
354,3050.77,0.1262458064151638
355,3071.92,0.13327399613861954
356,3093.21,0.1337422857940509
357,3107.49,0.14309437885556145
358,3129.0299999999997,0.13714356838952063
359,3150.7200000000003,0.13890915785059654
360,3172.56,0.14563744723878913
361,3187.2,0.13051604012537982
362,3209.2900000000004,0.14131762939210027
363,3231.54,0.12582861858107852
364,3246.46,0.1552827113316204
365,3268.96,0.1728539003991265
366,3291.62,0.17070478938889044
367,3306.81,0.16581428200824236
368,3311.31121,0.164964359343174
369,3322.0699999999997,0.1629327798900861
370,3329.73,0.17587110874156542
371,3337.4100000000003,0.16725783740727837
372,3345.1,0.16772126598010814
373,3352.81,0.15731989436717153
374,3360.5400000000004,0.17217142256846854
375,3368.29,0.17185445058399917
376,3376.0499999999997,0.14500057850664666
377,3383.84,0.14540000615064458
378,3391.6400000000003,0.17487733370175929
379,3399.46,0.17902866106710763
380,3407.29,0.1698748883395728
381,3415.15,0.16800681533338838
382,3423.02,0.1907672422343208
383,3430.91,0.17852716894948684
384,3438.82,0.1810933954788865
385,3446.75,0.1365047218225198
386,3454.69,0.17713344807326992
387,3462.6600000000003,0.15188617404537047
388,3470.64,0.16931529992458783
389,3478.64,0.14385372561803883
390,3486.66,0.16296935112572344
391,3494.6899999999996,0.1528678765405249
392,3502.75,0.18134130167667675
393,3510.83,0.17976072662706227
394,3518.9199999999996,0.16591965148456456
395,3527.0299999999997,0.15563677615630053
396,3535.16,0.17876850064227007
397,3543.31,0.19746102494247328
398,3551.48,0.1943924490569101
399,3559.6699999999996,0.18616267298558056
400,3567.8700000000003,0.17583559682136785
401,3576.1,0.15607002037850554
402,3584.3399999999997,0.13382434384276007
403,3592.6000000000004,0.1505653671212482
404,3600.89,0.1976524901210868
405,3609.19,0.1698726130280422
406,3617.5099999999998,0.18294153574923122
407,3625.85,0.1894617582846539
408,3633.65,0.1689874858357686
409,3636.4,0.1698613602928924
410,3639.15,0.18256913475001618
411,3641.89,0.18968250930002314
412,3644.6400000000003,0.19134608375714693
413,3647.39,0.19413205821427068
414,3650.1299999999997,0.18683383276427765
415,3652.88,0.2019896072214014
416,3655.62,0.1950522817714084
417,3658.3700000000003,0.21048445622853218
418,3661.12,0.20180323068565595
419,3663.8599999999997,0.21577550523566294
420,3666.61,0.2195711796927867
421,3669.3599999999997,0.21080525414991047
422,3672.1,0.21217102869991744
423,3674.85,0.21178130315704125
424,3677.59,0.19923177770704817
425,3680.3399999999997,0.19428455216417198
426,3683.09,0.20107532662129574
427,3685.83,0.20321380117130272
428,3688.5800000000004,0.18504507562842648
429,3691.33,0.20091155008555026
430,3694.0699999999997,0.20921512463555722
431,3696.82,0.21358049909268104
432,3699.56,0.21447807364268798
433,3702.31,0.22084014809981176
434,3705.06,0.21745532255693553
435,3707.8,0.1874763971069425
436,3710.55,0.18677097156406627
437,3713.2999999999997,0.19656254602119008
438,3716.04,0.22367732057119702
439,3718.79,0.2072064950283208
440,3721.54,0.21236146948544457
441,3724.2799999999997,0.21985844403545154
442,3727.03,0.2328087184925753
443,3729.77,0.26616209304258226
444,3732.5199999999995,0.2640181674997061
445,3735.27,0.22911394195682985
446,3738.0099999999998,0.1995073165068368
447,3740.76,0.17208259096396059
448,3743.5099999999998,0.18975396542108436
449,3746.25,0.18141223997109132
450,3749.0,0.1736109144282151
451,3751.7400000000002,0.17008048897822206
452,3754.49,0.18949496343534583
453,3757.2400000000002,0.20227033789246965
454,3759.98,0.2071558124424766
455,3762.73,0.21233898689960037
456,3765.48,0.21323536135672413
457,3768.22,0.2118485359067311
458,3770.9700000000003,0.20854271036385488
459,3773.71,0.22011778491386186
460,3776.46,0.24022025937098565
461,3779.21,0.24742843382810942
462,3781.95,0.2603912083781164
463,3784.7,0.2616203828352402
464,3787.45,0.2581451572923639
465,3790.19,0.25115733184237093
466,3792.94,0.2239468062994947
467,3795.6800000000003,0.21050608084950165
468,3798.43,0.19913425530662543
469,3801.1800000000003,0.20010972976374922
470,3801.8939600000003,0.19918246106802753
471,3803.92,0.19655110823481578
472,3806.6699999999996,0.223715588014102
473,3809.42,0.23540796779338824
474,3812.16,0.2471298476462043
475,3814.9100000000003,0.2432317274254905
476,3817.65,0.23089090727830658
477,3820.4,0.21581888705759278
478,3823.15,0.20063976683687898
479,3825.8900000000003,0.19597564668969508
480,3828.64,0.1909664264689813
481,3831.39,0.1738301062482675
482,3834.13,0.16800958610108357
483,3836.8799999999997,0.1627465658803698
484,3839.6200000000003,0.16591144573318586
485,3842.37,0.17291662551247206
486,3845.1200000000003,0.19230850529175827
487,3847.86,0.21348378514457433
488,3850.6099999999997,0.22453886492386058
489,3853.36,0.22679454470314678
490,3856.1,0.22333202455596285
491,3858.85,0.22385610433524905
492,3861.5899999999997,0.21552008418806515
493,3864.34,0.22700946396735133
494,3867.09,0.23036514374663755
495,3869.8300000000004,0.23993792359945362
496,3872.58,0.24054090337873985
497,3875.3300000000004,0.22940038315802605
498,3878.07,0.22231086301084213
499,3880.8199999999997,0.22579064279012834
500,3883.56,0.21956982264294442
501,3886.31,0.2076227024222306
502,3889.06,0.20564808220151684
503,3891.8,0.2113005620543329
504,3894.55,0.21970454183361912
505,3897.3,0.23227692161290533
506,3900.04,0.2530462014657214
507,3902.79,0.2557531812450076
508,3905.5299999999997,0.2547217610978237
509,3908.28,0.2659177408771099
510,3911.0299999999997,0.2650993206563961
511,3913.7699999999995,0.28470110050921216
512,3916.52,0.2804419802884984
513,3919.2700000000004,0.2779595600677846
514,3922.01,0.25976393992060065
515,3924.7599999999998,0.24999961969988688
516,3927.5,0.22703199955270295
517,3930.25,0.20283917933198917
518,3933.0,0.1742750591112754
519,3935.74,0.16084543896409148
520,3938.4900000000002,0.17340661874337768
521,3941.24,0.19115139852266388
522,3943.9800000000005,0.21120987837547994
523,3946.73,0.23669905815476616
524,3949.47,0.2535876380075822
525,3952.2200000000003,0.26621071778686844
526,3954.97,0.26667269756615464
527,3957.71,0.2698943774189707
528,3960.46,0.25571905719825694
529,3963.2099999999996,0.22632573697754316
530,3965.95,0.19063291683035924
531,3968.7,0.16712269660964543
532,3971.44,0.1574101764624615
533,3974.19,0.17060315624174774
534,3976.94,0.20431633602103394
535,3979.68,0.24063091587385002
536,3982.4300000000003,0.26897429565313624
537,3985.18,0.28749727543242243
538,3987.9199999999996,0.3028912552852385
539,3990.67,0.3076513350645247
540,3993.4199999999996,0.3147860148438109
541,3996.1600000000003,0.320297794696627
542,3998.91,0.3270827744759132
543,4001.65,0.32839805432872926
544,4004.4,0.3326277341080155
545,4007.15,0.3377318138873017
546,4009.89,0.3421832937401178
547,4012.64,0.344320373519404
548,4015.39,0.3522898532986902
549,4018.1299999999997,0.3550153331515063
550,4020.88,0.3536158129307925
551,4023.62,0.35171589278360854
552,4026.3700000000003,0.34938567256289477
553,4029.12,0.348324652342181
554,4031.8599999999997,0.3390469321949971
555,4034.61,0.33420671197428325
556,4037.3599999999997,0.33854369175356946
557,4040.1,0.3432996716063856
558,4042.85,0.34861805138567176
559,4045.59,0.34438303123848785
560,4048.34,0.32939541101777403
561,4051.09,0.33066959079706026
562,4053.83,0.33381237064987634
563,4056.5800000000004,0.3384144504291625
564,4059.33,0.33592063020844876
565,4062.0699999999997,0.3264455100612648
566,4064.82,0.3281990898405511
567,4067.56,0.3244942696933671
568,4070.31,0.3284589494726533
569,4073.06,0.3304776292519396
