,lambda (Angstroms),Total Flux (erg/s/cm^2/Angstrom)
0,100.05,40.01469035097063
1,101.91000000000001,39.90339424433098
2,104.04,39.775935347061235
3,104.712855,39.73567387573877
4,105.97,39.34048605570699
5,107.95,38.71807195403513
6,109.94999999999999,38.089402259607006
7,114.08,36.791145224184916
8,118.09,35.530613179800504
9,120.22644299999999,34.859509547653644
10,121.11999999999999,34.624218687322625
11,125.08,33.58071575340317
12,127.11999999999999,33.043132795020426
13,128.0,32.811259243482766
14,130.98,32.02596274913935
15,131.89,31.786352774390185
16,134.03,31.222411579969066
17,137.15,30.40049402097192
18,138.038426,30.166387241154847
19,140.02,29.79318613902131
20,142.96,29.24256737659793
21,146.96,28.495429666015085
22,151.08,27.719951890904756
23,154.95,26.991703275643363
24,158.489319,26.3257645784613
25,158.93,26.26310364587857
26,161.88000000000002,25.84362916856565
27,166.04000000000002,25.25222012598202
28,169.9,24.703303346853943
29,173.05999999999997,24.25400117912215
30,177.09,23.680910445369253
31,179.97,23.27138206819597
32,181.970086,22.986992497635
33,182.06,22.97724399348512
34,185.87,22.564149270845217
35,191.07,22.000263132754014
36,194.18,21.66320976178023
37,197.79000000000002,21.27181222675922
38,201.92999999999998,20.822971384048145
39,205.21,20.467323079098307
40,208.929613,20.063207135449268
41,209.99,19.976597309539358
42,215.88,19.497891848178373
43,219.89000000000001,19.171361269747543
44,222.95,18.921791385084624
45,227.09,18.584764781717134
46,230.25,18.34183670402601
47,233.99,18.06659557277133
48,239.88329199999998,17.603378380524912
49,240.0,17.596392023561776
50,246.15,17.203345420189276
51,251.89,16.84639546637494
52,257.15999999999997,16.498120711810206
53,260.14,16.323073633802068
54,263.76,16.099385055751913
55,269.28000000000003,15.750830664139514
56,274.28999999999996,15.434180764904356
57,275.42287,15.36254978546671
58,278.74,15.201367851741807
59,283.92,14.950287705552674
60,289.87,14.657862425605698
61,295.94,14.364611621306846
62,300.75,14.12938470770265
63,307.75,13.791201507176794
64,316.227766,13.381618975111001
65,317.84,13.32344168138493
66,328.25,12.945784562620274
67,338.21999999999997,12.583343142717908
68,347.70000000000005,12.238505016321271
69,356.62,11.914960993931194
70,363.078055,11.681343416530751
71,365.77,11.608355040782138
72,375.15,11.352622449748512
73,384.77,11.08807204423215
74,394.64,10.821798231129605
75,404.77,10.54686456733743
76,414.19,10.290295993890014
77,416.86938299999997,10.217116723791152
78,421.89,10.112058522298613
79,429.74,9.948182043637633
80,440.76,9.719335665071517
81,451.03,9.505249427523971
82,460.46999999999997,9.308375865503631
83,470.10999999999996,9.107798777211675
84,478.630092,8.930889168653104
85,479.96,8.909612454999625
86,490.01000000000005,8.747693542458714
87,500.27000000000004,8.584320404342318
88,506.06,8.490868863475464
89,511.92,8.399417707416784
90,520.24,8.266015614616745
91,529.9100000000001,8.110632853117181
92,539.76,7.951638721124347
93,549.5408739999999,7.794907426707382
94,549.8,7.791730458676424
95,560.02,7.668257181240067
96,570.4300000000001,7.541863807139039
97,579.7,7.4280700630260235
98,590.48,7.296714521209591
99,600.0699999999999,7.1784373074508165
100,609.82,7.056032333869164
101,619.73,6.939558260464634
102,629.8,6.816153647237225
103,630.957344,6.802116584670999
104,640.0300000000001,6.714844094141753
105,650.4300000000001,6.613894030739461
106,657.9699999999999,6.5403014730228
107,665.58,6.467393093908237
108,674.84,6.377985326128888
109,684.23,6.2860195371820105
110,695.35,6.179533926544174
111,705.02,6.084810822005696
112,716.48,5.97539699600663
113,724.43596,5.898570173795294
114,726.45,5.884103337505119
115,734.86,5.823672527400043
116,745.08,5.749974580780082
117,755.45,5.675449377487618
118,764.19,5.610780974703031
119,774.8199999999999,5.5363129438448935
120,785.6,5.45838498631425
121,794.7,5.393502431515654
122,805.76,5.314421053529669
123,815.09,5.247484970499901
124,824.52,5.179937443021797
125,831.763771,5.126901749019151
126,834.0699999999999,5.114165819246722
127,845.6700000000001,5.053264029190898
128,855.47,5.000527642074772
129,865.37,4.94755922590644
130,875.3900000000001,4.893914720875461
131,885.5300000000001,4.839556356981836
132,895.7800000000001,4.784620079130786
133,904.07,4.740015852702961
134,914.54,4.685582556937058
135,925.13,4.643831032308508
136,935.84,4.603577488817313
137,944.5000000000001,4.577685210896328
138,954.992586,4.536163030457988
139,955.44,4.534443952829215
140,964.28,4.4956641455136745
141,975.45,4.381478636699809
142,984.47,4.377384057380108
143,995.87,4.317985293783145
144,1005.09,4.291616553347707
145,1014.39,4.240431666465976
146,1026.1299999999999,4.1346715279722615
147,1035.63,4.109208039974793
148,1045.21,4.10062577553103
149,1054.8799999999999,4.047017670085185
150,1064.64,3.976389813637259
151,1074.49,3.937175036187252
152,1084.43,3.865108407735164
153,1094.47,3.835060433725208
154,1096.4782,3.823574835151943
155,1104.6000000000001,3.784793542900254
156,1114.82,3.7374274243546775
157,1125.13,3.6833621496575226
158,1135.54,3.6567080881252867
159,1146.05,3.6035095097579655
160,1153.99,3.5726621270523014
161,1164.67,3.528052117065338
162,1175.45,3.4529969602432895
163,1186.32,3.430574757269667
164,1194.55,3.37220387474226
165,1205.6,3.3090407394654857
166,1213.96,3.255320208052469
167,1225.19,3.2382689304725436
168,1233.68,3.2262905701739175
169,1245.1,3.183747939607333
170,1253.73,3.1427731597395905
171,1258.92541,3.116003373985525
172,1265.3300000000002,3.0908479080921447
173,1274.1,3.0817285941659556
174,1285.89,3.048579438716722
175,1294.8000000000002,3.002241495514629
176,1303.78,2.9737090676745868
177,1315.8400000000001,2.953342225764684
178,1324.96,2.920918688648738
179,1334.15,2.88298380689484
180,1346.49,2.857991966433133
181,1355.8200000000002,2.8261579754033326
182,1365.22,2.7882837497355815
183,1374.69,2.761774429429878
184,1384.2099999999998,2.732823518668497
185,1393.81,2.690004091178026
186,1403.47,2.661890481140741
187,1416.46,2.6272703447552
188,1426.27,2.598018283350876
189,1436.1599999999999,2.5677469052174655
190,1442.79,2.5505475487943596
191,1445.43977,2.5429724878942634
192,1446.12,2.541652601966649
193,1456.1399999999999,2.5175906072807193
194,1466.23,2.4903010566039687
195,1476.3999999999999,2.468168491937711
196,1486.6299999999999,2.4469954392793207
197,1493.49,2.432800142178973
198,1503.84,2.4065458235363213
199,1510.79,2.384371614447777
200,1517.76,2.3731054893618553
201,1524.77,2.356438372281179
202,1535.33,2.3253054756660676
203,1545.98,2.305425317062758
204,1556.69,2.279682800467318
205,1563.8799999999999,2.266119369410249
206,1574.72,2.2465038188318567
207,1585.63,2.2253460722626452
208,1596.6299999999999,2.2029364137052374
209,1603.9999999999998,2.185418868671774
210,1615.11,2.1613721521287914
211,1626.31,2.1344593535976117
212,1633.82,2.1216539465825086
213,1645.1399999999999,2.0979307920670665
214,1656.54,2.0694211935621163
215,1659.58691,2.0646697469183684
216,1664.19,2.060419220005633
217,1671.8700000000001,2.042430880875838
218,1675.73,2.043567895792374
219,1683.46,2.0337975578661607
220,1695.1299999999999,2.0124491927822152
221,1706.88,1.9924937856240001
222,1714.76,1.9777000613085336
223,1726.65,1.9594836155203486
224,1734.6100000000001,1.9508407791306137
225,1746.64,1.9314045347124587
226,1754.6999999999998,1.9225531307298875
227,1766.8600000000001,1.8995613354410457
228,1775.02,1.888246863865639
229,1783.21,1.8770337090123808
230,1795.57,1.8620845685378677
231,1803.86,1.8490271160917742
232,1816.36,1.8256972069872903
233,1824.75,1.8141691969483609
234,1833.17,1.7995093736315806
235,1845.88,1.7755927015821416
236,1854.3999999999999,1.7635282606725258
237,1862.9599999999998,1.7525277987257752
238,1875.8700000000001,1.7366860414906644
239,1884.5300000000002,1.719710161951078
240,1893.23,1.7053140513743572
241,1905.46072,1.6893049243350329
242,1906.35,1.6884941800527367
243,1915.1499999999999,1.6770554964629742
244,1923.9899999999998,1.6656367514932586
245,1932.87,1.6556115551435893
246,1946.27,1.6455054228591783
247,1955.25,1.6325238330596252
248,1968.81,1.6227496252554008
249,1977.8899999999999,1.6131156520059642
250,1982.45,1.6065918546912685
251,1996.1999999999998,1.5904750553322655
252,2005.41,1.5810700625979797
253,2014.67,1.5698511331387524
254,2023.97,1.5598423022995718
255,2033.3100000000002,1.5494186000804375
256,2042.69,1.54173311648135
257,2056.85,1.5232782079778233
258,2066.35,1.5129271502388757
259,2075.88,1.5068790964649623
260,2085.4700000000003,1.5159992306211187
261,2095.09,1.5003639587423105
262,2104.7599999999998,1.4888434901385608
263,2114.48,1.4828045348098682
264,2124.2400000000002,1.4681082781012225
265,2134.04,1.4532775900126238
266,2143.89,1.452171635199083
267,2153.79,1.4419178436606002
268,2163.73,1.424426550742164
269,2173.7200000000003,1.4137088110987859
270,2183.75,1.4121813600754545
271,2187.7616199999998,1.4079582633291725
272,2193.83,1.403708549054368
273,2203.96,1.3942229027903945
274,2214.13,1.374690411605339
275,2224.35,1.3725913042689313
276,2234.62,1.3808291407811717
277,2244.93,1.36907613237233
278,2255.29,1.3473366278121357
279,2265.7,1.3368333771005896
280,2276.1600000000003,1.3335780502376904
281,2286.67,1.34225776722344
282,2297.2200000000003,1.322143719288107
283,2302.52,1.3294447672447647
284,2313.15,1.3108313994672682
285,2323.82,1.2885303167686901
286,2334.55,1.279679146688489
287,2345.33,1.2599975604569358
288,2356.15,1.2751051093043009
289,2367.0299999999997,1.2464953807700432
290,2372.48,1.2510476302726437
291,2383.43,1.2278442631264928
292,2394.44,1.2262697085987189
293,2405.4900000000002,1.217460699149863
294,2416.59,1.2143307035496553
295,2427.75,1.230935700567825
296,2433.34,1.226847912846639
297,2444.57,1.2314246512529152
298,2455.86,1.2275733322775686
299,2467.19,1.2070617083811401
300,2472.88,1.1946456183572498
301,2484.3,1.1639089033883874
302,2495.7599999999998,1.1625210134984432
303,2507.28,1.1805615262268758
304,2511.88643,1.1460607354247059
305,2513.06,1.137491563432326
306,2518.86,1.128820382109237
307,2524.6600000000003,1.127417190786148
308,2536.31,1.1392915871802882
309,2542.16,1.1385158848975176
310,2553.9,1.1768988515642305
311,2565.6800000000003,1.1445598194631976
312,2577.53,1.1593205020186108
313,2583.47,1.144915330008413
314,2595.3900000000003,1.1300125272202712
315,2607.37,1.1130966812805116
316,2613.38,1.1036945039267592
317,2625.45,1.1180224382595725
318,2637.57,1.1724736816327035
319,2643.65,1.2193256289353964
320,2655.8500000000004,1.2921078547730365
321,2661.9700000000003,1.1853152333079842
322,2674.2599999999998,1.2024699294181975
323,2686.6,1.2286933645687286
324,2692.79,1.1614689977601218
325,2705.22,1.1954920031832257
326,2717.71,1.1303648554547117
327,2723.9799999999996,1.094539951110614
328,2736.5499999999997,1.120931365846609
329,2742.8599999999997,1.0534258327347656
330,2755.52,1.0769161777433334
331,2761.8700000000003,1.1098290358637442
332,2774.62,1.1131515911448848
333,2787.42,1.0416620854663434
334,2793.85,0.9867439760512642
335,2806.75,0.989006128453359
336,2813.2200000000003,1.0725814302705339
337,2826.2,1.1322863651371382
338,2832.7200000000003,1.115747855994631
339,2845.7900000000004,1.050938161133808
340,2852.3500000000004,0.9887993632235558
341,2865.5199999999995,1.0977124664433697
342,2872.1200000000003,1.1709614197653715
343,2884.0315,1.1403577161887923
344,2885.38,1.137110638232123
345,2892.0299999999997,1.1952199316545324
346,2912.0800000000004,1.3006184238529237
347,2932.27,1.237279612754945
348,2952.59,1.2002738771674792
349,2973.06,1.20898055947676
350,2986.78,1.2089918364324672
351,3007.48,1.2023088061834253
352,3028.3300000000004,1.2218573938311288
353,3049.3199999999997,1.2318952781824628
354,3070.46,1.2640724804305423
355,3091.7400000000002,1.2441105793822516
356,3113.17,1.311213896230707
357,3127.54,1.2661353507389805
358,3149.22,1.2584094974153461
359,3171.05,1.3015800619884574
360,3193.03,1.2202054444583152
361,3207.77,1.265921383111896
362,3230.0,1.1754826954096638
363,3252.39,1.348835946797294
364,3267.41,1.448304378858134
365,3290.0600000000004,1.4259621812667904
366,3311.31121,1.3750925822906677
367,3312.86,1.3715604287392438
368,3320.5,1.3317923954093205
369,3328.15,1.3894728146535722
370,3335.8199999999997,1.4212132390461751
371,3343.51,1.3555000685871286
372,3351.22,1.3448259032764338
373,3358.95,1.4241065431140894
374,3366.69,1.3068911355259205
375,3374.45,1.173158433086103
376,3382.23,1.2681301357946362
377,3390.03,1.3861896436515204
378,3397.8399999999997,1.2981717040825802
379,3405.67,1.4234872696619907
380,3413.53,1.360417692963928
381,3421.3900000000003,1.409915616265865
382,3429.28,1.3740099972903288
383,3437.19,1.3833502834631433
384,3445.11,1.1242530222101337
385,3453.0499999999997,1.4195109661054746
386,3461.0099999999998,1.2777487151491669
387,3468.9900000000002,1.33684066934121
388,3476.99,1.289390428681604
389,3484.9999999999995,1.3517060405961736
390,3493.04,1.2444120102332694
391,3501.09,1.327858732444541
392,3509.16,1.4016726598041638
393,3517.25,1.263049392312137
394,3525.36,1.2780379299684617
395,3533.48,1.4133385201989617
396,3541.63,1.476903168151988
397,3549.79,1.47321116867919
398,3557.98,1.3654448269289183
399,3566.18,1.4147368377528227
400,3574.3999999999996,1.1902063537250775
401,3582.6400000000003,1.1782668748456833
402,3590.9,1.10727740111464
403,3599.1800000000003,1.452806132531948
404,3607.47,1.3016481165234315
405,3615.79,1.332666958237441
406,3624.1299999999997,1.2406248050998019
407,3632.48,1.5179109045363384
408,3640.85,1.4548661091212256
409,3649.2400000000002,1.347905418854464
410,3657.66,1.5804010863102287
411,3666.09,1.607681106340169
412,3674.54,1.5701727315184604
413,3683.0099999999998,1.4063696618451025
414,3691.5,1.3741226973200955
415,3700.01,1.5366455379434398
416,3708.54,1.282812183715135
417,3717.09,1.6387582346351812
418,3725.6600000000003,1.1986359907035782
419,3734.25,1.4133292519203264
420,3742.86,1.3730815182854257
421,3751.48,1.0844839372247002
422,3760.1299999999997,1.4839165138865014
423,3768.7999999999997,1.3409396956966533
424,3777.4900000000002,1.5177790826551565
425,3786.2000000000003,1.6411817747620105
426,3794.9300000000003,1.3867567720172154
427,3801.8939600000003,1.3289817597739428
428,3803.67,1.3143887429890067
429,3812.44,1.5153150751276012
430,3821.23,1.293475406085212
431,3830.04,1.088283535861839
432,3838.87,1.0729302644574823
433,3847.7200000000003,1.3657356918721415
434,3856.5899999999997,1.3810097181058172
435,3865.48,1.370448543158509
436,3874.39,1.254857567030217
437,3883.32,1.275984489720941
438,3886.7000000000003,1.3791699901346752
439,3890.75,1.4020561009854515
440,3894.7999999999997,1.462337911836228
441,3898.85,1.516862522687004
442,3902.9,1.4604335335377805
443,3906.9500000000003,1.555635844388557
444,3911.0099999999998,1.5258389046488414
445,3915.0600000000004,1.5047116154996174
446,3919.11,1.5181281263503938
447,3923.16,1.2914594372011703
448,3927.21,1.2305114480519466
449,3931.2599999999998,1.072704358902723
450,3935.3100000000004,1.0888749697534992
451,3939.37,1.2077466300137836
452,3943.42,1.3363625408645599
453,3947.4700000000003,1.4493163517153362
454,3951.52,1.4811343625661126
455,3955.5699999999997,1.386399673416889
456,3959.62,1.3125417842676654
457,3963.67,1.2313659951184415
458,3967.7200000000003,1.2419302059692177
459,3971.7799999999997,1.2651839662295026
460,3975.8300000000004,1.3838990770802786
461,3979.88,1.5404942879310548
462,3983.93,1.7255541987818312
463,3987.98,1.7333212096326074
464,3992.0299999999997,1.806995220483384
465,3996.0800000000004,1.8867552313341602
466,4000.14,1.7959942915944445
467,4004.19,1.818612302445221
468,4008.2400000000002,2.0145413132959975
469,4012.29,1.9522993241467734
470,4016.3399999999997,1.9558703349975501
471,4020.39,2.000172345848326
472,4024.44,1.8084243566991027
473,4028.5,1.8857554169593869
474,4032.5499999999997,1.8626914278101634
475,4036.6000000000004,1.9451894386609396
476,4040.65,1.875798449511716
477,4044.7,1.8959954603624922
478,4048.75,1.9118874712132685
479,4052.7999999999997,1.851320482064045
480,4056.8500000000004,1.857628492914821
481,4060.91,1.8430575531751057
482,4064.96,1.829087564025882
483,4069.01,1.7795505748766582
484,4073.06,1.9007955857274346
485,4077.11,1.829676596578211
486,4081.16,1.9198216074289873
487,4085.21,1.9790816182797635
488,4089.27,1.893378678540048
489,4093.3199999999997,1.9396716893908241
490,4097.37,1.8687737002416007
491,4101.42,1.952562711092377
492,4105.47,1.8453457219431533
493,4109.5199999999995,1.8600537327939297
494,4113.57,1.856521743644706
495,4117.62,1.9709337544954821
496,4121.679999999999,1.8585358147557667
497,4125.7300000000005,1.827885825606543
498,4129.78,1.8990368364573191
499,4133.83,1.7713198473080956
500,4137.88,1.8426868581588718
501,4141.929999999999,1.7993848690096486
502,4145.9800000000005,1.8276528798604244
503,4150.04,1.843751940120709
504,4154.09,1.8201499509714854
505,4158.14,1.8747279618222614
506,4162.1900000000005,1.8532789726730379
507,4166.24,1.8171869835238144
508,4170.29,1.8352319943745905
509,4174.34,1.8687720052253667
510,4178.39,1.8428570160761433
511,4182.45,1.7192740763364276
512,4186.5,1.8079600871872041
513,4190.55,1.7882320980379802
514,4194.6,1.8252161088887564
515,4198.65,1.8584881197395329
516,4202.7,1.923774130590309
517,4206.75,1.9181981414410856
518,4210.8099999999995,1.90415820170137
519,4214.860000000001,1.9527642125521463
520,4218.91,1.7858762234029226
521,4222.96,1.7989702342536988
522,4227.01,1.8137862451044753
523,4231.0599999999995,1.8436622559552516
524,4235.110000000001,1.9090562668060278
525,4239.16,1.9274232776568043
526,4243.219999999999,2.0150843379170884
527,4247.27,2.030761348767865
528,4251.32,1.9257433596186413
529,4255.37,1.8886903704694178
530,4259.42,1.960810381320194
531,4263.469999999999,1.9274693921709705
532,4267.52,1.9075804030217465
533,4271.58,1.967531463282031
534,4275.63,1.9436004741328072
535,4279.68,1.8498884849835837
536,4283.7300000000005,1.83258249583436
537,4287.78,1.7820235066851364
538,4291.83,1.7317865175359126
539,4295.88,1.717379528386689
540,4299.93,1.6314155392374652
541,4303.99,1.63664659949775
542,4308.04,1.627787610348526
543,4312.09,1.7530676211993022
544,4316.14,1.8989496320500785
545,4320.19,1.9635906429008552
546,4324.24,1.9842176537516314
547,4328.29,2.1347876646024075
548,4332.349999999999,1.956321724862692
549,4336.400000000001,2.134440735713468
550,4340.45,2.0964647465642448
551,4344.5,2.096968757415021
552,4348.55,2.103122768265797
553,4352.599999999999,2.0602047791165736
554,4356.650000000001,2.15707578996735
555,4360.7,2.2861158008181266
556,4364.759999999999,2.223279861078411
557,4365.15832,2.215296250787564
558,4368.81,2.1423152933324503
559,4372.86,2.0342566780503826
560,4376.91,2.036069062768315
561,4380.96,1.995691447486247
562,4385.009999999999,2.0079428322041797
563,4389.06,2.0047512169221116
564,4393.12,2.072684227281323
565,4397.17,2.108395611999255
566,4401.22,2.0806689967171876
567,4405.27,2.16178538143512
568,4409.32,2.1356737661530523
569,4413.37,2.1073551508709847
570,4417.42,2.1493625355889168
571,4421.47,2.224728920306849
572,4425.53,2.1580299306660606
573,4429.58,2.2413063153839925
574,4433.63,2.2994007001019248
575,4437.68,2.2657560848198575
576,4441.73,2.2214574695377896
577,4445.78,2.293318854255722
578,4449.83,2.2809272389736543
579,4453.889999999999,2.1633352493328655
580,4457.9400000000005,2.1894686340507974
581,4461.99,2.27769501876873
582,4466.04,2.216716403486662
583,4470.09,2.2759337882045942
584,4474.139999999999,2.364052172922527
585,4478.1900000000005,2.334120557640459
586,4482.25,2.3871475679996705
587,4486.3,2.3642109527176025
588,4490.35,2.402657337435535
589,4494.4,2.4170617221534676
590,4498.45,2.4629971068713994
591,4502.5,2.502152491589332
592,4506.549999999999,2.4995008763072644
593,4510.6,2.4704822610251966
594,4514.66,2.419708271384408
595,4518.71,2.37271965610234
596,4522.76,2.3461770408202725
597,4526.81,2.2835844255382045
598,4530.86,2.315529810256137
