,lambda (Angstroms),Total Flux (erg/s/cm^2/Angstrom)
0,100.00999999999999,0.026459068335866878
1,102.10000000000001,0.032501059088096924
2,104.0,0.037993777953790386
3,104.712855,0.040054573799610166
4,105.93,0.03711868171357411
5,107.89999999999999,0.03236681779483565
6,109.91000000000001,0.027518469329979693
7,114.03,0.017580561033878853
8,118.04,0.007907985241854069
9,120.22644299999999,0.0026340362165578187
10,121.07,0.002539884876162767
11,125.03999999999999,0.002096784022926936
12,127.07,0.0018702110449040313
13,127.95,0.0017719922190157654
14,130.93,0.0014393875582420744
15,132.14,0.0013043366802802951
16,133.98,0.001098970052501925
17,137.1,0.0007507397019512126
18,138.038426,0.0006459998278072442
19,139.97,0.0006383858245750523
20,142.9,0.0006268363991794356
21,146.9,0.000611069572829495
22,151.02,0.0005948295076311745
23,154.89,0.0005795751159658126
24,158.489319,0.000565387878988115
25,158.86999999999998,0.0005630823347619969
26,161.82,0.0005452162467206959
27,165.97,0.0005200828845330693
28,169.84,0.0004966457409623188
29,173.0,0.000477508690191861
30,177.03,0.0004531034926644671
31,179.89999999999998,0.00043572369710498816
32,181.970086,0.0004231880347892509
33,181.98,0.0004232073670844284
34,185.79999999999998,0.0004306574077240506
35,191.0,0.0004407997526096096
36,194.1,0.00044684732365830816
37,198.17000000000002,0.00045478836878589
38,201.85000000000002,0.0004619710120350548
39,205.13,0.0004683728816214842
40,208.929613,0.0004757901489276311
41,209.91,0.0004873970219468892
42,215.79000000000002,0.0005570217882788103
43,219.79999999999998,0.0006045058822636914
44,222.86,0.0006407409378661198
45,227.00000000000003,0.0006897704187517582
46,230.16,0.0007272909319470757
47,233.9,0.0007717828585611547
48,239.88329199999998,0.000842856458081201
49,239.9,0.0008426942684336397
50,246.06,0.0007827375389641383
51,251.79,0.0007270832368264365
52,257.06,0.0006756455037971714
53,260.04,0.0006468638212512109
54,264.26,0.0006059251244042476
55,269.18,0.0005581498304357494
56,274.18,0.0005096061459962189
57,275.42287,0.0004975397308967174
58,279.28000000000003,0.0005378505422308146
59,283.81,0.0005852572554513152
60,289.76,0.0006473954776945778
61,295.83000000000004,0.0007109524296721591
62,301.32,0.0007682858917672028
63,308.34,0.0008418610347248002
64,316.227766,0.000924639525987616
65,317.71,0.0009134640559072727
66,328.12,0.0008348658255698269
67,338.09,0.0007596468398614377
68,348.37,0.0006821062249825765
69,357.29999999999995,0.0006149267479428661
70,363.078055,0.0005715995154537826
71,365.61999999999995,0.0005870464574179236
72,375.0,0.0006438034934772178
73,384.62,0.0007017943829282209
74,395.4,0.000767521060772484
75,404.60999999999996,0.0008237075381793172
76,414.03000000000003,0.0008808920308038964
77,416.86938299999997,0.0008981223144612191
78,421.73,0.0009160480526588124
79,429.57,0.0009450002408915879
80,440.59000000000003,0.000986049590907556
81,450.85,0.0010240194960948366
82,460.29,0.0010588293139669543
83,469.93,0.0010947185467939898
84,478.630092,0.0011273174624192854
85,479.77,0.0011221825093702912
86,489.82,0.0010762508174239108
87,500.08,0.0010303663833771588
88,505.87,0.0010070836811811844
89,511.72,0.0010037790712422467
90,520.04,0.0009682328808846467
91,529.7099999999999,0.0009272742613103687
92,539.5500000000001,0.0008817801514643599
93,549.5408739999999,0.0008542580510465078
94,549.59,0.0008542778447017601
95,559.8000000000001,0.0008560852906677957
96,570.21,0.0008549870855068192
97,579.48,0.0008416521977698114
98,590.25,0.0008507995265802133
99,599.84,0.0008438365690399861
100,609.59,0.0008561679265981495
101,619.49,0.0008756431358110538
102,629.56,0.000882664423565998
103,630.957344,0.000882331383472771
104,639.79,0.0009118246351497252
105,650.1800000000001,0.0009708057862721732
106,657.7099999999999,0.00100876087789412
107,665.3299999999999,0.0010517405112486005
108,674.58,0.0010904733337589608
109,685.5400000000001,0.0011185237491874525
110,695.08,0.0012414353728359751
111,704.75,0.0012506632900981568
112,716.2,0.0013854750660704407
113,724.43596,0.001434374191907439
114,726.16,0.0014430840772125322
115,734.5699999999999,0.0014915437535814066
116,744.7900000000001,0.001596318099180681
117,755.15,0.0016732658412950134
118,765.66,0.001750095365389766
119,774.52,0.0018589864876999
120,785.3000000000001,0.0019709452193594087
121,794.39,0.002052116307372853
122,805.44,0.002139555746597117
123,814.77,0.002221614285779233
124,824.1999999999999,0.0023815146796149628
125,831.763771,0.002268457226368638
126,835.6700000000001,0.002195554234860171
127,845.35,0.002498748571701869
128,855.1400000000001,0.002562416685098586
129,865.04,0.0026922605750503226
130,875.05,0.002831657241557078
131,885.19,0.003005566734901584
132,895.4399999999999,0.003134063004801109
133,905.81,0.003177291576397019
134,914.19,0.004508083644861216
135,924.77,0.026380465244425798
136,935.48,0.05809523167082813
137,944.14,0.11387224044325056
138,954.992586,0.1612124080839892
139,955.0699999999999,0.16155026246289247
140,963.9100000000001,0.1936160030147405
141,975.0699999999999,0.03704897941277482
142,984.0899999999999,0.18948117748717175
143,995.49,0.1950520872486047
144,1004.7,0.2676978788190255
145,1013.99,0.2526971381772459
146,1025.74,0.10560110701030173
147,1035.23,0.1902767858380209
148,1044.8,0.35202003245353963
149,1054.47,0.3535034388038077
150,1064.23,0.2946861089153503
151,1074.08,0.3483519427881674
152,1084.01,0.289710844448784
153,1094.04,0.37028950584414994
154,1096.4782,0.36821653547884364
155,1104.17,0.36167033066393484
156,1114.3799999999999,0.3573207637212613
157,1124.7,0.3294818581533484
158,1135.1,0.4040266517670795
159,1145.61,0.37337620675557137
160,1156.21,0.39791714832341274
161,1164.22,0.41568855388552683
162,1174.99,0.3066238812143619
163,1185.86,0.4074529825202521
164,1194.08,0.2952856234341819
165,1205.1299999999999,0.22236709789877127
166,1216.28,0.12950244634041577
167,1224.72,0.28015171000386685
168,1236.05,0.4204742316042105
169,1244.6200000000001,0.4694677314378332
170,1256.13,0.4593690261968761
171,1258.92541,0.44151535020006666
172,1264.8400000000001,0.40374813351856426
173,1273.6100000000001,0.5115846196552025
174,1285.3899999999999,0.5363113756061259
175,1294.3,0.44910927429226566
176,1306.28,0.4454832481710485
177,1315.3300000000002,0.54028285940669
178,1324.45,0.5253687769170823
179,1333.63,0.4789876998058324
180,1345.97,0.5542397059547622
181,1355.3000000000002,0.543890542289407
182,1364.69,0.4992732840024096
183,1374.15,0.522522831990163
184,1383.6799999999998,0.5331754862526672
185,1396.48,0.475615633635674
186,1406.1599999999999,0.4965786013440728
187,1415.9099999999999,0.5090023753272225
188,1425.72,0.52051335468873
189,1435.61,0.5213666412213812
190,1442.2299999999998,0.54861763463353
191,1445.43977,0.5566594082946973
192,1445.56,0.5569606314003623
193,1455.58,0.5464087852384516
194,1465.67,0.5131136443428749
195,1475.83,0.5127209087136321
196,1486.06,0.5218275783507232
197,1496.36,0.5310842532541483
198,1506.73,0.5102799334239074
199,1513.68,0.46443735629563604
200,1517.1699999999998,0.49366891886000047
201,1524.18,0.4825245462457296
202,1534.74,0.4316790407098237
203,1545.38,0.4706545411925852
204,1556.09,0.44698064694168066
205,1563.27,0.45532948711707794
206,1574.11,0.48511710264650787
207,1585.02,0.5050872234422717
208,1596.01,0.5186509502567029
209,1603.38,0.5068563047264353
210,1614.49,0.5097752405688677
211,1625.6799999999998,0.48627438242996746
212,1633.1799999999998,0.5150357466800342
213,1644.5000000000002,0.5227492983214684
214,1655.8999999999999,0.48726085598157004
215,1659.58691,0.5086869963401324
216,1663.55,0.5317200107412748
217,1671.23,0.4815851302485728
218,1675.08,0.534690145496372
219,1686.69,0.55398792420467
220,1694.4699999999998,0.5253578986534694
221,1706.22,0.5079816542798693
222,1714.1000000000001,0.4895202836701699
223,1725.98,0.48767421072052153
224,1733.9399999999998,0.5164243840640231
225,1745.96,0.5050618880324765
226,1754.02,0.5360458163174794
227,1766.18,0.4949164972040345
228,1774.3300000000002,0.5109486749363885
229,1786.6299999999999,0.5183818327410455
230,1794.88,0.5476043654149008
231,1803.16,0.5448842145712064
232,1815.66,0.512345682258866
233,1824.0400000000002,0.520440486356673
234,1836.69,0.5030241364565844
235,1845.16,0.4671158900017424
236,1853.68,0.4711955710176512
237,1866.5300000000002,0.4834545310005651
238,1875.1499999999999,0.5153308669579751
239,1883.8,0.48181261939783554
240,1896.86,0.4645340947579022
241,1905.46072,0.4879171676267002
242,1905.6200000000001,0.48835000732016604
243,1914.41,0.47474878222402117
244,1923.25,0.4668489217177732
245,1936.58,0.4755731813842567
246,1945.52,0.49874935005780224
247,1954.5000000000002,0.4716172904032652
248,1968.0500000000002,0.5076414942652947
249,1977.13,0.5190394637905512
250,1986.26,0.49416579790570453
251,1995.42,0.482531010774796
252,2004.63,0.49220438823378426
253,2013.89,0.48058063028266923
254,2023.18,0.4970152510854923
255,2037.21,0.47673591501053086
256,2046.6100000000001,0.49186965791112686
257,2056.06,0.47254376540161963
258,2065.5499999999997,0.47643834456402984
259,2075.08,0.5041303953983576
260,2079.86,0.4850980101924904
261,2084.6600000000003,0.498985910822582
262,2094.28,0.47494509791872386
263,2103.95,0.4788092496047625
264,2113.66,0.48158887296271863
265,2123.42,0.4888487609105715
266,2133.2200000000003,0.4578120205303418
267,2143.06,0.4679120518220296
268,2152.96,0.4815333406215935
269,2162.89,0.4678419081750954
270,2172.88,0.4629598332364735
271,2182.9100000000003,0.45812892996976906
272,2187.7616199999998,0.4671596248214167
273,2192.98,0.47687964057051135
274,2203.11,0.46434396041633685
275,2213.27,0.44491559720148854
276,2223.49,0.4322073678652927
277,2233.75,0.4592681611148652
278,2244.06,0.44000688259664805
279,2254.42,0.4254416323106413
280,2264.83,0.431887910256845
281,2275.28,0.44208231078881693
282,2285.78,0.4543629395529993
283,2296.33,0.433847196549392
284,2306.9300000000003,0.43776448177799515
285,2317.58,0.4247881952388087
286,2322.93,0.35133351608532065
287,2333.65,0.4041780690712287
288,2344.42,0.39130875028934725
289,2355.2400000000002,0.4220997597396761
290,2366.1099999999997,0.3938944974222154
291,2377.03,0.407666063336965
292,2382.5099999999998,0.381773857587224
293,2393.51,0.4052393686735103
294,2404.56,0.39325180799200693
295,2415.66,0.40143167554271403
296,2426.81,0.4241635713256315
297,2432.4,0.4102378276867533
298,2443.63,0.4324774686412074
299,2454.91,0.42750063782787184
300,2466.2400000000002,0.4264800352467467
301,2477.62,0.414845760897832
302,2483.33,0.4269289850162588
303,2494.8,0.40770786148532273
304,2506.31,0.446975260540155
305,2511.88643,0.41042664719355404
306,2512.09,0.4090922647524602
307,2517.88,0.41715299945117
308,2523.69,0.40161272977923634
309,2535.33,0.4062361860647255
310,2547.04,0.40435012705296247
311,2552.91,0.42974854426909836
312,2564.69,0.4228743699600831
313,2576.53,0.4448172825391374
314,2582.4700000000003,0.44327928445802106
315,2594.39,0.4402244795545014
316,2606.3599999999997,0.428246663724373
317,2612.37,0.4238325503460045
318,2624.43,0.4427757148479803
319,2636.54,0.45412496842334754
320,2642.62,0.48938513974772674
321,2654.82,0.4984859736551982
322,2667.07,0.46420199663606093
323,2673.2200000000003,0.48216645266318797
324,2685.56,0.485539355976155
325,2697.9599999999996,0.4658716461771916
326,2704.18,0.4783813869070664
327,2716.6600000000003,0.45901105962552907
328,2722.9199999999996,0.45850849161411683
329,2735.49,0.4801340446646838
330,2748.12,0.42900118460332026
331,2754.45,0.43850120129465586
332,2767.17,0.45499142156539657
333,2773.54,0.47479922951544523
334,2786.3500000000004,0.4545508301182903
335,2792.77,0.3760181271417302
336,2805.66,0.4020039102620013
337,2812.13,0.4782794963588325
338,2825.11,0.49628655981120784
339,2838.1499999999996,0.4828547101516528
340,2844.69,0.4724548809512317
341,2857.8199999999997,0.459679111623781
342,2864.41,0.49540277149675127
343,2877.63,0.4977823825014047
344,2884.0315,0.49949596762500503
345,2884.26,0.499557182545767
346,2897.5800000000004,0.4985064229745952
347,2910.95,0.5354753631798078
348,2931.13,0.5216719729285881
349,2951.45,0.5164885820512449
350,2971.91,0.5268907905477782
351,2992.5099999999998,0.5301431984181881
352,3013.25,0.5383675056624747
353,3027.16,0.5410110434526398
354,3048.14,0.5443866496235719
355,3069.27,0.5490538551236575
356,3090.54,0.5550448599976197
357,3111.97,0.5585396641560121
358,3133.5400000000004,0.5543675676882811
359,3148.0000000000005,0.5584185030186756
360,3169.8199999999997,0.5645568054328671
361,3191.8,0.543851507131489
362,3206.53,0.5618925412543598
363,3228.7599999999998,0.5463164418349041
364,3251.1400000000003,0.5757211417446019
365,3273.67,0.5956638409834533
366,3288.78,0.5945757734068462
367,3311.31121,0.5956714997792771
368,3311.58,0.5956845496605303
369,3319.21,0.5910552973463244
370,3326.8599999999997,0.6028739433222519
371,3334.53,0.6191951875883123
372,3342.2200000000003,0.5894570301445059
373,3349.93,0.6166642709908327
374,3357.6499999999996,0.606271710982226
375,3365.39,0.5640346492637525
376,3373.1499999999996,0.558366885835412
377,3380.92,0.5909056215521383
378,3388.7200000000003,0.6139328547040642
379,3396.5299999999997,0.5925814870010567
380,3404.36,0.6128546175881824
381,3412.2000000000003,0.5929067473203745
382,3420.07,0.6131904744877664
383,3427.96,0.6154783999452915
384,3435.86,0.6235003245478832
385,3443.78,0.5840913474406079
386,3451.72,0.6296231686234657
387,3459.67,0.6035597889513902
388,3467.65,0.6030395067145145
389,3475.64,0.6109027236227053
390,3483.6499999999996,0.6103855388210292
391,3491.69,0.6169166514545528
392,3499.7400000000002,0.583036263233143
393,3507.7999999999997,0.6164309741567997
394,3515.89,0.5916955825156562
395,3523.9900000000002,0.6170113900195793
396,3532.1200000000003,0.628769594958702
397,3540.26,0.6392851990428914
398,3548.42,0.6575025014172139
399,3556.6,0.6369562020816696
400,3564.8,0.6431594010362582
401,3568.81,0.5876268582079536
402,3571.5099999999998,0.6863225273759279
403,3574.21,0.5633903965439022
404,3576.91,0.4541813657118766
405,3579.6099999999997,0.791710334879851
406,3582.3100000000004,0.5401520040478253
407,3585.01,0.4390287732157997
408,3587.71,0.500038442383774
409,3590.41,0.5980663115517484
410,3593.11,0.6083060807197228
411,3595.81,0.4476665498876971
412,3598.5099999999998,0.41519381905567143
413,3601.21,0.6071133882236458
414,3603.9100000000003,0.6335321573916202
415,3606.61,0.5018320265595945
416,3609.31,0.5772755957275688
417,3612.0099999999998,0.6239088648955432
418,3614.71,0.5482136340635176
419,3617.41,0.7125151032314919
420,3620.11,0.7394291723994663
421,3622.8100000000004,0.7491952415674407
422,3625.51,0.720973610735415
423,3628.21,0.7114083799033893
424,3630.91,0.7685834490713637
425,3633.6099999999997,0.687947418239338
426,3636.31,0.6195192874073124
427,3639.0099999999998,0.6428071565752866
428,3641.71,0.5535756257432611
429,3644.4100000000003,0.6869915949112355
430,3647.11,0.6728733640792097
431,3649.81,0.5274790332471841
432,3652.5099999999998,0.5209442024151585
433,3655.21,0.5506087715831328
434,3657.91,0.7423704407511073
435,3660.61,0.6972088099190815
436,3663.3100000000004,0.6268488790870559
437,3666.01,0.6506538482550303
438,3668.71,0.7095882174230046
439,3671.41,0.661503886590979
440,3674.1099999999997,0.6354365557589533
441,3676.81,0.5946984249269277
442,3679.5099999999998,0.622775994094902
443,3682.21,0.6176700632628763
444,3684.9100000000003,0.6034801324308507
445,3687.61,0.5657221015988251
446,3690.31,0.6166281707667994
447,3693.0099999999998,0.6238304399347738
448,3695.71,0.6086639091027481
449,3698.41,0.7682905782707224
450,3701.11,0.7086448474386969
451,3703.81,0.8006766166066712
452,3706.51,0.6229029857746455
453,3709.21,0.5331472549426198
454,3711.91,0.6646459241105942
455,3714.6099999999997,0.6759412932785687
456,3717.31,0.6995882624465429
457,3720.01,0.8346415316145174
458,3722.71,0.9626070007824917
459,3725.4100000000003,0.957795569950466
460,3728.11,1.1847876391184404
461,3730.81,1.0780054082864148
462,3733.5099999999998,0.8880671774543891
463,3736.21,0.7673540466223635
464,3738.91,0.6908975157903378
465,3741.61,0.7039307849583122
466,3744.31,0.7298684541262865
467,3747.01,0.6666680232942608
468,3749.71,0.6414408924622352
469,3752.41,0.5676054616302095
470,3755.1099999999997,0.6640462307981839
471,3757.81,0.8465588999661583
472,3760.51,0.9343826691341326
473,3763.21,0.840382838302107
474,3765.9100000000003,0.7239065074700813
475,3768.61,0.6785077766380556
476,3771.31,0.6839292458060301
477,3774.0099999999998,0.9016361149740043
478,3776.7099999999996,0.8098624841419787
479,3779.4100000000003,0.9688500533099531
480,3782.11,0.9675572224779274
481,3784.81,1.0251487916459017
482,3787.51,0.9514712608138761
483,3790.21,0.9057280299818505
484,3792.91,0.7901850991498249
485,3795.6099999999997,0.8734128683177992
486,3798.31,0.6642438374857735
487,3801.01,0.691976806653748
488,3801.8939600000003,0.7291838515729119
489,3803.71,0.8056234081718526
490,3806.41,0.9139131254364282
491,3809.11,0.977680342701004
492,3811.81,0.9130510599655797
493,3814.5099999999998,0.9463707772301553
494,3817.2099999999996,0.9681291944947311
495,3819.9100000000003,1.0717511117593068
496,3822.61,1.0021669290238824
497,3825.31,1.027515746288458
498,3828.01,0.8283139635530338
499,3830.71,0.7012526808176095
500,3833.41,0.7048071980821852
501,3836.1099999999997,0.6906531153467609
502,3838.81,0.6935253326113365
503,3841.51,0.8184031498759122
504,3844.21,0.9328686671404879
505,3846.91,0.9855053844050636
506,3849.61,1.0858961016696391
507,3852.31,1.105427918934215
508,3855.0099999999998,1.1582807361987908
509,3857.7099999999996,1.0467585534633663
510,3860.4100000000003,1.050493370727942
511,3863.11,1.0889831879925178
512,3865.81,1.1926770052570934
513,3868.51,1.1399678225216692
514,3871.21,1.0846016397862448
515,3873.91,1.1083714570508205
516,3876.6099999999997,0.9967776743153962
517,3879.3100000000004,0.9920380915799719
518,3882.01,0.8848969088445476
519,3884.71,0.7459439261091233
520,3887.41,0.746302843373699
521,3890.11,0.6921361606382747
522,3892.81,0.7284216779028503
523,3895.5099999999998,0.8542330951674261
524,3898.2099999999996,0.9429905124320017
525,3900.9100000000003,1.0037416296965775
526,3903.61,1.0622674469611533
527,3906.31,1.0656422642257288
528,3909.0099999999998,1.1031270814903045
529,3911.71,1.16933589875488
530,3914.41,1.1472897160194557
531,3917.1099999999997,1.0833065332840317
532,3919.8100000000004,1.1895133505486073
533,3922.51,1.161005167813183
534,3925.21,1.1286179850777587
535,3927.91,0.9613721023423344
536,3930.61,0.86859291960691
537,3933.31,0.8232087368714857
538,3936.0099999999998,0.8163865541360614
539,3938.7100000000005,0.9340115714006371
540,3941.4100000000003,1.0353358886652126
541,3944.11,1.0757647059297883
542,3946.81,1.1250985231943642
543,3949.5099999999998,1.1108073404589398
544,3952.21,1.1419011577235156
545,3954.91,1.1345049749880913
546,3957.6099999999997,1.044741792252667
547,3960.3100000000004,0.9368826095172427
548,3963.01,0.8374970267818183
549,3965.71,0.6801390440463939
550,3968.41,0.5946127613109697
551,3971.11,0.6339502785755453
552,3973.81,0.672117195840121
553,3976.5099999999998,0.7828486131046968
554,3979.21,0.9972740303692724
555,3981.9100000000003,1.0195351476338481
556,3984.61,1.0595329648984237
557,3987.31,1.1101587821629995
558,3990.0099999999998,1.1294045994275752
559,3992.71,1.182759416692151
560,3995.41,1.2244092339567267
561,3998.11,1.1431190512213023
562,4000.8100000000004,1.195181868485878
563,4003.51,1.2325226857504537
564,4006.21,1.2976545030150293
565,4008.91,1.353092320279605
566,4011.6099999999997,1.2413551375441807
567,4014.31,1.2275669548087564
568,4017.0099999999998,1.3159657720733322
569,4019.71,1.2741005893379078
570,4022.4100000000003,1.2500434066024835
571,4025.11,1.2679242238670592
572,4027.81,1.261676041131635
573,4030.5099999999998,1.1823978583962107
574,4033.21,1.2426466756607863
575,4035.91,1.2565054929253618
576,4038.61,1.2863783101899375
577,4041.3100000000004,1.2641891274545132
