,lambda (Angstroms),Total Flux (erg/s/cm^2/Angstrom)
0,100.1,0.0005943281043108626
1,101.96000000000001,0.0007135731151726269
2,104.10000000000001,0.0008491984685297096
3,104.712855,0.0008884002995371073
4,106.03,0.00082127791698334
5,108.0,0.0007213362179066897
6,110.01,0.000626298306412239
7,113.88000000000001,0.00043159029249008817
8,117.88,0.0002292739907100883
9,120.22644299999999,0.00016637876510973795
10,120.9,0.0001819054079608171
11,124.86,0.00019307066346546718
12,126.89,0.00019796899873679034
13,128.07,0.0002013704561851457
14,131.05,0.00020909068431743284
15,131.96,0.0002267888311631984
16,134.1,0.00023194369297631744
17,136.91,0.00025987262554401103
18,138.038426,0.00026414768679878305
19,140.1,0.00027676851641092877
20,143.03,0.0004663935121036361
21,147.04,0.0007612136454578192
22,151.16,0.0008255526817219674
23,155.04,0.00090153242072801
24,158.489319,0.0009758095091161324
25,159.01,0.0009869979083709163
26,161.97,0.0010490050842804947
27,166.11999999999998,0.0011433723630050725
28,169.99,0.0012267153940084738
29,173.15,0.001301299618290321
30,177.19,0.001393033335410151
31,180.07,0.0014611833119708218
32,181.970086,0.0015107426550028302
33,182.14999999999998,0.0015154665095790563
34,185.97,0.0016121798619737828
35,191.18,0.0017349619263655432
36,193.83999999999997,0.0018205692816979965
37,197.89000000000001,0.0019281563490274839
38,202.04,0.00203255664024165
39,204.85,0.0021182503314011217
40,208.929613,0.0021682265650535782
41,210.10000000000002,0.0021828148631575684
42,215.99,0.002421497695173865
43,220.01,0.002547528857263086
44,223.07,0.0026133327716892094
45,227.21,0.002743241714736318
46,229.84,0.004154743330730013
47,234.11999999999998,0.006901228184894656
48,239.88329199999998,0.009088670340720854
49,240.11999999999998,0.00917840149864886
50,246.28,0.008805014884188262
51,252.01999999999998,0.00938892601616816
52,256.7,0.007546696127259783
53,260.28,0.009216308669505084
54,263.9,0.009783044759708434
55,268.8,0.009827279384569322
56,273.8,0.00982636387932533
57,275.42287,0.009804449547591089
58,278.89,0.00975914612650313
59,284.08,0.009849915955749043
60,290.02,0.009430742979972687
61,296.1,0.009519243587258842
62,300.91,0.00905089069104937
63,307.92,0.009284003100107912
64,316.227766,0.009499223836157705
65,318.01000000000005,0.00954469777853974
66,327.66999999999996,0.009456159551468262
67,337.62,0.00928250340453646
68,347.88,0.009069960032926382
69,356.81,0.009047514431710204
70,363.078055,0.009103663220242036
71,365.96,0.009130327359138804
72,375.34999999999997,0.008965003328845604
73,384.97999999999996,0.008465853249854818
74,394.84999999999997,0.008664038122166439
75,404.98,0.008665059525055672
76,414.40999999999997,0.008489293653312874
77,416.86938299999997,0.008409771469150566
78,422.12,0.008239726100360497
79,429.97,0.00803484050798196
80,441.0,0.007980630973722692
81,451.27,0.007782315633120452
82,459.66,0.007519602824196129
83,470.36,0.0073498147556037285
84,478.630092,0.007280160565792519
85,480.21000000000004,0.007266571382933646
86,490.27000000000004,0.0069553217705543855
87,500.53000000000003,0.006954362867670568
88,506.33,0.00674931944303839
89,512.19,0.007180210931254844
90,520.52,0.006984229831740009
91,530.1899999999999,0.006715943785844637
92,540.05,0.006311163463969934
93,549.5408739999999,0.0061215316578621505
94,550.09,0.006110597458446089
95,560.3199999999999,0.006266485658768573
96,569.42,0.0062520641722519175
97,580.01,0.006053684485195721
98,589.4300000000001,0.005956950432120238
99,600.39,0.0056241175274803976
100,610.15,0.00497937624743616
101,620.06,0.005584920014317472
102,630.14,0.005358294167714407
103,630.957344,0.005359262532622753
104,640.37,0.005371144132746447
105,649.28,0.005201748713834408
106,658.32,0.005002742081178422
107,664.41,0.005072485145019689
108,675.1999999999999,0.005003629404272113
109,684.5999999999999,0.004703472795094429
110,695.7199999999999,0.004780115742535296
111,705.4000000000001,0.004452441596062957
112,715.21,0.004598083235846672
113,724.43596,0.004532174948462155
114,726.8299999999999,0.004515026508339705
115,735.2499999999999,0.004443268741566307
116,745.48,0.0043030508123392455
117,755.85,0.0041963704285577575
118,764.6,0.003811519018906067
119,775.24,0.004027109472769613
120,784.21,0.0038470066345323945
121,795.12,0.003847191926040973
122,804.33,0.0038037481657104515
123,815.52,0.0037434235481101762
124,824.96,0.003684336612440239
125,831.763771,0.0034494756352051624
126,834.52,0.003354110747112589
127,844.1800000000001,0.0035269954297977636
128,855.92,0.0034386192781128725
129,865.8299999999999,0.0034066021585901067
130,875.86,0.0033518354140075293
131,886.0,0.0032830835964534574
132,894.2,0.0032302788840330053
133,904.55,0.003149496472624264
134,915.03,0.0031561168840673936
135,925.62,0.005274700222539029
136,934.19,0.007460679082850824
137,945.01,0.009562143723291155
138,954.992586,0.010624774504780483
139,955.95,0.010726734241755253
140,964.79,0.011545907101788742
141,975.96,0.006038233629681739
142,985.0,0.010197180744467118
143,994.11,0.009761199248415658
144,1005.62,0.011282930809386865
145,1014.93,0.011128209568087294
146,1024.32,0.007107483628688479
147,1036.18,0.009693711135475493
148,1045.76,0.012541890538090971
149,1055.44,0.012144176068082395
150,1065.21,0.01067628081271217
151,1075.06,0.011465644859242698
152,1085.01,0.009671142033149173
153,1095.05,0.011491710421693998
154,1096.4782,0.011418886546438932
155,1105.18,0.0109750202992038
156,1115.41,0.010725070902014798
157,1125.73,0.009759589046786008
158,1136.1499999999999,0.010973934460401904
159,1144.02,0.0103842695184784
160,1154.61,0.010432060289130254
161,1165.29,0.010383748601742323
162,1176.07,0.007988816183199075
163,1184.22,0.009893722594040678
164,1195.18,0.00846107425941786
165,1206.24,0.00725256319363972
166,1214.6,0.00518448486905516
167,1225.84,0.00806111688719745
168,1234.34,0.009447446738995443
169,1245.76,0.00973403684105816
170,1254.3899999999999,0.009468769142354241
171,1258.92541,0.009269902513251644
172,1266.0,0.008959906016735873
173,1274.78,0.009800946073228645
174,1283.6100000000001,0.009891742226854058
175,1295.49,0.008676037305570927
176,1304.47,0.008636134750594283
177,1313.51,0.009556176312176815
178,1325.6699999999998,0.009189529934836505
179,1334.86,0.008537609787816976
180,1344.1100000000001,0.009210917757356624
181,1356.54,0.008980747904532606
182,1365.95,0.008381943184896724
183,1375.42,0.00842043758182002
184,1384.95,0.008381997095302489
185,1394.55,0.007086387744770665
186,1404.2199999999998,0.007053949530224546
187,1413.9499999999998,0.007841131432237603
188,1423.75,0.007715987470236366
189,1433.62,0.007787217644220834
190,1443.5600000000002,0.007913634954191008
191,1445.43977,0.007903391319201987
192,1446.89,0.007895487970457289
193,1453.5600000000002,0.0076804858455499095
194,1463.6399999999999,0.007318598280472491
195,1473.7900000000002,0.0072682338295264794
196,1484.0,0.007284826476407388
197,1494.29,0.00721823825372419
198,1504.6499999999999,0.006925598145172399
199,1511.59,0.006434305460486161
200,1518.57,0.006629406841017869
201,1525.58,0.006538576270463037
202,1536.15,0.005882492504305467
203,1543.2399999999998,0.005775338064186528
204,1553.94,0.005605087509987285
205,1564.71,0.005868918069919449
206,1575.56,0.0061168827602875045
207,1586.48,0.006201893564786968
208,1593.8,0.006259272499671223
209,1604.85,0.0060609835161290135
210,1615.9699999999998,0.006005473646718211
211,1623.4299999999998,0.005815357809865281
212,1634.68,0.006005520152412805
213,1646.02,0.00600545864170071
214,1653.6100000000001,0.0057621520168061055
215,1659.58691,0.005896162312342776
216,1665.08,0.006019381167312158
217,1672.76,0.005566895612007446
218,1676.6200000000001,0.0063028015724923185
219,1684.3600000000001,0.006346649731599289
220,1696.03,0.006019807684671426
221,1703.8600000000001,0.00589684791539592
222,1715.67,0.005816060535428649
223,1723.5900000000001,0.005802792837770665
224,1735.5400000000002,0.006131991124763985
225,1743.5500000000002,0.0059929374987235245
226,1755.6299999999999,0.006332857333608823
227,1763.74,0.005816608898254499
228,1775.96,0.005993344400100387
229,1784.1599999999999,0.006104496036363587
230,1796.53,0.00658576332423868
231,1804.82,0.006465971032119401
232,1813.15,0.006189572216274578
233,1825.72,0.0062182428855219445
234,1834.1499999999999,0.006049268260363257
235,1846.86,0.005417582596571216
236,1855.39,0.005751289162098665
237,1863.95,0.006190155084831956
238,1876.87,0.0063052349214808
239,1885.53,0.006049909034900228
240,1894.24,0.006190518743662723
241,1902.98,0.006262229809631059
242,1905.46072,0.006264990019978336
243,1916.17,0.006276613980368526
244,1925.02,0.005885292149889055
245,1933.9,0.005234297858967281
246,1942.8300000000002,0.006616798800641667
247,1956.29,0.006451449215528256
248,1965.3200000000002,0.007203958622394965
249,1974.4,0.006991665261857836
250,1983.51,0.007104823440878403
251,1997.2599999999998,0.007072205404822727
252,2006.48,0.006895265895554848
253,2015.74,0.006974944772363899
254,2025.04,0.006495052035249879
255,2034.39,0.007202901530732019
256,2043.78,0.007734870412291089
257,2053.21,0.0072858016799270875
258,2062.69,0.007169361180159247
259,2072.21,0.008098471066468334
260,2076.99,0.010430207702661343
261,2086.58,0.01154098051460506
262,2096.21,0.010771232712625702
263,2105.88,0.010334184296723274
264,2115.6,0.011278145113417007
265,2125.37,0.010405395162706901
266,2135.1800000000003,0.009711327598073725
267,2145.03,0.011593443419517476
268,2154.94,0.011593231320076622
269,2164.88,0.010380838760193465
270,2174.8700000000003,0.01050083543290647
271,2184.91,0.012279381338215635
272,2187.7616199999998,0.01236008731032203
273,2195.0,0.012565146146714355
274,2205.1299999999997,0.012111020106580203
275,2215.31,0.01000571867829139
276,2225.53,0.01104635973947885
277,2235.81,0.013872565534880718
278,2246.13,0.013127321819758857
279,2256.49,0.01059865859411327
280,2266.91,0.010122196102682087
281,2277.37,0.01089563410072718
282,2282.62,0.01362011834448786
283,2293.16,0.011620537321485495
284,2303.74,0.013618156787959402
285,2314.38,0.012025386988647717
286,2325.06,0.009707703678812303
287,2335.79,0.00908005898082223
288,2346.57,0.006779369894677494
289,2357.41,0.011294953542747168
290,2362.84,0.007278798989151072
291,2373.75,0.009096787493804223
292,2384.7,0.005944233487933643
293,2395.71,0.0071597722162774725
294,2406.77,0.007125911556466641
295,2412.32,0.00814221747129936
296,2423.4500000000003,0.012778201668072007
297,2434.6400000000003,0.012688588599059058
298,2445.87,0.014869536019522383
299,2457.16,0.015496094174200115
300,2462.83,0.013874673557461652
301,2474.2,0.012223762691091926
302,2485.62,0.008459310436567544
303,2497.0899999999997,0.009642713793888499
304,2502.85,0.014288843278471646
305,2511.88643,0.008768056583623347
306,2514.4,0.007232353952142976
307,2520.2000000000003,0.0058668344833133655
308,2526.0,0.006401714014483755
309,2537.66,0.009505229792664228
310,2543.5099999999998,0.010043914087034362
311,2555.25,0.016543568486334426
312,2567.05,0.012783352601474183
313,2572.97,0.01594171456432396
314,2584.8399999999997,0.014305418347943362
315,2596.77,0.012955701847402456
316,2602.76,0.011258603478731874
317,2614.77,0.010149886599310562
318,2626.8399999999997,0.013716849435728939
319,2632.9,0.022237460735538003
320,2645.0499999999997,0.029850283193075974
321,2657.26,0.03998083536645364
322,2663.39,0.026722466334742342
323,2675.68,0.030112798129239598
324,2688.03,0.03440990963957655
325,2694.23,0.025391930276344895
326,2706.6600000000003,0.03087207140780144
327,2712.8999999999996,0.02267677185512958
328,2725.42,0.018774312560345664
329,2738.0,0.023410942981401436
330,2744.32,0.013475333049849172
331,2756.98,0.018171023092024542
332,2763.34,0.02356491297103207
333,2776.09,0.025303232586966977
334,2782.4900000000002,0.015320452276534304
335,2795.34,0.006816480418868702
336,2801.7799999999997,0.008249056918995823
337,2814.7100000000005,0.022386229682449812
338,2827.71,0.03219941811438345
339,2834.2200000000003,0.030186997282990208
340,2847.31,0.02232453528868338
341,2853.87,0.013362214220489891
342,2867.04,0.03010301184730265
343,2873.6499999999996,0.03949476054230891
344,2884.0315,0.036900588101168946
345,2886.92,0.03617881109550863
346,2893.5699999999997,0.04329308045096795
347,2906.93,0.057850049156071164
348,2927.0800000000004,0.050837787203064415
349,2947.3700000000003,0.047213755236488394
350,2967.7999999999997,0.04908598325634309
351,2988.3700000000003,0.049983321262628506
352,3009.08,0.05031663925534466
353,3029.94,0.053403617233522285
354,3050.9399999999996,0.05616158519813064
355,3072.09,0.06030011314820048
356,3093.39,0.05877458108373181
357,3107.66,0.06700184970063472
358,3129.21,0.0622240176119352
359,3150.8999999999996,0.0617776055096664
360,3172.74,0.06818694339285909
361,3187.38,0.05978803197390034
362,3209.48,0.06614256983189294
363,3231.7200000000003,0.05667173767631627
364,3246.64,0.07784863623021897
365,3269.14,0.0903861540494422
366,3291.81,0.08870893185218845
367,3307.0,0.08334418037992183
368,3311.31121,0.08151686541057064
369,3322.26,0.07687617967612173
370,3329.92,0.08664435548365636
371,3337.6,0.08235646125413495
372,3345.2900000000004,0.08159278700608553
373,3353.0,0.07544191272098005
374,3360.74,0.08640800838029052
375,3368.48,0.08365949403960098
376,3376.25,0.06568679964332735
377,3384.03,0.07037597522852573
378,3391.83,0.08538168077666805
379,3399.65,0.08776371628775433
380,3407.4900000000002,0.08556036176178457
381,3415.34,0.08226788721728678
382,3423.21,0.09731445263573293
383,3431.11,0.09292398799859504
384,3439.02,0.09206057334292911
385,3446.94,0.06223743866873516
386,3454.89,0.09077792393895714
387,3462.85,0.0753258091906511
388,3470.84,0.08470136438676099
389,3478.84,0.06805493956434286
390,3486.86,0.08275462470486869
391,3494.9,0.07477477980833847
392,3502.9500000000003,0.09176805489328023
393,3511.03,0.09175899992263792
394,3519.12,0.09090687493346758
395,3527.23,0.07088575990724119
396,3535.36,0.09088651484395877
397,3543.52,0.10433687972509227
398,3551.68,0.10078376460622578
399,3559.87,0.09491841943177522
400,3568.08,0.08918626422026861
401,3576.3,0.07893367899023399
402,3584.55,0.06028559370461529
403,3592.81,0.07197135840046857
404,3601.09,0.1044938730592658
405,3609.39,0.08492820768100699
406,3617.71,0.09332511226569214
407,3626.05,0.09726177681332124
408,3634.4100000000003,0.08334849132389428
409,3642.7900000000004,0.1134594957974113
410,3651.19,0.08665459023387226
411,3659.6,0.1198777646518052
412,3668.04,0.11579374901415407
413,3676.4999999999995,0.12095653333944689
414,3684.9700000000003,0.1024674176462117
415,3693.47,0.11285860189739244
416,3701.9800000000005,0.12147308613004515
417,3710.52,0.08480765030711379
418,3719.0699999999997,0.1254209544656544
419,3727.64,0.09847653858713899
420,3736.23,0.08497337267156754
421,3744.85,0.107205906700412
422,3753.48,0.06810688071072844
423,3762.13,0.08692225468398884
424,3770.81,0.09269914860166517
425,3779.5,0.11429074250081347
426,3788.21,0.12851442636290572
427,3796.9399999999996,0.09680832018794194
428,3801.8939600000003,0.10462108482800132
429,3805.7000000000003,0.11062349542672884
430,3814.47,0.11906848256334142
431,3823.26,0.08605181967061902
432,3832.08,0.07107327673389416
433,3840.9100000000003,0.06556366378250181
434,3849.7599999999998,0.10294103080177447
435,3858.64,0.09875037777704469
436,3867.53,0.1070225047376474
437,3876.4500000000003,0.08519950165424765
438,3885.3900000000003,0.09383650854151293
439,3886.15,0.1275666774267838
440,3887.92,0.13104347483063833
441,3889.69,0.12139297223449287
442,3891.4500000000003,0.1181165696530149
443,3893.22,0.14660066705686942
444,3894.99,0.13289546446072395
445,3896.76,0.1545667618645785
446,3898.53,0.15295035926843303
447,3900.2999999999997,0.13659415667228755
448,3902.07,0.1487120540761421
449,3903.84,0.12486555147999663
450,3905.61,0.12899894888385116
451,3907.37,0.1282723463023732
452,3909.14,0.12575174370622771
453,3910.9100000000003,0.16513484111008225
454,3912.68,0.1688828385139368
455,3914.45,0.13741913591779134
456,3916.2200000000003,0.14199673332164586
457,3917.9900000000002,0.1314764307255004
458,3919.7599999999998,0.13107782812935492
459,3921.5299999999997,0.12226122553320946
460,3923.3,0.120822222937064
461,3925.0600000000004,0.11256152035558603
462,3926.83,0.08072819775944055
463,3928.6,0.061545355163295096
464,3930.3700000000003,0.06401128256714964
465,3932.14,0.053207299971004166
466,3933.91,0.0736591473748587
467,3935.68,0.07145826477871324
468,3937.4500000000003,0.07030027218256776
469,3939.22,0.0873249495864223
470,3940.99,0.11015649699027684
471,3942.75,0.09412713440879886
472,3944.5200000000004,0.1254027918126534
473,3946.29,0.13080608921650794
474,3948.06,0.13485788662036247
475,3949.83,0.136521684024217
476,3951.6,0.12301138142807154
477,3953.37,0.13413727883192608
478,3955.14,0.1334047762357806
479,3956.9100000000003,0.12609147363963513
480,3958.68,0.13046967104348967
481,3960.44,0.1097286684620117
482,3962.21,0.08101792586586623
483,3963.9799999999996,0.07232425326972076
484,3965.75,0.0585244006735753
485,3967.52,0.05193359807742983
486,3969.29,0.06901083548128435
487,3971.06,0.07827552288513889
488,3972.83,0.09245862028899343
489,3974.6,0.10297424769284796
490,3976.3599999999997,0.11323714511137
491,3978.13,0.13685694251522454
492,3979.9,0.13753933991907907
493,3981.67,0.1342504373229336
494,3983.4399999999996,0.14326853472678813
495,3985.21,0.14876403213064268
496,3986.98,0.1549129295344972
497,3988.75,0.15368712693835174
498,3990.52,0.16219452434220627
499,3992.29,0.1532721217460608
500,3994.05,0.16655561916458284
501,3995.8199999999997,0.16926201656843737
502,3997.5899999999997,0.1648919139722919
503,3999.36,0.15638421137614641
504,4001.13,0.16367240878000094
505,4002.8999999999996,0.16045440618385548
506,4004.67,0.15010110358771
507,4006.44,0.16781760099156456
508,4008.21,0.16577059839541908
509,4009.98,0.15987379579927363
510,4011.74,0.16944489321779566
511,4013.51,0.1714622906216502
512,4015.2799999999997,0.1773551880255047
513,4017.0499999999997,0.16566018542935926
514,4018.82,0.16222918283321378
515,4020.59,0.16769288023706833
516,4022.3599999999997,0.16186627764092285
517,4024.13,0.1727715750447774
518,4025.9,0.17436507244863192
519,4027.6600000000003,0.15011746986715394
520,4029.43,0.15242266727100848
521,4031.2,0.15832606467486302
522,4032.9700000000003,0.15694616207871756
523,4034.74,0.1648348594825721
524,4036.5099999999998,0.16642845688642663
525,4038.28,0.16013275429028115
526,4040.05,0.1634773516941357
527,4041.8199999999997,0.15516234909799023
528,4043.59,0.16009114650184475
529,4045.35,0.1487195439203668
530,4047.1200000000003,0.14165704132422133
531,4048.89,0.15402263872807587
532,4050.66,0.1548131361319304
533,4052.4300000000003,0.16201363353578493
534,4054.2,0.16533573093963946
535,4055.97,0.16286332834349398
536,4057.7400000000002,0.15285682574734852
537,4059.51,0.14605342315120307
538,4061.2799999999997,0.1442429205550576
539,4063.04,0.1573382179735796
540,4064.81,0.15827681537743415
541,4066.5800000000004,0.15229991278128868
542,4068.35,0.14528341018514324
543,4070.12,0.15510770758899775
544,4071.8900000000003,0.1446781049928523
545,4073.66,0.15353010239670684
546,4075.43,0.15787049980056136
547,4077.2000000000003,0.1439159972044159
548,4078.9700000000003,0.15853879460827044
549,4080.73,0.17925149202679247
550,4082.5,0.176468689430647
551,4084.27,0.17286688683450152
552,4086.0400000000004,0.17711888423835606
553,4087.81,0.1718317816422106
554,4089.58,0.17792097904606513
555,4091.3500000000004,0.18291637644991968
556,4093.12,0.1722071738537742
557,4094.89,0.16569397125762875
558,4096.66,0.15326466866148328
559,4098.42,0.15008366608000528
560,4100.1900000000005,0.15154056348385983
561,4101.96,0.15896316088771437
562,4103.73,0.1607281582915689
563,4105.5,0.15641095569542343
564,4107.27,0.16959845309927796
565,4109.04,0.17087245050313252
566,4110.8099999999995,0.16334764790698703
567,4112.58,0.17517834531084156
568,4114.34,0.1820670427293636
569,4116.11,0.17618974013321814
