,lambda (Angstroms),Total Flux (erg/s/cm^2/Angstrom)
0,102.00000000000001,16.214041155846967
1,103.9,16.1678317559731
2,104.712855,16.148062523488225
3,106.08,15.973405273782738
4,108.05,15.721731324155396
5,110.06,15.464947243722213
6,113.93,14.970542073881179
7,117.92999999999999,14.459528978600964
8,120.22644299999999,14.166150870504287
9,120.95,14.08865233954291
10,124.92,13.663434740654466
11,126.95,13.446006094568572
12,128.12,13.320690077007669
13,131.10999999999999,13.000438032496678
14,132.01,12.904041098242661
15,133.85,12.706962918004052
16,136.97,12.372786876673983
17,138.038426,12.258350218730811
18,140.16,12.09592498168503
19,143.09,11.871607637858604
20,147.10000000000002,11.564606818406187
21,150.88,11.275214463764685
22,155.1,10.952136235409826
23,158.489319,10.6926539842813
24,159.07999999999998,10.658465448573114
25,162.04,10.487141062997324
26,165.80999999999997,10.268934017589984
27,170.07000000000002,10.022365840478205
28,172.82999999999998,9.86261747774948
29,176.86,9.629361718223102
30,180.14,9.439515845909805
31,181.81,9.342856548730817
32,181.970086,9.33359079856673
33,186.05,9.153434977271134
34,190.82,8.942807268320921
35,193.92,8.805921356265566
36,197.98,8.626644992465758
37,202.12,8.443836133146494
38,204.93999999999997,8.31931421807823
39,208.929613,8.143145917566203
40,210.19,8.101304034377227
41,216.07999999999998,7.905770355988244
42,220.1,7.772316111310809
43,223.16,7.670731507310361
44,226.79000000000002,7.550224502094171
45,229.94,7.445655685488974
46,234.21999999999997,7.303577299751381
47,239.88329199999998,7.115575442359428
48,240.23,7.106706200714813
49,245.82,6.963701596737653
50,252.13,6.8022806555312885
51,256.81,6.6825517416964555
52,259.78999999999996,6.606322061206413
53,264.01,6.498367906074407
54,268.92,6.372760736133162
55,273.92,6.244851134072015
56,275.42287,6.206404841918547
57,279.01,6.135979257412926
58,284.2,6.03408500580457
59,290.15,5.917267651111369
60,296.21999999999997,5.798097452966875
61,301.03999999999996,5.703466010446669
62,308.05,5.56584138491039
63,316.227766,5.405290487623789
64,318.14000000000004,5.377250568441673
65,327.81,5.2354541511611234
66,337.77000000000004,5.089404564812429
67,348.03000000000003,4.938955571958412
68,356.96,4.808009987538992
69,363.078055,4.718298161592678
70,366.12,4.684894016936588
71,374.64,4.591333125171193
72,385.14,4.476025142407502
73,395.02000000000004,4.367533287858428
74,405.15000000000003,4.256293250179266
75,413.64,4.163061259477481
76,416.86938299999997,4.12759759485974
77,422.29999999999995,4.082055841492197
78,430.15,4.016225280692062
79,441.17999999999995,3.923729401291363
80,451.46,3.8375206075002315
81,459.84999999999997,3.7671610180132085
82,469.47999999999996,3.6864036783303678
83,478.630092,3.609671072709442
84,480.42,3.5981270953431004
85,490.48,3.5332424814167394
86,499.59999999999997,3.4744256212489053
87,506.55,3.42961018071618
88,512.41,3.3919034296513217
89,519.54,3.34592536000739
90,530.42,3.2757615700299736
91,540.28,3.2121612565160653
92,549.5408739999999,3.1524912664708875
93,550.33,3.148613805711083
94,560.5600000000001,3.0983340882570634
95,569.67,3.0535573504250877
96,580.26,3.001443187717555
97,589.68,2.9551772707839423
98,600.65,2.901222494442145
99,610.41,2.853277358335769
100,620.3299999999999,2.804572701583387
101,630.4,2.7550891771753743
102,630.957344,2.7523482850421646
103,640.65,2.7145664593798142
104,649.56,2.6799255368279695
105,658.6,2.644729994168746
106,664.69,2.621045788307721
107,675.49,2.578957784002454
108,684.89,2.5423001226997224
109,694.4200000000001,2.505431095089612
110,705.6999999999999,2.4613933927263343
111,715.5200000000001,2.423384128122841
112,724.43596,2.3886892451649873
113,725.47,2.3857048869619986
114,735.56,2.356583379254208
115,745.8,2.327188233921426
116,754.43,2.3023693876302236
117,764.9300000000001,2.2721324558807883
118,775.57,2.241582094214694
119,784.55,2.215823541131844
120,795.46,2.1844106913407644
121,804.67,2.15792251796626
122,815.8700000000001,2.1256585926335285
123,825.31,2.0986974189673706
124,831.763771,2.079649963675241
125,834.87,2.0727534719973146
126,844.54,2.052693619808711
127,854.3199999999999,2.031724789854777
128,864.2099999999999,2.0106993201355117
129,874.22,1.989434944490432
130,884.34,1.9680438490800216
131,894.5799999999999,1.9462596937437961
132,904.94,1.923950938481755
133,915.42,1.9050318712938996
134,926.02,1.9398684111802285
135,934.59,2.00835194964493
136,945.41,2.158742432000598
137,954.16,2.341641741576577
138,954.992586,2.349155021198958
139,965.2099999999999,2.4418349064286353
140,974.14,1.8820541242004887
141,985.4200000000001,2.453938594017566
142,994.53,2.459585567690756
143,1006.05,2.7402540453762816
144,1015.36,2.6161642256065116
145,1024.75,1.9572786084595573
146,1034.24,2.2662426445911232
147,1043.81,2.9815474833455062
148,1055.89,3.0037844793907444
149,1065.6599999999999,2.7248618247021676
150,1075.52,2.9365385979642586
151,1085.47,2.6311587991770176
152,1095.52,2.9659762536682974
153,1096.4782,2.9630034601333732
154,1105.66,2.938040998420349
155,1115.8899999999999,2.8776754574365877
156,1126.21,2.7874848853004757
157,1134.02,3.080033848635453
158,1144.51,2.917964550989347
159,1155.1,3.0173378853961856
160,1165.79,3.102036851855969
161,1173.8700000000001,2.7018367217338963
162,1184.73,3.0263839626836857
163,1195.69,2.341529835686419
164,1203.98,2.076159632875531
165,1215.12,1.6538003435735658
166,1226.36,2.2278848863245444
167,1234.87,2.9822632740301342
168,1246.29,3.2252046544764137
169,1254.9299999999998,3.1344626638508317
170,1258.92541,2.959393436511406
171,1263.63,2.75559144791832
172,1275.3200000000002,3.3243056455762052
173,1284.16,3.443982190255051
174,1296.04,3.0003415647782052
175,1305.03,2.9396547227717367
176,1314.07,3.371076085203497
177,1326.23,3.2859294045807323
178,1335.43,3.0198680212148243
179,1344.68,3.405697842287146
180,1354.0,3.326849149572987
181,1366.53,3.088586181793116
182,1376.0,3.2145971023936433
183,1385.5400000000002,3.2574185092076906
184,1395.15,3.08095640223526
185,1404.82,3.1448651405887027
186,1414.55,3.09934772426802
187,1424.3600000000001,3.154801435048503
188,1434.23,3.1182149911548613
189,1440.85,3.2348732587763496
190,1445.43977,3.2578215499179657
191,1447.5,3.2688913899412326
192,1454.1899999999998,3.2113500564948505
193,1464.27,3.063982235696715
194,1474.4199999999998,3.036152027254147
195,1484.63,3.065702057973495
196,1494.9299999999998,3.105741447435717
197,1505.29,3.0095230760598546
198,1512.24,2.8133014456484413
199,1515.72,2.9396873170395605
200,1526.23,2.8581515435684883
201,1533.27,2.6461332718999486
202,1543.9,2.834030976752708
203,1554.6,2.7131912939610356
204,1565.38,2.7122095967185844
205,1576.23,2.8061545118317017
206,1583.51,2.8903951968108252
207,1594.48,2.9373435902477745
208,1605.53,2.8668079692339448
209,1616.66,2.880460333769336
210,1624.13,2.7692411094278597
211,1635.3799999999999,2.8643089522870833
212,1646.72,2.88274515388918
213,1654.32,2.7168117810651884
214,1659.58691,2.7964078106358996
215,1665.79,2.891755162796077
216,1673.48,2.6907888027746223
217,1677.34,2.865666559642917
218,1685.08,2.9632219892182015
219,1696.76,2.844431839016565
220,1704.59,2.7563518898659805
221,1716.4099999999999,2.656185150535214
222,1724.33,2.6427558226587613
223,1736.28,2.746306536279518
224,1744.29,2.700856829677196
225,1756.3899999999999,2.8226759120881715
226,1764.49,2.6445078267599813
227,1776.72,2.712779362122479
228,1784.92,2.7398618559877677
229,1793.16,2.848614181530448
230,1805.59,2.8265488752799044
231,1813.93,2.6903017800160645
232,1826.5,2.7147118846363916
233,1834.9299999999998,2.6415944106466824
234,1843.4,2.5032107683343647
235,1856.18,2.487215989260998
236,1864.75,2.5322859261421593
237,1873.35,2.677170736781365
238,1886.34,2.5320040740143046
239,1895.05,2.455517421766337
240,1903.79,2.555966643276413
241,1905.46072,2.5468305202443737
242,1916.99,2.485645316854585
243,1925.8400000000001,2.4566837681056928
244,1934.73,2.5074925084020028
245,1943.66,2.5687545377435157
246,1957.1299999999999,2.45532937371554
247,1966.16,2.6035801256700597
248,1975.24,2.6499527389310833
249,1984.36,2.546358641237309
250,1993.52,2.4857208325887377
251,2002.72,2.533785312985369
252,2016.6000000000001,2.4669646116707216
253,2025.9099999999999,2.5546193869416607
254,2035.2600000000002,2.4587024512578024
255,2044.65,2.510859804619147
256,2054.09,2.4249600192869947
257,2063.57,2.446176523000045
258,2073.1,2.5381608880195996
259,2077.88,2.4613014289213275
260,2082.67,2.516070542084356
261,2097.1,2.4143403151412466
262,2106.78,2.435587264080311
263,2116.51,2.4398670743258783
264,2126.28,2.465939173616649
265,2136.09,2.3429985619526223
266,2145.9500000000003,2.3842788115950992
267,2155.86,2.4354329225440794
268,2165.81,2.375484322538262
269,2175.8,2.3543480115776476
270,2185.85,2.325071134184838
271,2187.7616199999998,2.3385273876459807
272,2195.94,2.3972678193440724
273,2206.07,2.343569296433118
274,2216.25,2.271033795620333
275,2226.48,2.2089043169057168
276,2236.76,2.3177798602892694
277,2247.09,2.2379324257709916
278,2257.46,2.1803690089312484
279,2262.66,2.209693307140828
280,2273.11,2.2538859256581554
281,2283.6,2.282922561854018
282,2294.14,2.20377922014805
283,2304.73,2.184920900540251
284,2315.37,2.1208346030306204
285,2326.05,1.817438323199526
286,2336.79,2.0306500698862338
287,2347.58,1.9854448386711108
288,2352.9900000000002,2.075934229693
289,2363.85,1.9701350294153135
290,2374.7599999999998,2.0047808512357963
291,2385.7200000000003,1.9096706951544478
292,2396.73,1.9944725611712684
293,2402.2599999999998,1.9345110052287635
294,2413.35,1.9581749066026546
295,2424.49,2.017625830074715
296,2435.6800000000003,1.9512667756449438
297,2446.92,2.028597743313342
298,2452.56,1.994734235986809
299,2463.88,1.9876602390122775
300,2475.25,1.9355872641359153
301,2486.68,1.9876443157773562
302,2492.41,1.916650848227527
303,2503.91,2.0289989308064045
304,2511.88643,1.939588469803121
305,2515.4700000000003,1.8996926880613074
306,2527.08,1.8703853807345072
307,2532.91,1.8822161471673027
308,2544.6000000000004,1.8564049841483279
309,2556.35,1.9274934293602226
310,2562.2400000000002,1.9022198040238871
311,2574.07,1.9688003935436074
312,2585.9500000000003,1.9553948232557183
313,2597.88,1.945599093160221
314,2603.87,1.8925031482086676
315,2615.8900000000003,1.879592330459474
316,2627.9700000000003,1.9142161209411492
317,2634.0200000000004,1.9371547842204653
318,2646.1800000000003,2.0282207190099664
319,2652.28,2.0342082224816735
320,2664.5200000000004,1.933535301579
321,2676.8199999999997,1.9805979889071963
322,2682.9900000000002,1.9719248686482505
323,2695.38,1.9192824683227505
324,2707.82,1.9410119081896415
325,2714.06,1.8837561642000433
326,2726.5899999999997,1.8774395164132383
327,2732.87,1.9316358445775528
328,2745.49,1.7836041091370518
329,2758.16,1.7935422138889412
330,2764.52,1.831494686361082
331,2777.2799999999997,1.8792687034592754
332,2783.68,1.8370092480853286
333,2796.5299999999997,1.623115177529826
334,2802.98,1.6953335623482704
335,2815.92,1.8633954041390717
336,2822.4100000000003,1.8895268611114286
337,2835.44,1.835021615248534
338,2841.97,1.8034491443748037
339,2855.09,1.780721810858213
340,2868.27,1.8511190855724915
341,2874.88,1.8393647590065867
342,2884.0315,1.8395621245593314
343,2888.15,1.8399209798475824
344,2894.81,1.8285911633727097
345,2908.17,1.8992252252189108
346,2928.33,1.853760402376053
347,2948.6299999999997,1.8297315113190085
348,2969.0699999999997,1.8365685520477775
349,2989.6499999999996,1.8297085245623599
350,3010.37,1.836496428862756
351,3031.2400000000002,1.8261236886479522
352,3052.2500000000005,1.8157278802189616
353,3073.4,1.805370003575785
354,3087.59,1.8063752324378803
355,3108.99,1.7892139482693703
356,3130.54,1.7721890195856607
357,3152.2400000000002,1.768496446386751
358,3166.79,1.759388928412367
359,3188.74,1.7066639476881242
360,3210.85,1.7289137461476685
361,3233.1,1.686475476393026
362,3248.03,1.7194320589801357
363,3270.54,1.735356805399147
364,3293.2099999999996,1.7249163310019453
365,3308.41,1.715814353461695
366,3311.31121,1.7134660240974915
367,3323.68,1.7040230338116817
368,3331.3500000000004,1.7063476620522784
369,3339.02,1.6447652902928753
370,3346.7200000000003,1.697985568969876
371,3354.44,1.6522876146044794
372,3362.17,1.6326025437178837
373,3369.92,1.619358239788891
374,3377.69,1.6153517028175008
375,3385.48,1.6454129328037133
376,3393.28,1.685812046268727
377,3401.1000000000004,1.734148926691343
378,3408.9399999999996,1.6363105740715622
379,3416.7999999999997,1.6573319884093836
380,3424.68,1.6917091697048077
381,3432.5699999999997,1.723659234479033
382,3440.48,1.676865066210861
383,3448.4199999999996,1.619079548379093
384,3456.3700000000003,1.611913914026126
385,3464.33,1.5745841631519606
386,3472.3199999999997,1.641127062714199
387,3480.32,1.5876688457552386
388,3488.35,1.629761279232682
389,3496.39,1.6101535961889268
390,3504.4500000000003,1.6092006801027743
391,3512.5299999999997,1.5928865309742244
392,3520.62,1.625839265324476
393,3528.7400000000002,1.5697696501111311
394,3536.87,1.6269999183765878
395,3545.03,1.6481008370784482
396,3553.2000000000003,1.6535156392591102
397,3561.39,1.6429742083973744
398,3569.6,1.5738605444932412
399,3577.8300000000004,1.540059647546711
400,3586.08,1.504254517557783
401,3594.3399999999997,1.5439532710476565
402,3602.63,1.6065656749739339
403,3610.94,1.559828845857814
404,3616.7700000000004,1.6502579139989715
405,3619.48,1.5602843367541237
406,3622.18,1.6278028760304746
407,3624.8799999999997,1.6933214153068255
408,3627.59,1.6241688380619776
409,3630.29,1.4843393773383284
410,3632.99,1.5637569166146794
411,3635.7,1.4949823393698316
412,3638.4,1.4734838786461824
413,3641.11,1.6399093014013346
414,3643.81,1.6691398406776856
415,3646.51,1.5784163799540365
416,3649.2200000000003,1.6014728027091887
417,3651.92,1.5966853419855396
418,3654.62,1.5760518812618904
419,3657.33,1.5417813040170425
420,3660.03,1.5447268432933934
421,3662.73,1.6141933825697445
422,3665.4399999999996,1.5070218053248965
423,3668.14,1.5285713446012474
424,3670.85,1.6684977673563997
425,3673.5499999999997,1.5751243066327505
426,3676.25,1.5020318459091015
427,3678.96,1.4375842686642535
428,3681.66,1.4887708079406043
429,3684.3599999999997,1.5348203472169555
430,3687.07,1.5658257699721077
431,3689.77,1.5708273092484584
432,3692.47,1.4922178485248094
433,3695.1800000000003,1.5481562712799617
434,3697.88,1.4991298105563124
435,3700.59,1.5407362333114645
436,3703.2900000000004,1.4879777725878154
437,3705.9900000000002,1.5170993118641662
438,3708.7,1.4828297346193187
439,3711.4,1.6052952738956694
440,3714.1000000000004,1.6616198131720203
441,3716.81,1.7098772359271726
442,3719.5099999999998,1.8641437752035235
443,3722.21,2.4221303144798743
444,3724.92,3.587815737235027
445,3727.62,4.613231276511377
446,3730.33,4.75287669926653
447,3733.0299999999997,3.7858242385428804
448,3735.73,2.649220777819232
449,3738.44,1.9846832005743837
450,3741.14,1.8011027398507347
451,3743.84,1.7189792791270855
452,3746.55,1.6669697018822376
453,3749.25,1.6720252411585883
454,3751.9599999999996,1.5993566639137407
455,3754.6600000000003,1.6576822031900915
456,3757.36,1.7596517424664424
457,3760.0699999999997,1.8040151652215948
458,3762.7699999999995,1.8211307044979457
459,3765.4700000000003,1.8564182437742964
460,3768.18,1.7146876665294486
461,3770.8799999999997,1.5905422058057996
462,3773.5800000000004,1.6171217450821502
463,3776.29,1.8362231678373027
464,3778.99,1.9562567071136534
465,3781.7000000000003,2.0415041298688057
466,3784.4,2.0487236691451565
467,3787.1,2.0509132084215076
468,3789.81,2.01691263117666
469,3792.51,1.9085051704530105
470,3795.21,1.8437417097293616
471,3797.92,1.6163461324845136
472,3800.62,1.7191806717608644
473,3801.8939600000003,1.765966871292913
474,3803.32,1.8183843896930716
475,3806.03,1.9093455688627499
476,3808.73,2.075273540729219
477,3811.44,2.1540657198988966
478,3814.14,2.1010716917653656
479,3816.84,2.1645146636318344
480,3819.5499999999997,2.164293842801513
481,3822.25,2.1138958146679814
482,3824.95,2.0052517865344504
483,3827.66,1.8566319657041288
484,3830.3599999999997,1.8499849375705975
485,3833.07,1.7478211167402757
486,3835.77,1.6779540886067448
487,3838.47,1.6905060604732136
488,3841.1800000000003,1.7463142396428917
489,3843.88,1.9432302115093605
490,3846.58,1.9967761833758295
491,3849.2900000000004,2.1370593625455077
492,3851.9900000000002,2.0951523344119765
493,3854.69,2.1716293062784455
494,3857.4,2.2788674854481235
495,3860.1000000000004,2.3168394573145927
496,3862.81,2.3451186364842704
497,3865.5099999999998,2.4405246083507395
498,3868.21,2.5064025802172085
499,3870.92,2.5885997593868866
500,3873.62,2.4519427312533555
501,3876.3199999999997,2.3496807031198244
502,3879.03,2.1601198822895027
503,3881.73,2.0612648541559713
504,3884.43,1.9558658260224404
505,3887.14,1.8349360051921184
506,3889.84,1.7986529770585875
507,3892.55,1.7929161562282654
508,3895.25,1.8333201280947344
509,3897.95,1.8602580999612035
510,3900.6600000000003,2.0071932791308815
511,3903.36,2.1687942509973506
512,3906.06,2.1732352228638194
513,3908.7699999999995,2.239750402033497
514,3911.4700000000003,2.3498123738999666
515,3914.17,2.372154345766435
516,3916.8799999999997,2.2755055249361136
517,3919.58,2.2768094968025823
518,3922.29,2.16718167597226
519,3924.99,2.2284076478387296
520,3927.6899999999996,2.228792619705198
521,3930.4,2.1450157988748764
522,3933.1,2.0490267707413454
523,3935.7999999999997,2.0201527426078143
524,3938.51,2.101594921777492
525,3941.21,2.2617898936439613
526,3943.92,2.255890072813639
527,3946.6200000000003,2.3213890446801084
528,3949.32,2.321016016546577
529,3952.03,2.315657195716255
530,3954.73,2.2854321675827243
531,3957.4300000000003,2.302041139449193
532,3960.14,2.1752153186188714
533,3962.84,2.09404429048534
534,3965.54,1.9036832623518092
535,3968.25,1.878531441521487
536,3970.95,1.8256454133879563
537,3973.66,1.8680955925576344
538,3976.3599999999997,1.9327815644241033
539,3979.06,1.9694545362905722
540,3981.77,2.15500371546025
541,3984.47,2.256412687326719
542,3987.17,2.282485659193188
543,3989.88,2.3330468383628657
544,3992.58,2.439701810229335
545,3995.2799999999997,2.486758782095804
546,3997.9900000000002,2.4939459612654824
547,4000.69,2.4879499331319512
548,4003.3999999999996,2.4127711123016296
549,4006.1000000000004,2.4734560841680984
550,4008.8,2.454372056034567
551,4011.5099999999998,2.4399812352042454
552,4014.2099999999996,2.4160832070707143
553,4016.9100000000003,2.494238178937183
554,4019.62,2.423385358106861
555,4022.3199999999997,2.34832632997333
556,4025.03,2.498342509143008
557,4027.73,2.4356684810094773
558,4030.43,2.415665452875946
559,4033.14,2.436534632045624
560,4035.84,2.414205603912093
561,4038.54,2.354397575778562
562,4041.25,2.47650875494824
563,4043.95,2.421729726814709
564,4046.65,2.394911698681178
565,4049.36,2.3445568778508563
566,4052.06,2.294699849717325
567,4054.77,2.3249800288870026
568,4057.4700000000003,2.280207000753472
569,4060.17,2.362903972619941
570,4062.8799999999997,2.282263151789619
571,4065.58,2.283946123656088
572,4068.28,2.330678095522557
573,4070.99,2.288219274692235
574,4073.6899999999996,2.2754622465587038
575,4076.39,2.2836882184251728
576,4079.1,2.300448397594851
577,4081.7999999999997,2.2573513694613196
578,4084.51,2.3005575486309975
579,4087.21,2.239938520497467
580,4089.91,2.1498984923639357
581,4092.6200000000003,2.163414671533614
582,4095.32,2.063856643400083
583,4098.02,1.9964226152665518
584,4100.7300000000005,2.1025257944362297
585,4103.43,2.121351766302699
586,4106.13,2.0092467381691677
587,4108.84,1.8663059173388459
588,4111.54,2.0071388892053146
589,4114.25,2.108808068374993
590,4116.95,2.1393700402414617
591,4119.650000000001,2.2210390121079304
592,4122.36,2.282903191277609
593,4125.0599999999995,2.319468163144078
594,4127.759999999999,2.365714135010547
595,4130.47,2.3657083141802246
596,4133.17,2.3093082860466936
597,4135.88,2.3857744652163717
598,4138.58,2.3675004370828407
599,4141.28,2.4238594089493097
600,4143.99,2.425584588118988
