,lambda (Angstroms),Total Flux (erg/s/cm^2/Angstrom)
0,100.09,0.006639478837691196
1,101.94999999999999,0.007977079846410884
2,104.09,0.00951604014676669
3,104.712855,0.009963960295310886
4,106.02000000000001,0.009179625633179384
5,107.99,0.007997553801527965
6,110.0,0.006791480511408013
7,114.13,0.004313329920287938
8,117.87,0.002069193549781265
9,120.22644299999999,0.000655241828969306
10,120.89000000000001,0.0006368184115665061
11,125.14000000000001,0.0005188187150965088
12,126.88,0.00047050825163019093
13,128.05,0.00043802362964309635
14,131.04,0.0003550073740528837
15,131.94,0.00033001920507232395
16,134.09,0.0002703252428743634
17,136.9,0.00019230662695377074
18,138.038426,0.00016069864764913473
19,140.09,0.00015868691705101543
20,143.02,0.00015581386799583515
21,147.03,0.00015188188705007633
22,151.14000000000001,0.0001478517925656493
23,155.02,0.0001440472717039111
24,158.489319,0.0001406454839199288
25,159.0,0.00013987609577447406
26,161.95000000000002,0.0001354316840108388
27,166.11,0.0001291643728775654
28,169.98,0.0001233340524404582
29,173.14,0.00011857343380525435
30,177.17,0.00011250225233335197
31,180.05,0.00010816364766503957
32,181.970086,0.00010527114074632599
33,182.13,0.00010534870371364978
34,185.95000000000002,0.00010720172069982068
35,191.16,0.0001097291703223496
36,193.82,0.00011101995373801307
37,197.88,0.00011299005377328898
38,202.02,0.00011499931770859983
39,204.83,0.00011636347558307895
40,208.929613,0.00011835334011755745
41,210.07999999999998,0.00012174106342738076
42,215.97000000000003,0.0001390888506763631
43,219.98,0.0001508998500394901
44,223.04000000000002,0.00015991273265923307
45,227.19,0.00017213725382875358
46,229.82,0.00017990427673885939
47,234.09,0.00019252162586386008
48,239.88329199999998,0.00020962840116717677
49,240.1,0.00020910464792587232
50,246.26,0.00019418414481951683
51,252.0,0.0001803063995454128
52,257.27,0.00016751421408835217
53,260.25,0.00016034093465475808
54,263.87,0.00015160333619582833
55,268.78,0.00013973414050926907
56,273.77,0.00012767340690704275
57,275.42287,0.00012367886286155204
58,278.86,0.00013260899450631583
59,284.05,0.00014609969907749136
60,290.0,0.00016154865108375228
61,296.07,0.00017734148435871093
62,300.88,0.00018983811671234374
63,307.89,0.00020809524232543434
64,316.227766,0.00022982222397664593
65,317.96999999999997,0.00022654627069960422
66,327.64,0.00020836664883666447
67,338.37,0.00018818225411511912
68,347.85,0.00017038174331174077
69,356.77,0.0001536547443997013
70,363.078055,0.00014184595381057976
71,365.92,0.0001461230657019097
72,375.31,0.00016022826918913024
73,384.94,0.00017464469553225414
74,394.81,0.0001895993167312815
75,404.94,0.00020490556885753748
76,414.37,0.00021911194248740864
77,416.86938299999997,0.00022287631265894227
78,422.08000000000004,0.00022763871895789303
79,429.92,0.00023482195294054708
80,440.95000000000005,0.00024501221942889846
81,451.22,0.0002544430114801558
82,459.61,0.0002621451392396542
83,470.32,0.00027201076191238696
84,478.630092,0.0002797538565299092
85,480.16999999999996,0.00027802775465307037
86,490.22,0.00026662341465958874
87,500.49,0.00025521407685729464
88,506.28,0.00025001817161627394
89,512.14,0.00025428978816335825
90,520.47,0.00024635033894786554
91,530.14,0.00023732912653324205
92,540.0,0.00022626882582918947
93,549.5408739999999,0.00022556121054471403
94,550.04,0.00022591625215065474
95,560.26,0.00023087802700543018
96,569.37,0.00023575800848556758
97,579.9499999999999,0.00023210371470509054
98,589.38,0.00024402897850944792
99,600.33,0.0002460202458538502
100,610.09,0.0002604504617425594
101,620.0,0.0002751839940332468
102,630.0699999999999,0.0002864960224860442
103,630.957344,0.00028680155776127125
104,640.3100000000001,0.00029834508618823124
105,650.72,0.00032935627345603375
106,658.25,0.0003500621636699197
107,664.34,0.0003696164553568474
108,675.1400000000001,0.00038600889430903446
109,684.53,0.00039744416178690814
110,695.65,0.0004740882893006415
111,705.33,0.00047646861828741656
112,716.7900000000001,0.000553336852397793
113,724.43596,0.0005789966715310247
114,726.76,0.0005862843554237361
115,735.18,0.0006166101415183191
116,745.4,0.0006881619645452356
117,755.7700000000001,0.0007404241906498465
118,764.53,0.0007946812103872035
119,775.16,0.0008693237151598183
120,784.14,0.0009457197860777938
121,795.0500000000001,0.001002124583262105
122,804.25,0.001063889605360699
123,815.44,0.0011225419949567066
124,824.8800000000001,0.0012404451819796117
125,831.763771,0.0011405971739369665
126,834.4300000000001,0.0010994592857492256
127,844.1,0.0013491885945900797
128,855.8399999999999,0.0014079308204216854
129,865.75,0.0015247847384788583
130,875.77,0.0016510889482601776
131,885.9200000000001,0.0018090927755336698
132,894.11,0.0019344766775405565
133,904.47,0.0019764984253783273
134,914.94,0.003051737464940245
135,925.53,0.021075521459110323
136,934.1,0.04804135055070971
137,944.9100000000001,0.09567493012832808
138,954.992586,0.134837269483183
139,955.86,0.13820690379325548
140,964.7,0.16272601834630906
141,975.8699999999999,0.027894809517984273
142,984.9,0.15013699503993835
143,994.01,0.1586585825487979
144,1005.52,0.22821202966482132
145,1014.83,0.2209753971409445
146,1024.22,0.09348441660397315
147,1036.0800000000002,0.16271706866270796
148,1045.66,0.3106386090946371
149,1055.34,0.30919543951019807
150,1065.1,0.2519357619126644
151,1074.96,0.3028578742987627
152,1084.91,0.24676537767012963
153,1094.94,0.32676127302840197
154,1096.4782,0.3248578315858181
155,1105.08,0.3142117223422982
156,1115.3,0.30707191843167053
157,1125.62,0.2787665831716238
158,1136.04,0.354969716562158
159,1143.91,0.3274942493628782
160,1154.5,0.3509050294594
161,1165.18,0.3665925813414446
162,1175.96,0.2601534018740702
163,1184.1100000000001,0.368269046896417
164,1195.07,0.26743261100008825
165,1206.12,0.19556374688928238
166,1214.49,0.12371302294290727
167,1225.72,0.2661990024031471
168,1234.22,0.3964070377025272
169,1245.6399999999999,0.4346343575988708
170,1254.2700000000002,0.42085525214400615
171,1258.92541,0.4018156919914897
172,1265.88,0.3733753477778941
173,1274.6499999999999,0.46678774333694034
174,1286.45,0.4876557064608566
175,1295.3600000000001,0.39458520514171197
176,1304.34,0.400991605383472
177,1316.41,0.49329517452802024
178,1325.54,0.4732822781145758
179,1334.73,0.4286759830390496
180,1343.9799999999998,0.5024718893014416
181,1356.41,0.4944388664734991
182,1365.8200000000002,0.449901076303673
183,1375.2800000000002,0.4711153872487787
184,1384.82,0.48096809997777545
185,1394.42,0.4169984140446904
186,1404.0800000000002,0.44067392944952355
187,1413.8100000000002,0.45932964641526125
188,1423.61,0.47111416494190356
189,1433.48,0.4765589850294505
190,1443.42,0.501318706677902
191,1445.43977,0.5041302351637675
192,1446.75,0.5059540762369968
193,1453.42,0.4967179010661612
194,1463.5,0.4657194897135339
195,1473.6399999999999,0.4689452794838076
196,1483.86,0.47655977075128275
197,1494.1399999999999,0.48542356314165896
198,1504.5,0.4614462570292364
199,1511.44,0.4150767869114554
200,1518.42,0.442711217542275
201,1525.43,0.43965944873454504
202,1535.9999999999998,0.3882867465522762
203,1546.6499999999999,0.4189279458672087
204,1553.79,0.40192447949243104
205,1564.5600000000002,0.4170022810531656
206,1575.4,0.4447637839239514
207,1586.32,0.46465678829193846
208,1593.65,0.47545502547301405
209,1604.69,0.4711170320868033
210,1615.82,0.47545854038494395
211,1623.28,0.4572101799989718
212,1634.53,0.48766079054291456
213,1645.8600000000001,0.4955795025840587
214,1653.4499999999998,0.46786254463103877
215,1659.58691,0.48951390287634666
216,1664.91,0.5082946870021882
217,1672.6,0.46894463801191516
218,1676.4599999999998,0.5130029655668626
219,1684.19,0.5298011220434804
220,1695.87,0.5047976183755496
221,1703.7,0.488789988519394
222,1715.51,0.4667977026188578
223,1723.4199999999998,0.46680098369648343
224,1735.37,0.4967302169300645
225,1743.3799999999999,0.4865533116749168
226,1755.46,0.5165751626758925
227,1763.5700000000002,0.4832122710879713
228,1775.79,0.4910634412230643
229,1783.99,0.5036508619356471
230,1796.35,0.5322706512048573
231,1804.6499999999999,0.5334920855846669
232,1812.9799999999998,0.49332202406464426
233,1825.54,0.5106631406683076
234,1833.97,0.4944657928155118
235,1846.68,0.4583078299200152
236,1855.2099999999998,0.4583035957344459
237,1863.77,0.4733163656490445
238,1876.69,0.5142038314547238
239,1885.3500000000001,0.47223371503654915
240,1894.05,0.4520251040852651
241,1905.46072,0.482053195488103
242,1907.18,0.4865770607251069
243,1915.99,0.46682070864915476
244,1924.83,0.4583115512880405
245,1933.7099999999998,0.47989978688004337
246,1947.12,0.4978985244125612
247,1956.1100000000001,0.4657433406256362
248,1965.1299999999999,0.509493051553549
249,1974.2,0.5273854536728582
250,1983.3200000000002,0.49902944698356383
251,1997.06,0.488802826379298
252,2006.28,0.5059818020727964
253,2015.5400000000002,0.4944586707194121
254,2024.85,0.5201429305574241
255,2034.1899999999998,0.48991718511027393
256,2043.5800000000002,0.5071303308545202
257,2053.02,0.48878966779016286
258,2067.25,0.49558246086158186
259,2072.0099999999998,0.5273702222825204
260,2076.79,0.4967191801800174
261,2086.37,0.51656299245157
262,2096.0,0.4921672959145191
263,2105.68,0.5036306905688646
264,2115.4,0.5082865781763272
265,2125.1600000000003,0.5177452587369068
266,2134.97,0.49329633048888294
267,2144.83,0.4967082934322555
268,2154.73,0.5165460493287451
269,2164.67,0.5071088981783519
270,2174.66,0.5047811382193552
271,2184.7,0.4955664694517548
272,2187.7616199999998,0.5019296088992414
273,2194.79,0.5165393172908146
274,2204.92,0.5071045401574512
275,2215.09,0.4910325686425147
276,2225.32,0.4776528055552188
277,2235.59,0.5013143480863498
278,2245.9100000000003,0.48877489764051457
279,2256.2799999999997,0.4743657542177131
280,2266.69,0.48541841641333855
281,2277.15,0.49557788563199784
282,2282.4,0.503649823050541
283,2292.94,0.4811672035060542
284,2303.52,0.4846541895799945
285,2314.15,0.46837038267696846
286,2324.83,0.3852788827969762
287,2335.5699999999997,0.4486342913446244
288,2346.35,0.4416311055106997
289,2357.1800000000003,0.4636622266998086
290,2362.61,0.4408470894012732
291,2373.52,0.44920132182723616
292,2384.47,0.4291515598716261
293,2395.48,0.45055160634365654
294,2406.53,0.43642405843411397
295,2417.64,0.44367461895221194
296,2423.2200000000003,0.4593458027227778
297,2434.4,0.4439221730731229
298,2445.64,0.46286995185110863
299,2456.93,0.45878973765212805
300,2462.59,0.45677763265954785
301,2473.96,0.4455212296974213
302,2485.38,0.4581643337583284
303,2496.85,0.4317073448422693
304,2502.6,0.4690963524911499
305,2511.88643,0.44328186346401116
306,2514.16,0.43696133327360975
307,2519.9500000000003,0.45135621851774993
308,2525.76,0.4351056026746505
309,2537.42,0.43829306881397245
310,2543.2700000000004,0.43137265079639386
311,2555.0099999999998,0.4508281125867575
312,2566.8,0.44583717165902215
313,2572.72,0.463716449836105
314,2584.59,0.4617548045594113
315,2596.52,0.4598105560209989
316,2602.51,0.4484101303927432
317,2614.52,0.44651827750537243
318,2626.5899999999997,0.45604362135628296
319,2632.64,0.46140529246630846
320,2644.7999999999997,0.4844459314246408
321,2657.0,0.486882268208494
322,2663.13,0.46185393496956123
323,2675.42,0.47607526686083623
324,2687.77,0.47516289549039253
325,2693.97,0.4612577584461212
326,2706.4,0.46786118272671917
327,2712.64,0.45519914350796864
328,2725.16,0.4553721628959885
329,2737.7400000000002,0.4704856790222895
330,2744.05,0.43414773599820045
331,2756.72,0.43834814723192334
332,2763.07,0.4476137020333552
333,2775.8300000000004,0.46139250837449997
334,2782.2200000000003,0.4520256610014526
335,2795.07,0.39843716245001926
336,2807.9700000000003,0.41931096118048694
337,2814.44,0.4619709094584812
338,2827.4300000000003,0.4685902032963708
339,2833.9500000000003,0.4527753488562661
340,2847.0299999999997,0.4488172378015775
341,2853.5899999999997,0.4447907811869936
342,2866.77,0.46380466469610715
343,2873.37,0.4607063059070441
344,2884.0315,0.461718528655363
345,2886.64,0.46196632342476746
346,2893.29,0.4588857160264419
347,2913.35,0.476394893709087
348,2926.7900000000004,0.4668361787566817
349,2947.0800000000004,0.46179295618344485
350,2967.5099999999998,0.46636333345445374
351,2988.0800000000004,0.46559231056970846
352,3008.79,0.4680429875292089
353,3029.6499999999996,0.4683570643218299
354,3050.6499999999996,0.4665198409586966
355,3071.79,0.4657677174398091
356,3093.09,0.4660806937429168
357,3107.36,0.4641400778671114
358,3128.9,0.4602000539032119
359,3150.5899999999997,0.4615802297724328
360,3172.43,0.4597788054747742
361,3187.07,0.44744988918733275
362,3209.17,0.45504876460041627
363,3231.4100000000003,0.4460315398577456
364,3246.33,0.4555740232587957
365,3268.83,0.4601101982268672
366,3291.4900000000002,0.4583214730169339
367,3306.6800000000003,0.4574993561176008
368,3311.31121,0.4594986619244797
369,3321.94,0.46408692491967096
370,3329.6,0.4695668620122226
371,3337.28,0.4621756986794283
372,3344.97,0.4548895351339612
373,3352.6800000000003,0.46026707116314824
374,3360.41,0.4530158067669895
375,3368.1499999999996,0.45417284215815773
376,3375.92,0.4338404769113074
377,3383.7,0.44201951145178403
378,3391.5,0.4597748455669149
379,3399.32,0.47276957925669993
380,3407.1600000000003,0.4464305125211392
381,3415.0099999999998,0.4548370455729055
382,3422.8799999999997,0.46877737819932597
383,3430.77,0.4645903104004006
384,3438.6800000000003,0.4668502421761295
385,3446.61,0.4428925735265125
386,3454.56,0.45541150445154976
387,3462.52,0.43702503516391406
388,3470.5000000000005,0.4473225654509326
389,3478.5,0.43424209531260527
390,3486.52,0.44446702474893207
391,3494.56,0.4456057537599131
392,3502.6099999999997,0.45296128255822127
393,3510.69,0.44173431071851066
394,3518.78,0.4388102386661272
395,3526.89,0.44196286618839786
396,3535.02,0.45236509328532265
397,3543.17,0.4630300199569017
398,3551.34,0.46313274620313494
399,3559.53,0.4568988720240223
400,3567.73,0.45702179763223677
401,3575.96,0.4315775226024326
402,3584.2000000000003,0.4238024473599554
403,3592.46,0.4219637716921325
404,3600.7400000000002,0.44707559559896365
405,3602.8300000000004,0.43164595115032567
406,3605.55,0.4294761933032944
407,3608.2799999999997,0.4026126352435902
408,3611.01,0.35736187718388596
409,3613.73,0.3233205193368547
410,3616.46,0.3544732612771505
411,3619.19,0.4428364032174463
412,3621.92,0.46053994515774205
413,3624.64,0.4925179873107108
414,3627.37,0.4775622292510066
415,3630.1,0.41965047119130244
416,3632.82,0.4601217133442711
417,3635.55,0.44707465528456697
418,3638.2799999999997,0.4299825972248627
419,3641.01,0.4279330391651585
420,3643.73,0.45425478131812724
421,3646.46,0.502323523258423
422,3649.19,0.4433084651987188
423,3651.92,0.4141160071390146
424,3654.6400000000003,0.4552174492919833
425,3657.37,0.5088547912322792
426,3660.1,0.5209020331725749
427,3662.82,0.44837057532554364
428,3665.55,0.4292821172658394
429,3668.2799999999997,0.45286955920613525
430,3671.01,0.4543224011464311
431,3673.73,0.4454982432993998
432,3676.4599999999996,0.43141818523969555
433,3679.19,0.48288412717999135
434,3681.92,0.45869976912028715
435,3684.6400000000003,0.4381603112732559
436,3687.37,0.45185365321355164
437,3690.1,0.40385359515384744
438,3692.82,0.48290293730681616
439,3695.55,0.43663637924711196
440,3698.2799999999997,0.48013452118740774
441,3701.01,0.4775945631277036
442,3703.73,0.46386730528067227
443,3706.4599999999996,0.4816933472209681
444,3709.19,0.4444103891612639
445,3711.92,0.4552668311015597
446,3714.6400000000003,0.5074708732545284
447,3717.37,0.4801868151948242
448,3720.1,0.54970715713512
449,3722.82,0.7416373992880887
450,3725.55,1.2184089412283845
451,3728.2799999999997,1.6795228831686804
452,3731.01,1.728693825108976
453,3733.73,1.3367357672619447
454,3736.4599999999996,0.8158326092022405
455,3739.19,0.5750289511425365
456,3741.91,0.5238793932955051
457,3744.6400000000003,0.516663835235801
458,3747.37,0.4985383771760967
459,3750.1,0.4661936191163925
460,3752.82,0.4705732612693613
461,3755.55,0.514071503209657
462,3758.2799999999997,0.5174854451499529
463,3761.01,0.5501438870902486
464,3763.73,0.5699515292432173
465,3766.4599999999996,0.5382720711835132
466,3769.19,0.4848258131238089
467,3771.91,0.4620098552767776
468,3774.6400000000003,0.49018539721707344
469,3777.37,0.5449960391573693
470,3780.1,0.5850441810976651
471,3782.82,0.6143785232506338
472,3785.5499999999997,0.6462137651909295
473,3788.28,0.6186494071312254
474,3791.01,0.6162494490715212
475,3793.73,0.5407238912244898
476,3796.46,0.5094297331647857
477,3799.19,0.4999901751050815
478,3801.8939600000003,0.5197505976330045
479,3801.91,0.5198678173291281
480,3804.6400000000003,0.5570792713668548
481,3807.37,0.5704047254045812
482,3810.1000000000004,0.6059174794423078
483,3812.82,0.6373531336483943
484,3815.5499999999997,0.6184746876861209
485,3818.28,0.6357226417238474
486,3821.01,0.617246895761574
487,3823.73,0.6126086499676606
488,3826.46,0.602415904005387
489,3829.19,0.5501603580431136
490,3831.91,0.5104985122492002
491,3834.6400000000003,0.47358306628692676
492,3837.37,0.4788358203246533
493,3840.1000000000004,0.4787124743623798
494,3842.82,0.5304262285684663
495,3845.5499999999997,0.5584615826061929
496,3848.28,0.5942370366439195
497,3851.0,0.625690190850006
498,3853.73,0.6753698448877326
499,3856.46,0.6763670989254592
500,3859.19,0.6551769529631857
501,3861.91,0.6865603071692722
502,3864.64,0.7022322612069988
503,3867.37,0.7398986152447253
504,3870.1000000000004,0.7667428692824518
505,3872.82,0.7452588234885384
506,3875.5499999999997,0.690025977526265
507,3878.28,0.6253021315639916
508,3881.0,0.615830485770078
509,3883.73,0.6161798398078046
510,3886.46,0.5863040938455312
511,3889.19,0.5853400478832578
512,3891.9100000000003,0.5741698020893443
513,3894.64,0.5680398561270709
514,3897.37,0.5628555101647974
515,3900.1000000000004,0.588806864202524
516,3902.82,0.6210830184086105
517,3905.5499999999997,0.647069372446337
518,3908.28,0.6823543264840636
519,3911.0,0.7044740806901502
520,3913.7300000000005,0.7069072347278768
521,3916.46,0.6993411887656032
522,3919.19,0.6839124428033297
523,3921.9100000000003,0.6720593970094163
524,3924.64,0.6737045510471429
525,3927.37,0.6372268050848694
526,3930.1000000000004,0.604496659122596
527,3932.82,0.5750968133286826
528,3935.5499999999997,0.5491086673664092
529,3938.28,0.6043745214041356
530,3941.0,0.6410636756102222
531,3943.7299999999996,0.6488203296479487
532,3946.46,0.6486968836856752
533,3949.19,0.6651218377234018
534,3951.9100000000003,0.6587149919294885
535,3954.64,0.6566301459672149
536,3957.37,0.6537222000049414
537,3960.09,0.627001654211028
538,3962.82,0.5850954082487546
539,3965.5499999999997,0.5459209622864811
540,3968.28,0.5286537163242077
541,3971.0,0.5196720705302943
542,3973.7299999999996,0.5323848245680207
543,3976.46,0.5381102786057473
544,3979.19,0.5665308326434738
545,3981.9100000000003,0.5932556868495604
546,3984.64,0.649081940887287
547,3987.37,0.6766267949250135
548,3990.09,0.6755609491311001
549,3992.82,0.6949805031688265
550,3995.5499999999997,0.7239261572065532
551,3998.28,0.7151518112442797
552,4001.0,0.7027561654503662
553,4003.7299999999996,0.6965910194880929
554,4006.46,0.7015107735258194
555,4009.19,0.721858327563546
556,4011.9100000000003,0.7212829817696325
557,4014.64,0.712771235807359
558,4017.37,0.7124373898450855
559,4020.09,0.7150317440511721
560,4022.8199999999997,0.7304934980888987
561,4025.55,0.7437488521266252
562,4028.28,0.7316997061643519
563,4031.0,0.7445558603704383
564,4033.73,0.7250643144081649
565,4036.46,0.7014926684458914
566,4039.1899999999996,0.713732322483618
567,4041.9100000000003,0.7294252766897046
568,4044.64,0.7357810307274312
569,4047.3700000000003,0.7164119847651577
570,4050.09,0.7181307389712441
571,4052.8199999999997,0.6947865930089707
572,4055.55,0.7297914470466973
573,4058.28,0.7208069010844238
574,4061.0,0.7216324552905105
575,4063.73,0.701423009328237
576,4066.46,0.7278119633659634
577,4069.18,0.72895281757205
