,lambda (Angstroms),Total Flux (erg/s/cm^2/Angstrom)
0,100.04,0.007656532778994032
1,101.89999999999999,0.009207430542346448
2,104.03,0.010983458539585822
3,104.712855,0.011552834011487371
4,105.97,0.010678214216780483
5,107.94,0.009307647758388207
6,109.94,0.007916210800038662
7,114.07000000000001,0.005042892457214072
8,118.08000000000001,0.002253061224903559
9,120.22644299999999,0.000759757821563159
10,121.11,0.0007313219873391954
11,125.07000000000001,0.0006038569128172439
12,127.10000000000001,0.0005385157796926074
13,127.99,0.0005098701808494419
14,130.97,0.00041395354123524624
15,131.87,0.00038499538646934807
16,134.02,0.0003157958910119249
17,137.14000000000001,0.00021539399285947836
18,138.038426,0.00018648132498516563
19,140.01,0.000184260583082191
20,142.94,0.00018114102290016666
21,146.95,0.0001770332352210138
22,151.06,0.0001725517718291639
23,154.94,0.00016838127397651728
24,158.489319,0.00016460807243262796
25,158.91,0.00016390426408435658
26,161.87,0.00015898205572691145
27,166.01999999999998,0.00015212491708049353
28,169.89000000000001,0.00014578664091383385
29,173.05,0.0001406421983565614
30,177.08,0.00013413616663003988
31,179.95000000000002,0.00012957288646251708
32,181.970086,0.00012635792811055145
33,182.04000000000002,0.0001264080945127355
34,185.85,0.00012925825207002172
35,191.06,0.00013317511654599583
36,194.16,0.0001356047571516618
37,198.23,0.0001388500775081329
38,201.91,0.0001420130146658267
39,205.19,0.00014472305813246683
40,208.929613,0.0001477431236738977
41,209.96999999999997,0.00015155016726712777
42,215.86,0.00017420170929250426
43,219.87,0.00018951934219942423
44,222.93,0.00020110942736031583
45,227.07000000000002,0.00021716680669563979
46,230.23,0.00023869754372453424
47,233.97,0.00027110480558784625
48,239.88329199999998,0.0003075044214859977
49,239.97,0.0003074983148394246
50,246.13,0.0002927594216964949
51,251.86,0.00028610675067230855
52,257.14,0.000263686085121226
53,260.11,0.0002689821469987419
54,263.73,0.0002668052298595527
55,269.25,0.0002566763940561482
56,274.26,0.0002478266537889277
57,275.42287,0.0002458674347631182
58,278.72,0.00025948370802776426
59,283.9,0.00028084094042404097
60,289.84,0.00030050258220664413
61,295.90999999999997,0.00032718513348953986
62,300.72,0.0003441967850003686
63,307.72,0.00037479925040074266
64,316.227766,0.00041188494977488374
65,317.80999999999995,0.00041055191545028014
66,328.21999999999997,0.0003986495448909742
67,338.19,0.00038618950536395397
68,347.67,0.00037453345494107014
69,357.41,0.00036236452254456296
70,363.078055,0.0003574726755515112
71,365.73,0.00036556763502147217
72,375.11,0.00038912514985669675
73,384.74,0.00040755455357345717
74,394.6,0.0004398639190612306
75,404.73,0.0004672381005410627
76,414.15,0.0004893954695973329
77,416.86938299999997,0.0004954377753018883
78,421.85,0.000503084904646588
79,429.7,0.0005151098836167262
80,440.72,0.0005351518079799011
81,450.99,0.0005504741872185403
82,460.43,0.0005632250378526937
83,470.07,0.0005780488471867232
84,478.630092,0.000592303634371448
85,479.90999999999997,0.0005913888253380821
86,489.96,0.0005778125805740582
87,500.21999999999997,0.0005716645909940695
88,506.01,0.0005658019553539005
89,511.87000000000006,0.0005911390047750765
90,520.19,0.0005828350292092378
91,529.86,0.000571254165540769
92,539.71,0.000552078163458616
93,549.5408739999999,0.0005526461386496446
94,549.75,0.0005528486822396359
95,559.97,0.0005679379616242349
96,570.38,0.0005773384428760622
97,579.65,0.0005699280129245193
98,590.42,0.0005830489871879373
99,600.02,0.0005770919341636858
100,609.77,0.0005650760615609304
101,619.67,0.000608618569379671
102,629.74,0.0006119492683427739
103,630.957344,0.000612472760146828
104,639.97,0.0006256480265921507
105,650.37,0.0006491201860204927
106,657.9,0.0006598524403950519
107,665.52,0.0006815037081685101
108,674.78,0.0006946902645441301
109,685.74,0.0006924001517878444
110,695.2800000000001,0.0007569975720711504
111,704.96,0.0007434892243082994
112,716.41,0.0008101992733904644
113,724.43596,0.0008267812447390352
114,726.38,0.000830301340744917
115,734.7900000000001,0.0008468258530633471
116,745.01,0.0008888184090555416
117,755.3700000000001,0.0009163354507462592
118,764.1199999999999,0.00092540915690396
119,774.75,0.0009852128995846868
120,785.53,0.001021315598370974
121,794.6300000000001,0.0010528317687749829
122,805.6800000000001,0.001084226268551279
123,815.01,0.0011101959583171474
124,824.45,0.0011712067225604268
125,831.763771,0.0011057635567611156
126,835.92,0.0010641192118579722
127,845.5999999999999,0.0012056948921869075
128,855.39,0.0012247643484286713
129,865.29,0.0012746072805832642
130,875.31,0.0013252589410063973
131,885.4499999999999,0.0013896344296980712
132,895.6999999999999,0.0014363410943025736
133,903.9899999999999,0.0014441758971875812
134,914.46,0.0020040199136177415
135,925.0400000000001,0.010728920105960731
136,935.7600000000001,0.023161703431283685
137,944.41,0.04455312771897431
138,954.992586,0.061830506881311635
139,955.3499999999999,0.06241425050259537
140,964.19,0.07363327386063206
141,975.35,0.01398901778322138
142,984.38,0.06920333907542403
143,995.78,0.07097365512538084
144,1004.99,0.09745136551310912
145,1014.2900000000001,0.09179773544860022
146,1026.04,0.038459860850967996
147,1035.53,0.06762725872062503
148,1045.1100000000001,0.1243347561380449
149,1054.78,0.12319503310322757
150,1064.54,0.10132699961617307
151,1074.39,0.11901585567688137
152,1084.33,0.09766649128535249
153,1094.3700000000001,0.12489853528022675
154,1096.4782,0.1240747175293341
155,1104.49,0.1209419782768016
156,1114.71,0.11819036346462629
157,1125.03,0.10779981230399527
158,1135.44,0.13228322842975407
159,1145.94,0.12120551184190273
160,1153.89,0.12837062213967243
161,1164.56,0.13318444375944635
162,1175.34,0.09674138539591898
163,1186.21,0.12925827431878142
164,1194.4299999999998,0.09281374647572067
165,1205.49,0.06931093633651725
166,1213.8400000000001,0.041336521240464046
167,1225.07,0.08761854930888589
168,1236.41,0.13042682739400646
169,1244.98,0.14398521233135061
170,1253.61,0.1397375754596214
171,1258.92541,0.1318704403776707
172,1265.21,0.12257130587459454
173,1273.98,0.15391463261785
174,1285.77,0.16079293744145112
175,1294.68,0.1328470678043253
176,1303.65,0.13163459971846458
177,1315.72,0.15968841178130308
178,1324.84,0.15391514757360522
179,1334.02,0.13942278491717253
180,1346.3600000000001,0.16117120396070414
181,1355.7,0.1571418454409785
182,1365.09,0.14332848821397381
183,1374.56,0.14973263305532267
184,1384.08,0.15180877918939245
185,1393.6799999999998,0.13438832739181575
186,1406.57,0.13942346065527791
187,1416.3200000000002,0.1433307127358641
188,1426.1399999999999,0.1459863666262596
189,1436.03,0.1456581223264645
190,1442.65,0.15286459348271889
191,1445.43977,0.15464266226855958
192,1445.98,0.15498697733324074
193,1456.0,0.15147059476071345
194,1466.1,0.14202061392413406
195,1476.26,0.1416939343895156
196,1486.49,0.14365975637385153
197,1493.35,0.14566030523138276
198,1503.7,0.13942632981964054
199,1510.64,0.12629098041311965
200,1517.6200000000001,0.1340773318745727
201,1524.62,0.13103368377001273
202,1535.1899999999998,0.11652421313212717
203,1545.83,0.12600044401319602
204,1556.55,0.11978627663021275
205,1563.73,0.12228803243153552
206,1574.5700000000002,0.1298326676524741
207,1585.49,0.13501190460936055
208,1596.48,0.1384686430852014
209,1603.85,0.1350122030094004
210,1614.96,0.13563234408916308
211,1626.16,0.1295307871218671
212,1633.66,0.13688164986698145
213,1644.99,0.1387854957206008
214,1656.39,0.12924064309317457
215,1659.58691,0.13404214489793947
216,1664.03,0.14071591654398288
217,1671.7199999999998,0.12747013514967578
218,1675.5700000000002,0.14333684524485363
219,1683.3000000000002,0.14803377018919775
220,1694.97,0.14007751949068492
221,1706.7199999999998,0.1356404814694745
222,1714.6,0.13165083018376061
223,1726.48,0.1313498127631666
224,1734.4499999999998,0.13975647573941788
225,1746.47,0.13658068050410305
226,1754.54,0.14567855932698234
227,1766.7,0.1334782862769467
228,1774.8500000000001,0.1384900777771284
229,1783.05,0.1407331772006241
230,1795.41,0.15114203584384445
231,1803.69,0.14907184794464254
232,1816.2,0.1410663303578049
233,1824.5800000000002,0.14270595830523097
234,1833.0,0.1378683925913083
235,1845.71,0.1269034066977266
236,1854.22,0.1298663552457691
237,1867.0800000000002,0.13566569312212942
238,1875.6999999999998,0.14304075910146272
239,1884.35,0.1344321298347844
240,1893.05,0.13198240849142007
241,1905.46072,0.137251363659855
242,1906.17,0.13755223029111424
243,1914.97,0.13473673276089207
244,1923.81,0.131070627060078
245,1937.15,0.12896850216767303
246,1946.0900000000001,0.14236997604037918
247,1955.07,0.13597744174249338
248,1968.6200000000001,0.14839547395448086
249,1977.71,0.15010251718746728
250,1982.2699999999998,0.14500718573998853
251,1996.01,0.14204477914166438
252,2005.22,0.14335429786287507
253,2014.4799999999998,0.14041550637084588
254,2023.78,0.1426938067082247
255,2033.12,0.14171059887501167
256,2047.2099999999998,0.14769942078400822
257,2056.66,0.1413777904816674
258,2066.15,0.14137685200873465
259,2075.69,0.15322510332256195
260,2085.27,0.1608037464657974
261,2094.9,0.15251687939579292
262,2104.57,0.15111950415519654
263,2114.28,0.15428422074400822
264,2124.04,0.15463342711958
265,2133.8399999999997,0.1433275253245599
266,2143.69,0.15180341331629987
267,2153.59,0.15569419109479993
268,2163.5299999999997,0.14903386070270808
269,2173.5099999999998,0.14869282214002433
270,2183.5499999999997,0.15179507132145267
271,2187.7616199999998,0.15478454479963305
272,2193.63,0.15895216675304163
273,2203.75,0.15390841488405047
274,2213.92,0.1433213711579991
275,2224.14,0.14168463557488745
276,2234.41,0.15641060813471558
277,2244.7200000000003,0.14937878720889552
278,2255.08,0.13942117442601526
279,2265.49,0.14103626978607475
280,2275.95,0.147005873289074
281,2286.45,0.15501328330642508
282,2297.0099999999998,0.14451090309530384
283,2307.61,0.15010442939853444
284,2312.93,0.14310589580732566
285,2323.61,0.11567683513925989
286,2334.33,0.12814158098554593
287,2345.11,0.11782833660335967
288,2355.93,0.13889169873552526
289,2366.81,0.11947157063921854
290,2377.73,0.12875574905726367
291,2383.21,0.11119254152346213
292,2394.21,0.12121283297021086
293,2405.2599999999998,0.11778173255989935
294,2416.3599999999997,0.12262414029252762
295,2427.52,0.1406136577966836
296,2433.11,0.13686696817734956
297,2444.34,0.14716749708162122
298,2455.63,0.14699783575742062
299,2466.96,0.14450168094757182
300,2472.65,0.13682490761411728
301,2484.06,0.1335644658329721
302,2495.5299999999997,0.12860483382335466
303,2507.05,0.15264670995667698
304,2511.88643,0.12740626985215167
305,2512.83,0.12248173813801805
306,2518.62,0.11894457319060338
307,2524.43,0.11738480698257589
308,2536.08,0.12448137267560162
309,2547.78,0.1257909352170953
310,2553.66,0.1441547645969229
311,2565.44,0.13533622209596524
312,2577.29,0.14719727518286269
313,2583.2300000000005,0.14393420078085178
314,2595.15,0.14019774945560431
315,2607.1299999999997,0.13313779434851836
316,2613.14,0.12840701553436254
317,2625.2,0.14356815538482526
318,2637.32,0.1601606914534495
319,2643.4,0.18569160822714875
320,2655.6000000000004,0.20150913925332165
321,2667.86,0.16978826649765605
322,2674.01,0.1824523788592104
323,2686.35,0.1878005010610935
324,2692.54,0.1690479109014222
325,2704.97,0.18178292743054753
326,2717.46,0.16298114017783435
327,2723.7200000000003,0.16011804560601817
328,2736.29,0.17296335331085366
329,2742.6,0.13531275558750538
330,2755.2599999999998,0.14718645761958318
331,2767.98,0.16084305586982245
332,2774.36,0.17126165373432925
333,2787.1600000000003,0.1459715469421172
334,2793.59,0.10203304165509193
335,2806.48,0.11201162919012214
336,2812.9500000000003,0.1680215213818712
337,2825.94,0.19315230261383728
338,2832.4500000000003,0.18800999228436066
339,2845.53,0.176922067843569
340,2852.0800000000004,0.15456775499286673
341,2865.2499999999995,0.1952607248793173
342,2871.8500000000004,0.204600908877083
343,2884.0315,0.20014204278877978
344,2885.11,0.19974733967812647
345,2891.7599999999998,0.20453943110005018
346,2911.8100000000004,0.23746920523682766
347,2931.99,0.22361857920591346
348,2952.3100000000004,0.2184766529944082
349,2972.7799999999997,0.22765802658941245
350,2993.38,0.23077610001672502
351,3007.2,0.23647528218980557
352,3028.0499999999997,0.23915485529463407
353,3049.04,0.24467412821887147
354,3070.1699999999996,0.2514684009625178
355,3091.45,0.2549253735126737
356,3112.88,0.26200894586933915
357,3127.2499999999995,0.2558221273329547
358,3148.93,0.2587449993671361
359,3170.75,0.2671761712207264
360,3192.7299999999996,0.24759834286792687
361,3207.4700000000003,0.263850823854266
362,3229.7,0.24340119517898245
363,3252.09,0.27941416629730903
364,3267.1,0.30190254693536545
365,3289.75,0.30049401771830864
366,3311.31121,0.2991635308553268
367,3312.55,0.2990870593588787
368,3320.19,0.2958846709670778
369,3327.84,0.3143594823286909
370,3335.5099999999998,0.3316922931971316
371,3343.2000000000003,0.3006648035724001
372,3350.9100000000003,0.29812761345449634
373,3358.63,0.32264282309000647
374,3366.3700000000003,0.2931313322323443
375,3374.13,0.26206734088150985
376,3381.9100000000003,0.27907264903750323
377,3389.71,0.31990005670032434
378,3397.52,0.2987821641165593
379,3405.36,0.31744907079303586
380,3413.21,0.3090307772229264
381,3421.07,0.3290943834062307
382,3428.9599999999996,0.3181650888497766
383,3436.8700000000003,0.31549419380015037
384,3444.79,0.26202879850393795
385,3452.73,0.3354601027145533
386,3460.69,0.3068946064319963
387,3468.6699999999996,0.30854360965626715
388,3476.66,0.30036951263395184
389,3484.68,0.3169377148718781
390,3492.71,0.30360671686321833
391,3500.7599999999998,0.29151461836138626
392,3508.83,0.32431211936638193
393,3516.92,0.29533411987820535
394,3525.03,0.3116353198968565
395,3533.15,0.33417301966892154
396,3541.3,0.3526089187012282
397,3549.46,0.3545143174869487
398,3557.6400000000003,0.332643915779497
399,3565.85,0.3534329133322869
400,3574.0699999999997,0.28818761063849063
401,3582.2999999999997,0.29175610769810834
402,3590.56,0.25963630401796756
403,3598.8399999999997,0.33316439984465457
404,3607.14,0.31478729517816934
405,3615.4500000000003,0.31503069026509795
406,3623.79,0.30669668461226823
407,3632.14,0.39446657871285234
408,3640.51,0.35429247232026423
409,3648.9,0.3347404654345038
410,3654.6400000000003,0.4957844238940671
411,3657.38,0.3622488563294683
412,3660.1099999999997,0.2913280890114557
413,3662.84,0.3187773216934431
414,3665.57,0.32096095437543043
415,3668.2999999999997,0.31681298705741784
416,3671.04,0.38070971949281907
417,3673.77,0.3420533521748065
418,3676.4999999999995,0.29727158485679384
419,3679.23,0.33150131753878126
420,3681.96,0.31693405022076865
421,3684.7000000000003,0.3153314826561699
422,3687.43,0.27817921533815726
423,3690.1600000000003,0.27740314802014465
424,3692.89,0.29713818070213205
425,3695.6299999999997,0.3371276131375333
426,3698.36,0.2997812458195207
427,3701.09,0.306610478501508
428,3703.8199999999997,0.37217071118349543
429,3706.55,0.3707397438654828
430,3709.29,0.3507002763008841
431,3712.02,0.32703590898287144
432,3714.75,0.34707424166485884
433,3717.48,0.3841423743468462
434,3720.21,0.3028142070288336
435,3722.95,0.3904847394642349
436,3725.6800000000003,0.5809787721462223
437,3728.41,0.7212692048282097
438,3731.14,0.6773247375101971
439,3733.8700000000003,0.5833213701921844
440,3736.61,0.47289210262758563
441,3739.3399999999997,0.34398033530957306
442,3742.07,0.3468553679915604
443,3744.7999999999997,0.3067798006735478
444,3747.54,0.36759553310894905
445,3750.27,0.2978270657909365
446,3753.0,0.36631049847292385
447,3755.73,0.37648753115491124
448,3758.46,0.3869798638368986
449,3761.2000000000003,0.3871843962722999
450,3763.93,0.35760092895428724
451,3766.66,0.2834172616362746
452,3769.3900000000003,0.389562894318262
453,3772.12,0.4079879270002494
454,3774.8599999999997,0.34218375943565066
455,3777.59,0.40923599211763806
456,3780.3199999999997,0.4408821247996254
457,3783.05,0.4900314574816128
458,3785.78,0.47257749016360023
459,3788.5200000000004,0.4128742225990015
460,3791.25,0.40645805528098883
461,3793.98,0.3070328879629762
462,3796.7099999999996,0.3251910206449636
463,3799.44,0.33635055332695096
464,3801.8939600000003,0.4108709887748403
465,3802.18,0.41955728723200164
466,3804.9100000000003,0.3921450339404986
467,3807.64,0.41657418064899554
468,3810.3700000000003,0.42077142735749246
469,3813.11,0.46731037387078245
470,3815.8399999999997,0.44851022057927936
471,3818.57,0.38480646728777634
472,3821.3,0.3528335139962733
473,3824.0299999999997,0.38747566070477024
474,3826.77,0.4112478072180602
475,3829.5,0.39567395392655713
476,3832.23,0.34821170063505413
477,3834.96,0.3265728473435511
478,3837.69,0.33085489405204804
479,3840.4300000000003,0.38077844056533794
480,3843.16,0.4508872872738349
481,3845.8900000000003,0.4563945339823319
482,3848.62,0.44700668069082883
483,3851.35,0.4766274273993258
484,3854.09,0.45446477391261575
485,3856.82,0.4718226206211127
486,3859.5499999999997,0.45592126732960964
487,3862.28,0.4840864140381066
488,3865.0099999999998,0.5111600607466036
489,3867.75,0.5204855072598935
490,3870.48,0.49352215396839044
491,3873.21,0.4961669006768874
492,3875.94,0.43915854738538435
493,3878.68,0.4793052938986743
494,3881.4100000000003,0.4042848406071713
495,3884.14,0.36898838731566824
496,3886.87,0.38537573402416514
497,3889.6,0.38343528073266214
498,3892.34,0.3133617272459521
499,3895.0699999999997,0.41101647395444907
500,3897.8,0.420380920662946
501,3900.5299999999997,0.443378867371443
502,3903.26,0.4359439140799399
503,3906.0,0.4371064605932299
504,3908.7300000000005,0.44819320730172685
505,3911.46,0.4280830540102238
506,3914.19,0.5114132007187207
507,3916.92,0.4536165474272177
508,3919.66,0.45853919394050763
509,3922.39,0.4601285406490046
510,3925.1200000000003,0.38643008735750156
511,3927.85,0.3928469340659985
512,3930.5899999999997,0.40398018057928853
513,3933.32,0.3030390272877854
514,3936.0499999999997,0.32051787399628234
515,3938.78,0.3601816207047793
516,3941.5099999999998,0.4346693674132763
517,3944.2500000000005,0.41847471392656627
518,3946.98,0.47178426063506324
519,3949.71,0.4696498073435601
520,3952.44,0.4955589540520571
521,3955.17,0.47333810076055405
522,3957.91,0.46554904727384405
523,3960.6400000000003,0.447658493982341
524,3963.37,0.39996574069083796
525,3966.1000000000004,0.3503077873993348
526,3968.83,0.2981269341078318
527,3971.5699999999997,0.3055124806211218
528,3974.3,0.37594872732961876
529,3977.0299999999997,0.40784977403811573
530,3979.7599999999998,0.4499759207466127
531,3982.4900000000002,0.49120466745510954
532,3985.23,0.5010518139683996
533,3987.96,0.5312668606768964
534,3990.69,0.45573680738539346
535,3993.4199999999996,0.5237354540938903
536,3996.1600000000003,0.5389558006071804
537,3998.89,0.5828649473156773
538,4001.6200000000003,0.5766188940241743
539,4004.35,0.5498253407326712
540,4007.08,0.5728233874411681
541,4009.82,0.5090927339544582
542,4012.5499999999997,0.5624872806629551
543,4015.2799999999997,0.5043390273714521
544,4018.01,0.582914474079949
545,4020.74,0.5870876207884459
546,4023.48,0.6010583673017359
547,4026.21,0.5562647140102328
548,4028.9399999999996,0.5325885607187298
549,4031.67,0.5440756074272267
550,4034.4,0.5212241541357238
551,4037.1400000000003,0.5729785006490137
552,4039.87,0.5635907473575106
553,4042.6,0.5734768940660077
554,4045.33,0.5749572407745045
555,4048.0699999999997,0.5600720872877946
556,4050.8,0.5703341339962915
557,4053.53,0.5374272807047884
558,4056.2599999999998,0.5193063274132854
559,4058.9900000000002,0.5327342741217823
560,4061.73,0.5507201206350724
561,4064.4599999999996,0.5511815673435693
562,4067.19,0.5652765140520661
563,4069.92,0.5447175607605631
564,4072.65,0.5285979074690601
565,4075.39,0.5288626539823501
566,4078.12,0.511190500690847
567,4080.85,0.511069647399344
568,4083.58,0.5405811941078409
569,4086.3100000000004,0.5568595408163378
570,4089.05,0.49937578732962784
