,lambda (Angstroms),Total Flux (erg/s/cm^2/Angstrom)
0,100.05999999999999,2.144360178565358
1,101.92,2.138395478694743
2,104.05,2.131564758652378
3,104.712855,2.129439119603317
4,105.99000000000001,2.107923845858205
5,107.96,2.074736723990184
6,109.97,2.040876733384813
7,114.09,1.9714708487756927
8,118.1,1.9039184608067874
9,120.22644299999999,1.8681181977349115
10,121.13000000000001,1.855366088872411
11,125.10000000000001,1.7993034573095765
12,127.13000000000001,1.7706357271570192
13,128.01,1.758209725429162
14,131.0,1.7159847838789415
15,131.9,1.7032855556561324
16,134.05,1.6729233988838672
17,136.85,1.6333984136506843
18,138.038426,1.6166162830823254
19,140.04000000000002,1.5964147031888483
20,142.97,1.567052476329847
21,146.98,1.5270787710542169
22,151.1,1.4855366295463373
23,154.97,1.4465327654117517
24,158.489319,1.4110679405179167
25,158.95,1.407560314873358
26,161.9,1.3850983188514494
27,166.06,1.3534359529968258
28,169.92,1.3240446393817182
29,173.08,1.2999878669921479
30,177.11999999999998,1.269227022633331
31,179.99,1.2473772206086264
32,181.970086,1.2323024584833364
33,182.07999999999998,1.2316645688875403
34,185.89000000000001,1.2095566364519068
35,191.1,1.1793196272498996
36,194.2,1.1613430030529277
37,197.81,1.1403959677267765
38,201.95999999999998,1.116320599205024
39,204.76999999999998,1.1000206523168012
40,208.929613,1.0758102233402498
41,210.02,1.07103957636144
42,215.9,1.0455097120232995
43,219.92000000000002,1.0280090381594689
44,222.98,1.0146450020243143
45,227.12,0.9966304691943992
46,229.75,0.9863661536043806
47,234.01999999999998,0.9702293621445408
48,239.88329199999998,0.9458623255206822
49,240.01999999999998,0.9454314708730959
50,246.18,0.9242102977807625
51,251.92,0.9051991437856339
52,257.19,0.8862488461611864
53,260.16999999999996,0.8770805556619734
54,263.79,0.8651552960622577
55,268.69,0.8485734042615383
56,273.69,0.8316205899138652
57,275.42287,0.8257460402866641
58,278.78,0.8169988042438637
59,283.96000000000004,0.8035375426083319
60,289.90999999999997,0.7877135537972482
61,295.98,0.7720452745042601
62,300.79,0.7594672237712665
63,307.79,0.7413285669935208
64,316.227766,0.7194698783351524
65,317.87,0.7162916704834353
66,328.28999999999996,0.6959895976542182
67,338.26,0.6765177693205043
68,347.74,0.657984242015228
69,356.66,0.6405954501710228
70,363.078055,0.6280980771116438
71,365.81,0.6241049524607661
72,375.18999999999994,0.6103477529229326
73,384.82000000000005,0.5960704364485895
74,394.69,0.5817644498751976
75,404.81000000000006,0.566986895365296
76,414.24,0.5531645446401605
77,416.86938299999997,0.5493017577434341
78,421.95000000000005,0.54357679458202
79,429.79,0.5347727885014104
80,440.81,0.522444730566676
81,451.08000000000004,0.5108987110503673
82,460.53,0.5003065375782039
83,470.17,0.48950884269337264
84,478.630092,0.4800550370804033
85,480.02000000000004,0.47885680818332194
86,490.07,0.47012626634768867
87,500.33,0.461311314646833
88,506.11999999999995,0.4562920425057069
89,511.98,0.4513591214095067
90,520.3,0.4441889353207038
91,529.98,0.4358073853904618
92,539.83,0.42725653085504
93,549.5408739999999,0.41888766165856617
94,549.87,0.4186704076720963
95,560.09,0.41200963598434615
96,570.5,0.405204414508859
97,579.77,0.39905533975979407
98,590.5500000000001,0.3920061681713452
99,600.15,0.3856316921593686
100,609.9,0.3789724002097049
101,619.8100000000001,0.37278030885984137
102,629.88,0.3661486351097784
103,630.957344,0.365444605744289
104,640.11,0.36069431282012787
105,650.51,0.3552693603552535
106,658.0500000000001,0.3513067289682195
107,665.67,0.34738168020837895
108,674.93,0.34256412830600036
109,684.32,0.3376136066728108
110,695.43,0.3319093005242768
111,705.11,0.326805604414663
112,716.5699999999999,0.3209351897600995
113,724.43596,0.3168473025395043
114,726.53,0.3160366219647891
115,734.95,0.31278372322000403
116,745.17,0.30883526786231963
117,755.54,0.30483062587022697
118,764.29,0.3013225875297437
119,774.9200000000001,0.29735647870467663
120,785.7,0.29317701424520126
121,794.8,0.2896900850910988
122,805.85,0.2854464466896885
123,815.1899999999999,0.2818479939205328
124,824.6199999999999,0.27823157917073194
125,831.763771,0.27538526512921163
126,834.1700000000001,0.27465854540673434
127,845.78,0.2714301798481478
128,855.5699999999999,0.26860234224706586
129,865.48,0.26576295437406044
130,875.5,0.26289602516845867
131,885.64,0.2599911356909335
132,895.89,0.2570513178808119
133,904.18,0.25464613217877213
134,914.6500000000001,0.25204563670345764
135,925.2399999999999,0.2529393839562199
136,935.96,0.2551630399977317
137,944.62,0.26102852854059483
138,954.992586,0.26490877678869906
139,955.5600000000001,0.26512453687780907
140,964.4,0.26550013083172624
141,975.57,0.23901955377123454
142,984.59,0.2548416534708196
143,995.9899999999999,0.25293062069645933
144,1005.21,0.2616606175578977
145,1014.51,0.2575593260840775
146,1023.9,0.2351127839830912
147,1035.75,0.2409533580729009
148,1045.34,0.259839830133768
149,1055.01,0.2559777438593764
150,1064.77,0.24344374695781873
151,1074.6200000000001,0.2471895494290951
152,1084.57,0.23516697898129818
153,1094.6,0.2431851501982426
154,1096.4782,0.24227954043210842
155,1104.73,0.2387184010243749
156,1114.95,0.23442317157018963
157,1125.27,0.2277638401839674
158,1135.68,0.23481578305891176
159,1146.19,0.22810870400181912
160,1154.13,0.22858673659807832
161,1164.81,0.22723980225652277
162,1175.59,0.21101322598293007
163,1183.74,0.2209415485219115
164,1194.69,0.2052306069638559
165,1205.75,0.19459039728055952
166,1214.1100000000001,0.18601815976226316
167,1225.3400000000001,0.19744523479450385
168,1233.8300000000002,0.2095876667645593
169,1245.25,0.2110164641259297
170,1253.8799999999999,0.2066754993911334
171,1258.92541,0.20270159785052097
172,1265.48,0.19796927126630814
173,1274.2600000000002,0.20744455645534388
174,1286.05,0.20766884513173706
175,1294.96,0.1952718430627517
176,1303.94,0.19300420247021655
177,1316.0,0.20086398684148887
178,1325.12,0.1969959392018541
179,1334.31,0.18986372303866944
180,1343.56,0.19615021814101347
181,1355.99,0.1922828503163796
182,1365.3899999999999,0.1854504385825455
183,1374.85,0.18593164811424007
184,1384.38,0.1845769891223848
185,1393.98,0.17711230160697972
186,1403.6399999999999,0.17684422535710337
187,1416.63,0.17544221934407084
188,1426.45,0.17475400646893774
189,1436.3400000000001,0.17268391507025477
190,1442.97,0.17375718491117817
191,1445.43977,0.1737882355930524
192,1446.29,0.17384077130717046
193,1456.3200000000002,0.17135495645135876
194,1466.4099999999999,0.16668381592342857
195,1476.5800000000002,0.1652684344993403
196,1483.3899999999999,0.16509914071388898
197,1493.68,0.16445523794556366
198,1504.0300000000002,0.16096505950511988
199,1510.97,0.1560328467634117
200,1517.95,0.15752111357362453
201,1524.9499999999998,0.15548760515979781
202,1535.52,0.1497681792549195
203,1546.17,0.15144592245388314
204,1553.3,0.14867765508379968
205,1564.07,0.1478620369385263
206,1574.9099999999999,0.14853920550911465
207,1585.83,0.148790023183545
208,1596.82,0.14807964757383707
209,1604.19,0.14647320751527954
210,1615.3100000000002,0.1451323229493148
211,1626.51,0.1418765274871921
212,1634.02,0.14292797086035802
213,1645.3400000000001,0.14209720405399826
214,1656.75,0.1379409687394607
215,1659.58691,0.13867961039803056
216,1664.39,0.1400938947015642
217,1672.08,0.13559065186257446
218,1675.9299999999998,0.13925126706021937
219,1683.6699999999998,0.14004495039262763
220,1695.34,0.1367212247969176
221,1703.1599999999999,0.13464233400356262
222,1714.97,0.1320393836877669
223,1726.8600000000001,0.13082338924620798
224,1734.83,0.13204733696704699
225,1746.8500000000001,0.13024883457112282
226,1754.92,0.13160293463475778
227,1763.0199999999998,0.12800952440123156
228,1775.2399999999998,0.12778109669089932
229,1783.43,0.12754277556588944
230,1795.79,0.1287179231354716
231,1804.0800000000002,0.12753906435325768
232,1816.59,0.1240097904370338
233,1824.97,0.12381879076333627
234,1833.4,0.1218050772610367
235,1846.1,0.11829091479612519
236,1854.6299999999999,0.11773106363662161
237,1863.19,0.11790260217995682
238,1876.1,0.11893276763491682
239,1884.76,0.11593709852104801
240,1893.4599999999998,0.1142204823442976
241,1905.46072,0.11448291387822694
242,1906.59,0.11453164933144584
243,1915.3899999999999,0.11298126196561836
244,1924.23,0.11181710906630987
245,1933.1100000000001,0.11164992063352033
246,1946.51,0.11238777691737396
247,1955.49,0.11010763965088184
248,1969.05,0.11176833380081136
249,1978.1399999999999,0.11175589381724639
250,1982.7,0.11008754300040854
251,1996.4399999999998,0.10842886724967336
252,2005.6599999999999,0.10849848678229507
253,2014.91,0.10699226466480596
254,2024.2099999999998,0.10729302313046558
255,2033.5600000000002,0.1056676421792739
256,2042.94,0.10619925957797144
257,2057.1,0.10411629072568544
258,2066.6,0.10350429152393988
259,2076.14,0.1048188567887133
260,2085.7200000000003,0.10681203652000563
261,2095.35,0.10439394683444674
262,2105.02,0.1037008716154068
263,2114.74,0.10384402697951554
264,2124.5,0.10301436681014325
265,2134.3,0.10037958110728994
266,2144.16,0.10160809210421509
267,2154.05,0.10174753145102944
268,2163.9900000000002,0.09962679138099251
269,2173.98,0.0987950918941043
270,2184.02,0.09921673299036478
271,2187.7616199999998,0.09931249157421466
272,2194.1,0.09959441386701992
273,2204.23,0.09834744306605639
274,2214.4,0.09531919216321347
275,2224.62,0.09503107613302125
276,2234.89,0.09798300497547976
277,2245.21,0.09615629869058898
278,2255.57,0.09311743230381878
279,2265.98,0.0925936107896993
280,2276.44,0.09327817414823056
281,2286.9500000000003,0.09553251237941252
282,2297.5,0.09245493050871509
283,2302.8,0.09377161700969172
284,2313.43,0.09108751493523544
285,2324.11,0.08541351773342987
286,2334.84,0.08689825540427501
287,2345.61,0.08440438297324075
288,2356.44,0.08825923038938735
289,2367.32,0.08374652267818467
290,2372.77,0.08509171379711349
291,2383.73,0.08162795588215198
292,2394.73,0.08291643786531103
293,2405.7799999999997,0.08176908472112082
294,2416.89,0.08233943142411146
295,2422.46,0.08627929223740201
296,2433.64,0.08529385376210369
297,2444.87,0.08740997015945606
298,2456.16,0.08734503640398932
299,2467.5,0.0850639575211733
300,2473.1800000000003,0.08317804305429541
301,2484.6,0.08005885396772056
302,2496.07,0.0798083697537964
303,2507.59,0.08440555041252298
304,2511.88643,0.07906266116686156
305,2513.37,0.0772326849412148
306,2519.16,0.07663552932478122
307,2524.9700000000003,0.07608902505336856
308,2536.62,0.07835007352807474
309,2542.47,0.07832773194670403
310,2554.21,0.0851598814740045
311,2566.0,0.08075576936385734
312,2577.84,0.08410902561626257
313,2583.7900000000004,0.08220931075999663
314,2595.71,0.08047520239248568
315,2607.6899999999996,0.07822966806003762
316,2613.7,0.07703644723883452
317,2625.77,0.08014005395898074
318,2637.89,0.08881701904167935
319,2643.97,0.09671828792804962
320,2656.17,0.10795258839083204
321,2662.3,0.09144055563975467
322,2674.58,0.09520054148262092
323,2686.9300000000003,0.09930392703306049
324,2693.12,0.08964563831704603
325,2705.5600000000004,0.09541634492007989
326,2718.04,0.08619121421315568
327,2724.31,0.08143402087722501
328,2736.8799999999997,0.08629752122289511
329,2743.1899999999996,0.07534942057700636
330,2755.8500000000004,0.07935372197527071
331,2762.21,0.08464686969193436
332,2774.96,0.08620592214279303
333,2787.77,0.07626842862871458
334,2794.1899999999996,0.06677321038044107
335,2807.0899999999997,0.06836211791895691
336,2813.56,0.08221906803323578
337,2826.5499999999997,0.09189392662434594
338,2833.06,0.08969382942866672
339,2846.14,0.08100744907237115
340,2852.7000000000003,0.07218904023924431
341,2865.87,0.08935622093554306
342,2872.48,0.10002812046496862
343,2884.0315,0.09598946853714467
344,2885.73,0.09541032204008737
345,2892.3900000000003,0.10382563334188763
346,2912.44,0.12047109218589597
347,2932.6200000000003,0.1114966087730325
348,2952.95,0.10678266737147087
349,2973.42,0.10913654584712426
350,2987.15,0.10962752594828305
351,3007.8500000000004,0.10970288350793252
352,3028.7,0.11302142307888383
353,3049.69,0.11490186252705012
354,3070.83,0.12031430398651824
355,3092.12,0.11854097745728819
356,3113.5499999999997,0.12876541080527312
357,3127.92,0.12258234748798631
358,3149.61,0.12239520632222772
359,3171.4399999999996,0.12918933503368416
360,3193.42,0.1173033757564424
361,3208.16,0.12480586140036673
362,3230.4,0.11171952760938142
363,3252.79,0.13788553582969795
364,3267.81,0.15297476122805231
365,3290.46,0.15028744493462529
366,3311.31121,0.14403506002122768
367,3313.27,0.14345957910688836
368,3320.9,0.1388874387927434
369,3328.56,0.14749995677356248
370,3336.23,0.1489450275193696
371,3343.92,0.1419480037951527
372,3351.63,0.14091648560091188
373,3359.36,0.15182427293664708
374,3367.1,0.1456180130373703
375,3374.86,0.11596428866806949
376,3382.64,0.12896051982874476
377,3390.44,0.14815636651939607
378,3398.26,0.14456212874002336
379,3406.09,0.1480028437256387
380,3413.9399999999996,0.14540096424123006
381,3421.81,0.15227869028679747
382,3429.7,0.14599532186234088
383,3437.6099999999997,0.1479486589678603
384,3445.53,0.10975148883836777
385,3453.4700000000003,0.15331164423885127
386,3461.44,0.13200414793429882
387,3469.4199999999996,0.13995660439473437
388,3477.4100000000003,0.1264787236201579
389,3485.43,0.13931718114054553
390,3493.4700000000003,0.12777666419090916
391,3501.52,0.14107718000626082
392,3509.59,0.1514328613515885
393,3517.6800000000003,0.1320785182268922
394,3525.79,0.13379053063217194
395,3533.9199999999996,0.1533539385674277
396,3542.0600000000004,0.16349028926767148
397,3550.2299999999996,0.16049179826287932
398,3558.4100000000003,0.15096276002307513
399,3566.62,0.15468688007823503
400,3574.84,0.12275286289838293
401,3583.08,0.12006319124850685
402,3591.34,0.11612027512860681
403,3599.62,0.1609082045386828
404,3607.92,0.1387911994787348
405,3616.2300000000005,0.14723324718377484
406,3624.5699999999997,0.1455969531837789
407,3632.92,0.17093241194877098
408,3641.3,0.1714925290087271
409,3649.69,0.14742839883367126
410,3658.11,0.18189982695357942
411,3666.54,0.18216170783847563
412,3674.9900000000002,0.18073859425334787
413,3683.46,0.15696018619819613
414,3691.95,0.15212168367302042
415,3700.46,0.18052048667782072
416,3709.0,0.13825104797758508
417,3717.55,0.19390146204233746
418,3726.12,0.12745499163706586
419,3734.7000000000003,0.15198885399678227
420,3743.32,0.16528873741645075
421,3751.94,0.11062518083611925
422,3760.5899999999997,0.15369026255075177
423,3769.2599999999998,0.15110890979536032
424,3777.95,0.17551066256994488
425,3786.66,0.1990511208745055
426,3795.3900000000003,0.15852418470904212
427,3801.8939600000003,0.14915712157990058
428,3804.14,0.14593194523473266
429,3812.91,0.18169547025634722
430,3821.7000000000003,0.14796958621301678
431,3830.5099999999998,0.11907794310474136
432,3839.34,0.1099788609315209
433,3848.19,0.15852957969335546
434,3857.06,0.16389335939024502
435,3865.9500000000003,0.16385143002218955
436,3874.86,0.14011509158918906
437,3883.8,0.14844823955877107
438,3892.75,0.1385074829958806
439,3901.7200000000003,0.1799678173680451
440,3910.72,0.1823715381427921
441,3919.73,0.1958681543850666
442,3928.77,0.16825245702992359
443,3937.82,0.08294235514230806
444,3946.8999999999996,0.15599183965727506
445,3956.0,0.19537511510729702
446,3965.12,0.15532008149237397
447,3976.5499999999997,0.17103550087630265
448,3979.29,0.12549005897883675
449,3982.0299999999997,0.15620411708137083
450,3984.7700000000004,0.16186997518390492
451,3987.51,0.237044333286439
452,3990.25,0.18520909138897307
453,3992.9900000000002,0.21291804949150717
454,3995.73,0.21792860759404126
455,3998.4599999999996,0.21030617022904785
456,4001.2,0.22522412833158195
457,4003.94,0.21857148643411603
458,4006.6800000000003,0.30819434453665007
459,4009.42,0.1984995026391842
460,4012.1600000000003,0.2681076607417183
461,4014.9,0.21303181884425237
462,4017.6400000000003,0.16277967694678644
463,4020.38,0.19420173504932053
464,4023.12,0.24470899315185463
465,4025.8500000000004,0.2758596557868612
466,4028.59,0.20787831388939532
467,4031.3300000000004,0.2823260719919294
468,4034.07,0.2961590300944635
469,4036.81,0.2868367881969976
470,4039.55,0.29356044629953165
471,4042.29,0.2999272044020657
472,4045.03,0.21926926250459983
473,4047.77,0.22753472060713392
474,4050.5,0.2117037832421405
475,4053.2400000000002,0.2005114413446746
476,4055.98,0.22570789944720868
477,4058.7200000000003,0.22789185754974275
478,4061.46,0.20917621565227687
479,4064.2,0.2557291737548109
480,4066.94,0.26523663185734503
481,4069.68,0.22275188995987913
482,4072.42,0.32246754806241323
483,4075.16,0.3080202061649473
484,4077.8900000000003,0.23795606879995387
485,4080.63,0.22396562690248797
486,4083.37,0.255057985005022
487,4086.11,0.22757704310755614
488,4088.85,0.2856219012100902
489,4091.59,0.2121302593126243
490,4094.33,0.23729821741515839
491,4097.07,0.22059547551769249
492,4099.8099999999995,0.23094513362022656
493,4102.55,0.18439189172276066
494,4105.28,0.22707715435776724
495,4108.02,0.21489971246030132
496,4110.76,0.2327584705628354
497,4113.5,0.2446357286653695
498,4116.24,0.27789788676790356
499,4118.98,0.24026694487043768
500,4121.72,0.23646940297297175
501,4124.46,0.25793986107550587
502,4127.2,0.21314251917803992
503,4129.9400000000005,0.209530577280574
504,4132.67,0.2200811399155806
505,4135.41,0.2073469980181147
506,4138.15,0.2553704561206488
507,4140.889999999999,0.25432801422318285
508,4143.63,0.22521967232571694
509,4146.37,0.27581263042825105
510,4149.11,0.2585673885307851
511,4151.85,0.2575535466333192
512,4154.59,0.26120800473585326
513,4157.32,0.2998534673708599
514,4160.0599999999995,0.269131825473394
515,4162.8,0.19426968357592805
516,4165.54,0.20967294167846215
517,4168.28,0.25011599978099625
518,4171.0199999999995,0.2744415578835303
519,4173.76,0.2386236159860644
520,4176.5,0.2922429740885985
521,4179.24,0.2976103321911326
522,4181.9800000000005,0.2775385902936666
523,4184.71,0.25963785292867325
524,4187.45,0.30981681103120734
525,4190.19,0.3065760691337414
526,4192.93,0.2599084272362755
527,4195.67,0.2218777853388096
528,4198.41,0.28350584344134366
529,4201.150000000001,0.3136845015438777
530,4203.89,0.24900095964641183
531,4206.63,0.17626611774894593
532,4209.37,0.21305437585148004
533,4212.099999999999,0.26763143848648663
534,4214.84,0.2619351965890207
535,4217.58,0.2520276546915548
536,4220.320000000001,0.26835891279408886
537,4223.06,0.29242757089662297
538,4225.8,0.284333028999157
539,4228.54,0.22504568710169115
540,4231.28,0.20537364520422524
541,4234.02,0.23747950330675932
542,4236.76,0.23403886140929342
543,4239.49,0.2306849240443
544,4242.2300000000005,0.24336158214683407
545,4244.97,0.27698074024936814
546,4247.71,0.26107739835190225
547,4250.45,0.24898565645443635
548,4253.19,0.2582932145569704
549,4255.93,0.1974642726595045
550,4258.67,0.2597918307620386
551,4261.41,0.28227578886457266
552,4264.15,0.26324614696710674
553,4266.88,0.24881430960211337
554,4269.62,0.25539526770464743
555,4272.36,0.26732962580718156
556,4275.1,0.24568738390971562
557,4277.84,0.24343164201224968
558,4280.58,0.25796410011478377
559,4283.32,0.2342091582173179
560,4286.0599999999995,0.23777781631985195
561,4288.8,0.22541487442238606
562,4291.53,0.19378073705739263
563,4294.27,0.22417359515992671
564,4297.01,0.2610476532624608
565,4299.75,0.2078560113649949
566,4302.49,0.202588069467529
567,4305.23,0.20866942757006307
568,4307.97,0.22254518567259715
569,4310.71,0.23623544377513125
570,4313.45,0.2626738018776653
571,4316.19,0.26084635998019945
572,4318.92,0.271782622615206
573,4321.66,0.2825462807177401
574,4324.4,0.3153803388202742
575,4327.14,0.28829899692280825
576,4329.88,0.2697403550253423
577,4332.62,0.2907254131278765
578,4335.36,0.29881957123041053
579,4338.099999999999,0.2950077293329446
580,4340.84,0.24749798743547868
581,4343.58,0.2389037455380128
582,4346.3099999999995,0.20551370817301937
583,4349.05,0.24724156627555346
584,4351.79,0.24574242437808758
585,4354.53,0.24886858248062163
