,lambda (Angstroms),Total Flux (erg/s/cm^2/Angstrom)
0,101.98,14.487705756318897
1,104.11999999999999,14.441202285412224
2,104.712855,14.428319201011663
3,106.05,14.275687154679249
4,108.02000000000001,14.050816179997321
5,110.03,13.82137939646262
6,113.9,13.37962790389605
7,117.9,12.92303727380408
8,120.22644299999999,12.657481592217007
9,120.92999999999999,12.590151322461056
10,124.89,12.211177223129695
11,126.92,12.016905110538962
12,128.09,11.904935554372175
13,131.07,11.619748053580896
14,131.98,11.532661824580394
15,134.13,11.326905852075527
16,136.94,11.057989718254932
17,138.038426,10.952870067292531
18,140.13,10.809796376471635
19,143.06,10.609396228483298
20,147.07,10.335154820339062
21,150.84,10.077281000217244
22,155.07,9.787943601958284
23,158.489319,9.55406093659027
24,159.04000000000002,9.525584841578231
25,162.0,9.372521700741279
26,166.16,9.157409340781237
27,170.03,8.957292934946775
28,173.19,8.793891161405975
29,176.80999999999997,8.606707544776324
30,180.10000000000002,8.436584227393018
31,181.970086,8.33988497121735
32,182.19,8.331210050096798
33,185.99999999999997,8.180921061158317
34,191.20999999999998,7.975406384198086
35,193.87,7.8704875213667576
36,197.93,7.710339115213679
37,202.08,7.546645157531345
38,204.89000000000001,7.435810234651258
39,208.929613,7.276452340175349
40,210.14000000000001,7.240556090501123
41,216.03,7.065937076900667
42,220.05,6.9467454326397435
43,223.11,6.856006582502324
44,227.26,6.732966792981968
45,229.89,6.655378642848827
46,234.16,6.529601680650532
47,239.88329199999998,6.3604072216503935
48,240.17,6.353882268229904
49,245.76000000000002,6.22605726492285
50,252.07,6.082077347479647
51,256.76,5.974477963842782
52,259.73,5.907025489531163
53,263.95,5.810774000233173
54,268.86,5.698606844054705
55,273.85,5.584612823861111
56,275.42287,5.548676528974877
57,278.95,5.486838550440813
58,284.13,5.396038071395246
59,290.08,5.2915831724780436
60,296.15,5.185224912386041
61,300.96999999999997,5.100662100864877
62,307.98,4.977809775903601
63,316.227766,4.833267243972452
64,318.07,4.809161453175243
65,327.72999999999996,4.682678104237255
66,337.69,4.552221162226659
67,347.95,4.417816255143455
68,356.88,4.300855850682146
69,363.078055,4.219695185980848
70,366.03,4.190753081197249
71,375.42,4.098623914110785
72,385.04999999999995,4.004012470117959
73,394.93,3.907212099306005
74,405.06,3.8078592476749225
75,413.54,3.7246313806500866
76,416.86938299999997,3.691944297079449
77,422.2,3.6519714853258587
78,430.05,3.5931210346186364
79,441.08000000000004,3.510487772725559
80,451.36,3.4334010652631077
81,459.75,3.3704865761658342
82,470.46,3.290196784096491
83,478.630092,3.2289680502648475
84,480.30999999999995,3.219285100467179
85,490.36,3.1612783172737924
86,499.48,3.1087364608893466
87,506.43,3.0686137927257615
88,512.29,3.0349819385532997
89,519.4200000000001,2.993846901684757
90,530.3,2.9310576772962964
91,540.16,2.8740986305692524
92,549.5408739999999,2.819974657312414
93,550.2,2.8170725980075604
94,560.4300000000001,2.772155189038054
95,569.53,2.732165081904867
96,580.12,2.685517273279542
97,589.55,2.6440434872118543
98,600.51,2.595724981356939
99,610.27,2.5524435153547502
100,620.18,2.509248662745972
101,630.26,2.464841632383056
102,630.957344,2.4617763725543584
103,640.5,2.4285255876855687
104,649.41,2.3974053684487786
105,658.4399999999999,2.3658466333737818
106,664.54,2.344623294098314
107,675.3299999999999,2.3069965273962976
108,684.73,2.2740875690701663
109,694.25,2.2409644289058295
110,705.5400000000001,2.2014527623779547
111,715.35,2.1673508738546206
112,724.43596,2.135647474852398
113,725.3,2.1334086451385397
114,735.39,2.1072787721224926
115,745.62,2.0807539595393245
116,754.2600000000001,2.0583565911113126
117,764.75,2.0309723507606354
118,775.39,2.0036165776594723
119,784.3700000000001,1.9802926639970235
120,795.28,1.952074340944985
121,804.4900000000001,1.9282358540651237
122,815.6800000000001,1.8992510128788442
123,825.12,1.8748117557815716
124,831.763771,1.8574782730932156
125,834.68,1.8517750197077962
126,844.3399999999999,1.833223675036824
127,854.12,1.8142718867177645
128,864.0100000000001,1.795136038054626
129,874.02,1.775762565743401
130,884.1400000000001,1.756171037088096
131,894.37,1.7363670570887124
132,904.73,1.7162901261372345
133,915.21,1.69638913553767
134,925.8,1.6790495315940266
135,934.3700000000001,1.6664627910598404
136,945.19,1.6512849281240305
137,953.94,1.6390844071177149
138,954.992586,1.6372701489485215
139,964.98,1.620472819329429
140,973.9100000000001,1.5876573253394735
141,985.1899999999999,1.5792279927732138
142,994.3000000000001,1.5625420949391153
143,1005.82,1.548091902913999
144,1015.12,1.529624522633306
145,1024.52,1.4980778763280898
146,1034.0,1.4872455632032542
147,1045.97,1.4790104390677814
148,1055.65,1.4599906738938986
149,1065.42,1.435204632297945
150,1075.27,1.4209884238823725
151,1085.22,1.3958590494422762
152,1095.26,1.3845128485801086
153,1096.4782,1.3820464913257333
154,1105.4,1.3670429102548494
155,1115.6299999999999,1.3500454868393206
156,1125.95,1.3311082693468215
157,1133.75,1.325558226009468
158,1144.24,1.306441530816027
159,1154.83,1.2916658610926204
160,1165.52,1.275874276839247
161,1176.3,1.2493751385089047
162,1184.46,1.2453899388636729
163,1195.4199999999998,1.219320012379392
164,1203.7,1.2007359272982008
165,1214.84,1.1777023726599807
166,1226.08,1.1712386634917942
167,1234.58,1.1681293484446782
168,1246.0,1.1533723511225527
169,1254.6399999999999,1.1385308097334843
170,1258.92541,1.130276757226976
171,1266.2499999999998,1.1194266542173121
172,1275.03,1.1174318902351374
173,1283.86,1.1092805018225411
174,1295.74,1.0884979631541774
175,1304.73,1.0782067485642288
176,1313.77,1.075266159543858
177,1325.9299999999998,1.0601940600651292
178,1335.12,1.046124677753491
179,1344.3700000000001,1.041474658125346
180,1353.6899999999998,1.03005049829461
181,1366.22,1.012468972030755
182,1375.69,1.0034289789087514
183,1385.22,0.9931475784702408
184,1394.82,0.9777971078291391
185,1404.49,0.9680433469854459
186,1414.23,0.9585388459391612
187,1424.03,0.94832276757637
188,1433.8999999999999,0.9372713290109873
189,1440.5200000000002,0.9315980184230603
190,1445.43977,0.9265220000448084
191,1447.17,0.9253138199478097
192,1453.85,0.9191275326144018
193,1463.93,0.9088604532250676
194,1474.0700000000002,0.9008992754465108
195,1484.29,0.8935334731489917
196,1494.5800000000002,0.8860470943973795
197,1504.9399999999998,0.8763161191916751
198,1511.8899999999999,0.867809874106767
199,1515.3700000000001,0.8668947375318776
200,1525.87,0.857936659417988
201,1536.45,0.8461663767851351
202,1543.54,0.8426627187920419
203,1554.24,0.8330319493807448
204,1565.02,0.8253146154504846
205,1575.8600000000001,0.8185653631310019
206,1586.79,0.8113088782276863
207,1594.11,0.8062693947425746
208,1605.1599999999999,0.7970832430608145
209,1616.29,0.788503876860091
210,1623.75,0.781271620466794
211,1635.0,0.7742146674876266
212,1646.34,0.7658078219246255
213,1653.94,0.7578763426231433
214,1659.58691,0.7546449489606014
215,1665.3999999999999,0.752660968085656
216,1673.0900000000001,0.7454333881898396
217,1676.95,0.7466969553292607
218,1684.69,0.7435609623912088
219,1696.3600000000001,0.7354105763334485
220,1704.1899999999998,0.7301394159193729
221,1716.01,0.7224455507349061
222,1723.9299999999998,0.7179870628448066
223,1735.8799999999999,0.7132242857505277
224,1743.8899999999999,0.7081990403844042
225,1755.98,0.7034242427718659
226,1764.0800000000002,0.6966783599297184
227,1776.3100000000002,0.6906967217989208
228,1784.51,0.6867776428723026
229,1796.8799999999999,0.6819518042232457
230,1805.17,0.6771367778206036
231,1813.5100000000002,0.6704882883757259
232,1826.08,0.664208117557727
233,1834.51,0.6586556506368256
234,1842.9699999999998,0.651796647890583
235,1855.75,0.645236766295195
236,1864.3100000000002,0.6414846874644813
237,1872.9199999999998,0.6386670355915324
238,1885.9,0.6296522118272023
239,1894.61,0.6242577038697824
240,1903.3500000000001,0.6207646100870209
241,1905.46072,0.6195026404368695
242,1916.54,0.6144765897740005
243,1925.3899999999999,0.6102325103806422
244,1934.28,0.6068277962216644
245,1943.21,0.6052340272970668
246,1956.68,0.5984229574746335
247,1965.71,0.5973271966359867
248,1974.78,0.5940570410317203
249,1983.9,0.589566514470429
250,1993.0500000000002,0.5853337493349231
251,2006.8700000000001,0.5803555228133176
252,2016.1299999999999,0.5760818395723575
253,2025.44,0.5727634653743726
254,2034.79,0.5686994864107683
255,2044.1799999999998,0.5662830126815442
256,2053.6099999999997,0.5611339041867005
257,2063.09,0.557443464734832
258,2072.62,0.555737064325939
259,2077.39,0.55758344102579
260,2086.98,0.5571134134684674
261,2096.62,0.5510980249541202
262,2106.29,0.5469695478655582
263,2116.02,0.5447421536285667
264,2125.7799999999997,0.5396375508173605
265,2135.6,0.5336841908577247
266,2145.4500000000003,0.5334973723238738
267,2155.36,0.5302228366415938
268,2165.3,0.5236240123850987
269,2175.3,0.5197425909801743
270,2185.34,0.51902165480963
271,2187.7616199999998,0.5182042423480581
272,2195.43,0.5165970709591794
273,2205.56,0.5128858300250729
274,2215.74,0.5054882663124171
275,2225.97,0.5044351098212118
276,2236.24,0.507845977107167
277,2246.56,0.5032507816145727
278,2256.93,0.4952585933434292
279,2267.35,0.4917460722937363
280,2272.58,0.49226188365747003
281,2283.07,0.49540136671780793
282,2293.61,0.4878696369995963
283,2304.19,0.48902158105854543
284,2314.83,0.4820064657832351
285,2325.51,0.4723884042850854
286,2336.25,0.47007358345267636
287,2347.0299999999997,0.46287324639742783
288,2352.44,0.4701407997583837
289,2363.3,0.45938662025745614
290,2374.21,0.45968435797797913
291,2385.17,0.4509640829199527
292,2396.18,0.4507262650833771
293,2407.24,0.4471982444682519
294,2412.79,0.4477775660492696
295,2423.92,0.4539469195441752
296,2435.11,0.45069587370482167
297,2446.35,0.45256774508691877
298,2457.6400000000003,0.45102294369046625
299,2463.31,0.44526396660296547
300,2474.68,0.4391048627608341
301,2486.1,0.4286314261401533
302,2497.58,0.4275066401852133
303,2503.34,0.4361504340963236
304,2511.88643,0.4229360684567925
305,2514.8900000000003,0.4184969242176487
306,2520.69,0.4155898427875569
307,2526.5,0.4147856070963787
308,2532.32,0.419962147144114
309,2544.0099999999998,0.41849387593415305
310,2555.75,0.43178529341876015
311,2567.55,0.420432665336849
312,2573.47,0.42688769277372085
313,2585.3500000000004,0.4206353606031187
314,2597.28,0.41522387712708486
315,2603.2699999999995,0.41022455473635216
316,2615.2799999999997,0.40567081717162734
317,2627.36,0.410838749779298
318,2633.41,0.430411121822047
319,2645.5699999999997,0.4457863203410269
320,2657.78,0.4697764675545747
321,2663.91,0.4330552755086329
322,2676.2000000000003,0.4394146486334897
323,2682.37,0.4487534095432025
324,2694.75,0.42497451431828215
325,2707.19,0.43640021352684366
326,2713.43,0.4152427646089518
327,2725.96,0.40236240546773594
328,2732.2400000000002,0.4125686195054985
329,2744.85,0.3866281362755919
330,2757.52,0.39443312747916703
331,2763.88,0.40576683742823866
332,2776.6400000000003,0.4070911902820365
333,2783.04,0.3835715431867628
334,2795.88,0.3622720719518697
335,2802.33,0.36448743355116403
336,2815.2599999999998,0.3929436339664938
337,2821.75,0.4152668485214426
338,2834.78,0.4085889963259085
339,2847.8599999999997,0.38704580282494283
340,2854.43,0.36488463329120074
341,2867.6000000000004,0.4033949414404575
342,2874.21,0.4269891748623702
343,2884.0315,0.41789513607678824
344,2887.48,0.41490408514623484
345,2894.14,0.43355130249537915
346,2907.49,0.4696067519114568
347,2927.65,0.44799086226562324
348,2947.94,0.43586736306354185
349,2968.38,0.43932833745040517
350,2988.9500000000003,0.4384429022810205
351,3009.67,0.4366479407005806
352,3030.53,0.44248026113648903
353,3051.54,0.44541575516134224
354,3072.69,0.45510863120254375
355,3086.87,0.45009838114411527
356,3108.27,0.47112834650022456
357,3129.8199999999997,0.4554392854452786
358,3151.51,0.4522544064066809
359,3173.36,0.46574889252962437
360,3188.01,0.43929294638322247
361,3210.1000000000004,0.45361673024847743
362,3232.35,0.42273777927527334
363,3247.27,0.48028140558897203
364,3269.7799999999997,0.5120139355032721
365,3292.4500000000003,0.504136230579113
366,3307.64,0.4873662293529123
367,3311.31121,0.484016299839632
368,3322.91,0.47390905521403526
369,3330.5699999999997,0.49374988333033176
370,3338.25,0.46028351621977787
371,3345.95,0.4915358538823736
372,3353.66,0.46717579393154407
373,3361.3900000000003,0.4663428387538642
374,3369.14,0.46843528834933396
375,3376.9100000000003,0.45941234271795317
376,3384.69,0.44890049947314736
377,3392.4900000000002,0.48920096100149113
378,3400.3100000000004,0.5081896273029844
379,3408.1499999999996,0.48105449837762737
380,3416.0099999999998,0.45950097422541986
381,3423.88,0.5152173524597872
382,3431.7799999999997,0.5029851378538788
383,3439.69,0.49691032563454535
384,3447.6200000000003,0.4278958181883614
385,3455.56,0.4764478131287524
386,3463.53,0.43866661522886763
387,3471.5099999999998,0.4850015197155578
388,3479.52,0.42912873136197227
389,3487.54,0.45963614539496156
390,3495.58,0.44666856420110057
391,3503.64,0.5040363877803891
392,3511.71,0.4925041137462523
393,3519.81,0.48760204687184006
394,3527.92,0.4269656823840025
395,3536.05,0.4829954226693146
396,3544.21,0.5081752701143512
397,3552.38,0.5135784199459624
398,3560.57,0.4942037745507233
399,3568.77,0.43739883154205905
400,3577.0,0.4480035956931191
401,3585.25,0.39704476461732885
402,3593.5099999999998,0.45220913592811335
403,3601.8,0.5211538143986222
404,3610.1,0.4586521952557059
405,3618.42,0.4981603808859392
406,3626.4,0.6043317853726293
407,3629.1400000000003,0.4833319392941244
408,3631.88,0.4076338932156195
409,3634.62,0.48437904713711455
410,3637.36,0.5577715010586097
411,3640.1099999999997,0.5692345573666796
412,3642.8500000000004,0.5988228112881746
413,3645.59,0.5369542652096698
414,3648.3300000000004,0.4050778191311648
415,3651.07,0.42881387305266
416,3653.81,0.6464715269741551
417,3656.55,0.5859614808956501
418,3659.29,0.7480937348171453
419,3662.03,0.6990788887386404
420,3664.77,0.6261938426601354
421,3667.5099999999998,0.48758539658163064
422,3670.25,0.5383791505031257
423,3672.99,0.5771028044246208
424,3675.73,0.5732590583461159
425,3678.47,0.682182412267611
426,3681.2200000000003,0.6115757685756809
427,3683.96,0.574988122497176
428,3686.7,0.5410041764186712
429,3689.44,0.3964394303401662
430,3692.18,0.34612698426166133
431,3694.92,0.5201113381831564
432,3697.66,0.4414786921046515
433,3700.3999999999996,0.4235619460261466
434,3703.14,0.5439628999476417
435,3705.8799999999997,0.5573794538691368
436,3708.6200000000003,0.44793590779063186
437,3711.36,0.383201961712127
438,3714.1000000000004,0.4943371156336221
439,3716.84,0.5361610695551171
440,3719.58,0.5478533234766123
441,3722.32,0.5759874773981074
442,3725.0699999999997,0.5833225337061774
443,3727.81,0.6531702876276724
444,3730.55,0.6601338415491674
445,3733.2900000000004,0.4398485954706626
446,3736.03,0.3224717493921577
447,3738.77,0.4159632033136528
448,3741.51,0.39793325723514783
449,3744.25,0.489883311156643
450,3746.9900000000002,0.46668916507813807
451,3749.73,0.36049391899963323
452,3752.47,0.4187507729211283
453,3755.21,0.3514217268426234
454,3757.95,0.4459670807641185
455,3760.69,0.4584344346856136
456,3763.43,0.3338029886071087
457,3766.1699999999996,0.35296714252860384
458,3768.92,0.3989778988366737
459,3771.66,0.5878362527581689
460,3774.4,0.5204987066796638
461,3777.14,0.424301060601159
462,3779.88,0.513307614522654
463,3782.62,0.5079310684441493
464,3785.3599999999997,0.5602661223656443
465,3788.1,0.5578766762871394
466,3790.8399999999997,0.6374608302086345
467,3793.58,0.5489264841301296
468,3796.32,0.4662704380516247
469,3799.0600000000004,0.6140337919731197
470,3801.8,0.5693730458946149
471,3801.8939600000003,0.5622284287903925
472,3804.54,0.36110295970542833
473,3807.28,0.4041381921324382
474,3810.02,0.533222724559448
475,3812.77,0.599280848710644
476,3815.5099999999998,0.516051081137654
477,3818.2500000000005,0.5570485135646637
478,3820.9900000000002,0.6269842459916736
479,3823.73,0.6389300784186834
480,3826.4700000000003,0.5668472108456932
481,3829.21,0.37687694327270305
482,3831.9500000000003,0.4343769756997129
483,3834.69,0.4352106081267228
484,3837.43,0.2876427805537326
485,3840.17,0.35227427298074243
486,3842.91,0.4715964054077524
487,3845.65,0.5581831378347621
488,3848.39,0.390149170261772
489,3851.1299999999997,0.43507420268878183
490,3853.88,0.5259171268399778
491,3856.62,0.5491229592669877
492,3859.36,0.43890559169399757
493,3862.1,0.3690347241210074
494,3864.84,0.5253154565480171
495,3867.58,0.6579004889750271
496,3870.3199999999997,0.46412452140203697
497,3873.06,0.39786765382904676
498,3875.7999999999997,0.3677684862560566
499,3878.54,0.4468570186830665
500,3881.2799999999997,0.41232525111007634
501,3884.0200000000004,0.5141518835370862
502,3886.76,0.496131515964096
503,3889.5,0.5055518483911059
504,3892.2400000000002,0.42761658081811565
505,3894.98,0.4885479132451255
506,3897.73,0.35374423739632155
507,3900.47,0.5002626698233313
508,3903.2099999999996,0.5690750022503412
509,3905.9500000000003,0.577328334677351
510,3908.69,0.5001074671043609
511,3911.4300000000003,0.4437782995313707
512,3914.17,0.5539650319583806
513,3916.9100000000003,0.5737832643853904
514,3919.65,0.5952125968124002
515,3922.39,0.5116082292394102
516,3925.13,0.5223260616664199
517,3927.87,0.5599881940934298
518,3930.61,0.5394423265204397
519,3933.35,0.6149343589474495
520,3936.0899999999997,0.5479719913744594
521,3938.83,0.5673896238014692
522,3941.58,0.3449082479526652
523,3944.32,0.44780568037967505
524,3947.06,0.4516525128066849
525,3949.8,0.39488794523369475
526,3952.54,0.5692563776607046
527,3955.2799999999997,0.41320581008771445
528,3958.02,0.4706449425147242
529,3960.7599999999998,0.5182782749417342
530,3963.5,0.5651626073687439
531,3966.24,0.5678076397957539
532,3968.9799999999996,0.6150229722227637
533,3971.7200000000003,0.5344840046497735
534,3974.46,0.3498604370767834
535,3977.2000000000003,0.3473934695037932
536,3979.94,0.333466001930803
537,3982.69,0.353500526081999
538,3985.43,0.5067070585090089
539,3988.1699999999996,0.5042575909360187
540,3990.91,0.5872474233630286
541,3993.65,0.6243782557900384
542,3996.3900000000003,0.5888362882170483
543,3999.13,0.7060422206440582
544,4001.8700000000003,0.772033053071068
545,4004.61,0.5949600854980778
546,4007.35,0.6331011179250876
547,4010.09,0.5421380503520974
548,4012.83,0.6291601827791073
549,4015.57,0.7622505152061172
550,4018.31,0.733945447633127
551,4021.0499999999997,0.6700746800601369
552,4023.79,0.8493379124871467
553,4026.54,0.7106398366383427
554,4029.28,0.6440870690653525
555,4032.02,0.7250479014923624
556,4034.76,0.7796479339193723
557,4037.5,0.6723653663463821
558,4040.24,0.803748698773392
559,4042.98,0.7144142312004018
560,4045.72,0.7142725636274116
561,4048.46,0.6816654960544215
562,4051.2,0.7595523284814313
563,4053.9399999999996,0.6279987609084412
564,4056.68,0.667446193335451
565,4059.42,0.7164032257624608
566,4062.1600000000003,0.6915641581894707
567,4064.9,0.6868853906164806
568,4067.6400000000003,0.7064163230434903
569,4070.39,0.7367948471946864
570,4073.1299999999997,0.7549933796216962
571,4075.87,0.647257812048706
572,4078.6099999999997,0.6377892444757159
573,4081.3500000000004,0.6465390769027257
574,4084.09,0.6638232093297356
575,4086.8300000000004,0.7133898417567455
576,4089.57,0.7019618741837553
577,4092.31,0.7208309066107652
578,4095.05,0.7486960390377749
579,4097.79,0.7841374714647849
580,4100.53,0.7400874038917947
581,4103.2699999999995,0.6994770363188046
582,4106.01,0.6933787687458144
583,4108.75,0.6959368011728242
584,4111.5,0.6537646253240202
585,4114.24,0.6650919577510301
586,4116.9800000000005,0.7267895901780399
587,4119.72,0.7786029226050497
588,4122.46,0.7420336550320595
589,4125.2,0.7850426874590695
590,4127.94,0.7893337198860794
591,4130.68,0.7753455523130891
592,4133.42,0.7341605847400989
593,4136.16,0.7193537171671088
594,4138.9,0.6820701495941187
