,lambda (Angstroms),Total Flux (erg/s/cm^2/Angstrom)
0,102.06,0.009550759801108078
1,103.96000000000001,0.011170613239256149
2,104.712855,0.011812463113922499
3,105.89,0.010975095656836104
4,108.11,0.009395888548507923
5,110.11999999999999,0.007966065908682382
6,113.99,0.005213123818917958
7,118.0,0.002360592122810835
8,120.22644299999999,0.0007768022196529573
9,121.02,0.0007506820636679325
10,124.99,0.0006200080476452431
11,127.02,0.0005531898904089024
12,127.89999999999999,0.0005242244610860702
13,130.88,0.0004261368825610921
14,132.09,0.0003863097467023223
15,133.93,0.0003257458271463089
16,137.05,0.00022305128624272125
17,138.038426,0.00019051728593183002
18,139.92,0.0001883309775683475
19,142.85,0.0001849401604002519
20,146.85,0.00018033595340162309
21,150.96,0.00017557834936433194
22,154.84,0.000171094649406062
23,158.489319,0.00016688117276389883
24,159.17000000000002,0.00016567075589228518
25,162.13000000000002,0.00016041357645064631
26,165.91000000000003,0.00015371358628531021
27,170.17000000000002,0.00014616171094024888
28,172.93,0.0001412838680068289
29,176.96,0.00013416397795621923
30,179.82999999999998,0.00012910641677327887
31,181.92,0.00012542400223239196
32,181.970086,0.00012533588169175432
33,186.15,0.00012785029846587877
34,190.92999999999998,0.000130764419088458
35,194.03,0.00013266951610979604
36,198.09,0.00013517536944612904
37,201.78,0.000137499831313141
38,205.06,0.0001395560273060406
39,208.929613,0.00014197184219368183
40,209.83,0.00014515926628847652
41,216.21,0.00016795671930968682
42,220.23000000000002,0.0001823459449562802
43,222.78,0.00019149193568732814
44,226.92000000000002,0.0002063883019800885
45,230.08,0.0002195194673291519
46,233.81,0.00023694407574750836
47,239.81,0.00026177349705585663
48,239.88329199999998,0.0002620410033590732
49,245.96,0.00024553645223757326
50,252.26999999999998,0.00023019829882454354
51,256.96,0.00021550916934639624
52,259.94,0.00021036684679951365
53,264.15999999999997,0.00020073849963580766
54,269.07,0.00018859547949983673
55,274.08,0.00017615720270121882
56,275.42287,0.00017284106408597418
57,279.17,0.00018586526267419377
58,283.71,0.00020202893169477007
59,290.32,0.00022360695934367096
60,295.71,0.00024353984461259305
61,301.21,0.0002624172738665953
62,308.23,0.00028792538182352193
63,316.227766,0.00031738763860848047
64,318.32,0.0003139676151014261
65,328.0,0.00029783829175362547
66,337.96,0.00028081960487923554
67,348.23,0.0002630535369575503
68,357.16999999999996,0.0002482869857871643
69,363.078055,0.00023895521313682043
70,366.33,0.00024683796649547184
71,374.85999999999996,0.00026699330090985333
72,385.36,0.00028862584315498895
73,395.25,0.0003146649994220737
74,405.39,0.00033927600764737607
75,413.88,0.00035907545494844284
76,416.86938299999997,0.0003658388057164438
77,421.57,0.0003731739572989973
78,430.40000000000003,0.0003865121860472205
79,441.44000000000005,0.0004053086043235945
80,450.67999999999995,0.0004197921370114291
81,460.11999999999995,0.0004337845569868794
82,469.75000000000006,0.0004493327348855645
83,478.630092,0.00046405716788259165
84,479.59000000000003,0.0004633128993618997
85,489.63,0.0004526914044128035
86,499.89,0.0004452304868652211
87,505.67,0.0004414348658686298
88,511.53,0.00046562450029077093
89,519.84,0.00046067306941158855
90,529.51,0.0004540687806508555
91,540.59,0.0004392370061452791
92,549.38,0.0004550374077784907
93,549.5408739999999,0.0004552154612673966
94,559.59,0.0004756956367862993
95,569.99,0.0004941276998075113
96,580.59,0.0004899939948099007
97,590.03,0.0005237802243214624
98,599.61,0.0005305324462198481
99,609.36,0.0005494055803022344
100,620.68,0.0006053324504368614
101,629.32,0.0006327769520237145
102,630.957344,0.0006346919466680465
103,639.54,0.0006537849023746489
104,649.9399999999999,0.0007147298126317902
105,657.46,0.0007521326538946462
106,665.0699999999999,0.0007930631066885736
107,674.33,0.0008204585375521438
108,685.2800000000001,0.0008313065738324992
109,694.82,0.000992545496126069
110,704.48,0.0009810491004610677
111,715.9300000000001,0.0011408340785807089
112,724.43596,0.0011952017746473856
113,725.89,0.0012041159839315078
114,734.3,0.0012613124973170548
115,744.51,0.0013986080179670467
116,754.87,0.0014982062308890758
117,765.3699999999999,0.001578299689931673
118,774.23,0.0017454289801333313
119,785.0,0.0018771154852655952
120,794.0899999999999,0.001995311036951044
121,805.14,0.0021138400343244435
122,814.46,0.002226043847493682
123,825.79,0.002452483337108218
124,831.763771,0.0022500565584175065
125,835.35,0.0021246037374719113
126,845.03,0.0026649153754568955
127,854.8100000000001,0.002776030885735113
128,864.71,0.0030169302427652104
129,874.7199999999999,0.0032615709593178644
130,884.8499999999999,0.0035670825226223985
131,895.1,0.0038134999326788124
132,905.46,0.003889035702257783
133,915.9499999999999,0.0057224568058179565
134,924.42,0.03698254148905482
135,935.13,0.0823284253116601
136,945.96,0.15958062898101727
137,954.71,0.2300435553066752
138,954.992586,0.23086786502080936
139,965.76,0.26228346441963746
140,974.7,0.04240413283096749
141,985.99,0.22636266218934736
142,995.11,0.24421827922640887
143,1004.3199999999999,0.3644672855763362
144,1015.95,0.3553646045610977
145,1025.35,0.15486828834929708
146,1034.8300000000002,0.2533766626378215
147,1044.41,0.4973007250517524
148,1054.07,0.49271787796600836
149,1063.8300000000002,0.3914175190056706
150,1076.14,0.4738373572431956
151,1086.1,0.37638857453367064
152,1096.15,0.5088718811370115
153,1096.4782,0.5081736268935427
154,1103.75,0.4927008395762506
155,1113.96,0.4782037449962295
156,1124.27,0.43211981325088006
157,1134.67,0.5591974480567351
158,1145.1699999999998,0.5123795456972619
159,1155.77,0.5515329061724603
160,1163.78,0.5735502292296621
161,1174.55,0.39681432652380244
162,1185.4199999999998,0.5669729866526144
163,1193.6299999999999,0.3931754353791596
164,1204.68,0.28356512861038063
165,1215.82,0.19352868839280615
166,1224.25,0.39863675535562904
167,1235.58,0.6116953445239307
168,1244.1399999999999,0.6784539631718268
169,1255.66,0.6523939817260047
170,1258.92541,0.6198323891460018
171,1264.36,0.5656426117915181
172,1276.06,0.7387703210863442
173,1284.8999999999999,0.7807617547757685
174,1293.81,0.6187774903156746
175,1305.78,0.6173385067480737
176,1314.83,0.7825551459889436
177,1323.95,0.7524975870802952
178,1336.1999999999998,0.670674210914622
179,1345.46,0.8063312557069374
180,1354.79,0.7861495023497347
181,1364.18,0.7055304505786593
182,1373.63,0.7473473003937113
183,1386.3400000000001,0.7612123363883473
184,1395.95,0.659959990433072
185,1405.6299999999999,0.6910737463282787
186,1415.37,0.7186685038096126
187,1425.18,0.7422052631414285
188,1435.06,0.7438914243237262
189,1441.6899999999998,0.7879844995907944
190,1445.43977,0.7962474565596264
191,1448.34,0.8026383630650924
192,1455.03,0.7843523114961641
193,1465.1100000000001,0.7269953351411871
194,1475.27,0.7319950605611706
195,1485.4899999999998,0.7490799873123742
196,1495.79,0.7665069158385386
197,1506.16,0.7286470459177933
198,1513.11,0.6509285001174867
199,1516.6,0.7006745775501384
200,1523.6,0.6831721328591821
201,1534.1599999999999,0.596383267153968
202,1544.79,0.6539312030018444
203,1555.5,0.6230538406246813
204,1566.28,0.6420019798006086
205,1573.51,0.6894947402126637
206,1584.42,0.7269998822729017
207,1595.3999999999999,0.7456285258862303
208,1606.46,0.7353958712745193
209,1613.88,0.7421979359021056
210,1625.0600000000002,0.7071697839528354
211,1636.33,0.7559965340003957
212,1643.88,0.7718383015122928
213,1655.28,0.718664554444164
214,1659.58691,0.7446981749070085
215,1666.75,0.7879973106195447
216,1670.5900000000001,0.7071715328053467
217,1678.3000000000002,0.7989388820377772
218,1686.05,0.8327378377513098
219,1693.8300000000002,0.7861745983256689
220,1705.57,0.7595039005291364
221,1713.45,0.7236473773062508
222,1725.32,0.7219985005733001
223,1733.2900000000002,0.7736126919328942
224,1745.3,0.7595083378838009
225,1753.36,0.8119331438258748
226,1765.5100000000002,0.7507970124606388
227,1773.6599999999999,0.7700561329851924
228,1785.96,0.7880113259240893
229,1794.2,0.8424275610311226
230,1806.6399999999999,0.8385412766538769
231,1814.97,0.7771977263433899
232,1823.35,0.7989682841342807
233,1835.99,0.7718653321625454
234,1844.47,0.7120993061561914
235,1852.98,0.718697485010664
236,1865.82,0.7439316654444392
237,1874.44,0.8045096621219425
238,1883.0900000000001,0.7439303636602725
239,1896.14,0.7170517781198339
240,1904.8899999999999,0.763029995860919
241,1905.46072,0.761349836769647
242,1913.69,0.7371203696043925
243,1926.95,0.7253354001828756
244,1935.8500000000001,0.7508024413705452
245,1944.7800000000002,0.7861987762925554
246,1953.76,0.7371150007717997
247,1967.3,0.8100736728707938
248,1976.38,0.8346999764645062
249,1985.5,0.7916558717040059
250,1994.67,0.7736257565007396
251,2003.8700000000001,0.798956735031814
252,2013.12,0.7753867031201223
253,2027.08,0.8138008874998829
254,2036.4299999999998,0.7736198347026595
255,2045.83,0.8044882714626701
256,2055.2799999999997,0.7629932977799149
257,2064.7599999999998,0.7736166178315002
258,2074.3,0.8346768253517662
259,2079.08,0.7971035270233462
260,2083.87,0.827023626606373
261,2093.4900000000002,0.7861624174182137
262,2103.15,0.7952669998758416
263,2112.86,0.8063391718907037
264,2122.61,0.8194298355513531
265,2137.33,0.7700289612010718
266,2147.19,0.7879874018876363
267,2157.1,0.8194227321314347
268,2167.06,0.7970886519324674
269,2177.06,0.7934180633792872
270,2187.1099999999997,0.7825425643833412
271,2187.7616199999998,0.7849239540822999
272,2197.2,0.8194206999565864
273,2207.35,0.80075059012223
274,2217.54,0.7664932869486251
275,2222.65,0.7473360378596043
276,2232.91,0.7952555463423141
277,2243.21,0.7665012614857751
278,2253.57,0.738769486620363
279,2263.97,0.7559929184157024
280,2274.42,0.7753614585369809
281,2284.92,0.7952657069841985
282,2295.46,0.7525442620921673
283,2306.06,0.7594926271912632
284,2316.7,0.7286604989511104
285,2327.4,0.5922945807020845
286,2332.76,0.6863244732427595
287,2343.53,0.6691748666500483
288,2354.35,0.7186774683832763
289,2365.21,0.6676330767772556
290,2376.13,0.6863287951623619
291,2387.1,0.6434983218734073
292,2392.6,0.6816061377267119
293,2403.65,0.6584922777592598
294,2414.74,0.6738108244525592
295,2425.89,0.7104689811369854
296,2437.08,0.686342044482163
297,2442.7,0.7220089803177214
298,2453.98,0.7137525586495894
299,2465.3,0.7104822436422088
300,2476.68,0.6879361386259552
301,2482.39,0.7007454894482038
302,2493.85,0.6524785977534527
303,2505.3599999999997,0.7320778143846408
304,2511.14,0.6600290768632043
305,2511.88643,0.6624126462573017
306,2516.93,0.6785170761140918
307,2522.7300000000005,0.6554783023206044
308,2534.3700000000003,0.6646163521557434
309,2546.07,0.6554781981240533
310,2557.82,0.6991209408700054
311,2563.72,0.6832085606318026
312,2575.5499999999997,0.7187006982219826
313,2587.4399999999996,0.7121370319453333
314,2593.41,0.7039860471958298
315,2605.38,0.6832033757634084
316,2617.3999999999996,0.6754090011086292
317,2623.44,0.7023630118478251
318,2635.5499999999997,0.7237054313928022
319,2647.7099999999996,0.7772299477154216
320,2653.81,0.7934930545877883
321,2666.06,0.7287174651101639
322,2672.21,0.7577875687601728
323,2684.5400000000004,0.7595527741267764
324,2696.94,0.725360074982079
325,2703.15,0.7456853747652589
326,2715.63,0.7121271704647893
327,2721.8900000000003,0.7105067670256114
328,2734.45,0.7405663575693697
329,2747.08,0.6584955436018273
330,2753.41,0.6722925356513487
331,2766.1200000000003,0.695929816528034
332,2772.4900000000002,0.7236981059996693
333,2785.2900000000004,0.6879559810761109
334,2798.1499999999996,0.5775227522857231
335,2804.6,0.6131581366015864
336,2817.54,0.7187230026554264
337,2824.04,0.7508604837489318
338,2837.0699999999997,0.7253536440025281
339,2843.6099999999997,0.7088777225181474
340,2856.74,0.6832241763270285
341,2863.3199999999997,0.7456732522647618
342,2876.5400000000004,0.7474026002733989
343,2883.17,0.7439806729887745
344,2884.0315,0.7439803456193178
345,2896.48,0.7439764010489079
346,2909.85,0.799016083414874
347,2930.02,0.7718848568121464
348,2950.33,0.7612996300247693
349,2970.78,0.7736871030527427
350,2991.37,0.7736845758960664
351,3012.11,0.7808434485415513
352,3032.99,0.7826439210023867
353,3046.99,0.7844451025374296
354,3068.11,0.7880785746817227
355,3089.3700000000003,0.7917162466413665
356,3110.79,0.793513418389982
357,3132.35,0.7826484899539481
358,3146.81,0.7862462708822852
359,3168.62,0.7898806421165199
360,3190.5899999999997,0.7543468131397264
361,3212.7,0.7790474839782834
362,3227.53,0.747436664418618
363,3249.9,0.7898827349142544
364,3272.43,0.8157758051988627
365,3287.54,0.8101661852698983
366,3310.3300000000004,0.8064257552115859
367,3311.31121,0.8070268109062442
368,3325.6000000000004,0.8157792936573955
369,3333.27,0.8290396002754112
370,3340.95,0.7899162066412992
371,3348.66,0.844420512250804
372,3356.3700000000003,0.8120359178603086
373,3364.11,0.7440117227134301
374,3371.8700000000003,0.750890427062296
375,3379.64,0.8157722311590342
376,3387.4300000000003,0.8214205347515169
377,3395.24,0.8045896378397441
378,3403.07,0.8347890404237158
379,3410.91,0.7844804427555597
380,3418.78,0.7935413443310205
381,3426.6600000000003,0.8157716456543533
382,3434.55,0.8483393467255586
383,3442.4700000000003,0.7917454470403805
384,3450.41,0.810160146850947
385,3458.3599999999997,0.7990487464093857
386,3466.34,0.7899085452114412
387,3474.33,0.8195425437613689
388,3482.33,0.7917472420591688
389,3490.36,0.8233217396005855
390,3498.4100000000003,0.7754772366377466
391,3506.47,0.8176756334227802
392,3514.56,0.7844726294514303
393,3522.6600000000003,0.8233192252279528
394,3530.78,0.7844755205002197
395,3538.9199999999996,0.8290329152682311
396,3547.0800000000004,0.8405711095319871
397,3555.25,0.8386319035436153
398,3563.4500000000003,0.8271310967988603
399,3571.66,0.7844763898019774
400,3579.8999999999996,0.7719476820487114
401,3588.15,0.7138042740433176
402,3596.42,0.7826745655336683
403,3604.71,0.8176743565197635
404,3613.02,0.7683861470016031
405,3621.35,0.7772731369791873
406,3629.7000000000003,0.8883396264525161
407,3635.76,0.9238366736630995
408,3638.48,0.8900356050843514
409,3641.2,0.8886937365056035
410,3643.92,0.8333005679268555
411,3646.63,0.8282233996002352
412,3649.35,0.8281163310214872
413,3652.07,0.8323490624427392
414,3654.79,0.8329124938639911
415,3657.5099999999998,0.9190336252852431
416,3660.2200000000003,0.9033723569586228
417,3662.94,0.8570463883798749
418,3665.66,0.8825539198011269
419,3668.38,0.9032982512223788
420,3671.09,0.8542250828957586
421,3673.81,0.8519659143170105
422,3676.53,0.8341828457382625
423,3679.25,0.8235972771595145
424,3681.96,0.8342911088328941
425,3684.6800000000003,0.7871889402541462
426,3687.4,0.7928329716753981
427,3690.12,0.8094847030966501
428,3692.84,0.8585250345179022
429,3695.55,0.8789566661912819
430,3698.27,0.8397575976125339
431,3700.9900000000002,0.8653356290337859
432,3703.71,0.8709090604550378
433,3706.42,0.8263517921284176
434,3709.1400000000003,0.8163660235496696
435,3711.86,0.8251146549709216
436,3714.58,0.8949357863921735
437,3717.29,0.9149795180655532
438,3720.01,1.0124615494868052
439,3722.73,1.2671234809080572
440,3725.4500000000003,1.6388834123293092
441,3728.17,1.767412343750561
442,3730.8799999999997,1.625093275423941
443,3733.6000000000004,1.245566206845193
444,3736.32,1.0022271382664447
445,3739.04,0.9013209696876968
446,3741.75,0.8851655013610766
447,3744.47,0.8986772327823286
448,3747.19,0.8558443642035806
449,3749.9100000000003,0.8422244956248326
450,3752.63,0.8589821270460846
451,3755.3399999999997,0.8607495587194642
452,3758.06,0.9283128901407162
453,3760.78,0.9735779215619682
454,3763.5,1.01295045298322
455,3766.21,0.9560102846565999
456,3768.93,0.9427432160778518
457,3771.6499999999996,0.8980049474991039
458,3774.3700000000003,0.9803506789203559
459,3777.08,1.0586091105937356
460,3779.7999999999997,1.0707800420149876
461,3782.52,1.1447289734362396
462,3785.2400000000002,1.1987439048574915
463,3787.96,1.2253098362787436
464,3790.67,1.0595967679521232
465,3793.39,0.9844451993733753
466,3796.1099999999997,0.9048133307946272
467,3798.8300000000004,0.9138793622158792
468,3801.54,1.016235493889259
469,3801.8939600000003,1.023507931509071
470,3804.2599999999998,1.0721204377402227
471,3806.98,1.1115633834506733
472,3809.7,1.2161373291611244
473,3812.41,1.2078152750711688
474,3815.13,1.2007932207816197
475,3817.85,1.1466341664920705
476,3820.5699999999997,1.1393291122025213
477,3823.29,1.153334057912972
478,3826.0,1.1233850038230166
479,3828.72,1.0405069495334673
480,3831.44,0.9529720952439183
481,3834.16,0.9344481409543691
482,3836.87,0.9042858868644138
483,3839.59,0.9351209325748646
484,3842.31,1.0104106782853153
485,3845.0299999999997,1.1153366239957663
486,3847.7400000000002,1.1235265699058108
487,3850.46,1.1959235156162618
488,3853.18,1.2487384613267125
489,3855.9,1.1905224070371632
490,3858.62,1.252369352747614
491,3861.33,1.2621472986576587
492,3864.05,1.2815862443681096
493,3866.77,1.2537471900785602
494,3869.49,1.268035135789011
495,3872.2000000000003,1.2782710816990557
496,3874.92,1.1878080274095064
497,3877.64,1.1644849731199574
498,3880.36,1.133364918830408
499,3883.08,1.0931428645408587
500,3885.79,1.0613228104509036
501,3888.51,1.0248057561613544
502,3891.23,1.0047997018718053
503,3893.95,1.032141647582256
504,3896.6600000000003,1.0374025934923006
505,3899.38,1.1229595392027514
506,3902.1,1.191192484913202
507,3904.82,1.175208430623653
508,3907.53,1.2556203765336977
509,3910.25,1.2804213222441483
510,3912.9700000000003,1.2837712679545994
511,3915.69,1.29985821366505
512,3918.41,1.2835571593755009
513,3921.1200000000003,1.2441521052855455
514,3923.84,1.2329310509959963
515,3926.56,1.1974359967064472
516,3929.28,1.0687979424168979
517,3931.9900000000002,0.9934054883269425
518,3934.71,0.9564997340373933
519,3937.4300000000003,1.0356707797478442
520,3940.15,1.137950725458295
521,3942.86,1.2275346713683395
522,3945.5800000000004,1.2512786170787904
523,3948.3,1.2161005627892412
524,3951.02,1.258825508499692
525,3953.7400000000002,1.2420654542101428
526,3956.4500000000003,1.1763054001201874
527,3959.17,1.1335073458306384
528,3961.8900000000003,1.067740291541089
529,3964.61,0.9762894372515398
530,3967.3199999999997,0.8890062831615846
531,3970.0400000000004,0.8831838288720354
532,3972.76,0.922168974582486
533,3975.48,0.9473941202929369
534,3978.2000000000003,1.0557429660033875
535,3980.91,1.1678369119134324
536,3983.63,1.231694857623883
537,3986.3500000000004,1.249404803334334
538,3989.07,1.2884247490447847
539,3991.7799999999997,1.3136916949548296
540,3994.5000000000005,1.3806896406652802
541,3997.2200000000003,1.414664586375731
542,3999.94,1.3684085320861819
543,4002.6499999999996,1.3635444779962265
544,4005.37,1.371869423706677
545,4008.09,1.381993369417128
546,4010.8100000000004,1.4159683151275788
547,4013.53,1.4397812608380296
548,4016.24,1.4281792067480743
549,4018.9599999999996,1.433399152458525
550,4021.6800000000003,1.4590470981689758
551,4024.4,1.3798740438794266
552,4027.1099999999997,1.4683299897894715
553,4029.83,1.450122935499922
554,4032.5499999999997,1.3853798812103728
555,4035.2700000000004,1.4570698269208238
556,4037.98,1.4715057728308683
557,4040.7,1.4560867185413193
558,4043.4199999999996,1.44239566425177
559,4046.14,1.4628926099622206
560,4048.86,1.4350885556726716
561,4051.5699999999997,1.404222501582716
562,4054.29,1.4419724472931672
563,4057.0099999999998,1.4215073930036177
564,4059.7299999999996,1.4229873387140686
565,4062.44,1.3764562846241133
566,4065.16,1.406867230334564
567,4067.8799999999997,1.348016176045015
568,4070.6,1.4389001217554656
569,4073.31,1.3478780676655104
570,4076.0299999999997,1.3757490133759611
571,4078.75,1.355954959086412
572,4081.47,1.3474499047968627
573,4084.1899999999996,1.3257158505073134
574,4086.9,1.3363757964173584
575,4089.62,1.305784742127809
576,4092.3399999999997,1.2555776878382596
577,4095.06,1.2254456335487105
578,4097.77,1.2679645794587553
579,4100.49,1.207137525169206
580,4103.21,1.2515554708796568
