,lambda (Angstroms),Total Flux (erg/s/cm^2/Angstrom)
0,102.07000000000001,1.087082e-08
1,103.97,1.432929e-08
2,104.712855,1.622042562546633e-08
3,105.9,1.924262e-08
4,108.12,2.625528e-08
5,109.88,4.001311e-08
6,114.0,6.53537e-08
7,118.01,9.981218e-08
8,120.22644299999999,3.230023535827017e-07
9,121.02999999999999,4.039185e-07
10,125.0,5.651971e-07
11,127.03,6.475154e-07
12,127.91,7.034437e-07
13,130.89,8.457573e-07
14,132.1,1.026178e-06
15,133.94,1.14617e-06
16,137.06,1.563878e-06
17,138.038426,1.6557126552620192e-06
18,139.93,1.833255e-06
19,142.86,5.587799e-06
20,146.85999999999999,1.589414e-05
21,150.98,1.841784e-05
22,154.85,2.158908e-05
23,158.489319,2.4943652081163732e-05
24,158.82,2.524846e-05
25,162.15,2.819647e-05
26,165.92,3.297984e-05
27,170.17999999999998,3.760478e-05
28,172.94,4.161598e-05
29,176.97,4.701831e-05
30,179.85000000000002,5.131325e-05
31,181.93,5.44801e-05
32,181.970086,5.454163853342925e-05
33,186.17000000000002,6.098919e-05
34,190.94,6.986872e-05
35,194.04999999999998,7.625035e-05
36,198.10999999999999,8.3993e-05
37,201.79,9.295013e-05
38,205.07000000000002,9.982776e-05
39,208.929613,0.00010539088344573639
40,209.85,0.0001067175
41,216.22,0.0001271333
42,220.23999999999998,0.0001390767
43,222.79,0.0001459733
44,226.94,0.0001593054
45,230.09,0.0002519065
46,233.83,0.0004367504
47,239.83,0.0005652687
48,239.88329199999998,0.0005652346728413658
49,245.98,0.0005613419
50,251.70999999999998,0.0006255577
51,256.97999999999996,0.0005498457
52,259.96,0.0006445462
53,264.18,0.000693838
54,269.09,0.0007182163
55,274.1,0.0007382981
56,275.42287,0.000743684623921218
57,279.19,0.0007590238
58,283.72999999999996,0.0007802941
59,289.67,0.000769549
60,295.74,0.0008076629
61,301.23,0.0008189805
62,308.25,0.000855545
63,316.227766,0.0008972268526554454
64,318.35,0.000908315
65,328.02,0.0009424312
66,337.99,0.0009688022
67,348.26000000000005,0.0009891183
68,357.19,0.001009847
69,363.078055,0.0010279657716455834
70,366.36,0.001038065
71,374.89000000000004,0.001050131
72,385.39,0.001030998
73,395.28000000000003,0.001079557
74,405.42,0.001099583
75,413.90999999999997,0.001104659
76,416.86938299999997,0.0011027244332456436
77,421.6,0.001099632
78,430.43,0.00110218
79,441.46999999999997,0.001112396
80,450.72,0.001107257
81,460.16,0.001102155
82,469.79,0.001099621
83,478.630092,0.0011064675793833333
84,479.63,0.001107242
85,489.66999999999996,0.001087049
86,499.93,0.001099593
87,505.71,0.001087046
88,511.57,0.00116209
89,519.88,0.001162085
90,529.5500000000001,0.001151428
91,539.39,0.001117484
92,549.42,0.00114615
93,549.5408739999999,0.00114662647064227
94,559.64,0.001186436
95,570.04,0.001219669
96,580.64,0.001191901
97,590.0699999999999,0.001242363
98,599.66,0.001225284
99,609.4,0.001167461
100,619.31,0.001325056
101,629.3700000000001,0.001340443
102,630.957344,0.0013413991303741935
103,639.6,0.001346605
104,649.99,0.001397136
105,657.51,0.001419837
106,665.13,0.001459638
107,674.38,0.001456274
108,685.34,0.001423106
109,694.8699999999999,0.00161901
110,704.5400000000001,0.001553264
111,715.99,0.001722776
112,724.43596,0.001749961645746988
113,725.95,0.001754835
114,734.35,0.001791641
115,744.5699999999999,0.001924167
116,754.9300000000001,0.002000933
117,765.43,0.002014821
118,774.29,0.002199116
119,785.0600000000001,0.002297485
120,794.15,0.002378207
121,805.1999999999999,0.002461796
122,814.53,0.002524837
123,825.86,0.002717923
124,831.763771,0.002448473903481173
125,835.4200000000001,0.002281603
126,845.09,0.002820014
127,854.88,0.00288567
128,864.78,0.003070715
129,874.79,0.003267728
130,884.92,0.003525701
131,895.17,0.003700332
132,905.53,0.00368338
133,916.02,0.005678448
134,924.5,0.03883643
135,935.2,0.08555332
136,946.0300000000001,0.1652876
137,954.78,0.2394645
138,954.992586,0.23985078759873416
139,965.84,0.2595615
140,974.78,0.03821569
141,986.06,0.2010226
142,995.1899999999999,0.2265904
143,1004.4,0.3550083
144,1016.03,0.3501386
145,1025.43,0.1528437
146,1034.92,0.2324023
147,1044.49,0.4778132
148,1054.1599999999999,0.4690615
149,1063.91,0.3550151
150,1076.23,0.4357689
151,1086.1899999999998,0.3297927
152,1096.24,0.4647698
153,1096.4782,0.46421011148947366
154,1103.84,0.4469124
155,1114.05,0.4238646
156,1124.36,0.3760471
157,1134.76,0.5026393
158,1145.26,0.4521181
159,1155.86,0.4889239
160,1163.8700000000001,0.5049611
161,1174.64,0.3336147
162,1185.51,0.4900625
163,1193.73,0.3149486
164,1204.77,0.2149038
165,1215.92,0.1585767
166,1224.35,0.3313144
167,1235.68,0.5263168
168,1244.24,0.5837661
169,1255.76,0.5498403
170,1258.92541,0.5181127042735627
171,1264.46,0.4626383
172,1276.16,0.6255333
173,1285.01,0.6625705
174,1293.91,0.4991699
175,1305.89,0.4900598
176,1314.94,0.6430308
177,1324.05,0.6141055
178,1336.3,0.5287645
179,1345.5700000000002,0.6564998
180,1354.8899999999999,0.6342036
181,1364.29,0.5562204
182,1373.74,0.5918859
183,1386.4499999999998,0.5987404
184,1396.0600000000002,0.517888
185,1405.74,0.5385718
186,1415.48,0.5485846
187,1425.3,0.5717817
188,1435.18,0.5652448
189,1441.8,0.6028779
190,1445.43977,0.6105626786569068
191,1448.46,0.6169394
192,1455.14,0.5959793
193,1465.2299999999998,0.5423151
194,1475.38,0.5435398
195,1485.61,0.5587847
196,1495.91,0.5717909
197,1506.2800000000002,0.5373475
198,1513.23,0.4690626
199,1516.72,0.5096099
200,1523.72,0.490067
201,1534.2800000000002,0.4180724
202,1544.9199999999998,0.472333
203,1555.63,0.4438401
204,1566.41,0.4510526
205,1573.64,0.4844284
206,1584.5500000000002,0.5143374
207,1595.53,0.5263177
208,1606.59,0.5167045
209,1614.01,0.5202845
210,1625.19,0.4878232
211,1636.46,0.525094
212,1644.01,0.5348668
213,1655.4099999999999,0.4889226
214,1659.58691,0.5074477602972974
215,1666.88,0.5397936
216,1670.73,0.4701616
217,1678.4399999999998,0.544792
218,1686.1799999999998,0.5744305
219,1693.97,0.5360844
220,1705.71,0.5119758
221,1713.5800000000002,0.4822258
222,1725.46,0.4800191
223,1733.43,0.5178803
224,1745.44,0.5049616
225,1753.5,0.5447925
226,1765.65,0.493455
227,1773.8000000000002,0.5084282
228,1786.1,0.519106
229,1794.3400000000001,0.5613464
230,1806.78,0.556223
231,1815.1200000000001,0.5084257
232,1823.5000000000002,0.5214677
233,1836.14,0.4980215
234,1844.6100000000001,0.454209
235,1853.13,0.4562918
236,1865.97,0.4733967
237,1874.59,0.5178826
238,1883.24,0.4744982
239,1896.29,0.4562971
240,1905.04,0.4844304
241,1905.46072,0.4835411700327271
242,1913.84,0.4658308
243,1927.1,0.4573621
244,1936.0,0.4690639
245,1944.94,0.4945912
246,1953.91,0.4626385
247,1967.46,0.5119698
248,1976.54,0.5263164
249,1985.6599999999999,0.4968803
250,1994.83,0.4822206
251,2004.03,0.4968821
252,2013.2900000000002,0.477809
253,2027.2399999999998,0.5014536
254,2036.6000000000001,0.475603
255,2046.0,0.4980219
256,2055.44,0.4712303
257,2064.9300000000003,0.4733957
258,2074.46,0.5131569
259,2079.24,0.4923113
260,2084.04,0.514337
261,2093.66,0.4844276
262,2103.3199999999997,0.4855728
263,2113.0299999999997,0.4923089
264,2122.7799999999997,0.4980248
265,2132.58,0.4594464
266,2147.36,0.4767065
267,2157.27,0.4957407
268,2167.23,0.4778098
269,2177.23,0.4745019
270,2187.28,0.4690662
271,2187.7616199999998,0.4701746841938604
272,2197.38,0.4923121
273,2207.52,0.4778091
274,2212.61,0.4500323
275,2222.82,0.4367548
276,2233.08,0.4723342
277,2243.3900000000003,0.4500293
278,2253.75,0.4268219
279,2264.15,0.4367494
280,2274.6,0.4510542
281,2285.1,0.4669354
282,2295.65,0.437774
283,2306.24,0.4409313
284,2316.89,0.4182715
285,2327.58,0.3240184
286,2332.95,0.3824927
287,2343.72,0.3678952
288,2354.5299999999997,0.4062944
289,2365.4,0.3663878
290,2376.32,0.3802311
291,2387.29,0.3484644
292,2392.79,0.3742924
293,2403.8399999999997,0.3591856
294,2414.9300000000003,0.3701918
295,2426.08,0.4004197
296,2437.28,0.3851632
297,2442.9,0.4099152
298,2454.17,0.4053483
299,2465.5,0.3998682
300,2476.88,0.3837368
301,2482.59,0.3882305
302,2494.0499999999997,0.3632488
303,2505.56,0.4152386
304,2511.34,0.360056
305,2511.88643,0.3608520607414506
306,2517.13,0.3684911
307,2522.93,0.3535783
308,2534.5800000000004,0.3635762
309,2546.27,0.3578578
310,2552.14,0.3924403
311,2563.92,0.3766038
312,2575.76,0.4027059
313,2587.65,0.3954556
314,2593.61,0.3874147
315,2605.5899999999997,0.3726393
316,2617.61,0.3659394
317,2623.65,0.3876731
318,2635.7599999999998,0.4107438
319,2647.92,0.4546821
320,2654.03,0.4761517
321,2666.2799999999997,0.4157884
322,2672.4199999999996,0.4394715
323,2684.7599999999998,0.4426629
324,2697.1499999999996,0.4151192
325,2703.37,0.4327702
326,2715.8500000000004,0.4030594
327,2722.1099999999997,0.3984898
328,2734.67,0.4222104
329,2747.29,0.3553642
330,2753.63,0.3687481
331,2766.3399999999997,0.3880199
332,2772.7200000000003,0.407314
333,2785.5099999999998,0.3741463
334,2791.9300000000003,0.2958716
335,2804.82,0.3185872
336,2817.77,0.4002626
337,2824.26,0.4339144
338,2837.2999999999997,0.4183491
339,2843.84,0.4023522
340,2856.97,0.375608
341,2863.55,0.4352939
342,2876.77,0.4445527
343,2883.3999999999996,0.4365153
344,2884.0315,0.436664815097671
345,2896.71,0.4396666
346,2910.08,0.490066
347,2930.25,0.4660688
348,2950.56,0.4556657
349,2971.02,0.4686291
350,2991.61,0.4699287
351,3012.35,0.478912
352,3033.23,0.4791113
353,3047.23,0.481474
354,3068.3500000000004,0.4872684
355,3089.6200000000003,0.492035
356,3111.04,0.4968016
357,3132.6,0.4879769
358,3147.06,0.4892784
359,3168.88,0.4951449
360,3190.8399999999997,0.4633898
361,3212.96,0.486597
362,3227.79,0.4542865
363,3250.1600000000003,0.4994839
364,3272.6899999999996,0.5269462
365,3287.8,0.5210756
366,3310.59,0.5177239
367,3311.31121,0.5178471390036696
368,3318.2200000000003,0.5190277
369,3325.8700000000003,0.5167393
370,3333.54,0.5362049
371,3341.22,0.5074829
372,3348.92,0.5552406
373,3356.6400000000003,0.5315591
374,3364.38,0.4577529
375,3372.1400000000003,0.465279
376,3379.91,0.5306105
377,3387.7000000000003,0.5306894
378,3395.5099999999998,0.5092539
379,3403.34,0.554647
380,3411.18,0.5024372
381,3419.05,0.5142189
382,3426.9300000000003,0.5250944
383,3434.83,0.5588634
384,3442.75,0.5027919
385,3450.68,0.520563
386,3458.64,0.5206418
387,3466.61,0.50886
388,3474.6,0.5341965
389,3482.6099999999997,0.5149675
390,3490.64,0.535615
391,3498.69,0.4908129
392,3506.75,0.5407373
393,3514.84,0.5047615
394,3522.94,0.542195
395,3531.06,0.5025941
396,3539.2000000000003,0.546135
397,3547.36,0.5641422
398,3555.54,0.5526756
399,3563.73,0.5426699
400,3571.95,0.4984558
401,3580.18,0.4996799
402,3588.44,0.4423447
403,3596.71,0.5126826
404,3605.0,0.54192
405,3613.31,0.4920345
406,3621.64,0.4921525
407,3629.9900000000002,0.6014186
408,3633.22,0.4697713
409,3635.9599999999996,0.4229604
410,3638.71,0.444355
411,3641.45,0.5933018
412,3644.19,0.6558366
413,3646.94,0.674078
414,3649.6800000000003,0.5081896
415,3652.42,0.5445601
416,3655.16,0.5514172
417,3657.91,0.626164
418,3660.6499999999996,0.6799118
419,3663.3900000000003,0.6140297
420,3666.14,0.7498912
421,3668.88,0.6348337
422,3671.62,0.4677625
423,3674.3700000000003,0.5770271
424,3677.11,0.6325479
425,3679.85,0.549801
426,3682.6,0.6038213
427,3685.3399999999997,0.6591845
428,3688.0800000000004,0.5583514
429,3690.82,0.5570126
430,3693.5699999999997,0.6208444
431,3696.31,0.6707306
432,3699.0499999999997,0.6208465
433,3701.8,0.5635118
434,3704.54,0.5764767
435,3707.28,0.5658386
436,3710.03,0.5081101
437,3712.7700000000004,0.6264797
438,3715.51,0.5942878
439,3718.2599999999998,0.8011942
440,3721.0,1.095186
441,3723.74,1.315377
442,3726.48,1.239566
443,3729.23,0.9703946
444,3731.97,0.8777186
445,3734.71,0.6841291
446,3737.46,0.6325866
447,3740.2000000000003,0.569581
448,3742.94,0.5473582
449,3745.69,0.5746235
450,3748.43,0.569502
451,3751.1699999999996,0.6456704
452,3753.92,0.6611537
453,3756.66,0.566113
454,3759.4,0.6041386
455,3762.14,0.6965416
456,3764.8900000000003,0.6059499
457,3767.63,0.5892831
458,3770.37,0.6526848
459,3773.12,0.7124183
460,3775.8599999999997,0.7681364
461,3778.6,0.7483175
462,3781.35,0.7100932
463,3784.09,0.6643072
464,3786.83,0.6531965
465,3789.5800000000004,0.6818405
466,3792.32,0.6419257
467,3795.06,0.6326274
468,3797.8,0.6570589
469,3800.5499999999997,0.7015038
470,3801.8939600000003,0.6935414746452512
471,3803.2899999999995,0.6852706
472,3806.03,0.8031285
473,3808.7799999999997,0.7705388
474,3811.52,0.7800757
475,3814.2599999999998,0.7507606
476,3817.01,0.7159251
477,3819.75,0.6334936
478,3822.4900000000002,0.6394446
479,3825.23,0.6302251
480,3827.9800000000005,0.6227361
481,3830.7200000000003,0.6533145
482,3833.46,0.6322344
483,3836.21,0.5889669
484,3838.95,0.6176144
485,3841.6899999999996,0.7519824
486,3844.44,0.8385495
487,3847.18,0.8445009
488,3849.92,0.815304
489,3852.67,0.8408346
490,3855.4100000000003,0.8497806
491,3858.15,0.8060044
492,3860.8900000000003,0.8054935
493,3863.64,0.8571488
494,3866.3799999999997,0.9125125
495,3869.12,0.8236977
496,3871.87,0.7907925
497,3874.61,0.782519
498,3877.35,0.7600601
499,3880.1000000000004,0.717659
500,3882.84,0.6637164
501,3885.58,0.606188
502,3888.33,0.6245085
503,3891.0699999999997,0.6137917
504,3893.81,0.6598951
505,3896.5499999999997,0.7416592
506,3899.3,0.8252318
507,3902.04,0.8756699
508,3904.7799999999997,0.8041927
509,3907.53,0.7895316
510,3910.27,0.811205
511,3913.01,0.8540776
512,3915.7599999999998,0.8059233
513,3918.4999999999995,0.8151845
514,3921.24,0.7909131
515,3923.99,0.6658824
516,3926.73,0.6701785
517,3929.47,0.6518567
518,3932.21,0.7059593
519,3934.96,0.7150984
520,3937.7000000000003,0.7662457
521,3940.44,0.738743
522,3943.1899999999996,0.7719183
523,3945.9300000000003,0.7964286
524,3948.67,0.7933958
525,3951.42,0.7746762
526,3954.16,0.7661663
527,3956.8999999999996,0.7408702
528,3959.65,0.664464
529,3962.39,0.5750579
530,3965.13,0.5356944
531,3967.87,0.5946827
532,3970.6200000000003,0.6844817
533,3973.36,0.6736467
534,3976.1000000000004,0.6649001
535,3978.85,0.7652196
536,3981.5899999999997,0.8052156
537,3984.33,0.8582149
538,3987.08,0.823458
539,3989.82,0.8617203
540,3992.56,0.9259104
541,3995.3100000000004,0.8700722
542,3998.05,0.8496624
543,4000.79,0.8570716
544,4003.53,0.9484898
545,4006.2799999999997,0.9194461
546,4009.02,0.9483305
547,4011.7599999999998,0.9608228
548,4014.51,0.948171
549,4017.25,0.9678742
550,4019.99,0.9185422
551,4022.7400000000002,0.9366648
552,4025.48,0.9345384
553,4028.2200000000003,0.9254376
554,4030.97,0.9227549
555,4033.7099999999996,0.9416308
556,4036.45,0.8377243
557,4039.1899999999996,0.931428
558,4041.94,0.9010839
559,4044.68,0.9099118
560,4047.42,0.8677511
561,4050.17,0.9016353
562,4052.9100000000003,0.9835571
563,4055.65,0.9696096
564,4058.3999999999996,1.000262
565,4061.14,0.9662978
566,4063.88,0.9186996
567,4066.63,0.9356794
568,4069.37,0.8309062
569,4072.1099999999997,0.8421769
570,4074.85,0.7837424
571,4077.6,0.887332
572,4080.34,0.9141673
573,4083.08,0.8714943
574,4085.83,0.8181389
575,4088.57,0.8123872
576,4091.3100000000004,0.841429
577,4094.06,0.8063963
578,4096.8,0.7895328
579,4099.54,0.7498543
580,4102.29,0.7672288
581,4105.03,0.8164847
582,4107.77,0.7986752
583,4110.5199999999995,0.9255917
584,4113.26,0.8975773
585,4116.0,0.8653856
586,4118.74,0.8978949
587,4121.49,0.884534
588,4124.23,0.9738639
589,4126.97,0.9475434
590,4129.72,0.9616467
591,4132.46,1.00913
592,4135.2,0.9114492
593,4137.95,0.9430479
594,4140.6900000000005,0.8906424
595,4143.43,0.9103456
596,4146.18,0.9166076
597,4148.92,0.9496688
598,4151.66,0.9129852
599,4154.4,0.9636994
600,4157.15,0.9812308
601,4159.89,0.9155462
602,4162.63,0.8868616
603,4165.38,0.9054179
604,4168.12,0.8859142
605,4170.86,0.9100701
606,4173.61,0.9199574
607,4176.349999999999,0.9484477
608,4179.09,0.9054596
609,4181.84,0.9315024
610,4184.58,0.9323705
611,4187.32,0.8800832
612,4190.0599999999995,0.903372
613,4192.81,0.9033296
614,4195.55,0.9145219
615,4198.29,0.9014803
616,4201.04,0.8888289
617,4203.78,0.8806737
618,4206.52,0.9491586
619,4209.2699999999995,0.8983247
620,4212.01,0.8908395
621,4214.75,0.9511679
622,4217.5,0.9514801
623,4220.24,0.8758262
624,4222.9800000000005,0.8391426
625,4225.72,0.9177543
626,4228.469999999999,0.9691732
627,4231.21,0.927131
628,4233.95,0.861446
629,4236.7,0.8909565
630,4239.44,0.9560135
631,4242.18,0.925004
632,4244.93,0.9161746
633,4247.67,0.9237416
634,4250.41,0.9464788
635,4253.16,0.8913894
636,4255.900000000001,0.9220075
637,4258.64,0.8871758
638,4261.38,0.885601
639,4264.13,0.8798846
640,4266.87,0.8942288
641,4269.61,0.8873345
642,4272.36,0.9242529
643,4275.1,0.9371391
644,4277.84,0.8738975
645,4280.59,0.8744464
646,4283.33,0.8877265
647,4286.07,0.9088877
648,4288.82,0.9039199
649,4291.5599999999995,0.8610498
650,4294.3,0.8053737
651,4297.04,0.7659315
652,4299.79,0.7985553
653,4302.53,0.8102989
654,4305.2699999999995,0.8255886
655,4308.02,0.819636
656,4310.76,0.8742508
657,4313.5,0.8712573
658,4316.25,0.8720821
659,4318.99,0.8353194
660,4321.73,0.8787438
661,4324.48,0.8162861
662,4327.22,0.7954033
663,4329.96,0.8317742
664,4332.7,0.8723612
665,4335.45,0.9192094
666,4338.1900000000005,0.9309137
667,4340.93,0.8967124
668,4343.679999999999,0.8549417
669,4346.42,0.8194008
670,4349.16,0.7915434
671,4351.91,0.8433173
672,4354.65,0.9127479
673,4357.39,0.9328451
674,4360.14,0.9527803
675,4362.88,0.959244
676,4365.15832,0.9479412877401479
677,4365.62,0.9456509
678,4368.36,0.9496716
679,4371.110000000001,0.9469891
680,4373.85,0.962949
681,4376.59,0.9414752
682,4379.34,0.9273657
683,4382.08,0.8850473
684,4384.82,0.8373701
685,4387.57,0.8804751
686,4390.31,0.942734
687,4393.05,0.9370613
688,4395.8,0.9450573
689,4398.54,0.9914367
690,4401.28,0.9665351
691,4404.02,0.9720923
692,4406.7699999999995,0.9706708
693,4409.51,0.934736
694,4412.25,0.9206307
695,4415.0,0.9403295
696,4417.74,0.9537674
697,4420.48,0.9659841
698,4423.2300000000005,0.9314239
699,4425.97,0.9692134
700,4428.71,0.9244127
701,4431.46,0.9063235
702,4434.2,0.9458466
703,4436.94,0.9618459
704,4439.679999999999,0.9255956
705,4442.43,0.9586131
706,4445.17,0.9461234
707,4447.91,0.9203546
708,4450.66,0.9601101
709,4453.400000000001,0.9424586
710,4456.14,0.9363917
711,4458.889999999999,0.9331971
712,4461.63,0.9048673
713,4464.37,0.9981764
714,4467.12,0.9967943
715,4469.86,0.945965
716,4472.6,0.9875766
717,4475.34,0.9733532
718,4478.09,0.9453343
719,4480.83,0.9475026
720,4483.57,1.034232
721,4486.32,0.9272871
722,4489.06,0.9990818
723,4491.8,0.9604281
724,4494.55,0.98852
725,4497.29,0.9802858
726,4500.03,0.9979797
727,4502.78,1.010546
728,4505.52,1.028752
729,4508.26,1.013898
730,4511.0,1.004916
731,4513.75,0.9824523
732,4516.49,1.009406
733,4519.2300000000005,0.9073121
734,4521.98,0.9707098
735,4524.72,0.9795374
736,4527.46,0.9757168
737,4530.21,0.9184207
738,4532.95,0.9868662
739,4535.69,0.9720125
740,4538.4400000000005,1.011847
741,4541.18,0.9864325
742,4543.92,0.9448235
743,4546.66,0.9215764
744,4549.41,0.9614896
745,4552.15,0.9508126
746,4554.889999999999,0.9785934
747,4557.64,0.9929334
748,4560.38,0.9546738
749,4563.12,0.9634227
750,4565.87,1.005148
751,4568.610000000001,0.9710261
752,4571.35,1.00058
753,4574.099999999999,0.9891894
754,4576.84,0.9648
755,4579.58,0.9732336
756,4582.32,0.9837164
757,4585.07,0.9947465
758,4587.8099999999995,0.9969149
759,4590.55,0.9632654
760,4593.3,0.9541603
761,4596.04,0.9806408
762,4598.78,0.9591278
763,4601.53,0.9491951
764,4604.2699999999995,0.946832
765,4607.01,1.005939
766,4609.76,1.024456
767,4612.5,0.9753601
768,4615.24,0.9897042
769,4617.98,0.9879325
770,4620.7300000000005,1.060472
771,4623.47,0.9967178
772,4626.21,0.9932517
773,4628.96,1.009365
774,4631.7,1.039943
775,4634.4400000000005,1.026508
776,4637.19,0.9939182
777,4639.93,0.9785127
778,4642.67,0.971973
779,4645.42,1.00239
780,4648.16,0.968622
781,4650.9,0.9494732
782,4653.64,0.9706736
783,4656.39,1.012714
784,4659.13,0.9687413
785,4661.87,0.9491981
786,4664.62,0.9904904
787,4667.36,0.9544769
788,4670.099999999999,0.9434844
789,4672.85,0.9761472
790,4675.59,1.002746
791,4678.33,0.9313477
792,4681.08,0.9549871
793,4683.820000000001,0.9765817
794,4686.56,0.9670078
795,4689.3,0.9588131
796,4692.05,0.9773694
797,4694.79,0.9971118
798,4697.53,0.9510503
799,4700.28,0.9691731
800,4703.0199999999995,1.002116
801,4705.76,0.9595612
802,4708.51,0.9717341
