,lambda (Angstroms),Total Flux (erg/s/cm^2/Angstrom)
0,100.00999999999999,7.58019287815879
1,102.10000000000001,7.556500137244662
2,104.0,7.534961284367399
3,104.712855,7.5268802051059165
4,105.93,7.454401852692324
5,107.89999999999999,7.337092670250935
6,109.91000000000001,7.217401782018831
7,114.03,6.972065037013094
8,118.04,6.733278714588841
9,120.22644299999999,6.603086382530266
10,121.07,6.560974307540141
11,125.03,6.363275824956521
12,127.07,6.261430953585869
13,127.95,6.217498353849509
14,130.93,6.068725162258654
15,132.14,6.008320004261161
16,133.98,5.916460455923318
17,137.1,5.760702856613496
18,138.038426,5.713853519456925
19,139.97,5.644927269590851
20,142.9,5.540438654555543
21,146.9,5.3978742602134835
22,151.02,5.250878616232162
23,154.89,5.11281021956597
24,158.489319,4.9844021722064875
25,158.86,4.974405246222799
26,161.82,4.894577297209614
27,165.97,4.782663534146195
28,169.84,4.678296590147537
29,172.98999999999998,4.593349299843978
30,177.01999999999998,4.484669897179742
31,179.89999999999998,4.407005480799345
32,181.970086,4.351183073413652
33,181.98,4.3509791455955344
34,185.79,4.272610012499177
35,191.0,4.165443293200483
36,194.1,4.1016851982953115
37,198.17000000000002,4.017967098658519
38,201.85000000000002,3.9422857836323786
39,205.13,3.8748215754069064
40,208.929613,3.7966403390988344
41,209.91,3.7814758200778296
42,215.79000000000002,3.6906278044677943
43,219.79999999999998,3.6286468645385024
44,222.86,3.5813300765700147
45,227.00000000000003,3.517346900730296
46,230.16,3.46916579029225
47,233.9,3.4127676443307653
48,239.88329199999998,3.321047300959517
49,239.9,3.320850483910821
50,246.04999999999998,3.2473472580640528
51,251.78,3.1793317614653565
52,257.06,3.1157158084895937
53,260.03,3.0808934593782284
54,264.26,3.030705872522646
55,269.17,2.9721788891701846
56,274.17,2.9125788126931376
57,275.42287,2.8976444456287243
58,279.27,2.8624541039244527
59,283.81,2.820928648391086
60,289.75,2.7663742562174747
61,295.82,2.7109317789272693
62,301.32,2.660566616840592
63,308.34,2.596399224544506
64,316.227766,2.524307920662031
65,317.71,2.5141940154604683
66,328.12,2.4430390743779764
67,338.09,2.3748580837129962
68,348.36,2.3046051041724396
69,357.29999999999995,2.2434544642802705
70,363.078055,2.203952488237876
71,365.61999999999995,2.190937265273089
72,375.0,2.1428574396204905
73,384.62,2.0934147121921325
74,395.39,2.0383465583799274
75,404.6,1.9911707796101583
76,414.03000000000003,1.9428176454626098
77,416.86938299999997,1.9282499736803258
78,421.72,1.9092317025898333
79,429.56,1.8785056439104053
80,440.58,1.8353597467053924
81,450.85,1.7951092511903757
82,460.29,1.7581147723722885
83,469.92,1.7203891609127355
84,478.630092,1.6862855765387366
85,479.76,1.6828814235741771
86,489.80999999999995,1.652536511504227
87,500.07000000000005,1.6216481505074418
88,505.86,1.604157396810426
89,511.71000000000004,1.5866445832771712
90,520.03,1.5615643539854314
91,529.7,1.5323864538783247
92,539.54,1.5026620817352097
93,549.5408739999999,1.4725118934553352
94,549.58,1.4724218342604167
95,559.79,1.4489906249033964
96,570.2,1.4250934534345827
97,579.47,1.403723801702988
98,590.24,1.3789805966329476
99,599.83,1.3568485499224843
100,609.5799999999999,1.3341394287225872
101,619.48,1.3117219736888452
102,629.55,1.2885359855100795
103,630.957344,1.2853039281627756
104,639.78,1.2692358921254847
105,650.1700000000001,1.250270827966162
106,657.6999999999999,1.236495721318453
107,665.3100000000001,1.2226658496983909
108,674.57,1.2057887173985522
109,685.53,1.185730605186216
110,695.07,1.1684026009831423
111,704.7399999999999,1.1506852205749958
112,716.19,1.1299049632819982
113,724.43596,1.114868857951103
114,726.15,1.1125464934319094
115,734.56,1.1011600788272926
116,744.78,1.0873062188190665
117,755.14,1.0732749005641524
118,765.64,1.0588988880625505
119,774.5100000000001,1.0470469915045302
120,785.29,1.0324199475095521
121,794.38,1.0201387292781652
122,805.4300000000001,1.0051990895931455
123,814.7600000000001,0.992567931081722
124,824.19,0.9798155325369498
125,831.763771,0.9694937257495042
126,835.66,0.9655116530597174
127,845.3299999999999,0.9558250447591713
128,855.12,0.9459086572222168
129,865.02,0.9358979092185553
130,875.04,0.9257703479784857
131,885.17,0.9155205652717088
132,895.42,0.9051540033285238
133,905.7900000000001,0.8946520461489307
134,914.17,0.8864475491397706
135,924.76,0.877394383026763
136,935.46,0.8686197994470478
137,944.12,0.8626668698862691
138,954.992586,0.8540475081811438
139,955.0500000000001,0.8540032436778194
140,963.89,0.8460916124531334
141,975.05,0.8274441144002488
142,984.0699999999999,0.8241824485940644
143,995.4699999999999,0.8133535597658492
144,1004.6800000000001,0.8080853705125277
145,1013.98,0.7986562354684573
146,1025.72,0.7803582822085234
147,1035.21,0.774245085717316
148,1044.79,0.7720058094353597
149,1054.45,0.7620801292282929
150,1064.21,0.7489566803648385
151,1074.06,0.741494472710635
152,1084.0,0.7282791562656823
153,1094.03,0.7224438810299805
154,1096.4782,0.7198679382053208
155,1104.15,0.7131682439899649
156,1114.37,0.7041735153545946
157,1124.68,0.6942572580130416
158,1135.08,0.6893274119653068
159,1145.59,0.6793606952766822
160,1156.18,0.6716710408492288
161,1164.2,0.6654521850316485
162,1174.97,0.6516689831918306
163,1185.84,0.6473353516784769
164,1194.06,0.6360103165138247
165,1205.11,0.6242884295881062
166,1216.26,0.6129508959888518
167,1224.69,0.6113607835097743
168,1236.03,0.6072562365308016
169,1244.59,0.6017026084761273
170,1256.11,0.5914850540847901
171,1258.92541,0.5884806810821075
172,1264.8200000000002,0.583558112646506
173,1273.58,0.5825914531388696
174,1285.3700000000001,0.5766278751371534
175,1294.28,0.5671984738228794
176,1306.25,0.5600963316531983
177,1315.3100000000002,0.5586799885322865
178,1324.42,0.552510411475829
179,1333.6100000000001,0.5450347181224982
180,1345.9499999999998,0.5410286968297777
181,1355.27,0.5349849732440273
182,1364.67,0.5275407633614038
183,1374.13,0.5228428987561252
184,1383.6499999999999,0.5174357894281917
185,1396.46,0.5076238811413397
186,1406.1399999999999,0.5024154692196594
187,1415.8799999999999,0.497427382575324
188,1425.7,0.492163589634115
189,1435.58,0.4863637119702512
190,1442.2099999999998,0.4833563401168689
191,1445.43977,0.4817555986685887
192,1445.53,0.4817265760166899
193,1455.55,0.4771301464020086
194,1465.64,0.4717210391053884
195,1475.8,0.46760147412682945
196,1486.0300000000002,0.46379682146633133
197,1496.33,0.4598646411238946
198,1506.7,0.45477439309951884
199,1513.66,0.45032702929530904
200,1517.1499999999999,0.4498320962957844
201,1524.1499999999999,0.44658571810189523
202,1534.71,0.4405597692265425
203,1545.3500000000001,0.43738111157183096
204,1556.06,0.43237546623518064
205,1563.25,0.4297036171903146
206,1574.08,0.4262975086846261
207,1584.99,0.4226160013995789
208,1595.9799999999998,0.4185474153351731
209,1603.3500000000001,0.4152330665367497
210,1614.46,0.4107657173033057
211,1625.6499999999999,0.405382819290503
212,1633.1499999999999,0.4032818662256218
213,1644.48,0.39914214284894123
214,1655.8700000000001,0.3931431828877416
215,1659.58691,0.3923696528479574
216,1663.52,0.3920249855496596
217,1671.1999999999998,0.38789008644847234
218,1678.91,0.3899430984054835
219,1686.66,0.3884954551067595
220,1694.44,0.3846141428662338
221,1706.1899999999998,0.38098747399397476
222,1714.07,0.37926503861411065
223,1725.95,0.37613705766071165
224,1733.9099999999999,0.375791901769377
225,1745.93,0.3716851324209042
226,1753.99,0.37176211339023113
227,1766.1499999999999,0.3653357756466847
228,1774.3,0.36478915979060705
229,1786.6000000000001,0.36145093365198677
230,1794.8500000000001,0.3626722146565708
231,1803.13,0.3587906267193533
232,1815.63,0.35471781430205634
233,1824.01,0.3521769532255005
234,1836.6499999999999,0.3473552324131299
235,1845.13,0.34283028819723554
236,1853.65,0.342275028725606
237,1866.5,0.34089691532062466
238,1875.1100000000001,0.33861237902359054
239,1883.77,0.33561840115688724
240,1896.83,0.33306572515929533
241,1905.46072,0.33049288810363026
242,1905.5800000000002,0.3304663059477215
243,1914.3799999999999,0.3288909846415076
244,1923.2099999999998,0.32557485180811346
245,1936.54,0.31905770989767807
246,1945.48,0.32418486479795616
247,1954.46,0.3220194443286606
248,1968.01,0.3224857778855698
249,1977.09,0.3197972889923401
250,1986.22,0.3184940308871431
251,1995.3899999999999,0.3163084474123725
252,2004.6,0.3132760285680282
253,2013.8500000000001,0.3108738043541101
254,2023.1499999999999,0.30784282092822496
255,2037.17,0.30751434389264326
256,2046.5700000000002,0.30785897204282386
257,2056.02,0.3043815209810374
258,2065.51,0.3014342345496771
259,2075.04,0.30346758274874325
260,2079.83,0.3099258922422927
261,2084.62,0.31179646173584213
262,2094.24,0.3070355453533674
263,2103.91,0.30253827975892555
264,2113.62,0.3024544087949099
265,2123.38,0.29930841861892726
266,2133.1800000000003,0.29289276307337075
267,2143.0299999999997,0.2968823583158473
268,2152.92,0.29559872818875005
269,2162.85,0.28975689269207916
270,2172.84,0.28815722414104766
271,2182.87,0.29001796022044257
272,2187.7616199999998,0.2898255552260408
273,2192.94,0.2899675551038479
274,2203.07,0.2866137836806408
275,2213.23,0.27884640338846073
276,2223.45,0.2785819053583347
277,2233.71,0.285466002169578
278,2244.02,0.2813271275325331
279,2254.38,0.27331502144719977
280,2264.79,0.2715752439135783
281,2275.2400000000002,0.2734896912213261
282,2285.74,0.27810831708078565
283,2296.29,0.2714320514919569
284,2306.89,0.27425948445483994
285,2317.54,0.2684197359694346
286,2322.88,0.2573156272922454
287,2333.6,0.2569386347792365
288,2344.38,0.24938104452828164
289,2355.2000000000003,0.26020469911869615
290,2366.07,0.24759705226082238
291,2376.99,0.25117537395466033
292,2382.47,0.24165815722226397
293,2393.4700000000003,0.24399441859884058
294,2404.5099999999998,0.2420760548167867
295,2415.61,0.24341540329678674
296,2426.76,0.25351952032849856
297,2432.36,0.2524230581202103
298,2443.58,0.25608343112431853
299,2454.86,0.25594989639048077
300,2466.19,0.25088711020835475
301,2477.58,0.2456229962882828
302,2483.29,0.23900346489376031
303,2494.75,0.23843497694608476
304,2506.27,0.24965524126046323
305,2511.88643,0.23053066525481838
306,2512.04,0.23001320822792723
307,2517.84,0.22605333275828396
308,2523.64,0.22622501728864075
309,2535.29,0.23109619457806424
310,2546.9900000000002,0.23138232009619766
311,2552.86,0.24560194214674838
312,2564.65,0.2357320044765598
313,2576.48,0.24219874538933917
314,2582.42,0.23828349496008383
315,2594.34,0.23384161268454118
316,2606.3199999999997,0.2286737482834505
317,2612.33,0.22514434537438913
318,2624.38,0.23372537849349234
319,2636.5,0.2505033291327896
320,2642.58,0.26900078374392217
321,2654.77,0.28936439190341334
322,2667.03,0.2551579675830985
323,2673.17,0.264017940068683
324,2685.5099999999998,0.27016962291430413
325,2697.91,0.2517428836343772
326,2704.13,0.26388875328589767
327,2716.6099999999997,0.24496355117190674
328,2722.87,0.23742517940639524
329,2735.44,0.24618252410408217
330,2748.07,0.2187105266762211
331,2754.4,0.22788887243090356
332,2767.1200000000003,0.23767407181472042
333,2773.5,0.24277777579811285
334,2786.2999999999997,0.22001472234786576
335,2792.7200000000003,0.19656752491422608
336,2805.61,0.1994785182756569
337,2812.08,0.2336612790707273
338,2825.06,0.255822219243836
339,2838.1,0.25190700729139676
340,2844.64,0.23799775560666103
341,2857.77,0.21780409046589969
342,2864.36,0.253806377009874
343,2877.58,0.27024619868079064
344,2884.0315,0.26233558455431516
345,2884.21,0.26212216902173774
346,2897.5299999999997,0.2734976253043867
347,2910.9,0.30699337788689546
348,2931.08,0.28937217251030806
349,2951.4,0.2809818807733281
350,2971.85,0.2877829374159836
351,2992.45,0.2884558729582185
352,3013.2,0.29006348740003274
353,3027.11,0.2950400640210272
354,3048.09,0.29816347944219646
355,3069.22,0.30838957376294523
356,3090.4900000000002,0.3076965817233013
357,3111.91,0.3228660685832368
358,3133.48,0.3118163343427517
359,3147.95,0.31274926552217586
360,3169.77,0.3231045627809897
361,3191.7400000000002,0.2988567389393829
362,3206.4700000000003,0.314705566878078
363,3228.7,0.28777883979574215
364,3251.08,0.3349105916129857
365,3273.61,0.36229592232980856
366,3288.72,0.3572628301474381
367,3311.31121,0.347955739851295
368,3311.52,0.3478741974827063
369,3319.15,0.3380185101282225
370,3326.81,0.3358333614866306
371,3334.47,0.36259741284503877
372,3342.1600000000003,0.3427123029163388
373,3349.87,0.3583147521295668
374,3357.5899999999997,0.36374768091375886
375,3365.3300000000004,0.30826186883987877
376,3373.09,0.2969901159079267
377,3380.86,0.3585816425469386
378,3388.65,0.35618492832787846
379,3396.47,0.32513545282171025
380,3404.3,0.375469656886506
381,3412.1400000000003,0.34071334052226576
382,3420.01,0.3538476628709174
383,3427.8900000000003,0.3479298647905331
384,3435.8,0.35734680542304076
385,3443.7200000000003,0.3024126256265123
386,3451.66,0.3525279049719119
387,3459.61,0.3527136638882754
388,3467.5899999999997,0.34676796151753086
389,3475.58,0.3515315387177503
390,3483.5899999999997,0.3501691750598977
391,3491.62,0.35034947054397303
392,3499.6699999999996,0.31802642516997637
393,3507.74,0.3729687389379076
394,3515.83,0.33295581184776685
395,3523.9300000000003,0.35794456432859
396,3532.0499999999997,0.3517807759513413
397,3540.2,0.37799712628698434
398,3548.3599999999997,0.3896511561935915
399,3556.5400000000004,0.36093304524212644
400,3564.7400000000002,0.3735283934325894
401,3572.95,0.31222302119401646
402,3581.19,0.3259120876683354
403,3589.4500000000003,0.27667441328458225
404,3597.72,0.35597741847179315
405,3606.01,0.3616616828009319
406,3614.33,0.3385999858429627
407,3622.66,0.31138916845595743
408,3630.4599999999996,0.3904537338078613
409,3633.2,0.3638915362519916
410,3635.95,0.3564909182670859
411,3638.69,0.3487872207112162
412,3641.44,0.37432500272631053
413,3644.1800000000003,0.39207430517044084
414,3646.92,0.3331764076145711
415,3649.67,0.3852606896296654
416,3652.41,0.3754939920737958
417,3655.16,0.3825683740888901
418,3657.9,0.4048203765330204
419,3660.64,0.44851357897715066
420,3663.3900000000003,0.401770760992245
421,3666.13,0.41887696343637537
422,3668.8700000000003,0.37294626588050567
423,3671.62,0.36065234789559997
424,3674.3599999999997,0.3883598503397303
425,3677.11,0.3986266323548246
426,3679.85,0.3896700347989549
427,3682.59,0.3642274372430852
428,3685.3399999999997,0.3894077192581795
429,3688.0800000000004,0.3906474217023098
430,3690.83,0.4091810037174041
431,3693.5699999999997,0.3884079061615344
432,3696.31,0.4297902086056648
433,3699.06,0.4407476906207591
434,3701.8,0.4192599930648894
435,3704.54,0.3797616955090197
436,3707.29,0.395031377524114
437,3710.03,0.3795231799682443
438,3712.7799999999997,0.3898139619833386
439,3715.52,0.408897364427469
440,3718.2599999999998,0.4372244668715993
441,3721.01,0.40432304888669357
442,3723.75,0.4008457513308239
443,3726.5,0.3967709333459182
444,3729.24,0.39553303579004856
445,3731.9799999999996,0.3923892382341789
446,3734.73,0.3450772202492732
447,3737.47,0.3433890226934035
448,3740.21,0.3746414251375338
449,3742.96,0.37461660715262807
450,3745.7000000000003,0.3668987095967584
451,3748.45,0.35462859161185273
452,3751.1899999999996,0.35570149405598306
453,3753.93,0.3805501965001134
454,3756.68,0.3823359785152076
455,3759.42,0.41018648095933796
456,3762.17,0.40165656297443225
457,3764.9100000000003,0.4051356654185626
458,3767.65,0.4096154678626929
459,3770.3999999999996,0.38190764987778725
460,3773.14,0.42038345232191754
461,3775.8799999999997,0.4379423547660479
462,3778.63,0.4462554367811421
463,3781.37,0.43815653922527253
464,3784.1200000000003,0.4138077212403668
465,3786.86,0.4514973236844971
466,3789.6000000000004,0.4190985261286274
467,3792.35,0.42512460814372177
468,3795.0899999999997,0.37631141058785206
469,3797.84,0.3833143926029463
470,3800.58,0.41969369504707665
471,3801.8939600000003,0.40951491805564716
472,3803.32,0.3984894221280701
473,3806.0699999999997,0.4204712126221507
474,3808.8100000000004,0.41591557260534373
475,3811.55,0.40476083258853673
476,3814.2999999999997,0.3835507230826174
477,3817.04,0.39988828306581037
478,3819.79,0.39637897355989093
479,3822.53,0.372478733543084
480,3825.27,0.356392493526277
481,3828.02,0.3131148840203576
482,3830.76,0.3250949440035506
483,3833.5099999999998,0.3381860344976312
484,3836.25,0.30605699448082424
485,3838.99,0.3236903544640173
486,3841.7400000000002,0.35668834495809787
487,3844.48,0.3582075049412909
488,3847.2200000000003,0.3927699649244839
489,3849.97,0.41615735541856447
490,3852.7099999999996,0.38603911540175756
491,3855.46,0.4055433058958381
492,3858.2,0.40884946587903115
493,3860.94,0.38890382586222416
494,3863.69,0.37317321635630474
495,3866.4300000000003,0.4110708763394978
496,3869.18,0.40875266683357836
497,3871.9199999999996,0.4145126268167714
498,3874.66,0.38134508679996443
499,3877.41,0.382648077294045
500,3880.15,0.3769251372772381
501,3882.89,0.3858772972604311
502,3885.6400000000003,0.36273758775451165
503,3888.38,0.3988247477377047
504,3891.1299999999997,0.3919325382317853
505,3893.87,0.4026713982149783
506,3896.6099999999997,0.4427133581981713
507,3899.36,0.4312707486922519
508,3902.1,0.42981220867544495
509,3904.8500000000004,0.44876829916952554
510,3907.59,0.4409250591527185
511,3910.3300000000004,0.46209891913591156
512,3913.08,0.44003100962999214
513,3915.8199999999997,0.45806006961318524
514,3918.56,0.4518844295963782
515,3921.31,0.4340333200904588
516,3924.05,0.39893608007365183
517,3926.7999999999997,0.3636225705677325
518,3929.5400000000004,0.3441058305509254
519,3932.28,0.31463779053411844
520,3935.0299999999997,0.2946953810281991
521,3937.77,0.2992234410113921
522,3940.52,0.32026213150547267
523,3943.26,0.37190099148866573
524,3946.0,0.39774405147185876
525,3948.7499999999995,0.4211551419659394
526,3951.49,0.44523540194913236
527,3954.23,0.4470406619323254
528,3956.98,0.4378374524264059
529,3959.72,0.428374312409599
530,3962.4700000000003,0.3930845029036796
531,3965.21,0.3415299628868726
532,3967.9500000000003,0.3169362228700656
533,3970.7,0.30481741336414625
534,3973.4399999999996,0.32402317334733927
535,3976.19,0.36332236384141986
536,3978.93,0.4096058238246129
537,3981.67,0.46589528380780587
538,3984.42,0.5036479743018865
539,3987.1600000000003,0.5090268342850796
540,3989.9,0.5180745942682725
541,3992.6499999999996,0.5370781847623531
542,3995.39,0.5430526447455462
543,3998.14,0.5565529352396268
544,4000.88,0.5616221952228198
545,4003.62,0.5503724552060129
546,4006.3700000000003,0.5571782457000933
547,4009.11,0.5597461056832864
548,4011.8599999999997,0.571268896177367
549,4014.6,0.5752185561605601
550,4017.3399999999997,0.587649316143753
551,4020.09,0.5778978066378336
552,4022.83,0.5785597666210267
553,4025.57,0.5891562266042197
554,4028.32,0.5771414170983002
555,4031.0600000000004,0.5636999770814933
556,4033.81,0.5561878675755739
557,4036.5499999999997,0.5642589275587669
558,4039.29,0.58088258754196
559,4042.04,0.5758957780360405
560,4044.78,0.5485890380192335
561,4047.5299999999997,0.5540845285133141
562,4050.2700000000004,0.5624176884965072
563,4053.01,0.5565520484797002
564,4055.7599999999998,0.5640725389737808
565,4058.5,0.5677124989569738
566,4061.24,0.5558671589401669
567,4063.9900000000002,0.5538344494342474
568,4066.73,0.5514232094174405
569,4069.4799999999996,0.556704299911521
570,4072.22,0.5507195598947141
571,4074.96,0.5425191198779071
572,4077.71,0.5617370103719878
573,4080.45,0.5682357703551808
574,4083.2000000000003,0.5689903608492614
575,4085.94,0.5853758208324543
576,4088.6800000000003,0.6030001808156473
577,4091.43,0.5966314713097279
578,4094.1699999999996,0.577329531292921
579,4096.91,0.558146491276114
580,4099.66,0.5408191817701946
581,4102.4,0.5097721417533877
582,4105.150000000001,0.5012120322474682
583,4107.89,0.5313909922306612
584,4110.63,0.5505638522138543
585,4113.38,0.5567264427079349
586,4116.12,0.5671798026911279
587,4118.87,0.5802987931852085
588,4121.61,0.5747429531684015
589,4124.35,0.5789307131515945
