,lambda (Angstroms),Total Flux (erg/s/cm^2/Angstrom)
0,100.09,0.5392454923530058
1,101.94999999999999,0.5377457326461673
2,104.08000000000001,0.5360279796833037
3,104.712855,0.5355176604557237
4,106.02000000000001,0.5299799610069641
5,107.99,0.5216341776575378
6,110.0,0.513120020376311
7,114.12,0.4956659253888558
8,118.13000000000001,0.4786776722206022
9,120.22644299999999,0.46980474894776086
10,120.89000000000001,0.46745064347338516
11,125.13,0.45239248399550963
12,126.87,0.4462130290594473
13,128.05,0.44202235542499146
14,131.03,0.43143873685322986
15,131.94,0.42820907014436976
16,134.07999999999998,0.4206086998300174
17,136.89,0.41063164815177916
18,138.038426,0.40655307472517066
19,140.07999999999998,0.4013708215415362
20,143.01,0.39395694337639847
21,147.02,0.38381458318028855
22,151.14000000000001,0.3733593584265796
23,155.02,0.36351497079308676
24,158.489319,0.3547128147141707
25,158.99,0.3537526603964897
26,161.95000000000002,0.3480762431922268
27,166.1,0.3401182633663177
28,169.97000000000003,0.3326963525043252
29,173.13,0.32663658256869327
30,177.16,0.3189081554416055
31,180.04,0.3133853084698903
32,181.970086,0.3096842119298162
33,182.13,0.30945033983568293
34,185.94,0.3038781469401198
35,191.15,0.2962573430963181
36,193.81,0.2923686076046651
37,197.87,0.2864300045647736
38,202.01,0.280374963350697
39,204.82,0.27626598553244697
40,208.929613,0.2702494485399947
41,210.07999999999998,0.26898335359385644
42,215.96,0.2625277551995682
43,219.98,0.25810969375653453
44,223.04000000000002,0.25474454084318043
45,227.17999999999998,0.2501953383839367
46,229.81,0.2474158562120017
47,234.09,0.24292967516717973
48,239.88329199999998,0.23667759778377845
49,240.09,0.23650672276883244
50,246.25,0.23124242018387905
51,251.98999999999998,0.22639475848653604
52,257.26,0.2218029289372333
53,260.24,0.2193643474156162
54,263.86,0.21631646796049744
55,268.77000000000004,0.2121429822862894
56,273.76,0.2078987645953937
57,275.42287,0.20648450447010866
58,278.85,0.20424588225178683
59,284.03999999999996,0.20085919972666585
60,289.99,0.1969473617672304
61,296.06,0.1929952039707979
62,300.87,0.18983722251283414
63,307.88,0.1852716898765917
64,316.227766,0.17983317307441746
65,317.96,0.17899009113270015
66,327.62,0.17427525138954778
67,338.35999999999996,0.16903192981113618
68,347.84000000000003,0.16440090079052702
69,356.76,0.16004766596227452
70,363.078055,0.15696798193472586
71,365.90999999999997,0.15593339490622268
72,375.3,0.15249676870232337
73,384.91999999999996,0.14896230197947877
74,394.8,0.14536201408304372
75,404.93,0.14166057443123325
76,414.36,0.13821149855447393
77,416.86938299999997,0.13729266224766512
78,422.06,0.13583883288971924
79,429.91,0.133641864020707
80,440.94,0.13056267342259179
81,451.21000000000004,0.12769100507294134
82,459.6,0.1253444241537041
83,470.3,0.12235586970294861
84,478.630092,0.12003131783012824
85,480.15000000000003,0.11970478886835186
86,490.2,0.11753959269429667
87,500.47,0.11533712363901837
88,506.26,0.11409935446501046
89,512.13,0.11290950793419412
90,520.45,0.11112134842612055
91,530.12,0.10904217714690526
92,539.98,0.10691251507027
93,549.5408739999999,0.10488708078610509
94,550.02,0.10480988415286126
95,560.24,0.10316240841012309
96,569.35,0.10168638460637114
97,579.9300000000001,0.09994183818071853
98,589.35,0.09842650644445693
99,600.3100000000001,0.09662578927572792
100,610.06,0.09504185994679475
101,619.98,0.09346700700648529
102,630.0500000000001,0.09182980721496148
103,630.957344,0.09168192986680357
104,640.2900000000001,0.09047653128591443
105,650.69,0.08915177002583478
106,658.23,0.08818064221227705
107,664.32,0.08741342915132652
108,675.11,0.08602329304399388
109,684.5,0.08479000299090272
110,695.63,0.08342701293468287
111,705.3,0.08214102567074341
112,716.76,0.08073941110530945
113,724.43596,0.07975708997591978
114,726.73,0.07953998608671721
115,735.15,0.0787469776639057
116,745.3799999999999,0.0778044276877345
117,755.75,0.0768334411240106
118,764.5,0.07600121910196776
119,775.13,0.07503856693278889
120,784.1099999999999,0.07420802075976665
121,795.02,0.07319162761548238
122,804.2199999999999,0.07233682557630594
123,815.41,0.07128394865691631
124,824.85,0.07043709108193524
125,831.763771,0.06968176789276066
126,834.4,0.06945768320645836
127,844.0699999999999,0.06892900012698297
128,855.8100000000001,0.06811109740484847
129,865.7199999999999,0.06745823009578944
130,875.74,0.06679333693567122
131,885.88,0.06613067121076119
132,894.08,0.0655885749499858
133,904.43,0.06485692823669004
134,914.9,0.06453543095860244
135,925.4999999999999,0.07101065140199038
136,934.0600000000001,0.08016267844683947
137,944.88,0.09554658218810902
138,954.992586,0.10635126209004239
139,955.82,0.10723658612127569
140,964.66,0.11476019201272317
141,975.83,0.06988756285067207
142,984.86,0.10987999674204887
143,993.98,0.1091198807386553
144,1005.49,0.12481282641858296
145,1014.79,0.11887007062564875
146,1024.18,0.08198662493794422
147,1036.04,0.10095500324932058
148,1045.6200000000001,0.13525655556154534
149,1055.3,0.13308640576846975
150,1065.06,0.11846378829115384
151,1074.92,0.12757383870853756
152,1084.87,0.11365761923115097
153,1094.9,0.12776582206952405
154,1096.4782,0.1271371408388168
155,1105.03,0.12383934549604703
156,1115.26,0.12122601604084222
157,1125.5800000000002,0.11367630216227784
158,1135.99,0.1257415538603539
159,1143.8700000000001,0.11842547434842682
160,1154.45,0.12082598213571258
161,1165.13,0.12194107056370991
162,1175.92,0.10093596469649
163,1184.07,0.1169405819144842
164,1195.02,0.09722141707240281
165,1206.0800000000002,0.08392638793510417
166,1214.44,0.06698994149859272
167,1225.68,0.09047811351457494
168,1234.17,0.11066608291098853
169,1245.59,0.11610157608025162
170,1254.23,0.11323621143773259
171,1258.92541,0.10948936101050977
172,1265.83,0.10409360236529544
173,1274.61,0.11767134330699755
174,1286.4,0.11954251571049049
175,1295.3200000000002,0.10618890858064797
176,1304.3,0.10459817227728638
177,1316.3600000000001,0.11596135839994325
178,1325.49,0.11243420416278382
179,1334.68,0.1053543307521053
180,1343.93,0.11358875816790764
181,1356.3600000000001,0.11065868938719661
182,1365.76,0.10392342886920117
183,1375.23,0.1055881393154334
184,1384.76,0.10551810058814652
185,1394.3600000000001,0.09638134282508731
186,1404.03,0.09755560602625582
187,1413.76,0.0993624500539052
188,1423.5600000000002,0.09926214504578228
189,1433.43,0.09855640100188705
190,1443.36,0.10058991778447271
191,1445.43977,0.10079367645486392
192,1446.6899999999998,0.10093163819610557
193,1453.37,0.09904547094986983
194,1463.44,0.09447953963705638
195,1473.59,0.09362532961470715
196,1483.8000000000002,0.09361538306020611
197,1494.09,0.09374557779616932
198,1504.44,0.09052285599998071
199,1511.3899999999999,0.0851186243590618
200,1518.36,0.08759389054075893
201,1525.3700000000001,0.08597995236768818
202,1535.95,0.07955960053158427
203,1546.59,0.08192532216332854
204,1553.73,0.07916644483726219
205,1564.5,0.07976998731601086
206,1575.3500000000001,0.08218568108522376
207,1586.27,0.08335377223359289
208,1593.59,0.08402767531107108
209,1604.6299999999999,0.08195971339513657
210,1615.76,0.0813973866809743
211,1623.21,0.0787878506054569
212,1634.47,0.08073817473829906
213,1645.8,0.08065714625029742
214,1653.39,0.07711247493309242
215,1659.58691,0.07880209670550323
216,1664.85,0.08028222072746972
217,1672.5400000000002,0.07542417461408833
218,1676.39,0.08005057137136813
219,1684.13,0.08114166339769167
220,1695.8100000000002,0.07796586883276391
221,1703.6299999999999,0.07593795788261534
222,1715.44,0.0736769384809204
223,1723.36,0.07297142381018171
224,1735.31,0.07495906919966057
225,1743.32,0.07356179118039075
226,1755.4,0.07547814173310244
227,1763.5,0.0717336903653015
228,1775.73,0.07235917533712798
229,1783.9199999999998,0.07252450062079592
230,1796.2900000000002,0.0743103203837962
231,1804.5800000000002,0.07368572194687402
232,1817.0900000000001,0.07033721650104811
233,1825.4799999999998,0.0705992243435358
234,1833.8999999999999,0.06894114106984642
235,1846.61,0.06535937818284027
236,1855.14,0.06528484081650174
237,1863.7,0.06599846233398618
238,1876.62,0.06798050163374073
239,1885.28,0.06468121943063504
240,1893.98,0.06288566573929329
241,1905.46072,0.06424391578443159
242,1907.11,0.06444786681643672
243,1915.91,0.06297293111235786
244,1924.76,0.06181482122814219
245,1933.64,0.06242920083584443
246,1947.04,0.0638616605591789
247,1956.03,0.061171624970580166
248,1965.06,0.06369512203787198
249,1974.13,0.06435254176105432
250,1983.24,0.06217396414012724
251,1996.9899999999998,0.060846694602504026
252,2006.21,0.06136343178527595
253,2015.47,0.060207341623938426
254,2024.77,0.06109104411849145
255,2034.1200000000001,0.059296732432907666
256,2043.51,0.05997895340321443
257,2052.94,0.05760426702941174
258,2067.17,0.05783267936247513
259,2071.93,0.060117885413450665
260,2076.71,0.05867168779237147
261,2086.3,0.05953537204213098
262,2095.93,0.05741033894778105
263,2105.6,0.05753308850932168
264,2115.32,0.05756737389072547
265,2125.08,0.05760285192801984
266,2134.8900000000003,0.05537298578517738
267,2144.75,0.05573850546219812
268,2154.65,0.056460107795109404
269,2164.59,0.055021302783911236
270,2174.58,0.05462125359257627
271,2184.62,0.05405540022110447
272,2187.7616199999998,0.05437825443675086
273,2194.7,0.05512424286976278
274,2204.83,0.054007199720554226
275,2215.01,0.052352629862810585
276,2225.24,0.05138182329653186
277,2235.51,0.05303967936342507
278,2245.83,0.051648268721783186
279,2256.19,0.05022746071331323
280,2266.61,0.05042909665460117
281,2277.0699999999997,0.05094511522906106
282,2287.58,0.051392347094985844
283,2292.85,0.04956093401538771
284,2303.43,0.04969567048936338
285,2314.07,0.04849131091309694
286,2324.75,0.04334975397000243
287,2335.48,0.046397090318372844
288,2346.26,0.045224099958208155
289,2357.09,0.0469907728895084
290,2362.52,0.04482542034259798
291,2373.43,0.04533620854024208
292,2384.38,0.0432903593710581
293,2395.39,0.04448916415163203
294,2406.44,0.043488721565377884
295,2417.55,0.04371818292888163
296,2423.13,0.04506496025636596
297,2434.31,0.043905416227920595
298,2445.5499999999997,0.044949606149233115
299,2456.83,0.04445111870371757
300,2462.5,0.04406990195583874
301,2473.86,0.04299450977666706
302,2485.28,0.043029171547253275
303,2496.76,0.04123946726759738
304,2502.51,0.04387495578606241
305,2511.88643,0.04156847604447571
306,2514.0600000000004,0.041039310399441614
307,2519.8599999999997,0.041372469959436414
308,2525.67,0.040549285501431206
309,2537.32,0.040721434531420755
310,2543.17,0.04038690400141551
311,2554.9100000000003,0.04185669686940498
312,2566.71,0.0410381656293944
313,2572.62,0.04213708099138909
314,2584.5,0.04168515760737844
315,2596.4300000000003,0.04117576413336774
316,2602.41,0.04021953136936238
317,2614.42,0.039729595751351605
318,2626.4900000000002,0.040566646025340776
319,2632.55,0.04147133111733534
320,2644.7,0.04338356924732445
321,2656.8999999999996,0.044147077287313506
322,2663.03,0.041487944253308005
323,2675.3199999999997,0.04226653613129698
324,2687.6699999999996,0.042395773901285905
325,2693.87,0.040735772741280346
326,2706.2999999999997,0.0413676883672692
327,2712.54,0.0398183811352636
328,2725.0600000000004,0.03931941059925237
329,2737.64,0.04029285595524108
330,2743.95,0.03717544059723543
331,2756.6099999999997,0.037721303809224074
332,2762.9700000000003,0.03855740836121836
333,2775.72,0.03932637541120693
334,2782.1200000000003,0.03762690389120119
335,2794.96,0.033444574779189676
336,2807.8599999999997,0.034450201559178106
337,2814.34,0.0384335178951723
338,2827.33,0.039520608513160645
339,2833.84,0.0386203127951548
340,2846.92,0.03753176725114307
341,2853.4900000000002,0.036184677425137174
342,2866.66,0.03861026571912537
343,2873.27,0.03900349982111943
344,2884.0315,0.03868941345825292
345,2886.5299999999997,0.038621924569288486
346,2893.1800000000003,0.03878294203398463
347,2913.2400000000002,0.04076950940869211
348,2926.68,0.03941529249523591
349,2946.97,0.03870998755669228
350,2967.4,0.03882333077530015
351,2987.97,0.03862270215105951
352,3008.6800000000003,0.03860946168397037
353,3029.54,0.038533177099543556
354,3050.53,0.03845658294675741
355,3071.68,0.03844247240214441
356,3092.97,0.038238530014682914
357,3107.2499999999995,0.03843986204413569
358,3128.79,0.037667832794444724
359,3150.4700000000003,0.03746393170190525
360,3172.31,0.037632714217538915
361,3186.9500000000003,0.03611431436538127
362,3209.05,0.03681509774429628
363,3231.29,0.035359129280362805
364,3253.69,0.03720784442460247
365,3268.71,0.038240408141856023
366,3291.3599999999997,0.03776927642386622
367,3306.56,0.03726559920031455
368,3311.31121,0.03711087014019232
369,3321.8199999999997,0.03678466167754338
370,3329.48,0.03798230905497528
371,3337.1499999999996,0.03719293940548478
372,3344.85,0.03648541867522703
373,3352.56,0.036099210918046874
374,3360.2799999999997,0.03689015613394431
375,3368.03,0.0366846002690745
376,3375.79,0.033707017377282274
377,3383.58,0.03448401340472282
378,3391.38,0.03682251240524094
379,3399.19,0.037574904378836656
380,3407.0299999999997,0.03585649527166514
381,3414.88,0.0363951491375712
382,3422.76,0.03772058192271002
383,3430.65,0.03699230768092644
384,3438.55,0.03716803641222044
385,3446.48,0.03365439406274721
386,3454.43,0.03649688765942914
387,3462.3900000000003,0.03424531422918867
388,3470.37,0.035533136745103375
389,3478.37,0.03335478520717325
390,3486.39,0.0350745896153983
391,3494.43,0.03440448996977852
392,3502.48,0.03607896329723633
393,3510.56,0.035505015543926904
394,3518.6499999999996,0.03446672076369507
395,3526.7599999999998,0.0340976519296184
396,3534.89,0.03575879904169691
397,3543.04,0.037204982099930596
398,3551.21,0.036797971104319455
399,3559.39,0.03614278308178591
400,3567.6000000000004,0.03556323397848511
401,3575.82,0.03318304784826191
402,3584.0699999999997,0.03222328063727147
403,3592.3300000000004,0.03236695639935861
404,3600.61,0.036116218107600934
405,3606.07,0.03458095140796362
406,3608.8199999999997,0.03311436900430015
407,3611.57,0.03569737660063666
408,3614.31,0.033159491223895596
409,3617.0600000000004,0.034644748820232114
410,3619.8,0.03364437344349105
411,3622.5499999999997,0.03831354103982757
412,3625.3,0.03846611863616409
413,3628.04,0.03706944325942302
414,3630.79,0.03384760085575954
415,3633.5299999999997,0.03434845547901847
416,3636.28,0.03108507307535499
417,3639.0299999999997,0.03775826067169151
418,3641.7699999999995,0.03326600529495044
419,3644.52,0.03339806289128696
420,3647.2700000000004,0.03411599048762348
421,3650.01,0.036416035110882414
422,3652.7599999999998,0.03654378270721893
423,3655.5,0.034840077330477864
424,3658.25,0.033714894926814384
425,3661.0,0.034530232523150906
426,3663.74,0.03533572714640983
427,3666.4900000000002,0.032434764742746355
428,3669.23,0.03602593936600529
429,3671.98,0.03662974696234181
430,3674.73,0.03387108455867832
431,3677.47,0.03323072918193726
432,3680.2200000000003,0.03308393677827377
433,3682.96,0.03449679140153271
434,3685.71,0.03600019899786923
435,3688.46,0.03191888659420575
436,3691.2,0.03548427121746468
437,3693.95,0.0351068388138012
438,3696.69,0.036655783437060135
439,3699.44,0.035234081033396654
440,3702.19,0.03397186862973317
441,3704.9300000000003,0.03267305325299211
442,3707.68,0.03438322084932863
443,3710.4199999999996,0.037410955472587555
444,3713.17,0.03920419306892407
445,3715.9199999999996,0.0381945606652606
446,3718.66,0.044753835288519526
447,3721.41,0.06840748288485604
448,3724.15,0.10638675750811498
449,3726.9,0.1392372751044515
450,3729.65,0.12164089270078803
451,3732.39,0.08177968732404695
452,3735.1400000000003,0.05088387492038347
453,3737.88,0.0369344595436424
454,3740.6299999999997,0.03744754713997892
455,3743.38,0.03598000473631544
456,3746.12,0.03381550935957438
457,3748.8700000000003,0.03373221695591089
458,3751.62,0.03456522455224741
459,3754.36,0.03745018917550634
460,3757.11,0.03810747677184286
461,3759.8500000000004,0.038182891395101795
462,3762.6,0.03806425899143832
463,3765.35,0.038025366587774834
464,3768.09,0.036294441211033764
465,3770.8399999999997,0.03847109880737029
466,3773.5800000000004,0.04024018343062922
467,3776.33,0.04154828102696574
468,3779.0800000000004,0.04298768862330225
469,3781.82,0.04311947324656119
470,3784.5699999999997,0.04261692084289771
471,3787.31,0.041912135466156644
472,3790.06,0.038909933062493164
473,3792.81,0.03724280065882968
474,3795.5499999999997,0.03690184528208861
475,3798.3,0.03689590287842513
476,3801.04,0.036410267501684065
477,3801.8939600000003,0.037115696716145175
478,3803.7900000000004,0.03868399123840709
479,3806.54,0.04237485203513121
480,3809.2799999999997,0.045241769119867235
481,3812.03,0.04320799991659135
482,3814.77,0.042796947001327384
483,3817.52,0.0415443577980515
484,3820.27,0.041771508594775617
485,3823.01,0.040756905679511644
486,3825.76,0.03956160647623576
487,3828.5000000000005,0.037541403560971784
488,3831.25,0.0350645343576959
489,3834.0,0.03553235515442002
490,3836.7400000000002,0.03560402223915604
491,3839.49,0.03598159303588016
492,3842.23,0.03714959012061619
493,3844.98,0.039777560917340304
494,3847.7299999999996,0.04350232171406442
495,3850.47,0.04331092879880045
496,3853.22,0.04380306959552456
497,3855.9700000000003,0.045314190392248675
498,3858.71,0.04398063747698471
499,3861.46,0.04615975827370882
500,3864.2,0.048880095358444856
501,3866.9500000000003,0.04785621615516897
502,3869.7,0.046111316951893085
503,3872.4399999999996,0.04618493403662911
504,3875.19,0.04361302483335323
505,3877.93,0.041419511918089257
506,3880.6800000000003,0.04105170271481337
507,3883.43,0.039395633511537485
508,3886.17,0.041004830596273516
509,3888.92,0.03999434139299763
510,3891.6600000000003,0.03848838847773366
511,3894.41,0.04100605927445777
512,3897.16,0.04147482007118189
513,3899.9,0.042109477155917924
514,3902.6499999999996,0.04314214795264203
515,3905.3900000000003,0.04454317503737806
516,3908.14,0.04516377583410217
517,3910.8900000000003,0.045502646630826295
518,3913.63,0.045058173715562325
519,3916.3799999999997,0.04506615451228643
520,3919.12,0.043470451597022466
521,3921.87,0.04299139239374658
522,3924.62,0.0411171031904707
523,3927.3599999999997,0.03764676027520673
524,3930.11,0.03645435107193084
525,3932.85,0.03597164815666687
526,3935.6000000000004,0.038116888953390986
527,3938.35,0.0397660097501151
528,3941.0899999999997,0.04222418683485113
529,3943.84,0.04215290763157524
530,3946.58,0.043472284716311274
531,3949.33,0.04321955551303539
532,3952.08,0.044278956309759504
533,3954.82,0.04266798339449553
534,3957.57,0.04008032419121965
535,3960.32,0.036661374987943765
536,3963.06,0.03401899207267979
537,3965.81,0.03350604286940391
538,3968.55,0.034564679954139935
539,3971.2999999999997,0.034756510750864056
540,3974.05,0.036498751547588165
541,3976.79,0.03877260863232419
542,3979.54,0.04167465942904831
543,3982.28,0.04463039651378434
544,3985.0299999999997,0.04457868731050846
545,3987.78,0.04567198810723257
546,3990.52,0.0467392551919686
547,3993.27,0.045861965988692716
548,3996.0099999999998,0.04672582307342874
549,3998.76,0.047476293870152855
550,4001.5099999999998,0.047427444666876976
551,4004.2499999999995,0.046581411751613004
552,4007.0,0.04769907254833712
553,4009.74,0.049494989633073146
554,4012.4900000000002,0.04956169042979726
555,4015.24,0.04887205122652138
556,4017.98,0.04942984831125741
557,4020.73,0.04837205910798152
558,4023.4700000000003,0.04731926619271755
559,4026.22,0.04851809698944167
560,4028.9700000000003,0.04681379778616578
561,4031.71,0.04702301487090181
562,4034.4600000000005,0.04859189566762592
563,4037.2000000000003,0.04871231275236196
564,4039.95,0.046712433549086066
565,4042.7000000000003,0.047718364345810185
566,4045.44,0.047468711430546214
567,4048.19,0.047562162227270326
568,4050.93,0.047063259312006354
569,4053.68,0.04568794010873047
570,4056.43,0.047183770905454586
571,4059.1699999999996,0.045171707990190615
572,4061.92,0.046992708786914736
573,4064.67,0.04711814958363885
574,4067.4100000000003,0.048611336668374874
575,4070.16,0.04669406746509899
