,lambda (Angstroms),Total Flux (erg/s/cm^2/Angstrom)
0,102.03999999999999,0.004514340000964848
1,103.92999999999999,0.005260610551861293
2,104.712855,0.00557210229001653
3,106.11,0.0051275607061901304
4,108.08,0.004505339545826283
5,110.09,0.003924273404541341
6,113.96,0.0027083398504255617
7,117.97,0.0014377838630859519
8,120.22644299999999,0.001084677312377122
9,120.99000000000001,0.0012023798504057414
10,124.96000000000001,0.001253798106755258
11,126.99000000000001,0.0012736516856946835
12,127.87,0.0012936901228703952
13,131.15,0.0013196699341616834
14,132.06,0.0014206132385138398
15,133.89,0.0014427931362769675
16,137.01,0.0015804393226272171
17,138.038426,0.0015988943590702215
18,139.88,0.0016587155925517534
19,143.14000000000001,0.0026523793738660716
20,147.15,0.00409611094842755
21,150.93,0.004380666946393231
22,155.15,0.004707752743063915
23,158.489319,0.0050128067013621175
24,159.13,0.005071151337727738
25,162.09,0.005340829565851079
26,165.87,0.00572688817473832
27,170.12,0.006086823404307307
28,172.89,0.006382001019814624
29,176.91,0.006738484349901055
30,180.20000000000002,0.007017974694673282
31,181.86999999999998,0.007227892921350979
32,181.970086,0.007237012016653413
33,186.10999999999999,0.0076186855984145966
34,190.88,0.008086729952801089
35,193.98,0.0084270648015638
36,198.04,0.008823179300265932
37,202.19,0.009236267484899884
38,205.0,0.009538408012326728
39,208.929613,0.009702119131324254
40,209.78,0.009738682302417931
41,216.14999999999998,0.010657965969361577
42,220.17,0.011112060817260079
43,223.23,0.011348621373123117
44,226.86,0.011830132914882212
45,230.02,0.01761877329283228
46,233.76000000000002,0.028912470638887102
47,239.75,0.03783434398190005
48,239.88329199999998,0.03779594329486361
49,245.9,0.036045025711241775
50,252.21,0.037990738276759584
51,256.90000000000003,0.030398533654299755
52,259.87,0.036779033498925404
53,264.1,0.03885638448975588
54,269.01,0.03867267022615722
55,274.01,0.038488617473001745
56,275.42287,0.03831673552463419
57,279.1,0.03787940593642658
58,284.29,0.03797254100661849
59,290.24,0.03619534433371711
60,296.32,0.03620252038897083
61,301.14,0.034188155386721306
62,308.15,0.03483175865108456
63,316.227766,0.035231950325221806
64,318.24,0.03532674104440058
65,327.92,0.03467014486235624
66,337.88,0.033641650402318896
67,348.15,0.03264131677736071
68,357.08,0.03225966276851196
69,363.078055,0.03235168261774235
70,366.23999999999995,0.03240598811191353
71,374.77000000000004,0.03153066224654769
72,385.27,0.02950776934076326
73,395.15000000000003,0.03006313824465372
74,405.29,0.029863686067067605
75,413.77,0.029061170025062654
76,416.86938299999997,0.028712604414742385
77,422.43999999999994,0.028084326133255226
78,430.28999999999996,0.02726375069983412
79,441.33,0.026895703198564186
80,450.57,0.02611138789858826
81,460.0,0.02506195419958685
82,469.64,0.024385731743767812
83,478.630092,0.02403644348112581
84,479.46999999999997,0.02400287503884136
85,489.51,0.022817478565257888
86,499.76,0.02275925934670903
87,505.55,0.022037719378377525
88,512.5799999999999,0.02338524558263133
89,519.71,0.022642868574996856
90,530.59,0.02167187112155182
91,540.4599999999999,0.020272922108178427
92,549.5408739999999,0.01960858814101474
93,550.51,0.01953810252791182
94,559.45,0.02003499320903242
95,569.85,0.01989566350921746
96,580.45,0.019176912661329128
97,589.88,0.018826602529669986
98,599.46,0.01769623153695582
99,610.61,0.01567138753186574
100,620.53,0.01748995658742685
101,630.61,0.016743212724529274
102,630.957344,0.016743149975151743
103,639.38,0.016745697081307027
104,649.77,0.016183158495932833
105,657.3,0.015531726758890708
106,664.91,0.015712197207909225
107,675.71,0.01550152232609582
108,685.11,0.014542479188221193
109,694.64,0.014745852102695104
110,704.31,0.01367726384277514
111,715.75,0.014157506449446867
112,724.43596,0.013908397446153041
113,725.7099999999999,0.01387170632030031
114,735.8000000000001,0.013622308418554987
115,744.3199999999999,0.013195092786952396
116,754.68,0.012840387488430935
117,765.1800000000001,0.011669154280469995
118,775.8199999999999,0.012299163163069577
119,784.8,0.01172586011473727
120,795.72,0.011727533178457891
121,804.9399999999999,0.011595907999657906
122,814.26,0.011388038599829719
123,825.58,0.011209864779437544
124,831.763771,0.010550373668165667
125,835.1400000000001,0.010188609129508877
126,844.8100000000001,0.010707982756527646
127,854.5999999999999,0.010415825104874462
128,864.49,0.010341753054327989
129,874.5,0.010151659725109565
130,884.63,0.009965083117219194
131,894.87,0.009781758670546203
132,905.2399999999999,0.009536138505311932
133,915.72,0.009403068501295042
134,924.19,0.0157142469150333
135,934.89,0.02215283623345117
136,945.72,0.028376990833307764
137,954.47,0.0317525209301448
138,954.992586,0.03186687499211805
139,965.52,0.034173568785888495
140,974.45,0.017975063257583978
141,985.7399999999999,0.030116259414968295
142,994.86,0.028763823556274312
143,1004.06,0.03301437334794267
144,1015.69,0.032559441019366905
145,1025.09,0.02100394993694109
146,1034.57,0.028500424504877612
147,1044.1499999999999,0.03635476363576705
148,1053.81,0.03520232841701882
149,1066.01,0.03109557509727468
150,1075.8700000000001,0.03316267900443229
151,1085.83,0.028171897474542813
152,1095.88,0.033237031051310956
153,1096.4782,0.03314460140441011
154,1106.02,0.03166916480135888
155,1116.25,0.030948193965013776
156,1123.99,0.02823051685129813
157,1134.3899999999999,0.03151982708609881
158,1144.88,0.029826292005623724
159,1155.48,0.029893428206478265
160,1166.17,0.029687259092057043
161,1174.25,0.022952774120632954
162,1185.1200000000001,0.028284384375660207
163,1196.0800000000002,0.024416839315411693
164,1204.3700000000001,0.021078708608344154
165,1215.52,0.015145541215846808
166,1223.94,0.02315632838671428
167,1235.27,0.026883190363665408
168,1243.83,0.02756870371077058
169,1255.3400000000001,0.026880205057170183
170,1258.92541,0.026308599841191885
171,1264.04,0.025494136836229326
172,1275.74,0.02769469845375208
173,1284.58,0.027823285453658163
174,1296.47,0.02457485937095265
175,1305.45,0.02446338806542738
176,1314.5,0.02681835760718643
177,1323.6100000000001,0.025789657875189193
178,1335.8600000000001,0.024074156149945923
179,1345.12,0.02578987823355795
180,1354.45,0.0251480711644543
181,1363.8300000000002,0.023526574700553738
182,1376.4499999999998,0.023526907453813323
183,1385.99,0.023419102926562643
184,1395.6,0.01980403924659629
185,1405.28,0.019577836413914262
186,1415.02,0.021960484307475936
187,1424.82,0.021462052927281323
188,1434.6999999999998,0.021709882515411647
189,1441.3200000000002,0.02201127264430059
190,1445.43977,0.02194882077439531
191,1447.98,0.021910308315977307
192,1454.66,0.02136391617686024
193,1464.74,0.020358318577713527
194,1474.9,0.020218531791271994
195,1485.1200000000001,0.02021872561435935
196,1495.41,0.019988190148563744
197,1505.78,0.019222735495473323
198,1512.73,0.017902326099236254
199,1516.22,0.01840239155349994
200,1526.73,0.018192488322643592
201,1533.7700000000002,0.016369739840699855
202,1544.4099999999999,0.01588891793048943
203,1555.1100000000001,0.0154929166298079
204,1565.89,0.01625789614183155
205,1576.74,0.01686625636497224
206,1584.02,0.017060840321144053
207,1595.0,0.017139321864930668
208,1606.06,0.016597374221422465
209,1613.4699999999998,0.016408399498240207
210,1624.66,0.01596266317537793
211,1635.9199999999998,0.016408467563632692
212,1643.47,0.016295984262684506
213,1654.86,0.015781039971585194
214,1659.58691,0.01600871322847657
215,1666.33,0.01633392824722725
216,1670.17,0.015247863128849884
217,1677.8799999999999,0.016561305117732832
218,1685.6299999999999,0.01659974007413268
219,1693.4099999999999,0.015892497256170205
220,1705.14,0.01546207748050185
221,1716.9599999999998,0.014939984381746523
222,1724.89,0.014804022691972434
223,1736.8500000000001,0.015464299979526265
224,1744.8600000000001,0.015148864224785981
225,1756.9599999999998,0.015715991898648973
226,1765.07,0.014773013562700943
227,1773.22,0.014875778194269816
228,1785.5099999999998,0.015117119963838094
229,1793.75,0.015863341272319996
230,1806.18,0.015719673428197432
231,1814.52,0.014810662155471596
232,1827.1000000000001,0.015051045439537414
233,1835.53,0.014710800843724605
234,1844.0,0.0133617192154287
235,1856.7800000000002,0.013893327337079032
236,1865.3500000000001,0.014612363127575382
237,1873.96,0.015020211885588634
238,1886.95,0.014250385586702703
239,1895.66,0.014349091763508213
240,1904.41,0.014682230907830622
241,1905.46072,0.014662348764639701
242,1913.1999999999998,0.01451458875851173
243,1926.47,0.013673919760917405
244,1935.3600000000001,0.012765289618595358
245,1944.29,0.015122335651111008
246,1953.27,0.014610646902173778
247,1966.81,0.016122702084733903
248,1975.88,0.015720304729181487
249,1985.0,0.015937112592176197
250,1994.17,0.015936095673718023
251,2003.37,0.01571773588638812
252,2017.26,0.015897647598778087
253,2026.57,0.014908047292251848
254,2035.9199999999998,0.016227343160563307
255,2045.32,0.01730284424742189
256,2054.7599999999998,0.016151151509118163
257,2064.25,0.01607633398936156
258,2073.77,0.017947273600733227
259,2078.56,0.023531185537547333
260,2083.35,0.02651668747436144
261,2092.96,0.024693448479117922
262,2102.62,0.023910714702421523
263,2117.2,0.02627100043076175
264,2126.97,0.023908336134869018
265,2136.79,0.0227810270575234
266,2146.65,0.02706443415501549
267,2156.56,0.02700159647105469
268,2166.51,0.024070974961931595
269,2176.51,0.024348148671355613
270,2186.56,0.028792877599326756
271,2187.7616199999998,0.02883236255895382
272,2196.65,0.029125960378136286
273,2206.79,0.028140723495665116
274,2216.98,0.023201090425410558
275,2227.21,0.025968030404929288
276,2237.4900000000002,0.032527094196664635
277,2242.65,0.030994907617418948
278,2253.0,0.024689186746257547
279,2263.4,0.023418779687312756
280,2273.85,0.025033026440584583
281,2284.34,0.03179403624362969
282,2294.89,0.02701165062133474
283,2305.48,0.031878858048813075
284,2316.1200000000003,0.02797088928850802
285,2326.81,0.023014784340419578
286,2337.5499999999997,0.021096123204547745
287,2342.94,0.015764174161498477
288,2353.76,0.026307809125173224
289,2364.62,0.016856697138621264
290,2375.5299999999997,0.020968198964285912
291,2386.5,0.013814695364610493
292,2397.5099999999998,0.016523974814708364
293,2403.04,0.016450486445865605
294,2414.13,0.018925821995510055
295,2425.2799999999997,0.03024114211981444
296,2436.47,0.030040175293892118
297,2447.72,0.035289863042629724
298,2453.36,0.03695353306066351
299,2464.68,0.032646576146504375
300,2476.06,0.028646093807005175
301,2487.49,0.018739195279722582
302,2493.23,0.022057172922189592
303,2504.73,0.03305119973201026
304,2510.51,0.016041600424250558
305,2511.88643,0.015309001675015392
306,2516.29,0.01296475542620984
307,2522.09,0.014340594276538957
308,2533.74,0.02237939050176899
309,2545.4300000000003,0.023597105546656467
310,2557.18,0.040124168821030114
311,2563.08,0.030457684720502833
312,2574.9100000000003,0.03824402563419136
313,2586.79,0.033942865072451686
314,2592.75,0.030542529201410575
315,2604.72,0.026310235983900147
316,2616.7400000000002,0.02373270129096152
317,2622.78,0.03214069305923529
318,2634.88,0.054419566005611555
319,2647.05,0.07339946688638833
320,2653.15,0.10037611688414827
321,2665.3900000000003,0.06620406569932558
322,2677.7000000000003,0.0744583524489034
323,2683.87,0.08608017038106386
324,2696.2599999999998,0.062391744769956584
325,2702.4700000000003,0.07675086152177449
326,2714.95,0.05524847325489644
327,2727.48,0.04451963351259021
328,2733.77,0.056421697903722985
329,2746.38,0.03198270580073164
330,2752.7200000000003,0.044129238716436224
331,2765.42,0.058031933957674114
332,2778.1899999999996,0.061904447133312536
333,2784.59,0.036398708278503285
334,2797.44,0.016335559093456582
335,2803.89,0.019628508763219137
336,2816.8399999999997,0.05408341662731604
337,2823.33,0.07887845511673602
338,2836.36,0.07346532062014782
339,2842.9,0.05251457763413963
340,2856.0200000000004,0.02963180048178066
341,2862.6099999999997,0.07248999602034426
342,2875.82,0.09823524621221454
343,2882.45,0.08960729057043558
344,2884.0315,0.09194202067632615
345,2895.7500000000005,0.10924209682584646
346,2909.12,0.14737618875171135
347,2929.28,0.1290045765770992
348,2949.59,0.11906256431190217
349,2970.03,0.12357075196819821
350,2990.62,0.12591083953390936
351,3011.35,0.12595552701507454
352,3032.22,0.13469781441169384
353,3053.24,0.14207130171772825
354,3067.34,0.15296539320274652
355,3088.6000000000004,0.14851018036384506
356,3110.01,0.1717489674343587
357,3131.57,0.15814775441428738
358,3153.2700000000004,0.15711864130967015
359,3167.83,0.17430783251689475
360,3189.7799999999997,0.15258311926130266
361,3211.8999999999996,0.16929650590304768
362,3226.7200000000003,0.14447269695325843
363,3249.09,0.2017881834440286
364,3271.6099999999997,0.23552986984421387
365,3286.71,0.23129036072533277
366,3309.49,0.21594034696850417
367,3311.31121,0.21389987553385978
368,3324.7700000000004,0.19882059049730375
369,3332.4300000000003,0.2101409020684988
370,3340.11,0.1886178134088093
371,3347.82,0.22626102440279283
372,3355.5299999999997,0.21911503539677635
373,3363.27,0.143811246044433
374,3371.02,0.1745088565766473
375,3378.79,0.21127526687797704
376,3386.58,0.20601937694842215
377,3394.39,0.21426828678798265
378,3402.21,0.26001309651210086
379,3410.06,0.21089900588989216
380,3417.92,0.18929981515224115
381,3425.8,0.2329070241837055
382,3433.6899999999996,0.2643840330997276
383,3441.61,0.21692264166942277
384,3449.54,0.1960552501236756
385,3457.49,0.22877965834704383
386,3465.46,0.2016011663395275
387,3473.4500000000003,0.24977057410112652
388,3481.46,0.20682618163184094
389,3489.4900000000002,0.23694488893167076
390,3497.5299999999997,0.21121229611605827
391,3505.59,0.26046280306956116
392,3513.67,0.22899760979217948
393,3521.77,0.26721071628391313
394,3529.89,0.18154302254476223
395,3538.0299999999997,0.2529296285747267
396,3546.19,0.26671113437380656
397,3554.3599999999997,0.2643109400574441
398,3562.5499999999997,0.2416434455101971
399,3570.77,0.1924270506166231
400,3579.0,0.21543385560760683
401,3587.25,0.16345986036770596
402,3595.52,0.2362792648969205
403,3603.81,0.2867174691952504
404,3612.11,0.20350057337813798
405,3620.4399999999996,0.2309995772146987
406,3628.79,0.2928480808203748
407,3637.15,0.21965258431060855
408,3645.54,0.2842928874545154
409,3653.94,0.24879409048297998
410,3662.36,0.33642799328055994
411,3670.81,0.30334949573181297
412,3679.27,0.30130699806762373
413,3687.75,0.28384170017254984
414,3696.25,0.3199839020465914
415,3704.77,0.33281440368974824
416,3713.3100000000004,0.2548534051020206
417,3721.87,0.26504650628340826
418,3730.4500000000003,0.2657111072339114
419,3739.0499999999997,0.14707480795352987
420,3747.67,0.21654600844226374
421,3756.31,0.25095570870011297
422,3764.9700000000003,0.24470570872707767
423,3773.65,0.2545185085231577
424,3782.35,0.3095746080883532
425,3791.07,0.262335707422664
426,3799.81,0.2222933065260902
427,3801.8939600000003,0.24092005475924638
428,3808.57,0.3005915214570308
429,3817.35,0.26304874121790556
430,3826.14,0.21583496088739176
431,3834.96,0.18205818028271242
432,3843.81,0.17150739940386753
433,3852.67,0.2554442184336341
434,3861.55,0.2164614372806236
435,3870.45,0.262668455944836
436,3879.37,0.27195957442627144
437,3882.9700000000003,0.21810184152640233
438,3885.98,0.2692019140184562
439,3888.98,0.2997350866018986
440,3891.98,0.09775096918534103
441,3894.98,0.1359071317687834
442,3897.9799999999996,0.14246980435222584
443,3900.98,0.15802937693566824
444,3903.98,0.2851464495191106
445,3906.98,0.24304062210255303
446,3909.98,0.19830559468599543
447,3912.98,0.14828946726943784
448,3915.98,0.29082543985288023
449,3918.98,0.29123051243632264
450,3921.98,0.26183698501976505
451,3924.99,0.1664827575118189
452,3927.9900000000002,0.20464923009526134
453,3930.99,0.21697170267870372
454,3933.99,0.1439236752621461
455,3936.9900000000002,0.09033944784558855
456,3939.99,0.17415592042903094
457,3942.9900000000002,0.30277689301247335
458,3945.99,0.27583236559591573
459,3948.99,0.3555047381793581
460,3951.9900000000002,0.32998431076280055
461,3954.99,0.32499558334624296
462,3957.9900000000002,0.37506085592968536
463,3961.0,0.32663252842173923
464,3963.9999999999995,0.40364500100518164
465,3967.0,0.39485277358862403
466,3970.0,0.47150684617206645
467,3973.0,0.3918359187555088
468,3976.0,0.3598998913389512
469,3978.9999999999995,0.4021237639223937
470,3982.0,0.41267533650583604
471,3985.0,0.45166770908927845
472,3988.0,0.42051568167272085
473,3991.0,0.43600975425616323
474,3994.0,0.40433492683960565
475,3997.0,0.45974649942304807
476,4000.0099999999998,0.4116762719151019
477,4003.01,0.39656334449854436
478,4006.0099999999998,0.3905750170819868
479,4009.01,0.3291746896654291
480,4012.0099999999998,0.34868416224887155
481,4015.0099999999998,0.448197234832314
482,4018.01,0.40751690741575636
483,4021.0099999999998,0.43213537999919877
484,4024.01,0.3794790525826412
485,4027.0099999999998,0.34880242516608356
486,4030.0099999999998,0.416595697749526
487,4033.01,0.4153120703329684
488,4036.0099999999998,0.4143373429164108
489,4039.02,0.4190416154084647
490,4042.02,0.4156668879919071
491,4045.0199999999995,0.38743776057534945
492,4048.02,0.41250753315879185
493,4051.02,0.4221543057422343
494,4054.02,0.43550777832567666
495,4057.02,0.41417135090911905
496,4060.0199999999995,0.4604821234925615
497,4063.02,0.42386499607600386
498,4066.02,0.3771035686594463
499,4069.02,0.3545533412428887
500,4072.02,0.3952565138263311
501,4075.0199999999995,0.3837809864097735
502,4078.03,0.36904655890182736
503,4081.0299999999997,0.47573523148526975
504,4084.03,0.4160003040687122
505,4087.0299999999997,0.3613006766521546
506,4090.03,0.393972349235597
507,4093.0299999999997,0.4172601218190394
508,4096.03,0.3562873944024818
509,4099.03,0.3961825669859242
510,4102.03,0.3586406395693666
511,4105.03,0.42246391215280904
512,4108.03,0.4124833847362514
513,4111.03,0.3854916573196938
514,4114.04,0.3523656298117477
515,4117.04,0.37116060239519005
516,4120.04,0.4416625749786325
517,4123.04,0.39955644756207487
518,4126.04,0.3800953201455173
519,4129.04,0.3921894927289597
520,4132.04,0.4129347653124021
521,4135.04,0.4193974378958445
522,4138.04,0.3549555104792869
523,4141.04,0.38059558306272934
524,4144.04,0.4241501556461717
525,4147.04,0.4178528282296141
526,4150.04,0.38995810081305654
527,4153.05,0.3944228733051104
528,4156.05,0.4284488458885528
529,4159.05,0.4077066184719952
530,4162.05,0.3944946910554376
531,4165.05,0.38254216363888
532,4168.05,0.4178294362223224
533,4171.05,0.4035958088057648
534,4174.05,0.42626378138920723
535,4177.05,0.4755706539726496
536,4180.05,0.445701726556092
537,4183.05,0.4394280991395344
538,4186.05,0.4349862717229768
539,4189.06,0.3787638442150307
540,4192.06,0.39530141679847314
541,4195.0599999999995,0.3617750893819155
542,4198.06,0.4484330619653579
543,4201.0599999999995,0.42353053454880035
544,4204.06,0.4684651071322427
545,4207.06,0.4555857797156851
546,4210.0599999999995,0.4660878522991275
547,4213.06,0.4801564248825699
548,4216.0599999999995,0.45508729746601234
549,4219.06,0.4147395700494547
550,4222.06,0.4350334426328971
551,4225.0599999999995,0.4329656152163395
552,4228.07,0.45254268770839345
553,4231.07,0.4908004602918358
554,4234.07,0.41549933287527824
555,4237.07,0.39135710545872066
556,4240.070000000001,0.394233678042163
557,4243.07,0.4374555506256054
558,4246.07,0.4556801232090478
559,4249.07,0.47545139579249024
560,4252.07,0.4371945683759326
561,4255.070000000001,0.39055004095937507
562,4258.07,0.4440844135428174
563,4261.07,0.5830678861262598
564,4264.07,0.45986315870970224
565,4267.08,0.3150578312017561
566,4270.08,0.3118987037851985
567,4273.08,0.32292367636864094
568,4276.08,0.3012527489520833
569,4279.08,0.3963477215355257
570,4282.08,0.48564309411896817
571,4285.08,0.49745206670241054
572,4288.08,0.45387503928585293
573,4291.08,0.47751731186929536
574,4294.08,0.5007554844527378
575,4297.08,0.5109984570361801
576,4300.08,0.5110691296196225
