,lambda (Angstroms),Total Flux (erg/s/cm^2/Angstrom)
0,100.09,0.03738473411085009
1,101.94999999999999,0.04491632812482472
2,104.09,0.053581710425543744
3,104.712855,0.05610380239071945
4,106.02000000000001,0.0516874707803889
5,107.99,0.04503161158649167
6,110.0,0.038240608925662216
7,114.13,0.0242869559610167
8,117.87,0.011650961272203874
9,120.22644299999999,0.003689479289663591
10,120.89000000000001,0.0035857480111175432
11,125.14000000000001,0.0029213448321193662
12,126.88,0.002649332902868328
13,128.06,0.002464864572228081
14,131.04,0.001999006274448138
15,131.95,0.0018567566192018467
16,134.09,0.0015222167948430924
17,136.9,0.0010829569862726746
18,138.038426,0.0009049946802808885
19,140.09,0.0008936887023331506
20,143.02,0.0008777109598068594
21,147.03,0.000855989178589307
22,151.15,0.0008334513976226446
23,155.02,0.0008123524562039593
24,158.489319,0.0007934840860322087
25,159.0,0.0007891940096954289
26,161.95999999999998,0.0007643676745457097
27,166.11,0.0007296280205722854
28,169.98,0.0006973125459103214
29,173.14,0.000670967826966702
30,177.17,0.0006374625992696179
31,180.05,0.0006136146446374583
32,181.970086,0.0005977329340470578
33,182.14000000000001,0.0005982328201742493
34,185.95000000000002,0.0006095705927430578
35,191.16,0.0006251695049513233
36,193.82,0.0006334048205662918
37,197.88,0.0006458549678207178
38,202.02,0.0006587486644545411
39,204.83,0.0006677088872808801
40,208.929613,0.0006803780880825554
41,210.09,0.0007000337088478763
42,215.97000000000003,0.0008013475146838414
43,219.99,0.0008705590382655722
44,223.04999999999998,0.0009231438668128597
45,227.19,0.0009949075460238962
46,229.82,0.0010539137452328397
47,234.1,0.0011571428693447324
48,239.88329199999998,0.0012790888646504396
49,240.1,0.001277106153899882
50,246.26,0.0011994344217083088
51,252.0,0.0011377495939843426
52,257.27,0.0010551576045931754
53,260.25,0.001037958006227771
54,263.87,0.001003092634387918
55,268.78,0.0009472184488261287
56,273.78,0.0008897445623069944
57,275.42287,0.0008710303081872531
58,278.87,0.0009291002696798678
59,284.05,0.0010164789695744929
60,290.0,0.0011091976816156159
61,296.07,0.0012167421423029464
62,300.88,0.001294135192205098
63,307.89,0.0014178302339543877
64,316.227766,0.001565712281316553
65,317.98,0.0015525289274731925
66,327.64,0.001475881677174602
67,338.37,0.0013864200982197494
68,347.85,0.0013098670022745483
69,356.78000000000003,0.0012383545668535943
70,363.078055,0.001188628511322968
71,365.93,0.0012203403979778869
72,375.32000000000005,0.001320782535103143
73,384.94,0.001412007446407185
74,394.82000000000005,0.0015313809850437694
75,404.95000000000005,0.0016417939999616436
76,414.38000000000005,0.0017393123412919058
77,416.86938299999997,0.0017648052427539649
78,422.08000000000004,0.0018007924331346807
79,429.93,0.0018550922228408046
80,440.96000000000004,0.0019363129871030403
81,451.23,0.0020052602165657025
82,459.62,0.0020610928283662606
83,470.32,0.0021317227735707864
84,478.630092,0.0021906212663763613
85,480.16999999999996,0.002183737266663023
86,490.22999999999996,0.002128284885340974
87,500.49,0.0020825775008117267
88,506.29,0.0020733250078029905
89,512.15,0.0022204561938320953
90,520.47,0.0021888619204126665
91,530.15,0.0021510626051842938
92,540.0,0.002080022497229802
93,549.5408739999999,0.0021352642137554274
94,550.04,0.0021403617186311584
95,560.27,0.0022316432610290844
96,569.37,0.0023019224043156067
97,579.96,0.0022705936490853076
98,589.38,0.002400356861146741
99,600.3399999999999,0.002406387466687432
100,610.09,0.0024916354059229917
101,620.01,0.002698535537945223
102,630.0799999999999,0.002786223545955694
103,630.957344,0.002789239604515867
104,640.32,0.0028683408992560863
105,650.72,0.003089749794000728
106,658.26,0.0032115152676905926
107,664.3499999999999,0.0033663244964400995
108,675.1400000000001,0.003480468312237666
109,684.54,0.003507438486333784
110,695.6600000000001,0.004061499619945363
111,705.34,0.004001846275823067
112,716.8,0.004569820494455144
113,724.43596,0.004721419885030758
114,726.7700000000001,0.0047648642919394845
115,735.18,0.004938984480906926
116,745.41,0.005374181581161021
117,755.7800000000001,0.005668442828437165
118,764.53,0.0059243565173153
119,775.1700000000001,0.006417160690991113
120,784.15,0.006839009835691188
121,795.0500000000001,0.007173241568122237
122,804.26,0.007493831168644251
123,815.45,0.007803714562763832
124,824.8900000000001,0.008460485619107786
125,831.763771,0.007831126817468883
126,834.44,0.007572162981992492
127,844.11,0.009007490268444825
128,855.8499999999999,0.00932843333389988
129,865.76,0.009949869246903255
130,875.7800000000001,0.010602418655409188
131,885.9200000000001,0.011379372877190642
132,894.12,0.012005523451017854
133,904.48,0.012221906663804426
134,914.95,0.01774653737209356
135,925.54,0.10755070989365821
136,934.1099999999999,0.23674813022508495
137,944.9200000000001,0.4617135577376547
138,954.992586,0.6365314543457012
139,955.87,0.651762321655823
140,964.71,0.7744389359937269
141,975.88,0.1486298362374359
142,984.91,0.7481664434174441
143,994.0200000000001,0.7655845054783383
144,1005.5300000000001,1.0443666139658128
145,1014.84,0.9814533632289221
146,1024.23,0.4087041673729173
147,1036.0900000000001,0.731120578464268
148,1045.6699999999998,1.3419729754503678
149,1055.3500000000001,1.3389865160375747
150,1065.12,1.1138020058657785
151,1074.97,1.3084984505748682
152,1084.92,1.0834758388850656
153,1094.96,1.3795511764362598
154,1096.4782,1.3734667294281555
155,1105.09,1.3389431187833098
156,1115.31,1.3175340786106708
157,1125.6299999999999,1.2099718619197086
158,1136.05,1.4780544687104233
159,1143.9199999999998,1.3606165767183815
160,1154.51,1.4410938834279463
161,1165.19,1.5020380312710204
162,1175.97,1.1059880025957711
163,1184.1200000000001,1.461074616352424
164,1195.08,1.0586412699441927
165,1206.14,0.7995233470176383
166,1214.5,0.46887099008581234
167,1225.74,0.9971007494262759
168,1234.23,1.4881291630206297
169,1245.6499999999999,1.6505020046281116
170,1254.2900000000002,1.6093017534449803
171,1258.92541,1.532823292247835
172,1265.89,1.4179294455453328
173,1274.67,1.7807995479299115
174,1286.46,1.8646380282390442
175,1295.3799999999999,1.5582341482015092
176,1304.36,1.543971275697354
177,1316.43,1.8646417911622593
178,1325.55,1.80553993623599
179,1334.74,1.6504830900986645
180,1343.99,1.9037622514947183
181,1356.43,1.8604068134154657
182,1365.8300000000002,1.704557993644969
183,1375.3000000000002,1.7808121826634156
184,1384.83,1.8139303792152421
185,1394.43,1.6130075845560115
186,1404.1000000000001,1.6774047986857243
187,1413.8300000000002,1.7283650203488168
188,1423.6299999999999,1.7604582508008524
189,1433.5,1.7604574900418308
190,1443.43,1.8476627368161895
191,1445.43977,1.863136407551931
192,1446.76,1.8733011282789158
193,1453.44,1.8391428322048855
194,1463.51,1.7283918933627473
195,1473.66,1.72837696295086
196,1483.87,1.7564470388616609
197,1494.1599999999999,1.7849721232027131
198,1504.52,1.7163962149202352
199,1511.46,1.5618239462445211
200,1518.44,1.6544226817839327
201,1525.4499999999998,1.6204784204846885
202,1536.02,1.4476155343316195
203,1546.67,1.5653986566088018
204,1553.81,1.4915584090087157
205,1564.5800000000002,1.5228435439312746
206,1575.4199999999998,1.6205096862303034
207,1586.34,1.6851428369595833
208,1593.66,1.7323146083275622
209,1604.71,1.6890537727560004
210,1615.8300000000002,1.6967639445609082
211,1623.29,1.6241947306818263
212,1634.54,1.7164379161858923
213,1645.8700000000001,1.7443821101202093
214,1653.47,1.6316649109940669
215,1659.58691,1.706936641813026
216,1664.93,1.7726896673940147
217,1672.62,1.6093655852859678
218,1676.4699999999998,1.7850095480797283
219,1684.2099999999998,1.8476945044495223
220,1695.8899999999999,1.7564714928731908
221,1703.71,1.7007235108075305
222,1715.5200000000002,1.6393045992735857
223,1723.44,1.6355206941636076
224,1735.39,1.7323608903676175
225,1743.3999999999999,1.6968290545177531
226,1755.48,1.79736335076415
227,1763.59,1.6621065918699678
228,1775.81,1.7165319958543197
229,1784.01,1.7404553062202512
230,1796.37,1.8392738179425578
231,1804.6599999999999,1.8266371975686035
232,1812.9899999999998,1.7244946079769217
233,1825.56,1.7525662813061609
234,1833.99,1.7007987686701613
235,1846.7,1.5800505497373556
236,1855.23,1.598344114057038
237,1863.79,1.643204701463425
238,1876.71,1.7484586441375516
239,1885.3700000000001,1.635643308499621
240,1894.07,1.583769003643963
241,1902.8200000000002,1.662208737266146
242,1905.46072,1.653896205265246
243,1916.01,1.6206703049093905
244,1924.85,1.5911225359184205
245,1933.7299999999998,1.6243567272487587
246,1947.1399999999999,1.708750424967208
247,1956.13,1.6168405071811425
248,1965.1499999999999,1.744515559636058
249,1974.2299999999998,1.785102552572935
250,1983.3400000000001,1.7046895157507929
251,1997.08,1.665935886120032
252,2006.3,1.7007667401814863
253,2015.5600000000002,1.6659125545642486
254,2024.87,1.7205233193486458
255,2034.2099999999998,1.6621030543740238
256,2043.6000000000001,1.7125867398010364
257,2053.04,1.635497375629684
258,2067.27,1.654464259934944
259,2072.03,1.7645375381705755
260,2076.81,1.7125337965668612
261,2086.4,1.760479283600413
262,2096.03,1.6851407309552726
263,2105.7000000000003,1.6967541386314402
264,2115.42,1.7164164967092423
265,2125.1800000000003,1.7363078151083526
266,2134.99,1.6354280839090976
267,2144.85,1.6773993031114771
268,2154.75,1.728340482635165
269,2164.69,1.6773746224801602
270,2174.69,1.6696527028071173
271,2184.72,1.6619447533750553
272,2187.7616199999998,1.6819449847840928
273,2194.81,1.7283043106674063
274,2204.94,1.68507132236397
275,2215.12,1.6129513736049388
276,2225.34,1.5798514564814323
277,2235.61,1.6811905789023314
278,2245.93,1.6204677408676358
279,2256.3,1.561353942377346
280,2266.71,1.5859721755225804
281,2277.18,1.6258864561211017
282,2282.43,1.6671856082836838
283,2292.96,1.5804769363354916
284,2303.54,1.597972303931705
285,2314.1800000000003,1.542991718981205
286,2324.86,1.2858211656662295
287,2335.5899999999997,1.4553666518956596
288,2346.3700000000003,1.398785177669495
289,2357.2000000000003,1.5119807429877363
290,2362.63,1.3977700375101783
291,2373.54,1.4428616660994684
292,2384.5,1.3396933342331638
293,2395.5,1.4151580340023837
294,2406.56,1.3727287812248905
295,2417.67,1.3974565679918025
296,2423.2400000000002,1.4832709732385803
297,2434.43,1.4355468232765414
298,2445.66,1.505842704950027
299,2456.95,1.4879056340767989
300,2462.62,1.4772051184123878
301,2473.98,1.4263831029013276
302,2485.4,1.4421431348435543
303,2496.87,1.3639442063301863
304,2502.63,1.515889761845705
305,2511.88643,1.3933010768980876
306,2514.18,1.3629233805969296
307,2519.98,1.381429605248705
308,2525.79,1.3372608268395347
309,2537.44,1.3583152608383589
310,2543.2900000000004,1.3485364701854077
311,2555.0299999999997,1.4408898766357248
312,2566.83,1.4040762647203708
313,2572.7400000000002,1.4732084557017484
314,2584.6200000000003,1.4589368192988328
315,2596.55,1.4381181675911907
316,2602.53,1.392105337145952
317,2614.5499999999997,1.372204657889803
318,2626.62,1.4360249633289282
319,2632.6699999999996,1.489523111457073
320,2644.82,1.6135073924086363
321,2657.03,1.6615776549945283
322,2663.16,1.5184857786351114
323,2675.45,1.5746160167334415
324,2687.8,1.5918582364661007
325,2693.99,1.5059503417410125
326,2706.4300000000003,1.5507945339251645
327,2712.6699999999996,1.46694562389535
328,2725.19,1.4526797915919405
329,2737.77,1.5201899409228594
330,2744.08,1.3360430094664286
331,2756.75,1.3757171312488408
332,2763.1,1.4335771875486292
333,2775.8500000000004,1.4898222848434794
334,2782.25,1.3932023258385415
335,2795.1,1.14499339252394
336,2808.0,1.2149104439046121
337,2814.4700000000003,1.4701384634730577
338,2827.46,1.549036487305223
339,2833.98,1.5064724915689425
340,2847.06,1.454372487852601
341,2853.62,1.3790364798725396
342,2866.79,1.532117448607691
343,2873.3999999999996,1.5529364253229037
344,2884.0315,1.5435282593608364
345,2886.67,1.5411941545506598
346,2893.3199999999997,1.551432112893109
347,2906.68,1.6804840292021497
348,2926.82,1.6144739030392814
349,2947.11,1.5872097759367692
350,2967.54,1.6114716479572557
351,2988.11,1.6135415191007414
352,3008.8199999999997,1.6306873893672256
353,3029.6800000000003,1.6365462586940662
354,3050.68,1.6425271271439057
355,3071.83,1.6559809946541009
356,3093.12,1.6581708612872954
357,3107.4,1.6723087718331862
358,3128.94,1.643907636900307
359,3150.62,1.646097501090427
360,3172.4599999999996,1.6672623642782598
361,3187.11,1.5837522725063622
362,3209.2,1.6376911341281217
363,3231.44,1.5588009948102375
364,3246.3599999999997,1.6805919013469806
365,3268.86,1.74983976040038
366,3291.52,1.7358106184514923
367,3306.71,1.7226985232968761
368,3311.31121,1.7175657498016417
369,3321.98,1.7056632168949286
370,3329.64,1.777087299616379
371,3337.31,1.7320083811403377
372,3345.0,1.7076214602693134
373,3352.7200000000003,1.6681665358058144
374,3360.44,1.7261426113423153
375,3368.1899999999996,1.7176266832863414
376,3375.96,1.5587817528353844
377,3383.7400000000002,1.576144821186936
378,3391.54,1.7355648871435043
379,3399.35,1.787557951902581
380,3407.19,1.675409013069183
381,3415.05,1.7058810718408017
382,3422.92,1.810321129414929
383,3430.8100000000004,1.760406184594073
384,3438.7200000000003,1.7759252373782342
385,3446.6400000000003,1.5606222889649035
386,3454.59,1.7382033369590981
387,3462.5499999999997,1.6030573837558013
388,3470.54,1.6895414269600295
389,3478.54,1.5546264689667662
390,3486.5600000000004,1.66515750857852
391,3494.59,1.6303155469927817
392,3502.65,1.7381925818145691
393,3510.72,1.7018546154388647
394,3518.8199999999997,1.6473246454706856
395,3526.93,1.624098674305015
396,3535.06,1.7235867007443613
397,3543.21,1.8165177247887243
398,3551.37,1.8074377476355958
399,3559.56,1.7656827668899924
400,3567.77,1.732667783749406
401,3575.99,1.586943799411328
402,3584.23,1.5045868126782669
403,3592.5,1.5461028223527309
404,3593.6400000000003,1.1887446858386908
405,3596.33,1.878854363713456
406,3599.02,1.7105820415882214
407,3601.71,1.4508707194629864
408,3604.3999999999996,2.066677397337752
409,3607.09,2.225516075212517
410,3609.78,1.412337753087282
411,3612.47,1.7962684309620474
412,3615.16,1.5907301088368127
413,3617.8500000000004,1.294097786711578
414,3620.54,1.737492464586343
415,3623.23,1.8660821424611085
416,3625.92,1.7626808203358737
417,3628.6099999999997,1.3542504982106387
418,3631.3,1.413829176085404
419,3633.9900000000002,1.7096558539601694
420,3636.68,1.0326015318349344
421,3639.37,1.1817222097096998
422,3642.06,1.779469887584465
423,3644.75,1.2647645654592303
424,3647.44,1.4236032433339953
425,3650.1299999999997,1.7127589212087606
426,3652.82,1.472255599083526
427,3655.51,1.2593562769582909
428,3658.2,1.2901809548330563
429,3660.89,0.9051922327078216
430,3663.5800000000004,1.4954873105825865
431,3666.27,1.818111988457352
432,3668.96,1.8516966663321173
433,3671.65,2.2370063442068826
434,3674.3399999999997,1.7272470220816476
435,3677.03,1.1020776999564128
436,3679.7200000000003,1.7269003778311782
437,3682.41,1.0861240557059433
438,3685.0899999999997,1.8353717347782001
439,3687.7799999999997,2.3060274126529654
440,3690.4700000000003,1.2744250905277306
441,3693.16,1.711035768402496
442,3695.85,1.855037446277261
443,3698.54,1.800979124152026
444,3701.23,2.2810658020267915
445,3703.92,1.6873394799015569
446,3706.61,2.4775161577763223
447,3709.2999999999997,2.0668998356510873
448,3711.9900000000002,1.5510415135258524
449,3714.6800000000003,1.2352001914006174
450,3717.37,1.6531768692753828
451,3720.06,1.302830547150148
452,3722.75,1.4750122250249131
453,3725.44,1.9707419028996784
454,3728.13,3.4089315807744436
455,3730.82,3.576857258649209
456,3733.5099999999998,3.6014709365239743
457,3736.2000000000003,2.505574614398739
458,3738.8900000000003,1.6808922922735048
459,3741.58,1.5724299701482698
460,3744.27,2.0848366480230354
461,3746.9599999999996,2.4932663258978005
462,3749.65,2.4637060037725655
463,3752.34,1.3771266816473307
464,3755.0299999999997,2.016628359522096
465,3757.72,1.4204880373968614
466,3760.4100000000003,2.3925077152716265
467,3763.1,2.6004593931463917
468,3765.79,2.613571071021157
469,3768.48,2.6824667488959224
470,3771.1699999999996,2.4704884267706873
471,3773.86,2.0411241046454522
472,3776.55,2.2754157825202177
473,3779.24,2.885587460394983
474,3781.93,2.802658138269748
475,3784.6200000000003,1.8920588161445135
476,3787.31,2.9323974940192787
477,3790.0,2.2810491718940438
478,3792.69,2.5679038497688094
479,3795.3799999999997,2.388360527643574
480,3798.07,2.39100520551834
481,3800.76,2.942056883393105
482,3801.8939600000003,2.524741762650572
483,3803.45,1.9520946000928778
484,3806.14,2.3322293450862714
485,3808.8300000000004,2.6075820900796653
486,3811.52,2.9578118350730596
487,3814.21,2.6286295800664528
488,3816.8999999999996,2.662905325059847
489,3819.59,2.3261310700532407
490,3822.28,2.2351518150466343
491,3824.97,3.0299265600400282
492,3827.66,3.1057233050334223
493,3830.3500000000004,2.116797050026816
494,3833.04,1.83166679502021
495,3835.73,1.9842955400136035
496,3838.42,2.3928392850069975
497,3841.1099999999997,2.0723980300003912
498,3843.8,2.048243774993785
499,3846.4900000000002,2.208233519987179
500,3849.18,2.4042242649805727
501,3851.87,2.318880009973966
502,3854.5600000000004,2.67693075496736
503,3857.25,2.7317934999607543
504,3859.94,2.858543244954148
505,3862.63,2.8824669899475417
506,3865.3199999999997,2.795742734940936
507,3868.01,3.0120904799343298
508,3870.7000000000003,2.862567224927723
509,3873.38,3.212582970869097
510,3876.0699999999997,3.128618715862491
511,3878.7599999999998,2.606203460855885
512,3881.4500000000003,2.7119052058492783
513,3884.14,2.1946669508426724
514,3886.83,2.387207695836066
515,3889.52,2.5396064408294596
516,3892.21,2.5934351858228535
517,3894.9,2.730421930816248
518,3897.59,2.5613436758096415
519,3900.2799999999997,2.413199420803035
520,3902.9700000000003,2.5748001657964292
521,3905.6600000000003,2.722943910789823
522,3908.35,2.5465046557832167
523,3911.04,2.5528304007766103
524,3913.7300000000005,2.7619331457700045
525,3916.42,3.1107838907633982
526,3919.11,2.984377635756792
527,3921.7999999999997,2.229741380750186
528,3924.49,2.36868312574358
529,3927.1800000000003,2.5087758707369736
530,3929.87,2.6605986157303674
531,3932.56,2.2397463607237613
532,3935.25,2.266315105717155
533,3937.9399999999996,2.6940678507105487
534,3940.63,2.8613045957039427
535,3943.32,3.3932633406973363
536,3946.0099999999998,3.1937060856907302
537,3948.7,2.816330830684124
538,3951.3900000000003,3.174842575677518
539,3954.08,2.9651633206709116
540,3956.77,3.0423400656643054
541,3959.46,2.7740018106576994
542,3962.1499999999996,2.5543175556510933
543,3964.84,2.4295213006444873
544,3967.53,1.987046045637881
545,3970.22,1.9260857906312745
546,3972.91,1.7444715356246683
547,3975.6000000000004,1.8531632806180622
548,3978.29,2.207074025611456
549,3980.98,2.10850377060485
550,3983.67,2.2523905155982438
551,3986.36,3.0195612605916375
552,3989.05,3.036124005585031
553,3991.74,3.1230767505784254
554,3994.43,3.162873495571819
555,3997.12,3.1701182405652126
556,3999.81,3.1599959855586066
557,4002.5,3.2253267305520006
558,4005.19,3.219689475545394
559,4007.8799999999997,2.966765220538788
560,4010.57,3.241196965532182
561,4013.26,3.2962907105255757
562,4015.95,3.0564774555189693
563,4018.64,3.0470452005123634
564,4021.3300000000004,3.4249949455057576
565,4024.02,3.178510690499151
566,4026.71,2.9695224354925447
567,4029.4,3.165052180485939
568,4032.0899999999997,2.9717059254793328
569,4034.78,2.895908670472726
570,4037.4700000000003,2.9194874154661203
571,4040.16,3.053943160459514
572,4042.85,3.0706199054529075
573,4045.5400000000004,2.9848166504463016
574,4048.23,3.0328933954396953
575,4050.92,3.0700441404330894
576,4053.61,3.145609885426483
577,4056.2999999999997,3.081544630419877
578,4058.9900000000002,3.3567823754132706
579,4061.68,3.439479120406664
580,4064.37,3.4228008654000583
581,4067.0499999999997,3.335288611341432
582,4069.7400000000002,2.9537713563348262
583,4072.4300000000003,3.6365211013282197
