,lambda (Angstroms),Total Flux (erg/s/cm^2/Angstrom)
0,102.07000000000001,1.2360673237506528
1,103.97,1.2325442093616519
2,104.712855,1.2311667551310699
3,105.9,1.2196037091616663
4,108.12,1.1979804348624055
5,109.88,1.18083766000448
6,114.0,1.1407079808714709
7,118.01,1.101649725746621
8,120.22644299999999,1.0800611089418393
9,121.04,1.0734174874997013
10,125.0,1.041079556407273
11,127.03,1.02450228446298
12,127.91,1.0173160788391693
13,130.89,0.9929809722337194
14,132.1,0.9830999426039244
15,133.94,0.968074241767303
16,137.06,0.9425958856129703
17,138.038426,0.9346059223532214
18,139.93,0.9235647652457538
19,142.86,0.9064623424418149
20,146.85999999999999,0.883114328963319
21,150.98,0.859065847655637
22,154.85,0.8364766400407424
23,158.489319,0.8152339339268339
24,158.82,0.8137746808534108
25,162.15,0.7990798197409802
26,165.92,0.7824433339383962
27,170.17999999999998,0.7636445489411274
28,172.95000000000002,0.7514209626722649
29,176.97,0.7336813254171254
30,179.85000000000002,0.7209723615841747
31,181.93,0.7117936657953213
32,181.970086,0.7116167731296703
33,186.17000000000002,0.6974775511180882
34,190.95000000000002,0.6813855273173473
35,194.04999999999998,0.6709492938795908
36,198.10999999999999,0.6572812389761289
37,201.8,0.6448588768076992
38,205.07000000000002,0.6338504174247656
39,208.929613,0.6208570556418713
40,209.85,0.6185276056963245
41,216.23,0.6023804379736234
42,220.25,0.592206258134655
43,222.8,0.5857525746636303
44,226.94,0.5752747977753195
45,230.1,0.5672837561553046
46,233.83999999999997,0.5578270434651351
47,239.83,0.5426732729722964
48,239.88329199999998,0.5425384059729025
49,245.98999999999998,0.5306296448259255
50,251.72,0.5194576197099804
51,256.99,0.5091756906238322
52,259.96,0.5033890692266668
53,264.19,0.49514217692918927
54,269.1,0.485568163870273
55,274.1,0.4758185462820488
56,275.42287,0.47323904435148606
57,279.2,0.46758710704775763
58,283.72999999999996,0.46080906905721514
59,289.67,0.4519189421777621
60,295.74,0.44283733279032444
61,301.24,0.4346055550171271
62,308.26,0.4241023462159554
63,316.227766,0.4121809114501362
64,318.35,0.4098096414642404
65,328.03,0.3989928206245928
66,337.99999999999994,0.3878512137656168
67,348.27,0.37637410590078396
68,357.20000000000005,0.3663948080607784
69,363.078055,0.3598261450054466
70,366.36,0.35707999803948776
71,374.90000000000003,0.34993382071891305
72,385.4,0.3411444873264033
73,395.29,0.3328706011496487
74,405.43,0.3243853310254534
75,413.90999999999997,0.31728874331626455
76,416.86938299999997,0.3148120956548177
77,421.60999999999996,0.3117828582855145
78,430.44,0.30613983713852955
79,441.48,0.299086257562571
80,450.72,0.29318223199030136
81,460.16,0.2871497990398441
82,469.8,0.28099057681119916
83,478.630092,0.2753491912062904
84,479.64,0.2748530864480037
85,489.67999999999995,0.2699204178750521
86,499.93,0.26488687845465825
87,505.71999999999997,0.2621164216608944
88,511.58000000000004,0.25955187048464967
89,519.89,0.2554770133215791
90,529.5500000000001,0.2507452516392372
91,539.4,0.24588535236159054
92,549.43,0.24108963001470757
93,549.5408739999999,0.24103643209813058
94,559.64,0.23736859917241784
95,570.05,0.23354985874103634
96,580.65,0.22955452858497064
97,590.0799999999999,0.22615725959669708
98,599.67,0.2225789767034263
99,609.41,0.2190735317117206
100,619.31,0.21553519721501777
101,629.38,0.21184961480675532
102,630.957344,0.21126752679314087
103,639.6,0.20875010017336224
104,650.0,0.2058055058262773
105,657.5200000000001,0.2036485611137696
106,665.14,0.201504146455617
107,674.39,0.19884675098345003
108,685.35,0.19558737354075273
109,694.88,0.19313738902077968
110,704.5500000000001,0.19019189797690356
111,716.0,0.18721914670054554
112,724.43596,0.18481371995753965
113,725.9599999999999,0.1844959573581556
114,734.36,0.182782807615264
115,744.5799999999999,0.18079253092807926
116,754.94,0.17869053224517964
117,765.44,0.17655972756656516
118,774.3,0.17488132483775332
119,785.0699999999999,0.1728023886674031
120,794.17,0.17099151094593723
121,805.2099999999999,0.16875144128385117
122,814.54,0.16688633506942513
123,825.8699999999999,0.16476360891621544
124,831.763771,0.16319556022500445
125,835.4300000000001,0.1624245270801962
126,845.11,0.16164293480687425
127,854.89,0.16027761703486096
128,864.79,0.15901621366441804
129,874.8000000000001,0.15774558774541464
130,884.9300000000001,0.15649445622798164
131,895.18,0.15514875811211903
132,905.55,0.15364266139782684
133,916.0300000000001,0.15526608313497411
134,924.5100000000001,0.20734392084594827
135,935.21,0.2766140574859746
136,946.04,0.40041245347770227
137,954.8,0.47728670979234067
138,954.992586,0.4785501871492432
139,965.85,0.5498199031427011
140,974.79,0.2521411228870974
141,986.08,0.5591181568819783
142,995.1999999999999,0.5450818172923692
143,1004.4100000000001,0.6215513480357573
144,1016.04,0.5868645921775167
145,1025.44,0.33579614917945466
146,1034.93,0.51195277651439
147,1044.51,0.6997248741823225
148,1054.17,0.6876611565906969
149,1063.92,0.6210970093320689
150,1073.77,0.6741537179989932
151,1086.2,0.6117603095451729
152,1096.25,0.6874138300632022
153,1096.4782,0.6866415517300499
154,1103.85,0.6619094858476753
155,1114.0700000000002,0.6592855077537689
156,1124.37,0.610992155271652
157,1134.78,0.6757625630057453
158,1145.28,0.6390475745531017
159,1155.8799999999999,0.6550307681151948
160,1163.89,0.6628663074956067
161,1174.66,0.5368805304827523
162,1185.53,0.6448322354846348
163,1193.74,0.57387303889452
164,1204.79,0.4850354515229285
165,1215.9399999999998,0.31096784616607365
166,1224.3700000000001,0.5195165700083797
167,1235.69,0.6198221940765773
168,1244.26,0.6433480127395149
169,1255.77,0.6330638226357124
170,1258.92541,0.6247183295957797
171,1264.48,0.6102382385642248
172,1276.18,0.6538314614093866
173,1285.02,0.6569006786701757
174,1293.93,0.5980296999137988
175,1305.9,0.6027722809784645
176,1314.96,0.6501714678995898
177,1324.07,0.6302393433798825
178,1336.32,0.6046594403758853
179,1345.5800000000002,0.63197958153368
180,1354.91,0.6285912266743091
181,1364.3,0.602023018085939
182,1373.76,0.6035273134804032
183,1386.47,0.6059444652207456
184,1396.0800000000002,0.5426756262927119
185,1405.76,0.5557911913475125
186,1415.5,0.5830824026733139
187,1425.32,0.5752369756937831
188,1435.2,0.5800582949852532
189,1441.82,0.5899648002190114
190,1445.43977,0.5877023548776081
191,1448.48,0.5858886490547913
192,1455.16,0.578459286573212
193,1465.2499999999998,0.5595956387529823
194,1475.4,0.5589329445631576
195,1485.63,0.5560351885472061
196,1495.93,0.5531324284333937
197,1506.3,0.5350798642217206
198,1513.2499999999998,0.5057128430769637
199,1516.74,0.5186771959121865
200,1523.74,0.5182167861261004
201,1534.3000000000002,0.48004712507737635
202,1544.9399999999998,0.4860060022025256
203,1555.65,0.4711545752298139
204,1566.43,0.4845906441592414
205,1573.66,0.5017389066230411
206,1584.57,0.5040270250850127
207,1595.55,0.5083745394491235
208,1606.61,0.49658189198710745
209,1614.03,0.4931243576138563
210,1625.22,0.4865135596843845
211,1636.4799999999998,0.49760795765705174
212,1644.04,0.4951055150880788
213,1655.43,0.48452866259329025
214,1659.58691,0.4896265362270043
215,1666.91,0.4987516034888614
216,1670.75,0.47889970904210755
217,1678.46,0.5022662381607345
218,1686.21,0.5029325246288744
219,1693.99,0.4885427291091491
220,1705.73,0.47825831119120876
221,1713.6100000000001,0.4664967090452659
222,1725.48,0.46314330251324287
223,1733.45,0.4750599544037042
224,1745.46,0.4668994985949765
225,1753.52,0.4760562045218421
226,1765.68,0.45665913877378805
227,1773.8300000000002,0.45905709873705786
228,1786.12,0.46127664437492105
229,1794.3700000000001,0.4703338977119732
230,1806.8000000000002,0.46976639407313187
231,1815.14,0.4498157014465883
232,1823.5199999999998,0.4539978661695577
233,1836.16,0.44612368861565943
234,1844.6399999999999,0.42208284671241125
235,1853.15,0.4216944228212978
236,1865.9999999999998,0.42882097135234276
237,1874.61,0.4398681408350118
238,1883.26,0.4160955676671938
239,1896.32,0.4015041422831819
240,1905.0700000000002,0.41845976248914635
241,1905.46072,0.4179597732430118
242,1913.86,0.4073149194546146
243,1927.1299999999999,0.39874294900880214
244,1936.03,0.4057414016110832
245,1944.96,0.418804141469327
246,1953.94,0.3970312934208419
247,1967.48,0.4155070082786942
248,1976.56,0.4237360844167517
249,1985.69,0.4073525726480804
250,1994.85,0.3996800481353719
251,2004.06,0.4042683357159346
252,2013.3100000000002,0.4023173729711143
253,2027.27,0.40761110941244494
254,2036.6200000000001,0.3950461708541672
255,2046.02,0.3987603443891606
256,2055.4700000000003,0.38567533001742527
257,2064.96,0.38930086532030694
258,2074.49,0.40601805029780563
259,2079.27,0.3927987864145363
260,2084.06,0.3982939849499213
261,2093.68,0.38518173169530817
262,2103.35,0.3895913905339663
263,2113.06,0.3908515990472415
264,2122.81,0.39294095723513356
265,2132.61,0.3822894275162969
266,2147.3900000000003,0.381022482287276
267,2157.3,0.3861838391736361
268,2167.26,0.3795694081532674
269,2177.26,0.3769016268075157
270,2187.31,0.3757922575550353
271,2187.7616199999998,0.3760553840142191
272,2197.41,0.3817821521790189
273,2202.48,0.3754383583562936
274,2212.64,0.3668420139304769
275,2222.85,0.3621255275537459
276,2233.11,0.37091629922610037
277,2243.42,0.36463682894754046
278,2253.7799999999997,0.356274116718066
279,2264.1800000000003,0.3567709909278601
280,2274.63,0.3594652231867396
281,2285.13,0.3629491134947047
282,2295.68,0.3503246618517554
283,2306.27,0.35448099664807453
284,2316.92,0.34781166110329637
285,2327.61,0.31205041199778655
286,2332.98,0.33565726646957444
287,2343.75,0.3266791902426015
288,2354.57,0.33942577206471414
289,2365.44,0.3256330119359124
290,2376.35,0.330137938246379
291,2387.32,0.3154485942157482
292,2392.83,0.32316415122497566
293,2403.87,0.3177337084630647
294,2414.97,0.31883379536005646
295,2426.11,0.3285848686963166
296,2437.31,0.3217214716914794
297,2442.9300000000003,0.327626716408695
298,2454.21,0.3260841922823947
299,2465.5299999999997,0.3225544545953628
300,2476.91,0.31579884656723356
301,2482.62,0.3150574357728032
302,2494.08,0.3022150006232109
303,2505.6,0.32184559513252115
304,2511.37,0.3019048139969934
305,2511.88643,0.30195073631583547
306,2517.16,0.3024503788687717
307,2522.96,0.2980765802321292
308,2534.61,0.2997707321085283
309,2546.31,0.29778773313461143
310,2552.18,0.30892624330752666
311,2563.96,0.30374168297310444
312,2575.79,0.31055227178836636
313,2587.68,0.30850463958324914
314,2593.65,0.30526354805553263
315,2605.6200000000003,0.29890505448991
316,2617.65,0.29449763990390837
317,2623.68,0.30178572735581277
318,2635.79,0.3085667514093057
319,2647.9599999999996,0.3234789544424196
320,2654.06,0.32953235070388176
321,2666.31,0.31269919237649024
322,2672.46,0.3185196377876365
323,2684.7900000000004,0.3210339180997395
324,2697.19,0.30719040722140034
325,2703.4,0.3129119316121676
326,2715.88,0.30066905937332294
327,2722.1400000000003,0.29749593291377435
328,2734.71,0.30483022914436114
329,2747.33,0.28164117452463205
330,2753.66,0.2874337568746412
331,2766.3700000000003,0.2951196707243435
332,2772.75,0.3012269022240367
333,2785.55,0.2876345845431704
334,2791.97,0.252130435362611
335,2804.86,0.2614008861511761
336,2817.81,0.29695431591936217
337,2824.3,0.3043927755483605
338,2837.3399999999997,0.298576373785978
339,2843.8799999999997,0.29112518256466036
340,2857.0099999999998,0.2785406492717093
341,2863.5899999999997,0.29887527737013897
342,2876.8100000000004,0.30311971254661924
343,2883.44,0.3005157897947331
344,2884.0315,0.30059315157959837
345,2896.75,0.3023201721016635
346,2910.12,0.31718149017931857
347,2930.29,0.3084882852149434
348,2950.6,0.30257789771734994
349,2971.06,0.3049813075055941
350,2991.65,0.30419705494156407
351,3012.39,0.30405619966337166
352,3033.27,0.30455046185196094
353,3047.2700000000004,0.30573790853013383
354,3068.39,0.3055957863760632
355,3089.6600000000003,0.30415506150783017
356,3111.08,0.30594903392543477
357,3132.64,0.300658923809821
358,3147.1,0.29928754216456244
359,3168.92,0.30232210734440046
360,3190.8799999999997,0.2914814899910203
361,3212.9999999999995,0.29819004974253344
362,3227.83,0.2875314214023409
363,3250.21,0.3036901564493059
364,3272.7400000000002,0.31272618878210845
365,3287.84,0.3106275155564235
366,3310.63,0.3071775231846778
367,3311.31121,0.3067081580613854
368,3318.26,0.30194468390493656
369,3325.9100000000003,0.30256446233450823
370,3333.58,0.31106027051160823
371,3341.27,0.2923679084362365
372,3348.97,0.31301616123462894
373,3356.69,0.3018122437805497
374,3364.43,0.2713330560739987
375,3372.1800000000003,0.2741990832412119
376,3379.96,0.2998055550297175
377,3387.75,0.3017063416919873
378,3395.5600000000004,0.2971930581017853
379,3403.39,0.3088401042591116
380,3411.23,0.2884013652902021
381,3419.09,0.2983870560688209
382,3426.98,0.3054639914687321
383,3434.88,0.3161071417424075
384,3442.79,0.29830760688984703
385,3450.73,0.30342991665857894
386,3458.6899999999996,0.29760825617483916
387,3466.66,0.2969424105648636
388,3474.65,0.3086001947024162
389,3482.6600000000003,0.2994454085874972
390,3490.69,0.3132263522201064
391,3498.73,0.2930437107264799
392,3506.7999999999997,0.3078258138541457
393,3514.88,0.2955069318555757
394,3522.99,0.31043519447829815
395,3531.11,0.3005587719747847
396,3539.25,0.3130577792187995
397,3547.41,0.3226253162103427
398,3555.58,0.32052856807565
399,3563.7799999999997,0.31298406456224975
400,3572.0,0.2946652907963778
401,3580.23,0.29275273190427
402,3588.48,0.2692930027596904
403,3596.7599999999998,0.2977649182364034
404,3605.05,0.3115083485868804
405,3613.36,0.29325130868488575
406,3621.69,0.2907132985304194
407,3630.04,0.33086251812348133
408,3638.4,0.3113958525903074
409,3646.79,0.3106892316784259
410,3648.0099999999998,0.30159194627765173
411,3650.7400000000002,0.1870395068152636
412,3653.47,0.24968566735287545
413,3656.2,0.31042642789048736
414,3658.9300000000003,0.37970468842809924
415,3661.66,0.4255080489657111
416,3664.3900000000003,0.4010694095033229
417,3667.12,0.3276408700409348
418,3669.85,0.33169713057854666
419,3672.59,0.28834980598992266
420,3675.32,0.3521559665275345
421,3678.0499999999997,0.2687247270651464
422,3680.78,0.25471668760275823
423,3683.5099999999998,0.3140038481403701
424,3686.2400000000002,0.312307408677982
425,3688.97,0.33292566921559386
426,3691.7,0.29574802975320574
427,3694.4300000000003,0.2772574902908176
428,3697.16,0.30883155082842945
429,3699.8900000000003,0.2035861113660413
430,3702.62,0.17824357190365317
431,3705.35,0.28554353244126507
432,3708.0800000000004,0.32949029297887694
433,3710.81,0.28293225351648876
434,3713.54,0.28874731405410065
435,3716.27,0.3301780745917125
436,3719.0,0.2141109351293244
437,3721.7299999999996,0.29010689566693626
438,3724.46,0.4703117562045481
439,3727.2,0.7790636316159241
440,3729.9300000000003,0.912281192153536
441,3732.66,0.8836168526911478
442,3735.39,0.5659487132287597
443,3738.12,0.3775394737663716
444,3740.85,0.3422672343039835
445,3743.5800000000004,0.2890894948415953
446,3746.31,0.3223367553792072
447,3749.04,0.25766581591681903
448,3751.77,0.2503020764544309
449,3754.5,0.4062742369920428
450,3757.2299999999996,0.29481189752965464
451,3759.96,0.3083094580672665
452,3762.69,0.3057946186048784
453,3765.42,0.38323187914249024
454,3768.15,0.3179377396801021
455,3770.8799999999997,0.27547140021771394
456,3773.61,0.30266076075532583
457,3776.34,0.3144117212929377
458,3779.0800000000004,0.32391369670431364
459,3781.81,0.42774465724192556
460,3784.54,0.4758684177795374
461,3787.27,0.3687910783171493
462,3790.0,0.3799924388547612
463,3792.7300000000005,0.364213499392373
464,3795.46,0.3433169599299849
465,3798.19,0.29988582046759676
466,3800.92,0.2874899810052086
467,3801.8939600000003,0.29903328376463006
468,3803.65,0.3198500770553049
469,3806.3799999999997,0.3978801777292933
470,3809.11,0.36279777840328165
471,3811.84,0.40055877907726994
472,3814.5699999999997,0.38065827975125827
473,3817.3,0.42911868042524665
474,3820.0299999999997,0.30921098109923495
475,3822.76,0.3284069817732233
476,3825.49,0.27964498244721164
477,3828.22,0.38995648312119996
478,3830.9500000000003,0.2851083837951883
479,3833.69,0.34771072403208503
480,3836.4199999999996,0.27756262470607335
481,3839.15,0.3216014253800617
482,3841.8799999999997,0.28008242605405004
483,3844.61,0.33212132672803835
484,3847.34,0.3801541274020267
485,3850.0699999999997,0.3169311280760151
486,3852.8,0.3353942287500034
487,3855.5299999999997,0.42066712942399176
488,3858.26,0.4495608300979801
489,3860.9900000000002,0.38732713077196845
490,3863.72,0.3559333314459568
491,3866.4500000000003,0.4440888321199451
492,3869.18,0.40221553279393346
493,3871.91,0.4682272334679218
494,3874.64,0.4406075341419101
495,3877.37,0.3930547348158984
496,3880.1000000000004,0.4111759354898868
497,3882.83,0.39899453616387515
498,3885.56,0.3821352368378635
499,3888.3,0.2618229770747602
500,3891.0299999999997,0.2855501777487486
501,3893.76,0.4081971784227369
502,3896.4900000000002,0.4120525790967252
503,3899.22,0.31629197977071355
504,3901.9500000000003,0.3917936804447019
505,3904.68,0.3934261811186902
506,3907.41,0.38812118179267857
507,3910.14,0.3391150824666669
508,3912.87,0.38908988314065523
509,3915.6000000000004,0.4115347838146436
510,3918.33,0.3490322844886319
511,3921.06,0.4175966851626203
512,3923.79,0.3907219858366086
513,3926.52,0.401527086510597
514,3929.2500000000005,0.3962220871845853
515,3931.98,0.3156185878585736
516,3934.71,0.29513168853256194
517,3937.44,0.2860036892065503
518,3940.18,0.32095402944344703
519,3942.91,0.34663553011743536
520,3945.6400000000003,0.3813429307914237
521,3948.37,0.35879203146541205
522,3951.1000000000004,0.3609740321394004
523,3953.83,0.3979655328133887
524,3956.56,0.40624243348737704
525,3959.29,0.37488533416136544
526,3962.02,0.39185833483535376
527,3964.75,0.3430598355093421
528,3967.48,0.2671954361833304
529,3970.21,0.26770423685731876
530,3972.9399999999996,0.2803413375313071
531,3975.67,0.2857844382052954
532,3978.4,0.29155743887928376
533,3981.13,0.3347292395532721
534,3983.86,0.41686324022726046
535,3986.5899999999997,0.4139277409012488
536,3989.32,0.4254046415752371
537,3992.0499999999997,0.4321669422492255
538,3994.7899999999995,0.4102489824861222
539,3997.52,0.43375648316011056
540,4000.25,0.3783747838340989
541,4002.98,0.4257846845080872
542,4005.71,0.42300788518207555
543,4008.4399999999996,0.4259716858560639
544,4011.17,0.4416500865300522
545,4013.9,0.4359786872040406
546,4016.63,0.4730679878780289
547,4019.36,0.5045998885520173
548,4022.0899999999997,0.4713374892260056
549,4024.82,0.4258488898999939
550,4027.5499999999997,0.4444097905739822
551,4030.28,0.45657069124797056
552,4033.01,0.445854891921959
553,4035.74,0.4587240925959473
554,4038.4700000000003,0.44970609326993566
555,4041.2,0.45975399394392397
556,4043.93,0.42359669461791233
557,4046.6600000000003,0.43887209529190063
558,4049.4,0.4207160355287974
559,4052.13,0.5005780362027856
560,4054.86,0.490961536876774
561,4057.5899999999997,0.44077083755076235
562,4060.32,0.45079413822475073
563,4063.05,0.5019537388987391
564,4065.7799999999997,0.4227306395727274
565,4068.51,0.43189904024671577
566,4071.24,0.4520476409207041
567,4073.9700000000003,0.48256594159469246
568,4076.7,0.4500851422686808
569,4079.43,0.4608291429426691
570,4082.1600000000003,0.44241864361665745
571,4084.89,0.4088263442906458
572,4087.6200000000003,0.42465134496463414
573,4090.35,0.4957563456386224
574,4093.08,0.4731686463126108
575,4095.81,0.4321136469865991
576,4098.54,0.43965764766058746
577,4101.27,0.4530765483345758
578,4104.01,0.4603740885714725
579,4106.74,0.3998014892454609
580,4109.47,0.4007499899194492
581,4112.2,0.4112496905934376
582,4114.93,0.4360029912674259
583,4117.66,0.4222459919414142
584,4120.39,0.3802749926154026
585,4123.12,0.4265979932893909
586,4125.849999999999,0.41302419396337925
587,4128.58,0.4128612946373676
588,4131.31,0.4164845953113559
589,4134.04,0.43034309598534426
590,4136.77,0.4305831966593326
591,4139.5,0.4318858973333209
592,4142.2300000000005,0.4494451980073093
