,lambda (Angstroms),Total Flux (erg/s/cm^2/Angstrom)
0,101.98,0.12015077473553437
1,104.11,0.14316004835574778
2,104.712855,0.14967237495427924
3,106.05,0.1376201894442988
4,108.02000000000001,0.11986384631187018
5,110.03,0.10174696833069675
6,113.89,0.06695535193358869
7,117.9,0.030811729813113153
8,120.22644299999999,0.009842634919944677
9,120.92,0.009553378483989579
10,124.88000000000001,0.00790181076972705
11,126.91,0.007055173887397287
12,128.09,0.006563040246173127
13,131.07,0.005320194425910736
14,131.98,0.004940669079552117
15,134.12,0.004048156080104828
16,136.93,0.002876214622057954
17,138.038426,0.0024139327391010713
18,140.12,0.002383274727920577
19,143.05,0.0023401655972090556
20,147.06,0.0022812467210216497
21,150.82999999999998,0.0022257734570322184
22,155.06,0.0021635413268891695
23,158.489319,0.002113109100312984
24,159.04000000000002,0.0021006591375298707
25,162.0,0.0020337489510080364
26,166.15,0.0019399624785872201
27,170.02,0.0018525235013779292
28,173.18,0.001781139059047862
29,176.80999999999997,0.0016991803320484504
30,180.10000000000002,0.0016248862703630315
31,181.970086,0.0015826724750201237
32,182.18,0.0015842135626119
33,185.99999999999997,0.001612301336449448
34,191.20999999999998,0.0016506381711441141
35,193.87,0.0016702910319210452
36,197.93,0.0017002468026332037
37,202.07,0.0017308559199702314
38,204.88,0.0017516871309187943
39,208.929613,0.0017815580919551999
40,210.14000000000001,0.001835203618629199
41,216.02,0.0020963969052756938
42,220.04,0.0022749342614727867
43,223.1,0.002410783827115351
44,227.25,0.0025952159859083707
45,229.88000000000002,0.0027160977446567193
46,234.14999999999998,0.002914556784769053
47,239.88329199999998,0.003175734938813236
48,240.16,0.0031660208481475095
49,245.75,0.002963892892485196
50,252.06,0.0027393424482939264
51,256.74,0.0025659455128557106
52,259.71999999999997,0.002464142613110865
53,263.94,0.002314995537566148
54,268.84999999999997,0.002139423032181183
55,273.84,0.0019609504802929997
56,275.42287,0.0019043882386924967
57,278.93,0.0020432573799204603
58,284.12,0.0022487974681391146
59,290.07,0.002481879570856068
60,296.14,0.00272365615428328
61,300.96000000000004,0.002914247097811974
62,307.97,0.0031934111918028724
63,316.227766,0.00352266105266828
64,318.05,0.003472518847964926
65,327.72,0.0032054624903532316
66,337.68,0.002929566833030329
67,347.94,0.0026450312142820374
68,356.86,0.002398459565233814
69,363.078055,0.002227178128563786
70,366.02000000000004,0.002295376952974474
71,375.40999999999997,0.002511010311042605
72,385.03999999999996,0.0027288688555789317
73,394.90999999999997,0.0029604619865834544
74,405.03999999999996,0.0031948750279285217
75,413.53000000000003,0.0033903248117409237
76,416.86938299999997,0.0034663601207671367
77,422.18,0.003540042460003632
78,430.03,0.003649903016614898
79,441.06,0.003806526414248308
80,451.34000000000003,0.003949683117301025
81,459.73,0.00406692926201039
82,470.44,0.004216661192622703
83,478.630092,0.004333425858797198
84,480.29,0.004305909082890893
85,490.35,0.004134338822126905
86,499.46,0.003986160179029499
87,506.40999999999997,0.003904779860310839
88,512.27,0.004170583030283307
89,520.6,0.004074964054322669
90,530.28,0.0039665397006253145
91,540.13,0.00379083319639815
92,549.5408739999999,0.003985574767830511
93,550.18,0.004006341530659053
94,560.4,0.004217120358315662
95,569.51,0.004413013927782561
96,580.1,0.00431162617483574
97,589.52,0.0047677707713646295
98,600.48,0.004872112437814378
99,610.24,0.005373424257572549
100,620.16,0.0058127881235562635
101,630.2299999999999,0.006179361970376425
102,630.957344,0.006182066706894375
103,640.47,0.006344605233981424
104,649.38,0.007160181551194361
105,658.42,0.0077079845464362185
106,664.51,0.008117912924867956
107,675.31,0.008314467945732124
108,684.7,0.00842525499720569
109,694.23,0.01057239447117194
110,705.51,0.010381454226296737
111,715.3199999999999,0.012263737545248355
112,724.43596,0.012853310876144499
113,725.27,0.012904493344561698
114,735.36,0.01350364554084561
115,745.59,0.015297235050061113
116,754.23,0.016438021790982124
117,764.72,0.017556386595642008
118,775.3599999999999,0.01919423637844288
119,784.34,0.02088116773648347
120,795.25,0.021879826479938122
121,804.46,0.023012162137794896
122,815.65,0.02398132350711273
123,825.09,0.026517463464785687
124,831.763771,0.023311242819803183
125,834.65,0.021884559979725063
126,844.3100000000001,0.028067734324368206
127,854.09,0.028955836362733627
128,865.9699999999999,0.031245328041238855
129,876.0,0.03363615027485901
130,884.1,0.03688452460111258
131,894.34,0.03911826779874671
132,904.6899999999999,0.03918721388229294
133,915.17,0.06030313246737162
134,925.7700000000001,0.4448770987461726
135,934.33,0.9480008142316948
136,945.15,1.65295001628232
137,954.992586,2.084873938646734
138,956.1,2.133479656340025
139,964.9399999999999,2.2597603557102173
140,976.12,0.3488117343254604
141,985.1500000000001,1.5931179478223876
142,994.26,1.799606240951624
143,1005.78,2.728787908004182
144,1015.08,2.7988479152601533
145,1024.48,1.5675947720565118
146,1033.96,2.1481305084851794
147,1045.93,3.705604498469478
148,1055.6100000000001,3.506656933978919
149,1065.3700000000001,2.7412952491206695
150,1075.23,3.265125413802807
151,1085.18,2.6850314430712925
152,1095.22,3.530631336926126
153,1096.4782,3.4976708079852847
154,1105.36,3.264969618438919
155,1115.5800000000002,3.147107491298869
156,1125.9099999999999,2.6239488461563325
157,1133.71,3.5223471150709713
158,1144.2,3.249920716470274
159,1154.79,3.394947846958226
160,1165.47,3.3949485536259623
161,1176.26,1.9815107422912122
162,1184.41,3.356130363016123
163,1195.3700000000001,2.8175697511320776
164,1203.65,1.9632887596722324
165,1214.79,1.7140463001477548
166,1226.03,2.863220369711927
167,1234.53,3.63741534224711
168,1245.95,3.73911356417085
169,1254.59,3.5873998774301423
170,1258.92541,3.547844331179687
171,1266.2,3.481508898161135
172,1274.98,3.942355839076284
173,1283.81,4.015600796739242
174,1295.6899999999998,3.1317767760185107
175,1304.67,3.317408783924894
176,1313.7199999999998,4.024952815278208
177,1325.8700000000001,3.7738268849956422
178,1335.0600000000002,3.50585796324282
179,1344.32,3.90629606493693
180,1353.64,3.8260651867284095
181,1366.1599999999999,3.4655943803796254
182,1375.6299999999999,3.4815495524145303
183,1385.17,3.457768747896367
184,1394.77,2.5577099634755736
185,1404.44,2.753292202501712
186,1414.1699999999998,3.190093461625221
187,1423.97,3.2047717441956607
188,1433.8400000000001,3.325008050213033
189,1440.46,3.449705267622861
190,1445.43977,3.4318965822921967
191,1447.1100000000001,3.4259234051713996
192,1453.7900000000002,3.332605283088225
193,1463.87,3.053668116830979
194,1474.02,3.1535029702525033
195,1484.23,3.168201840541543
196,1494.52,3.168174733320605
197,1504.88,2.902861645778436
198,1511.8300000000002,2.5518685995990853
199,1515.31,2.6968825779150363
200,1525.82,2.765862532541658
201,1536.3899999999999,2.3221405040357963
202,1543.48,2.327463497213984
203,1554.18,2.290290505254408
204,1564.95,2.488122532973601
205,1575.8,2.696899583182816
206,1586.73,2.7915186558820526
207,1594.05,2.798068713719053
208,1605.1000000000001,2.8498128201533226
209,1616.2299999999998,2.843259949077614
210,1623.69,2.7533480462721527
211,1634.94,2.9841792089314767
212,1646.27,3.0186953940808228
213,1653.8700000000001,2.9162305306328995
214,1659.58691,3.0023366774816918
215,1665.34,3.0889979489246824
216,1673.02,2.8830627160049
217,1676.88,3.204858640605113
218,1684.6200000000001,3.2121915308656446
219,1696.3,3.025828509966809
220,1704.13,2.9568295849978115
221,1715.94,2.785102830989656
222,1723.8600000000001,2.7723340907911305
223,1735.8100000000002,2.956894624203708
224,1743.8200000000002,2.8832180687756535
225,1755.91,3.0050368896089648
226,1764.01,2.8897935189513815
227,1776.24,2.7917686272054256
228,1784.4399999999998,2.889826461848366
229,1796.8100000000002,3.039901857523143
230,1805.1000000000001,3.075220876936555
231,1813.43,2.7346069784701763
232,1826.0000000000002,2.8766027847460007
233,1834.4299999999998,2.7790920915801456
234,1842.9,2.5288984805344996
235,1855.68,2.552285717941424
236,1864.24,2.6238782916662498
237,1872.8500000000001,2.8371729680413376
238,1885.83,2.5347976160493086
239,1894.5300000000002,2.371253477194868
240,1903.28,2.6239404409906886
241,1905.46072,2.594998877316704
242,1916.47,2.4488367836496616
243,1925.3200000000002,2.3657333634823243
244,1934.2,2.528949863924589
245,1943.13,2.6238602320495237
246,1956.6,2.376588585760932
247,1965.6299999999999,2.6478646892512083
248,1974.7,2.7599716868876203
249,1983.82,2.5758015522067033
250,1992.97,2.528789338135388
251,2006.79,2.654006765625489
252,2016.05,2.599541260456049
253,2025.36,2.721940622969279
254,2034.71,2.494004879628646
255,2044.1000000000001,2.5934760304341484
256,2053.53,2.482515075385788
257,2063.01,2.511221988020097
258,2072.54,2.7155127683370774
259,2077.31,2.4484231452638343
260,2086.9,2.6053457668000193
261,2096.53,2.45401928248234
262,2106.21,2.540175665847331
263,2115.93,2.569529943358459
264,2125.7000000000003,2.605234088552257
265,2135.5099999999998,2.516796127892191
266,2145.37,2.4538700349147957
267,2155.27,2.5753598360835372
268,2165.22,2.5576025049349487
269,2175.21,2.5399980679324963
270,2185.25,2.4651164986127143
271,2187.7616199999998,2.486658008281116
272,2195.34,2.551691841713171
273,2205.47,2.5283272151251817
274,2215.65,2.4594826940328094
275,2225.88,2.3924922784360536
276,2236.1600000000003,2.442604968334915
277,2246.48,2.43139674263027
278,2256.85,2.3489246224212423
279,2267.26,2.403629586608708
280,2272.4900000000002,2.414740621450249
281,2282.98,2.443100754430702
282,2293.52,2.280771992906772
283,2304.1,2.361535315779336
284,2314.7400000000002,2.27158176524664
285,2325.42,1.8858742991104376
286,2336.16,2.155688959568976
287,2346.94,2.1612757044240074
288,2352.35,2.2220951190497704
289,2363.21,2.1522660326977894
290,2374.1200000000003,2.152884051841425
291,2385.07,2.094877155381555
292,2396.08,2.1442453855164247
293,2407.1400000000003,2.086463721146912
294,2412.69,2.1060584311604025
295,2423.83,2.1557119355838767
296,2435.02,2.083202545502968
297,2446.26,2.1470742609176763
298,2457.55,2.142763081828002
299,2463.21,2.11372702393185
300,2474.58,2.0710390136351626
301,2486.0099999999998,2.0716491299332156
302,2497.48,1.8344253306277625
303,2503.24,2.072576483722844
304,2511.88643,1.9762368149079599
305,2514.79,1.9438763559012564
306,2520.5899999999997,2.0263436196698263
307,2526.3999999999996,1.97599287527248
308,2532.22,1.9762901227092171
309,2543.91,1.9319165767531106
310,2555.65,2.0049139899674224
311,2567.45,1.9780273541862372
312,2573.37,2.028993519963812
313,2585.25,2.010994818855296
314,2597.18,1.9931920769171994
315,2603.17,1.9571361855333602
316,2615.18,1.9353323782679333
317,2627.25,1.962828522007009
318,2633.31,1.981233573461756
319,2645.46,2.0420196518735017
320,2657.6699999999996,2.061499681289749
321,2663.8,1.9376506755830825
322,2676.1000000000004,1.987896631506084
323,2682.27,1.9881995931357523
324,2694.65,1.912540483731424
325,2707.0899999999997,1.913132325331598
326,2713.33,1.8828502297998522
327,2725.8500000000004,1.887794006072696
328,2732.1299999999997,1.9187458778772855
329,2744.7500000000005,1.7954425724909666
330,2757.4100000000003,1.808460234440983
331,2763.77,1.8338810409182422
332,2776.5299999999997,1.877129621209096
333,2782.9300000000003,1.8263113950226904
334,2795.77,1.658670909986214
335,2802.2200000000003,1.7171596429702267
336,2815.15,1.8446680844405041
337,2828.1499999999996,1.8708954687493677
338,2834.67,1.7952951445719667
339,2847.75,1.7958904635535002
340,2854.32,1.759357098546518
341,2867.49,1.834346344034805
342,2874.1,1.8262129463641579
343,2884.0315,1.8172649895494595
344,2887.3700000000003,1.8142597805923093
345,2894.02,1.802079669459294
346,2907.38,1.848872446190559
347,2927.5299999999997,1.8119101094491665
348,2947.8300000000004,1.775676770201014
349,2968.2599999999998,1.7847704287803365
350,2988.8399999999997,1.7733940848528993
351,3009.5499999999997,1.754040738752937
352,3030.41,1.7589723901462149
353,3051.42,1.751811039032733
354,3072.57,1.744699685579609
355,3086.7499999999995,1.7213854486072542
356,3108.15,1.722297090976197
357,3129.69,1.6957177310054974
358,3151.39,1.6927053683609208
359,3173.23,1.6742790033767017
360,3187.88,1.625523758549833
361,3209.98,1.649023389220564
362,3232.23,1.6013150173845347
363,3247.1499999999996,1.6391867680454986
364,3269.66,1.6476613918644194
365,3292.32,1.6334970131765802
366,3307.52,1.6228757591582592
367,3311.31121,1.6381466201170882
368,3322.78,1.6843390319358211
369,3330.44,1.6885455848420985
370,3338.12,1.6240971313590973
371,3345.8199999999997,1.624382671486817
372,3353.53,1.6024222084198978
373,3361.2599999999998,1.6212657389636997
374,3369.01,1.5883522631182232
375,3376.77,1.5561267840781072
376,3384.56,1.5999522954540735
377,3392.3599999999997,1.6412858036354
378,3400.18,1.6759443054274483
379,3408.02,1.586225800830218
380,3415.88,1.6048862898437086
381,3423.75,1.6807667756625602
382,3431.6400000000003,1.6733742550921331
383,3439.55,1.669840728132427
384,3447.48,1.5877551947834427
385,3455.43,1.5771366550451797
386,3463.39,1.5415901121122773
387,3471.38,1.5960095595954569
388,3479.38,1.5564270038839971
389,3487.4,1.5389424417832587
390,3495.44,1.6006278732932417
391,3503.5,1.575370298413946
392,3511.57,1.568445720340011
393,3519.6699999999996,1.5868941326821582
394,3527.7799999999997,1.5511365418296656
395,3535.92,1.6132909413932555
396,3544.07,1.6285243377622058
397,3552.24,1.6439227277418775
398,3560.43,1.6291721113322708
399,3568.6299999999997,1.5670214917280247
400,3576.86,1.5003288625398603
401,3585.11,1.4834612269624177
402,3593.3700000000003,1.5113015881903356
403,3601.65,1.5900889430289746
404,3609.96,1.5506612882836956
405,3618.2799999999997,1.5725406303437777
406,3626.62,1.639346966014581
407,3634.98,1.5840602952961054
408,3643.36,1.6513706181883514
409,3649.6099999999997,1.5619476215387735
410,3652.34,1.343170749402238
411,3655.06,1.5843678804603416
412,3657.7799999999997,1.5794810115184452
413,3660.5,1.600968142576549
414,3663.22,1.5539422736346526
415,3665.9399999999996,1.4662944046927564
416,3668.67,1.4543665325562207
417,3671.39,1.5313246636143243
418,3674.1099999999997,1.6359907946724281
419,3676.83,1.6397549257305317
420,3679.5499999999997,1.4926120567886354
421,3682.2700000000004,1.5056561878467392
422,3685.0,1.5866313157102037
423,3687.72,1.5167324467683072
424,3690.44,1.552022577826411
425,3693.16,1.5680737088845147
426,3695.88,1.5625588399426182
427,3698.6000000000004,1.525229971000722
428,3701.33,1.5751240988641864
429,3704.0499999999997,1.49942222992229
430,3706.77,1.5167803609803938
431,3709.49,1.7820534920384976
432,3712.21,1.962082623096601
433,3714.9300000000003,2.513828754154705
434,3717.66,3.970980882018169
435,3720.3799999999997,6.371447013076272
436,3723.1,8.703431144134377
437,3725.82,8.81557927519248
438,3728.54,6.717037406250584
439,3731.26,3.9524345373086875
440,3733.99,2.492376665172152
441,3736.7099999999996,1.9585927962302558
442,3739.4300000000003,1.6488049272883594
443,3742.15,1.6340360583464633
444,3744.8700000000003,1.6227441894045667
445,3747.59,1.5181303204626706
446,3750.3199999999997,1.634133448326135
447,3753.0400000000004,1.7076925793842386
448,3755.76,1.7672147104423424
449,3758.48,1.663333841500446
450,3761.2000000000003,1.7253659725585495
451,3763.92,1.7481091036166534
452,3766.65,1.6694442314801177
453,3769.3700000000003,1.6454213625382215
454,3772.09,1.737958493596325
455,3774.81,1.9350316246544288
456,3777.53,1.8799027557125327
457,3780.25,1.8432018867706361
458,3782.98,1.8831090146341005
459,3785.7000000000003,1.7903641456922044
460,3788.42,1.7844832767503078
461,3791.14,1.6884444078084118
462,3793.86,1.6230155388665155
463,3796.58,1.666905669924619
464,3799.3100000000004,1.7355157977880833
465,3801.8939600000003,1.8269263572472412
466,3802.03,1.8317389379015694
467,3804.75,1.8787662500140647
468,3807.47,1.9162005621265599
469,3810.19,1.845805874239055
470,3812.91,1.8836581863515507
471,3815.6400000000003,1.8520194959350478
472,3818.36,1.795478808047543
473,3821.08,1.7746191201600383
474,3823.8,1.8191114322725337
475,3826.52,1.6306397443850291
476,3829.24,1.5325360564975243
477,3831.9700000000003,1.6096943660810215
478,3834.69,1.7495456781935168
479,3837.41,1.686182990306012
480,3840.13,1.7650753024185075
481,3842.85,1.8056196145310028
482,3845.5699999999997,1.947666926643498
483,3848.3,1.9478412362269952
484,3851.02,1.9347195483394903
485,3853.74,2.027309860451986
486,3856.46,2.046838172564481
487,3859.18,2.118881484676977
488,3861.8999999999996,2.155086796789472
489,3864.63,2.300417106372969
490,3867.35,2.1796764184854642
491,3870.0699999999997,2.0535767305979595
492,3872.79,1.9716800427104548
493,3875.5099999999998,1.8774713548229502
494,3878.2299999999996,1.8550696669354456
495,3880.96,1.9529039765189429
496,3883.68,1.9968202886314381
497,3886.3999999999996,2.0015276007439335
498,3889.12,1.8996849128564286
499,3891.8399999999997,1.813135224968924
500,3894.5600000000004,1.8306765370814193
501,3897.29,1.7890528466649165
502,3900.0099999999998,1.8699311587774117
503,3902.73,1.998804470889907
504,3905.45,2.0200577830024025
505,3908.17,1.9794890951148978
506,3910.8900000000003,1.942265407227393
507,3913.62,1.9442167168108901
508,3916.3399999999997,1.9325860289233856
509,3919.06,1.893088341035881
510,3921.78,1.7759806531483762
511,3924.5,1.6987889652608714
512,3927.2200000000003,1.696960277373367
513,3929.95,1.6443055869568641
514,3932.6699999999996,1.6098268990693594
515,3935.3900000000003,1.7339422111818545
516,3938.11,1.85358752329435
517,3940.8300000000004,1.8327278354068453
518,3943.55,1.8884081475193406
519,3946.2799999999997,1.9417784571028378
520,3948.9999999999995,1.929074769215333
521,3951.7200000000003,1.8164890813278283
522,3954.44,1.8200713934403236
523,3957.1600000000003,1.723901705552819
524,3959.88,1.6994350176653144
525,3962.6099999999997,1.7656663272488113
526,3965.3300000000004,1.7865276393613068
527,3968.05,1.7748699514738022
528,3970.77,1.7240012635862974
529,3973.4900000000002,1.7311905756987926
530,3976.21,1.852404887811288
531,3978.94,1.8656231973947852
532,3981.6600000000003,1.8968355095072806
533,3984.38,1.9220878216197759
534,3987.1,1.9663441337322711
535,3989.82,1.9788404458447664
536,3992.54,1.950635757957262
537,3995.2700000000004,2.006410067540759
538,3997.9900000000002,2.042302379653254
539,4000.71,2.02081569176575
540,4003.43,2.068026003878245
541,4006.15,2.0576493159907403
542,4008.87,2.0502526281032356
543,4011.6000000000004,2.1406629376867325
544,4014.32,2.119438249799228
545,4017.04,2.0818755619117235
546,4019.76,2.1458678740242187
547,4022.48,2.098032186136714
548,4025.2,1.9789904982492093
549,4027.9300000000003,2.0702628078327066
550,4030.65,2.063807119945202
551,4033.37,2.012494432057697
552,4036.09,2.0494317441701924
553,4038.81,2.1194890562826876
554,4041.5299999999997,2.082240368395183
555,4044.26,2.0238076779786804
556,4046.98,2.0156529900911755
557,4049.7,2.0361473022036707
558,4052.42,2.086155614316166
559,4055.14,2.0216159264286615
560,4057.8599999999997,2.1001422385411566
561,4060.59,2.070515548124654
562,4063.31,2.159288860237149
563,4066.0299999999997,2.0516441723496444
564,4068.75,2.0796684844621396
565,4071.47,2.047882796574635
566,4074.1899999999996,2.014580108687131
567,4076.92,2.0170024182706277
568,4079.64,2.035223730383123
569,4082.3599999999997,2.0261270424956184
570,4085.08,1.9559673546081138
571,4087.7999999999997,1.959706666720609
572,4090.5200000000004,1.9923829788331042
573,4093.25,2.066795288416601
574,4095.97,2.1980476005290965
575,4098.69,2.374155912641592
576,4101.41,2.2822212247540876
577,4104.13,2.020818536866583
578,4106.85,1.907657848979078
579,4109.58,1.9348871585625753
580,4112.3,1.8587944706750705
581,4115.0199999999995,1.8931177827875658
582,4117.74,1.971617094900061
583,4120.46,1.9282774070125566
584,4123.18,1.9480407191250517
585,4125.91,1.942595028708549
586,4128.63,1.9134233408210441
