,lambda (Angstroms),Total Flux (erg/s/cm^2/Angstrom)
0,102.03,0.00560949193168822
1,103.92999999999999,0.006563446202388039
2,104.712855,0.006956503813450088
3,106.1,0.0063754046459769224
4,108.08,0.005545954176484363
5,110.09,0.0047039528993279775
6,113.96,0.003082779443504346
7,117.96,0.0014071644353274636
8,120.22644299999999,0.00045824163372275046
9,120.99000000000001,0.00044362330168067884
10,124.94999999999999,0.00036721440398448756
11,126.97999999999999,0.0003280347829028539
12,127.86,0.00031109727419258897
13,131.14000000000001,0.00024780168327251075
14,132.05,0.0002305593608221234
15,133.89,0.0001951305004279338
16,137.0,0.00013571788170188407
17,138.038426,0.00011577736937729135
18,139.87,0.00011485606451306729
19,143.13,0.00012026575917611572
20,147.14,0.00013714178185060172
21,150.92,0.00013909009374824685
22,155.14,0.00014178163930593532
23,158.489319,0.0001450971039567035
24,159.12,0.00014548977757305805
25,162.08,0.00014736353557385614
26,165.86,0.00015179417275055108
27,170.10999999999999,0.0001549727567719673
28,172.88000000000002,0.00015888462179298443
29,176.9,0.00016372134799677108
30,180.19,0.00016738674590982032
31,181.86,0.00017062878789000035
32,181.970086,0.00017078885713971473
33,186.09,0.00018250758896748223
34,190.87,0.00019809019268389103
35,193.97,0.0002093445256380474
36,198.03,0.00022276631331349088
37,202.18,0.00023804436549405497
38,204.99,0.0002498893350428225
39,208.929613,0.0002591130600654402
40,209.76999999999998,0.00026252367922236793
41,216.14000000000001,0.0003072660067404211
42,220.16,0.0003331455537769318
43,223.22000000000003,0.0003495950164465147
44,226.85,0.00037699517608396087
45,230.0,0.0005331842435379432
46,233.73999999999998,0.0008316102201341
47,239.73999999999998,0.0010724846724273996
48,239.88329199999998,0.00107233534803459
49,245.89,0.0010435569948533355
50,252.19,0.0011366860252922657
51,256.88,0.0009821514146190248
52,259.86,0.0011472321956837886
53,264.08,0.0012217663494063734
54,268.99,0.0012447011064627457
55,273.99,0.0012630064639539602
56,275.42287,0.001268295966314178
57,279.08,0.001294600738214407
58,284.27,0.0013347635526588604
59,290.21999999999997,0.0013202703437849676
60,296.3,0.0013794681572382
61,301.12,0.0013939640619823742
62,308.13,0.0014630371890065777
63,316.227766,0.001542930076055662
64,318.22,0.0015563457113899647
65,327.89,0.0015893845933746405
66,337.85999999999996,0.0016029832121323675
67,348.12,0.0016133898097707104
68,357.05,0.001629402607715194
69,363.078055,0.0016518460761628718
70,366.21,0.0016708910335391971
71,374.74,0.0016906337230059073
72,385.24,0.0016619503923377308
73,395.12,0.0017522622964328178
74,405.26,0.0018080729085304076
75,413.75,0.0018168092583044247
76,416.86938299999997,0.001813174076128584
77,422.41,0.001804426761619229
78,430.26,0.001801791416765554
79,441.3,0.001835258138143315
80,450.53999999999996,0.001829530709296441
81,459.97,0.0018089320963066118
82,469.61,0.00181485270084299
83,478.630092,0.0018359853689941573
84,480.55,0.0018377319828129085
85,489.47999999999996,0.001774578694361605
86,499.72999999999996,0.0018108182165759543
87,505.52,0.0017505228179048404
88,512.5500000000001,0.0018656742716772186
89,519.68,0.0018442734232272976
90,530.56,0.001797099741441163
91,540.42,0.0017149483423224785
92,549.5408739999999,0.001687940687185593
93,550.47,0.0016856990034636052
94,559.42,0.0017452516517504693
95,569.8199999999999,0.001791520600597775
96,580.41,0.0017508612715874839
97,589.84,0.001755892902128839
98,599.4200000000001,0.0016584958396247227
99,610.57,0.0014788733232446707
100,620.49,0.0017142962898374855
101,630.57,0.0016716419171817973
102,630.957344,0.0016728200383094635
103,639.34,0.0017035244478202964
104,649.73,0.001678255481903626
105,657.2600000000001,0.0016314213757099272
106,664.87,0.001687226804908593
107,675.6700000000001,0.00169827708287779
108,685.0699999999999,0.0016002459914806098
109,694.5999999999999,0.0016906632700960215
110,704.26,0.0015703779187240256
111,715.7099999999999,0.0016945730467561838
112,724.43596,0.0016914668588166673
113,725.6600000000001,0.001690842945494609
114,735.76,0.0016893047088586436
115,744.28,0.001673407816171671
116,754.63,0.0016685013162526373
117,765.13,0.0015371992583637626
118,775.77,0.0016728236130363696
119,784.75,0.001623190075908551
120,795.67,0.0016629282557041214
121,804.8900000000001,0.001678714425824557
122,814.2099999999999,0.0016770978906317654
123,825.53,0.0017040092491744261
124,831.763771,0.001573893085171325
125,835.09,0.0015023187379286154
126,844.76,0.0016749494048029687
127,854.5400000000001,0.0016567684039788917
128,864.4399999999999,0.0016837323111201633
129,874.4499999999999,0.0017041815505630048
130,884.5699999999999,0.0017286701223074162
131,894.82,0.001738752177680955
132,905.1800000000001,0.0017013825653560634
133,915.66,0.002097741860996521
134,924.13,0.008538092448217387
135,934.8299999999999,0.017335296408460984
136,945.66,0.03224343485233371
137,954.41,0.04719497355814038
138,954.992586,0.0472526053435017
139,965.46,0.04829198381082065
140,974.39,0.007997863331292827
141,985.6800000000001,0.03414033981574198
142,994.8,0.040835702049415695
143,1004.0,0.06769563868864795
144,1015.63,0.0681635953967209
145,1025.02,0.031001068749154693
146,1034.51,0.04324586510853667
147,1044.08,0.09340358587347718
148,1056.17,0.09191018041351173
149,1065.94,0.0664573871923486
150,1075.81,0.08344640697813364
151,1085.76,0.06047870116947723
152,1095.81,0.08981719836776898
153,1096.4782,0.08956408835301718
154,1105.95,0.08597481854863642
155,1116.1799999999998,0.08005669950994666
156,1123.92,0.07005830545721364
157,1134.3200000000002,0.09778661921064731
158,1144.81,0.08715995326579337
159,1155.4,0.09556027543395325
160,1166.1000000000001,0.09823087352642827
161,1174.1799999999998,0.06215326505794212
162,1185.04,0.0953323781312392
163,1196.01,0.05787151712885144
164,1204.3,0.03739207269769425
165,1215.44,0.03125609448742993
166,1223.87,0.06506783941449203
167,1235.19,0.10645314180765252
168,1243.75,0.11779286828163255
169,1255.26,0.10943004908951923
170,1258.92541,0.10141318897502506
171,1263.96,0.0904028852205889
172,1275.66,0.12591940736701152
173,1284.5,0.13399324498875304
174,1296.39,0.09575670009310898
175,1305.37,0.09422611989438034
176,1314.42,0.12855641078541663
177,1323.53,0.12164805261053714
178,1335.78,0.1016606433193984
179,1345.0400000000002,0.13185118747972946
180,1354.36,0.12708403257414472
181,1363.75,0.10892727875832492
182,1376.3700000000001,0.11725037522737221
183,1385.9099999999999,0.11833492374676295
184,1395.51,0.10119527320023788
185,1405.19,0.10523292389915848
186,1414.93,0.10694087553216328
187,1424.7399999999998,0.112491928254933
188,1434.6100000000001,0.11095158191178693
189,1441.23,0.11915688497241236
190,1445.43977,0.12108623879779504
191,1447.89,0.12220918252541088
192,1454.57,0.11725196980710328
193,1464.65,0.10547710151360919
194,1474.8,0.10620653413474361
195,1485.03,0.10993546780116777
196,1495.32,0.11275510225155921
197,1505.68,0.10475053761657917
198,1512.63,0.08999282842612441
199,1516.12,0.09889642402688885
200,1526.6299999999999,0.09444798135182707
201,1533.68,0.07893131346798446
202,1544.3100000000002,0.09040716236085726
203,1555.01,0.08496282216835857
204,1565.79,0.08614376302114962
205,1576.65,0.09272494491923038
206,1583.92,0.09958056990993454
207,1594.8999999999999,0.1014312033759499
208,1605.9599999999998,0.100040817887255
209,1613.3700000000001,0.10119744470721619
210,1624.55,0.09401567078645587
211,1635.81,0.10213463791098529
212,1643.3700000000001,0.10379233669086471
213,1654.7600000000002,0.09466730551398994
214,1659.58691,0.09901300998540662
215,1666.23,0.10499438246290974
216,1673.92,0.09020201623840221
217,1677.7800000000002,0.10547978455744006
218,1685.52,0.11249892310390454
219,1693.3000000000002,0.1042744654671466
220,1705.04,0.09935847569137049
221,1716.8600000000001,0.09230635354914958
222,1724.78,0.09188479927111323
223,1736.74,0.09981950048761389
224,1744.75,0.09732466479732711
225,1756.8500000000001,0.10597312937254937
226,1764.9599999999998,0.09511349322420658
227,1773.1,0.097551799938447
228,1785.39,0.1000541726433628
229,1793.6399999999999,0.1089436398537416
230,1806.07,0.10844512591737901
231,1814.3999999999999,0.09778039076131298
232,1826.98,0.10074872113786636
233,1835.41,0.09599978552374433
234,1843.8899999999999,0.0867595046805943
235,1856.67,0.08656047414103564
236,1865.24,0.09001339188563519
237,1873.85,0.10029299344701234
238,1886.84,0.09084799294553604
239,1895.55,0.08696266404885718
240,1904.29,0.09339313801476151
241,1905.46072,0.0927794022042081
242,1913.0800000000002,0.08878342257776234
243,1926.35,0.08736206041129309
244,1935.24,0.09063763697045575
245,1944.17,0.09490371860974962
246,1953.1399999999999,0.0881675353291747
247,1966.68,0.09891356995359116
248,1975.76,0.10191366314337709
249,1984.8799999999999,0.09577575141329424
250,1994.04,0.09273879476334261
251,2003.25,0.09643634196355498
252,2017.13,0.09188792476908676
253,2026.4399999999998,0.09754953966962719
254,2035.8000000000002,0.09146218842033163
255,2045.19,0.09620936348113449
256,2054.63,0.09083239239210135
257,2064.1200000000003,0.09103762515323224
258,2073.64,0.09935725422446152
259,2078.42,0.09532424630014179
260,2083.21,0.10073554714585485
261,2092.83,0.0944497639174122
262,2107.34,0.09488401923501064
263,2117.06,0.096423083706896
264,2126.84,0.0975359707989782
265,2136.65,0.08957527420115882
266,2146.52,0.09336297022353626
267,2156.42,0.0975335725560121
268,2166.38,0.09379035750868477
269,2176.38,0.09292991754148866
270,2186.42,0.09207911265442377
271,2187.7616199999998,0.09268509261928715
272,2196.51,0.09663847554388921
273,2206.65,0.09378979991654442
274,2216.84,0.08753564919241787
275,2227.0699999999997,0.0851527123908659
276,2237.35,0.09293352049253213
277,2242.51,0.08854910650465254
278,2252.8599999999997,0.0828355014708243
279,2263.26,0.08515585134021428
280,2273.71,0.08814668611282246
281,2284.2000000000003,0.09229945480800524
282,2294.7400000000002,0.08574779840640623
283,2305.3399999999997,0.08692974788866908
284,2315.98,0.08112283129350652
285,2326.67,0.060985709601562174
286,2337.41,0.07312901281283606
287,2342.79,0.07015976039911663
288,2353.6099999999997,0.07852002145553967
289,2364.47,0.06982239643453726
290,2375.39,0.07276474729739674
291,2386.3500000000004,0.06605724208283079
292,2397.37,0.0715856827521267
293,2402.89,0.06852225406741831
294,2413.98,0.07108124160121973
295,2425.12,0.07810187403823937
296,2436.3199999999997,0.07527157235912088
297,2447.57,0.08100986558322061
298,2453.21,0.08044882866623594
299,2464.53,0.07842930875484119
300,2475.91,0.07506581472730829
301,2487.33,0.07471320462234998
302,2493.07,0.07021202751180175
303,2504.58,0.08189699623263623
304,2510.35,0.06860307206401893
305,2511.88643,0.06906793575581377
306,2516.14,0.07035432129522014
307,2527.7500000000005,0.06764856065519098
308,2533.5800000000004,0.07066425938633913
309,2545.27,0.06952724571003072
310,2557.02,0.07961762975651283
311,2562.92,0.07447508583091661
312,2574.74,0.08089317722065437
313,2586.6299999999997,0.07849966595364778
314,2592.59,0.07653202975084211
315,2604.5600000000004,0.07291349544755622
316,2616.58,0.07140845924659582
317,2622.61,0.07685712038704579
318,2634.72,0.08581495077027118
319,2646.8799999999997,0.09782277925582204
320,2652.9799999999996,0.10823691773952766
321,2665.23,0.08777919280926434
322,2677.53,0.09446971598132646
323,2683.7,0.09688514180828771
324,2696.0899999999997,0.08794765156453568
325,2702.3,0.09465878587335728
326,2714.7799999999997,0.08455579221379106
327,2727.31,0.08130127665655029
328,2733.59,0.08810931830862755
329,2746.21,0.0704804393355726
330,2752.54,0.07481637908997531
331,2765.25,0.08088997670110618
332,2778.01,0.0852720224145625
333,2784.42,0.07530580913268595
334,2797.27,0.05739933143032809
335,2803.7200000000003,0.0622044966303119
336,2816.6600000000003,0.08291065551213986
337,2823.1499999999996,0.09408555919398404
338,2836.18,0.09108872465999783
339,2842.7200000000003,0.08461744644416744
340,2855.84,0.07506573849436705
341,2862.42,0.09623044876039703
342,2875.64,0.10356416701524755
343,2882.27,0.09912648538360301
344,2884.0315,0.09971092263717544
345,2895.57,0.10353963956626727
346,2908.94,0.12217522918143071
347,2929.1,0.11321441352261957
348,2949.3999999999996,0.10960109775506667
349,2969.85,0.11447038187100475
350,2990.43,0.11497056588596836
351,3011.16,0.11734784978442298
352,3032.03,0.11949893357413582
353,3053.0499999999997,0.12085081724733966
354,3067.14,0.12507310630325985
355,3088.4,0.12619878979004925
356,3109.81,0.1321077731603297
357,3131.37,0.1278882564141011
358,3153.07,0.12814873955913075
359,3167.63,0.13262702824998937
360,3189.59,0.12037711119307008
361,3211.6899999999996,0.12954109402740904
362,3226.52,0.11570848250855142
363,3248.88,0.13842046514094142
364,3271.3999999999996,0.15172564764905516
365,3286.5,0.14893243592048136
366,3309.28,0.14617551822664612
367,3311.31121,0.14617194076223633
368,3324.56,0.146148419930609
369,3332.2200000000003,0.1498814061947509
370,3339.91,0.1395475920134521
371,3347.6,0.1605675778321533
372,3355.32,0.15368196320541377
373,3363.06,0.1201268482817138
374,3370.8100000000004,0.1360108332095336
375,3378.58,0.15048831784039296
376,3386.3700000000003,0.1494392021742918
377,3394.17,0.14908278635971045
378,3402.0,0.17074737009968838
379,3409.84,0.1470109536911861
380,3417.7000000000003,0.13974053698572333
381,3425.58,0.1553285199833001
382,3433.48,0.17107730268391644
383,3441.39,0.1496859852360525
384,3449.33,0.1422816673427479
385,3457.2799999999997,0.15069434930096304
386,3465.2500000000005,0.1393381309622177
387,3473.2400000000002,0.15958601232651196
388,3481.24,0.14520329354232592
389,3489.27,0.1552102743126992
390,3497.31,0.14417665493459228
391,3505.37,0.16437163525952486
392,3513.4500000000003,0.150246715287497
393,3521.55,0.16855349501850864
394,3529.6699999999996,0.13543757445255983
395,3537.81,0.16279975358965057
396,3545.96,0.16695783257826108
397,3554.14,0.16965411112143086
398,3562.3300000000004,0.16126228951612046
399,3570.54,0.14044946761384955
400,3578.77,0.1457024454146182
401,3587.02,0.12401282291842636
402,3595.29,0.15359240012527406
403,3603.58,0.1747038770351613
404,3611.89,0.14102605364808807
405,3620.21,0.15213983011253462
406,3628.56,0.18329830613154047
407,3634.1200000000003,0.12381402357653119
408,3636.86,0.13683558289294748
409,3639.6099999999997,0.09960154206088355
410,3642.35,0.11496520137729983
411,3645.09,0.1273984606937161
412,3647.8300000000004,0.1438968200101324
413,3650.57,0.1647335793265487
414,3653.3199999999997,0.15766903849448477
415,3656.06,0.16076039781090104
416,3658.7999999999997,0.17491225712731734
417,3661.54,0.19304781644373362
418,3664.2799999999997,0.16382337576014994
419,3667.03,0.16812123492808598
420,3669.77,0.18051929424450228
421,3672.5099999999998,0.17534835356091855
422,3675.25,0.18493501287733485
423,3677.99,0.15338397219375113
424,3680.7400000000002,0.1414678313616872
425,3683.48,0.13467299067810348
426,3686.2200000000003,0.17737514999451978
427,3688.96,0.17957420931093607
428,3691.7,0.16895226862735235
429,3694.4500000000003,0.15386552779528842
430,3697.19,0.17978958711170473
431,3699.9300000000003,0.182424946428121
432,3702.67,0.1545445057445373
433,3705.4100000000003,0.16688756506095356
434,3708.16,0.15053172422888964
435,3710.8999999999996,0.15195078354530592
436,3713.6400000000003,0.17463164286172222
437,3716.38,0.2272333021781385
438,3719.1200000000003,0.19854436149455482
439,3721.87,0.22057852066249087
440,3724.6099999999997,0.24133367997890715
441,3727.35,0.21713513929532344
442,3730.0899999999997,0.2278499986117397
443,3732.83,0.18406845792815602
444,3735.58,0.15002021709609206
445,3738.32,0.14536037641250837
446,3741.06,0.15248813572892464
447,3743.7999999999997,0.13967169504534094
448,3746.54,0.15057805436175722
449,3749.29,0.1505884135296933
450,3752.03,0.16767947284610957
451,3754.77,0.15677773216252588
452,3757.51,0.18885559147894215
453,3760.25,0.15172805079535845
454,3763.0000000000005,0.1921004099632945
455,3765.7400000000002,0.1874956692797108
456,3768.48,0.1906443285961271
457,3771.2200000000003,0.1710924879125434
458,3773.96,0.18986474722895966
459,3776.7099999999996,0.21930860639689573
460,3779.45,0.203788865713312
461,3782.19,0.22207632502972832
462,3784.9300000000003,0.20860998434614458
463,3787.67,0.2008611436625609
464,3790.42,0.19414030283049694
465,3793.16,0.18706346214691325
466,3795.8999999999996,0.18233972146332952
467,3798.64,0.18434928077974583
468,3801.3799999999997,0.19832504009616211
469,3801.8939600000003,0.1995997467121463
470,3804.13,0.20514550618187477
471,3806.87,0.21676367397520022
472,3809.61,0.20791754176852562
473,3812.35,0.21129540956185106
474,3815.0899999999997,0.18873827735517648
475,3817.84,0.2029134450309593
476,3820.58,0.1794771128242847
477,3823.32,0.17668578061761012
478,3826.06,0.16537634841093554
479,3828.8,0.14251291620426096
480,3831.55,0.15871308388004382
481,3834.2900000000004,0.15364115167336923
482,3837.03,0.13993021946669465
483,3839.77,0.14994868726002009
484,3842.51,0.1946207550533455
485,3845.2599999999998,0.1800010227291283
486,3847.9999999999995,0.19716709052245374
487,3850.7400000000002,0.20123015831577915
488,3853.48,0.19981352610910458
489,3856.2200000000003,0.19426139390243
490,3858.97,0.19127736157821285
491,3861.71,0.20074062937153825
492,3864.45,0.20713039716486367
493,3867.1899999999996,0.2096533649581891
494,3869.93,0.21503843275151452
495,3872.68,0.18726280042729734
496,3875.42,0.19611136822062275
497,3878.16,0.17408523601394818
498,3880.9,0.1754448038072736
499,3883.64,0.19551037160059903
500,3886.3900000000003,0.17497703927638186
501,3889.13,0.18485460706970727
502,3891.87,0.2002711748630327
503,3894.61,0.22275814265635813
504,3897.35,0.18931671044968354
505,3900.1000000000004,0.21182687812546636
506,3902.84,0.23912804591879178
507,3905.5800000000004,0.2336421137121172
508,3908.32,0.22914758150544262
509,3911.06,0.23210024929876805
510,3913.81,0.24219031697455087
511,3916.5499999999997,0.23090968476787632
512,3919.2900000000004,0.21431465256120172
513,3922.03,0.20011682035452716
514,3924.77,0.18992448814785257
515,3927.52,0.1611597558236354
516,3930.2599999999998,0.1396359236169608
517,3933.0,0.14269639141028623
518,3935.74,0.13906985920361165
519,3938.4799999999996,0.1678583269969371
520,3941.23,0.1805463946727199
521,3943.97,0.20684276246604533
522,3946.71,0.20061423025937075
523,3949.45,0.21928739805269618
524,3952.19,0.2085861658460216
525,3954.94,0.2072434335218044
526,3957.6800000000003,0.19909360131512982
527,3960.42,0.17597026910845526
528,3963.16,0.1721829369017807
529,3965.9,0.14963010469510613
530,3968.65,0.15159697237088893
531,3971.3900000000003,0.16262464016421435
532,3974.13,0.19119930795753978
533,3976.8700000000003,0.2101036757508652
534,3979.61,0.23121804354419062
535,3982.3599999999997,0.24053701121997342
536,3985.1,0.24644207901329887
537,3987.84,0.2570621468066243
538,3990.5800000000004,0.2651264145999497
539,3993.32,0.26973158239327516
540,3996.0699999999997,0.27378445006905794
541,3998.81,0.26554441786238336
542,4001.5499999999997,0.2672852856557088
543,4004.29,0.27105315344903425
544,4007.0299999999997,0.27224312124235966
545,4009.78,0.2797331889181425
546,4012.52,0.2850434567114679
547,4015.2599999999998,0.2840081245047933
548,4018.0,0.29407739229811874
549,4020.74,0.29079476009144417
550,4023.4900000000002,0.29108002776722697
551,4026.23,0.3006424955605524
552,4028.9700000000003,0.28504356335387787
553,4031.71,0.2813202311472033
554,4034.45,0.28616769894052874
555,4037.2000000000003,0.2853292666163115
556,4039.94,0.2839194344096369
557,4042.6800000000003,0.27938090220296236
558,4045.42,0.27949126999628776
559,4048.1600000000003,0.2788746377896132
560,4050.91,0.289405205465396
561,4053.6499999999996,0.2903308732587215
562,4056.3900000000003,0.28588044105204685
563,4059.13,0.2726168088453723
564,4061.8700000000003,0.2683205766386977
565,4064.62,0.2739158443144805
566,4067.3599999999997,0.28755451210780597
567,4070.1,0.2787635799011314
