,lambda (Angstroms),Total Flux (erg/s/cm^2/Angstrom)
0,100.09,0.005078533653828583
1,101.94999999999999,0.0061016641749554205
2,104.09,0.0072788143027296805
3,104.712855,0.007621428328279796
4,106.02000000000001,0.007021491752911056
5,107.99,0.006117326813462222
6,110.0,0.005194804105893579
7,114.13,0.003299272140503604
8,117.87,0.0015827389667959107
9,120.22644299999999,0.0005012427269296702
10,120.89000000000001,0.00048716036586142004
11,125.14000000000001,0.0003969277180991813
12,126.88,0.0003599881343503593
13,128.05,0.00033514976090649555
14,131.04,0.0002716738565099563
15,131.94,0.00025258903859159975
16,134.09,0.00020694961222552592
17,136.9,0.0001473414767926574
18,138.038426,0.00012318119554526096
19,140.07999999999998,0.00012167976560323249
20,143.02,0.00012009068922671934
21,147.02,0.00011881510428860624
22,151.14000000000001,0.00011619233859634974
23,155.02,0.00011386696701238005
24,158.489319,0.00011186161414808294
25,159.0,0.00011136093937273765
26,161.95000000000002,0.0001085171713302186
27,166.11,0.0001046378100465307
28,169.98,0.00010107401872973453
29,173.14,9.821984491808702e-05
30,177.17,9.465105820576436e-05
31,180.05,9.22046030862881e-05
32,181.970086,9.059645985024265e-05
33,182.13,9.070611949247375e-05
34,185.95000000000002,9.34368801799375e-05
35,191.16,9.72161237091747e-05
36,193.82,9.951735727688505e-05
37,197.87,0.00010265352368636888
38,202.02,0.00010608924519238315
39,204.83,0.00010865205640488921
40,208.929613,0.000111423150821288
41,210.07999999999998,0.00011436491183847458
42,215.97000000000003,0.00013204649841272478
43,219.98,0.00014368554137753674
44,223.04000000000002,0.0001521850765077924
45,227.19,0.0001644892138903285
46,229.82,0.0001897458047375743
47,234.09,0.00023954203447815973
48,239.88329199999998,0.00027958440020507116
49,240.1,0.0002801921695892209
50,246.26,0.00026931338289248706
51,251.98999999999998,0.0002734427290333499
52,257.27,0.00024833511186472086
53,260.25,0.0002641865377809113
54,263.87,0.0002690097404039345
55,268.77000000000004,0.00026605159644062346
56,273.77,0.0002623653332127552
57,275.42287,0.0002613098245350391
58,278.86,0.0002722992838238723
59,284.05,0.0002885924952526171
60,289.99,0.00029873831411326133
61,296.07,0.00032075012769452684
62,300.88,0.0003345996820244425
63,307.89,0.0003583474248212634
64,316.227766,0.0003870985895446387
65,317.96999999999997,0.00038712792491032717
66,327.63,0.00038323168210325196
67,338.37,0.00037605978482085163
68,347.85,0.00036940388442633065
69,356.77,0.00036317372709308946
70,363.078055,0.0003596116826656488
71,365.92,0.00036534784299496216
72,375.31,0.00038130168186433926
73,384.94,0.0003898156686920391
74,394.81,0.0004137734034780617
75,404.94,0.0004321888318856007
76,414.37,0.00044545196208136496
77,416.86938299999997,0.00044848786209391553
78,422.07,0.00045244934600435413
79,429.92,0.0004597244970645174
80,440.95000000000005,0.00047181860282166405
81,451.22,0.00047879319739336807
82,459.61,0.00048516390113792463
83,470.31000000000006,0.0004930903191434975
84,478.630092,0.0005010123684024631
85,480.16,0.0005000669824911545
86,490.22,0.0004877564534240376
87,500.48,0.0004826355766617494
88,506.28,0.0004754487935017815
89,512.14,0.00048811586603326204
90,520.46,0.0004821318219141355
91,530.14,0.00047138017346784423
92,539.99,0.0004563010994806572
93,549.5408739999999,0.0004551403312526319
94,550.0300000000001,0.00045537476347763596
95,560.26,0.00046252323116886373
96,569.36,0.00046883160301541035
97,579.9499999999999,0.00045977540124122676
98,589.37,0.00046989250022963
99,600.33,0.000463643929838218
100,610.08,0.0004451617568166608
101,620.0,0.00048410289821421496
102,630.0699999999999,0.00048616825233451443
103,630.957344,0.0004860544980000256
104,640.3100000000001,0.0004912219072551066
105,650.71,0.0005080969065523803
106,658.25,0.0005180470510429038
107,664.34,0.0005302832523621727
108,675.13,0.0005345056591330941
109,684.52,0.0005292172621524596
110,695.65,0.0005845370369773304
111,705.3199999999999,0.0005725474607470069
112,716.7800000000001,0.0006207658957418875
113,724.43596,0.0006303648955623912
114,726.76,0.0006328872980370192
115,735.17,0.000644675531460003
116,745.4,0.0006814381353740487
117,755.7700000000001,0.0007043850677874068
118,764.5200000000001,0.0007088241989944352
119,775.16,0.0007592033649421817
120,784.13,0.0007875042123624154
121,795.0400000000001,0.0008115172118445501
122,804.25,0.0008344127224064624
123,815.4300000000001,0.0008537558554229855
124,824.8800000000001,0.0009056906291265761
125,831.763771,0.0008245039445380589
126,834.4300000000001,0.0007911734216515619
127,844.09,0.0009266906727671502
128,855.83,0.0009384392947233619
129,865.74,0.000980921264449602
130,875.77,0.001028254567108955
131,885.9100000000001,0.0010917145499569946
132,894.11,0.001131772800386376
133,904.46,0.0011200136908673633
134,914.9300000000001,0.0016551359142814635
135,925.53,0.010573197823373102
136,934.09,0.023121628572601822
137,944.9100000000001,0.04453993384207084
138,954.992586,0.06317776650146743
139,955.85,0.06476306086406704
140,964.6899999999999,0.0697058935863187
141,975.86,0.010249777795317723
142,984.89,0.05339246596069472
143,994.01,0.06072424723071002
144,1005.52,0.09616917539056487
145,1014.82,0.09528773286985678
146,1024.21,0.04185278345378702
147,1036.07,0.06299476479834638
148,1045.66,0.13088306005925066
149,1055.33,0.12849681919094452
150,1065.1,0.09660762066112537
151,1074.95,0.11910141600209585
152,1084.9,0.08995945368155334
153,1094.94,0.12760808446564914
154,1096.4782,0.12686475635959296
155,1105.07,0.12271140637576249
156,1115.29,0.11638715570677031
157,1125.61,0.10302558105862948
158,1136.03,0.13861748243134
159,1143.9,0.12469509527234116
160,1154.49,0.13546045588049896
161,1165.1699999999998,0.139893894907423
162,1175.95,0.09182018995519838
163,1184.1,0.13607915565458328
164,1195.06,0.08688486753989108
165,1206.12,0.05863141544605024
166,1214.47,0.04398923318713784
167,1225.71,0.09223369793082943
168,1234.21,0.14747963970319405
169,1245.6299999999999,0.16319270128441804
170,1254.26,0.15371453188388945
171,1258.92541,0.14380116493012493
172,1265.8700000000001,0.1290466316066881
173,1274.6399999999999,0.17526108118966544
174,1286.44,0.18606748245296445
175,1295.3500000000001,0.1389117344238114
176,1304.33,0.13669048758859323
177,1316.4,0.1805836934570694
178,1325.53,0.172061649180283
179,1334.72,0.14747590592686924
180,1343.9699999999998,0.18478636369682822
181,1356.4,0.17851677570554064
182,1365.8000000000002,0.15585103603393138
183,1375.2700000000002,0.16622619755625695
184,1384.81,0.16814906027251736
185,1394.4,0.1454537238415883
186,1404.07,0.15160578877515626
187,1413.8,0.1540680547320969
188,1423.6,0.16058512188297233
189,1433.47,0.15874889022778263
190,1443.41,0.16970445976652773
191,1445.43977,0.17212083775147363
192,1446.73,0.17365681285649068
193,1453.41,0.16776550848138194
194,1463.49,0.15230595277762504
195,1473.6299999999999,0.15265839793277436
196,1483.85,0.15693134423313193
197,1494.1299999999999,0.1609564913923957
198,1504.49,0.1509114396968678
199,1511.43,0.13114683904368596
200,1518.41,0.14313263896310824
201,1525.42,0.13732293931198364
202,1535.9900000000002,0.11689319062262747
203,1546.6399999999999,0.13297084307847956
204,1553.78,0.1246718452883184
205,1564.5500000000002,0.12640479946198288
206,1575.39,0.13575355463770464
207,1586.31,0.14445591095863466
208,1593.63,0.14782151574519214
209,1604.68,0.14512347392708563
210,1615.8,0.14646533311103635
211,1623.26,0.1370095399017083
212,1634.5100000000002,0.1474808009466225
213,1645.8400000000001,0.15022026313674494
214,1653.4399999999998,0.1370096719315314
215,1659.58691,0.1450284201115716
216,1664.9,0.15195991535837855
217,1672.59,0.1320572192749817
218,1676.4399999999998,0.1526622217559859
219,1684.18,0.16133363089961508
220,1695.86,0.1502221519328953
221,1703.6799999999998,0.1434691694397661
222,1715.49,0.134827504063314
223,1723.4099999999999,0.13420793202423686
224,1735.36,0.14479708128345764
225,1743.37,0.14117791865302737
226,1755.45,0.15267108150251582
227,1763.5500000000002,0.13765322828073237
228,1775.7800000000002,0.14183470681129892
229,1783.97,0.14480336299816235
230,1796.34,0.15694935616440175
231,1804.63,0.15551222280531724
232,1812.96,0.14183949362785356
233,1825.53,0.14547500770219707
234,1833.95,0.13893538793338026
235,1846.67,0.12613601768880184
236,1855.1899999999998,0.12642770837403705
237,1863.7500000000002,0.1311695032408931
238,1876.67,0.1444794539044188
239,1885.3400000000001,0.1317761602707321
240,1894.04,0.12643116977326105
241,1905.46072,0.13348093982617987
242,1907.17,0.1345356333691389
243,1915.9699999999998,0.1287805475348706
244,1924.8100000000002,0.12672215631044648
245,1933.6999999999998,0.13026735834832767
246,1947.1,0.13702975264614634
247,1956.0900000000001,0.1278892412086381
248,1965.12,0.14216522438097412
249,1974.19,0.14614620216315435
250,1983.3,0.13733987455517885
251,1997.05,0.13329122168913454
252,2006.27,0.13765387925823067
253,2015.5300000000002,0.13176283143717102
254,2024.83,0.1389251782259556
255,2034.1799999999998,0.1311568182770455
256,2043.5700000000002,0.13733135293797963
257,2053.0,0.13085368220875798
258,2067.23,0.13115246466084451
259,2071.99,0.14149892323230845
260,2076.77,0.13513497910869451
261,2086.3599999999997,0.1411707868188498
262,2095.9900000000002,0.13297188913884933
263,2105.66,0.1332772860686931
264,2115.38,0.13481877626084215
265,2125.14,0.13700656106283546
266,2134.95,0.12582313912713405
267,2144.81,0.1302385104537379
268,2154.71,0.13574647639018603
269,2164.65,0.1308394369364784
270,2174.65,0.1296363893975371
271,2184.68,0.12785853781597895
272,2187.7616199999998,0.12979193836499983
273,2194.77,0.13419067552391842
274,2204.9,0.13023556387361085
275,2215.08,0.12239125759521685
276,2225.3,0.11851155561435373
277,2235.57,0.1284521590054042
278,2245.8900000000003,0.12211376776836823
279,2256.2599999999998,0.11555288190324586
280,2266.67,0.11851610033565436
281,2277.13,0.12239852413997644
282,2282.38,0.12669718819090292
283,2292.92,0.11875202059028675
284,2303.5,0.11923965728720144
285,2314.14,0.11251600043041243
286,2324.82,0.08552337787115429
287,2335.55,0.10251570068380973
288,2346.33,0.09830717886837875
289,2357.1600000000003,0.10872192242486138
290,2362.59,0.09755353581467677
291,2373.5,0.10139077796622112
292,2384.45,0.09264043441529635
293,2395.46,0.09989522731066786
294,2406.52,0.09535206557795298
295,2417.62,0.09841977814276895
296,2423.2000000000003,0.1063975176483251
297,2434.3799999999997,0.10179211880820281
298,2445.62,0.10875512641437683
299,2456.91,0.10720463939246444
300,2462.57,0.10570514749308231
301,2473.94,0.10112906906623166
302,2485.36,0.10294999601129458
303,2496.83,0.09714401832827109
304,2502.58,0.10996014609833343
305,2511.88643,0.0979743675185489
306,2514.1400000000003,0.09507165225840311
307,2519.9300000000003,0.09747906150186667
308,2525.7400000000002,0.09285486991370141
309,2537.4,0.09539806507411332
310,2543.2500000000005,0.09363101182269049
311,2554.99,0.10306855365658721
312,2566.78,0.09882853341141194
313,2572.7,0.10585661724928831
314,2584.5699999999997,0.10386502367759787
315,2596.5,0.10167532761102102
316,2602.4900000000002,0.09729874853819662
317,2614.5,0.0954665891451046
318,2626.5699999999997,0.10152077725712619
319,2632.62,0.10774572568941539
320,2644.77,0.1196995204749218
321,2656.98,0.1255489127655418
322,2663.11,0.10882505787131583
323,2675.4,0.11519484683542065
324,2687.75,0.1159200333046391
325,2693.94,0.10815667591552673
326,2706.38,0.1134383586424156
327,2712.62,0.10486899917423123
328,2725.14,0.10312827857460491
329,2737.7200000000003,0.1099196554800922
330,2744.03,0.09141469310120705
331,2756.69,0.09499910668017915
332,2763.05,0.100358502222222
333,2775.7999999999997,0.10550017205886454
334,2782.2000000000003,0.09663691593764981
335,2795.04,0.07515774203196275
336,2807.9500000000003,0.08140478521557491
337,2814.42,0.10313516618365938
338,2827.4100000000003,0.11222442604075637
339,2833.93,0.10788395492976886
340,2847.0099999999998,0.10296191104453625
341,2853.57,0.09584267827029115
342,2866.74,0.11199849064272895
343,2873.35,0.11482941578941186
344,2884.0315,0.113080862802421
345,2886.61,0.11265886944302736
346,2893.27,0.1139243637755436
347,2913.3199999999997,0.1279776467135242
348,2926.77,0.12102013526793015
349,2947.0600000000004,0.11787391800167711
350,2967.49,0.12132610061628776
351,2988.0499999999997,0.12147848312027187
352,3008.77,0.1233199654881002
353,3029.62,0.12375674774530199
354,3050.62,0.12419362987485773
355,3071.77,0.12607431187676743
356,3093.0600000000004,0.12680899375954086
357,3107.34,0.12877288160763875
358,3128.88,0.1257044632776688
359,3150.5699999999997,0.1258513448200528
360,3172.4,0.12775342624330052
361,3187.05,0.1188666137765382
362,3209.14,0.12489609497853281
363,3231.39,0.11589627604437162
364,3246.2999999999997,0.1290352633563562
365,3268.8,0.13683044420945165
366,3291.46,0.13479622492639132
367,3306.65,0.1334557120001033
368,3311.31121,0.1332363228582259
369,3321.92,0.13273683545678647
370,3329.57,0.13925441101166677
371,3337.25,0.13540678607852702
372,3344.94,0.1328842609827139
373,3352.6499999999996,0.12832293556155408
374,3360.38,0.13586610981504751
375,3368.1299999999997,0.13456628374319424
376,3375.89,0.12044595750866759
377,3383.68,0.12123233078612089
378,3391.47,0.13627290406357417
379,3399.29,0.1400289768530074
380,3407.1299999999997,0.1321482493170939
381,3414.98,0.13331522161850703
382,3422.8599999999997,0.14311149343190008
383,3430.75,0.13724976508261977
384,3438.66,0.13974023640799277
385,3446.5800000000004,0.11700300757069237
386,3454.53,0.13582197824537193
387,3462.49,0.1226921487573781
388,3470.47,0.13110391894403758
389,3478.4700000000003,0.11870448880535031
390,3486.49,0.12742695834131637
391,3494.53,0.12447532755193566
392,3502.58,0.13547979659988163
393,3510.66,0.13295216515980748
394,3518.75,0.12809133355706
395,3526.86,0.12483610162896581
396,3534.9900000000002,0.1355607693755249
397,3543.1400000000003,0.14385713679673726
398,3551.31,0.1428055038926029
399,3559.5,0.13885477066312182
400,3567.7,0.13532743727096738
401,3575.93,0.1216805033907929
402,3584.17,0.11273606934794501
403,3592.43,0.11799343497975043
404,3600.7099999999996,0.14048160028620912
405,3609.01,0.1271899652673211
406,3616.32,0.10530784635309562
407,3619.0499999999997,0.0897371919432686
408,3621.7899999999995,0.10279325737076822
409,3624.52,0.1192477129609412
410,3627.25,0.14284436855111415
411,3629.9900000000002,0.14772972397861378
412,3632.72,0.14828397956878678
413,3635.4500000000003,0.14156403515895974
414,3638.19,0.12934869058645934
415,3640.92,0.11527244617663232
416,3643.65,0.1292945017668053
417,3646.39,0.14334945719430492
418,3649.1200000000003,0.1425773127844779
419,3651.86,0.12420416821197751
420,3654.5899999999997,0.13850742380215048
421,3657.32,0.14219307939232348
422,3660.06,0.14455163481982308
423,3662.7900000000004,0.14958679040999606
424,3665.52,0.14922604600016903
425,3668.2599999999998,0.15970660142766865
426,3670.9900000000002,0.1515511570178416
427,3673.72,0.1113494126080146
428,3676.4599999999996,0.11474686803551422
429,3679.19,0.1432315236256872
430,3681.92,0.14445327921586018
431,3684.6600000000003,0.1403643346433598
432,3687.39,0.14653279023353274
433,3690.12,0.12208654582370573
434,3692.86,0.13835780125120536
435,3695.59,0.1571923568413783
436,3698.3300000000004,0.15074431226887794
437,3701.06,0.1357006678590509
438,3703.79,0.1519873234492239
439,3706.53,0.1746260788767235
440,3709.2599999999998,0.1406557344668965
441,3711.9900000000002,0.15430639005706945
442,3714.73,0.15808564548456908
443,3717.46,0.15807960107474206
444,3720.19,0.159383156664915
445,3722.93,0.18281941209241465
446,3725.6600000000003,0.20387456768258763
447,3728.39,0.24945602327276062
448,3731.1299999999997,0.32448577870026024
449,3733.86,0.3657480342904332
450,3736.59,0.31015228988060617
451,3739.33,0.2086046453081058
452,3742.06,0.14046650089827875
453,3744.7999999999997,0.13971245632577836
454,3747.53,0.15151401191595135
455,3750.26,0.14047266750612433
456,3753.0,0.15438482293362393
457,3755.73,0.14106637852379691
458,3758.46,0.13768543411396988
459,3761.2000000000003,0.14915468954146952
460,3763.93,0.1699221451316425
461,3766.66,0.18016020072181546
462,3769.4,0.17343515614931507
463,3772.13,0.17220131173948805
464,3774.8599999999997,0.166094167329661
465,3777.6,0.15643712275716062
466,3780.33,0.16327517834733363
467,3783.06,0.19094983393750659
468,3785.8,0.1906195893650062
469,3788.5299999999997,0.21031264495517918
470,3791.26,0.20491490054535216
471,3794.0,0.18226645597285177
472,3796.73,0.18084591156302476
473,3799.47,0.15908316699052438
474,3801.8939600000003,0.14997472050274063
475,3802.2,0.14882472361801785
476,3804.9300000000003,0.1641941884615071
477,3807.67,0.17657205317621796
478,3810.4,0.19494911801970724
479,3813.13,0.19700628286319652
480,3815.87,0.19737704757790736
481,3818.6,0.18790351242139663
482,3821.33,0.1979023772648859
483,3824.07,0.18328174197959676
484,3826.8,0.17646520682308603
485,3829.5299999999997,0.16200917166657533
486,3832.27,0.14630983638128617
487,3835.0,0.13322640122477544
488,3837.7299999999996,0.13051496606826474
489,3840.4700000000003,0.13544873078297556
490,3843.2,0.13546359562646484
491,3845.94,0.1590174603411757
492,3848.67,0.18404132518466498
493,3851.3999999999996,0.19178609002815425
494,3854.14,0.2005057547428651
495,3856.87,0.20566271958635438
496,3859.6000000000004,0.21003898442984364
497,3862.34,0.1952566491445545
498,3865.0699999999997,0.20994201398804377
499,3867.8,0.21685997883153305
500,3870.54,0.2235961435462439
501,3873.27,0.22298790838973317
502,3876.0,0.19979897323322246
503,3878.74,0.20144163794793332
504,3881.4700000000003,0.1953870027914226
505,3884.2,0.18756526763491185
506,3886.94,0.1735616323496227
507,3889.67,0.181010397193112
508,3892.3999999999996,0.17276256203660126
509,3895.1400000000003,0.17149432675131213
510,3897.87,0.1749868915948014
511,3900.61,0.18380105630951224
512,3903.34,0.18763162115300153
513,3906.0699999999997,0.2088860859964908
514,3908.81,0.20160055071120164
515,3911.54,0.20932441555469095
516,3914.2700000000004,0.2243098803981802
517,3917.01,0.22296594511289103
518,3919.74,0.23828730995638034
519,3922.4700000000003,0.2264505747998696
520,3925.21,0.21551523951458046
521,3927.9399999999996,0.19714510435806976
522,3930.67,0.188863769201559
523,3933.41,0.16356463391626985
524,3936.1400000000003,0.14483549875975915
525,3938.87,0.13718146360324843
526,3941.6099999999997,0.14941462831795926
527,3944.34,0.17716899316144855
528,3947.08,0.1781044578761594
529,3949.8100000000004,0.19918462271964865
530,3952.54,0.21350068756313795
531,3955.2799999999997,0.2132900522778488
532,3958.01,0.22036321712133805
533,3960.74,0.21314388196482736
534,3963.4799999999996,0.1898867466795382
535,3966.21,0.16617521152302747
536,3968.94,0.15571937636651675
537,3971.6800000000003,0.1379171410812276
538,3974.41,0.13205340592471687
539,3977.1400000000003,0.13408947076820618
540,3979.88,0.158459835482917
541,3982.6099999999997,0.19325130032640628
542,3985.34,0.20953176516989558
543,3988.08,0.2132269298846064
544,3990.8100000000004,0.22053099472809568
545,3993.54,0.222231359571585
546,3996.2799999999997,0.2421478242862958
547,3999.01,0.23570498912978508
548,4001.75,0.23690045384449596
549,4004.4800000000005,0.2380552186879852
550,4007.21,0.2373000835314745
551,4009.95,0.23173754824618537
552,4012.6800000000003,0.2385588130896746
553,4015.41,0.2467653779331639
554,4018.1499999999996,0.25068934264787474
555,4020.88,0.254467507491364
556,4023.61,0.2542369723348533
557,4026.3500000000004,0.2597349370495642
558,4029.08,0.2560205018930534
559,4031.81,0.2466813667365427
560,4034.55,0.24265093145125358
561,4037.2799999999997,0.2556006962947428
562,4040.0099999999998,0.26145676113823213
563,4042.75,0.27394342585294296
564,4045.48,0.2690747906964322
565,4048.2200000000003,0.25396285541114305
566,4050.95,0.25956692025463235
567,4053.68,0.2558104850981216
568,4056.42,0.2514442498128325
569,4059.15,0.25383721465632175
570,4061.88,0.24147587949981106
