,lambda (Angstroms),Total Flux (erg/s/cm^2/Angstrom)
0,102.02,0.014402176017449496
1,103.92,0.016853248351324367
2,104.712855,0.017881995177885197
3,106.09,0.01651960385245497
4,108.07000000000001,0.014610717844507968
5,110.08,0.012838259324319352
6,113.94,0.009199424549230758
7,117.95,0.0054184512129340475
8,120.22644299999999,0.006871938485701681
9,120.97,0.008084330926545627
10,124.94,0.009114032525079876
11,126.97,0.00944351295959487
12,128.14000000000001,0.009773840476039472
13,131.13,0.010185266795842347
14,132.04,0.011765229197521482
15,133.87,0.012043650697601502
16,136.98999999999998,0.014524254074787109
17,138.038426,0.014743037551832157
18,139.86,0.01520773658475908
19,143.12,0.040646105073072314
20,147.13,0.09425189867372753
21,150.9,0.09734175023843333
22,155.13,0.10166731987204222
23,158.489319,0.10589494230793235
24,159.11,0.10667548845220294
25,162.07,0.10991735759052182
26,165.84,0.11586561118898876
27,170.09,0.11993391113421013
28,172.85999999999999,0.12354957651027206
29,176.89,0.1275837510465643
30,180.17,0.1305542844160528
31,181.83999999999997,0.13265352274746917
32,181.970086,0.1327767984404954
33,186.07999999999998,0.13668573724949395
34,190.85000000000002,0.14147894628942717
35,193.95,0.14544395174514899
36,198.01,0.14883006405167495
37,202.16000000000003,0.15335215200046384
38,204.97000000000003,0.15620031372000523
39,208.929613,0.15432583659185825
40,210.23,0.15371577883215087
41,216.12,0.16586284140389185
42,220.14,0.17052555949190523
43,223.2,0.17092667773800496
44,226.82999999999998,0.17613610526524093
45,229.98000000000002,0.2621979828715201
46,234.26,0.42998002800005175
47,239.88329199999998,0.5214346620481045
48,240.27,0.5277203033901515
49,245.86,0.48466970038416346
50,252.17,0.5051066701573684
51,256.86,0.41249135117738917
52,259.83,0.47684916389156007
53,264.05,0.4958554210140521
54,268.96,0.48680157704993743
55,273.96,0.47570985468322186
56,275.42287,0.4725904872554985
57,279.06,0.464866430656214
58,284.24,0.4585319829560554
59,290.2,0.427949136567456
60,296.27,0.42310568395356357
61,301.09000000000003,0.4078240202634546
62,308.1,0.40318548717887703
63,316.227766,0.3987913322119013
64,318.19,0.3977152198291493
65,327.86,0.38331062518487624
66,337.82,0.36603527703007166
67,348.09,0.3487305096053886
68,357.02,0.33841794805695435
69,363.078055,0.33533275935746526
70,366.17999999999995,0.333771189345404
71,374.71,0.3209828783830748
72,385.2,0.2955170970237743
73,395.09000000000003,0.29826377599007725
74,405.22,0.2928535708261388
75,413.71,0.2822900572188498
76,416.86938299999997,0.27766886587775413
77,422.36999999999995,0.26961753358356433
78,430.21999999999997,0.25989451979500233
79,441.26,0.254007217473254
80,450.5,0.2437259437909211
81,459.93,0.2322470626410944
82,469.56,0.22439268942022153
83,478.630092,0.22102062463926708
84,480.5,0.22031877934779215
85,490.56,0.20657927117816088
86,499.68,0.2065547605909803
87,505.47,0.1972708722905663
88,512.5,0.21036038079628125
89,519.63,0.20368428743152273
90,530.51,0.19317762392400903
91,540.37,0.17782481949532475
92,549.5408739999999,0.1712231699686789
93,550.42,0.17059152858530116
94,559.36,0.1761733546241976
95,569.76,0.17738472138085562
96,580.35,0.17019286329941413
97,589.78,0.16746566738742233
98,599.37,0.15415696634860987
99,610.51,0.13429364689372242
100,620.4300000000001,0.1548522290308424
101,630.51,0.14721450604114172
102,630.957344,0.1473008754529818
103,639.28,0.14892058311332323
104,649.67,0.14322428506173188
105,658.71,0.13585939137680542
106,664.8,0.1399875850116282
107,675.5999999999999,0.13903525007830894
108,685.0,0.12713047522893853
109,694.53,0.13220061551463
110,704.1899999999999,0.11868127093538336
111,715.63,0.1277476028208304
112,724.43596,0.12595106418989646
113,725.59,0.1257151833893425
114,735.68,0.12371856783844255
115,744.2,0.11898566114927826
116,754.56,0.11601998165400337
117,765.0500000000001,0.10321716766699242
118,775.7,0.11159543430553706
119,784.68,0.10417165941484512
120,795.59,0.10611595706991761
121,804.81,0.10587010311755908
122,814.13,0.10418449955617279
123,825.4499999999999,0.10300670381423149
124,831.763771,0.09413173270437847
125,835.0100000000001,0.08956345925079792
126,844.6800000000001,0.09837693630459399
127,854.4599999999999,0.09570241251825744
128,864.35,0.09569280789178825
129,874.36,0.09458955143971985
130,884.49,0.09285904316205223
131,894.73,0.091573604044252
132,905.09,0.08907720310085254
133,915.57,0.09218333033185384
134,924.04,0.16593941564164214
135,934.74,0.2419152611923782
136,945.5600000000001,0.3108418749175151
137,954.3100000000001,0.3560182626342385
138,954.992586,0.35737344979460894
139,965.36,0.37796621263631736
140,974.3000000000001,0.1757200603399169
141,985.58,0.30868190173774723
142,994.7,0.3016652181870568
143,1003.9,0.3685052207455709
144,1015.5300000000001,0.3710550013711708
145,1024.92,0.2475135709390455
146,1034.41,0.3195117231434258
147,1043.98,0.4329070614570106
148,1056.0700000000002,0.4172538622105361
149,1065.84,0.3535508657971321
150,1075.7,0.38674455375658306
151,1085.6499999999999,0.32619472608888905
152,1095.7,0.39211138105770066
153,1096.4782,0.39069172931960255
154,1105.84,0.37360975830277693
155,1116.07,0.36259149885080083
156,1123.81,0.3216956925792177
157,1134.2,0.377051146175891
158,1144.7,0.35596323999351087
159,1155.29,0.358428284900996
160,1165.98,0.35350817546388696
161,1174.06,0.25205948442068393
162,1184.93,0.33526727716330557
163,1195.89,0.27954332099579254
164,1204.18,0.2357679158289419
165,1215.32,0.18517586184115947
166,1223.75,0.27191308059187713
167,1235.0700000000002,0.3291346287838253
168,1243.63,0.33989997688657064
169,1255.1399999999999,0.32835892182379006
170,1258.92541,0.3194421805976305
171,1263.84,0.30786845463134466
172,1275.53,0.3486127065077657
173,1284.37,0.35426954821756573
174,1296.26,0.3008612078249777
175,1305.24,0.29879765494647137
176,1314.29,0.34224960477381183
177,1326.45,0.3268558748180616
178,1335.6499999999999,0.3001725304436453
179,1344.9,0.33140288800197676
180,1354.2299999999998,0.3208956486527046
181,1363.6100000000001,0.2947061112361802
182,1376.23,0.29674399906170906
183,1385.77,0.2940230678299774
184,1395.3799999999999,0.23520993930409256
185,1405.05,0.231977713097505
186,1414.79,0.2712759895967643
187,1424.6000000000001,0.2675559688018704
188,1434.4699999999998,0.27190265032627375
189,1441.09,0.27695290622207425
190,1445.43977,0.27736895162028186
191,1447.7400000000002,0.2775889489879241
192,1454.4299999999998,0.2681737660296324
193,1464.51,0.2520199930521166
194,1474.66,0.25202032234559024
195,1484.88,0.2537651539100534
196,1495.17,0.252022787745506
197,1505.54,0.23902312417637514
198,1512.49,0.21851554965318717
199,1515.97,0.22723546255380672
200,1526.48,0.2225773035266548
201,1533.53,0.1938768322477375
202,1544.16,0.18730137711371042
203,1554.8600000000001,0.1826198242506728
204,1565.64,0.19566987398305172
205,1576.49,0.2058290259864201
206,1583.77,0.2106212621693254
207,1594.75,0.21208241839024566
208,1605.8,0.2063061768821554
209,1613.2099999999998,0.20347761728261254
210,1624.39,0.1970326799920742
211,1635.6499999999999,0.20536204529695234
212,1643.2,0.20536149023938843
213,1654.59,0.1965734597618185
214,1659.58691,0.2004027709984697
215,1666.06,0.20536465549909305
216,1673.75,0.186879677437066
217,1677.61,0.20965619195989765
218,1685.36,0.21111642811325135
219,1693.1299999999999,0.19977876900506533
220,1704.87,0.19344355048124245
221,1716.6899999999998,0.18305795091126065
222,1724.6100000000001,0.18014102734152665
223,1736.5700000000002,0.1890503609407667
224,1744.58,0.1847555586941039
225,1756.6799999999998,0.19080812546256581
226,1764.78,0.18015044453897422
227,1777.02,0.17849914447665804
228,1785.2199999999998,0.18140368724536776
229,1793.46,0.18776843949099803
230,1805.89,0.1860561844440544
231,1814.23,0.172454560381986
232,1826.8000000000002,0.17485593850426423
233,1835.23,0.16931953576526704
234,1843.71,0.15695014487242057
235,1856.49,0.1565862727485316
236,1865.05,0.15950040080952615
237,1873.66,0.16777784071667137
238,1886.65,0.1548036183466152
239,1895.3600000000001,0.14922038194606177
240,1904.11,0.15659725502242888
241,1905.46072,0.15557016731211898
242,1912.8999999999999,0.14990930310974898
243,1926.16,0.14481775355348153
244,1935.0500000000002,0.14886483857948318
245,1943.9799999999998,0.15444691138962885
246,1952.95,0.1434870719839185
247,1966.49,0.15514603691665896
248,1975.5700000000002,0.15766026391734458
249,1984.68,0.1509259817561382
250,1993.8500000000001,0.14714728127114782
251,2003.0500000000002,0.1502226716242654
252,2016.93,0.14680183272222974
253,2026.24,0.14952638948174335
254,2035.6,0.14313113097143687
255,2044.9899999999998,0.14713336329923843
256,2054.43,0.13482328035721997
257,2063.91,0.13731898519934546
258,2073.44,0.14951167477165098
259,2078.2200000000003,0.15872121497685773
260,2083.0099999999998,0.17242315212810047
261,2092.62,0.16240991726869397
262,2107.13,0.16240488596692618
263,2116.86,0.16887651445995164
264,2126.63,0.16428123073712106
265,2136.44,0.15689543479843449
266,2146.31,0.16848202053596392
267,2156.21,0.17042689711160133
268,2166.17,0.1601630553634547
269,2176.16,0.15905980445341608
270,2186.21,0.17120603521959346
271,2187.7616199999998,0.1713877729102822
272,2196.2999999999997,0.17239254037284227
273,2206.44,0.1692542093641323
274,2216.62,0.15087018809503294
275,2226.85,0.15797317900044686
276,2237.13,0.18219358208037403
277,2247.46,0.17561049733481449
278,2252.64,0.15365255861438867
279,2263.04,0.1489626909131477
280,2273.48,0.15509143295151734
281,2283.98,0.18031228959930287
282,2294.52,0.158346955986699
283,2305.11,0.17500933454860843
284,2315.75,0.15762662528503113
285,2326.44,0.13189542819596708
286,2337.1800000000003,0.1360581432814163
287,2342.56,0.11873065325904354
288,2353.38,0.15097668782371398
289,2364.24,0.12149013212799502
290,2375.15,0.13243138860678935
291,2386.12,0.11030895969499957
292,2397.13,0.12051524052282041
293,2402.66,0.11878998702398745
294,2413.75,0.12451428733102952
295,2424.8900000000003,0.16015979981258485
296,2436.08,0.15997062446865346
297,2447.32,0.1800689612992353
298,2452.97,0.1871310370192342
299,2464.29,0.16469789332903728
300,2475.6600000000003,0.15212826181335362
301,2487.09,0.11637684490708589
302,2492.82,0.12205454010630601
303,2504.3300000000004,0.16474474267925948
304,2511.88643,0.1283304076631005
305,2515.89,0.10903590531140497
306,2527.4999999999995,0.1042406112181711
307,2533.33,0.13321496181562556
308,2545.02,0.13520746018342022
309,2556.77,0.2153544528969863
310,2562.66,0.1690394978402122
311,2574.49,0.20763928301480677
312,2586.37,0.18783776347754422
313,2592.34,0.17399560088179863
314,2604.2999999999997,0.1570409738055646
315,2616.3199999999997,0.14637824107510197
316,2622.35,0.18074437282512779
317,2634.46,0.2939452316133222
318,2646.62,0.37722388568965953
319,2652.7200000000003,0.5422776108430853
320,2664.96,0.3347651573804512
321,2677.27,0.37592499732121704
322,2683.44,0.4423510158780427
323,2695.8199999999997,0.31640374922220854
324,2702.04,0.39525596306717714
325,2714.5099999999998,0.28665388793
326,2727.04,0.21669790713859427
327,2733.33,0.27761351438696286
328,2745.94,0.17660802605658563
329,2752.27,0.22834132953546846
330,2764.98,0.29232413178137695
331,2777.7400000000002,0.30635682931542824
332,2784.14,0.19727792619771103
333,2796.99,0.11344521525041946
334,2803.4399999999996,0.1289289074208451
335,2816.38,0.26999428799221065
336,2822.87,0.3792557763931505
337,2835.9,0.3485886484831731
338,2842.44,0.23938983217225585
339,2855.56,0.14985439578093557
340,2862.1400000000003,0.33497567570053255
341,2875.35,0.49121413082786936
342,2881.98,0.4476709060356092
343,2884.0315,0.46782485832794485
344,2895.29,0.5784294909951425
345,2908.6499999999996,0.8008340652292553
346,2928.81,0.6863564263489943
347,2949.1099999999997,0.6187894871987315
348,2969.56,0.6404857477591811
349,2990.14,0.6493409080689146
350,3010.87,0.6330303680893605
351,3031.74,0.6955908278398046
352,3052.75,0.7215836873202469
353,3066.84,0.8176234601464931
354,3088.1,0.7842849191447894
355,3109.5099999999998,0.9535844778537979
356,3131.06,0.8615221362928046
357,3152.76,0.8712663944425237
358,3167.32,0.9714056663623352
359,3189.27,0.8208638240299082
360,3211.3799999999997,0.9059763813889077
361,3233.64,0.7481347384586194
362,3248.56,1.1070533096841406
363,3271.08,1.3121332662524205
364,3293.76,1.284672222512127
365,3308.96,1.1722601931976444
366,3311.31121,1.1626300821123854
367,3324.23,1.1097167123847633
368,3331.8999999999996,1.1267024296140755
369,3339.58,0.973699146474717
370,3347.27,1.2793448629666875
371,3354.99,1.2519785783526447
372,3362.73,0.8302529930012597
373,3370.48,0.9812293072812038
374,3378.25,1.1785937208238058
375,3386.04,1.1348724336290659
376,3393.84,1.1844731460656548
377,3401.6600000000003,1.3839498577649014
378,3409.51,1.150025568358135
379,3417.3700000000003,0.9556927785826977
380,3425.24,1.2157889884385893
381,3433.14,1.4074586971884677
382,3441.0499999999997,1.0815164055696753
383,3448.9900000000002,1.0107061128448696
384,3456.94,1.151311819751393
385,3464.91,0.9611097259205741
386,3472.8900000000003,1.2744712317210845
387,3480.9,0.9905917364155814
388,3488.9199999999996,1.1520496407414074
389,3496.97,1.0472573439612203
390,3505.03,1.357029046812362
391,3513.1099999999997,1.172618748926162
392,3521.21,1.4083674503026196
393,3529.32,0.9296139513104064
394,3537.46,1.3238798512121799
395,3545.61,1.3348105507452823
396,3553.79,1.3898172491723717
397,3561.98,1.2346099472307899
398,3570.1899999999996,0.9508247445518664
399,3574.56,1.155716483442622
400,3576.5099999999998,1.119995411551769
401,3578.4700000000003,1.1054833392922454
402,3580.43,1.0230092670327213
403,3582.39,1.0031711947731978
404,3584.35,0.9524737225136738
405,3586.3,1.007031050622821
406,3588.2599999999998,1.0625009783632973
407,3590.2200000000003,1.1256849061037735
408,3592.18,1.1397348338442497
409,3594.1299999999997,1.1030957619533968
410,3596.09,1.2073326896938732
411,3598.0499999999997,1.2464546174343492
412,3600.01,1.3477515451748254
413,3601.96,1.2994494732839728
414,3603.92,1.2710694010244488
415,3605.88,1.263812328764925
416,3607.84,1.2043902565054012
417,3609.79,1.2362641846145483
418,3611.7500000000005,1.2960501123550245
419,3613.71,1.3154260400955007
420,3615.67,1.312485967835977
421,3617.62,1.4134228959451243
422,3619.58,1.4973628236856003
423,3621.54,1.5171987514260765
424,3623.5,1.4428976791665526
425,3625.4500000000003,1.4124136072757
426,3627.41,1.402768535016176
427,3629.37,1.3462844627566524
428,3631.33,1.3318633904971284
429,3633.2799999999997,1.3854123186062757
430,3635.2400000000002,1.265742246346752
431,3637.2,1.274833174087228
432,3639.1600000000003,1.3038521018277043
433,3641.12,1.4438140295681805
434,3643.0699999999997,1.4756889576773276
435,3645.03,1.517198885417804
436,3646.99,1.44666381315828
437,3648.9500000000003,1.3690567408987564
438,3650.9,1.4042376690079035
439,3652.86,1.5760685967483796
440,3654.8199999999997,1.758000524488856
441,3656.78,1.739171452229332
442,3658.73,1.8391003803384793
443,3660.6899999999996,1.9042133080789554
444,3662.65,2.0278272358194314
445,3664.6099999999997,1.8463481635599077
446,3666.56,1.792721091669055
447,3668.52,1.5837830194095313
448,3670.48,1.6551399471500075
449,3672.44,1.6701078748904836
450,3674.3900000000003,1.677002802999631
451,3676.35,1.6957357307401069
452,3678.3100000000004,1.6991316584805831
453,3680.27,1.7647945862210592
454,3682.22,1.6199695143302064
455,3684.1800000000003,1.4732074420706827
456,3686.14,1.4254483698111589
457,3688.1000000000004,1.5625632975516353
458,3690.05,1.7584652256607822
459,3692.01,1.7985971534012586
460,3693.97,1.7454190811417347
461,3695.93,1.6846190088822108
462,3697.89,1.658074936622687
463,3699.8399999999997,1.7603918647318342
464,3701.8,1.6180367924723105
465,3703.7599999999998,1.6667097202127867
466,3705.7200000000003,1.606460647953263
467,3707.67,1.71887957606241
468,3709.6299999999997,1.7474395038028863
469,3711.59,1.7295284315433626
470,3713.5499999999997,1.7271383592838385
471,3715.5,1.6117942873929858
472,3717.46,1.605455215133462
473,3719.42,1.5750541428739382
474,3721.38,1.5794600706144144
475,3723.3300000000004,1.5775379987235616
476,3725.29,1.530237926464038
477,3727.2499999999995,1.493499854204514
478,3729.21,1.38108578194499
479,3731.16,1.3656627100541374
480,3733.12,1.3911916377946136
481,3735.08,1.3425145655350899
482,3737.04,1.259398493275566
483,3738.99,1.189971421384713
484,3740.9500000000003,1.2932903491251895
485,3742.91,1.3989052768656656
486,3744.8700000000003,1.4018422046061418
487,3746.83,1.3569301323466179
488,3748.7799999999997,1.2850250604557651
489,3750.7400000000002,1.3588619881962414
490,3752.7,1.4046889159367175
491,3754.6600000000003,1.3801658436771937
492,3756.61,1.3198317717863408
493,3758.57,1.394587699526817
494,3760.53,1.4872526272672932
495,3762.49,1.4786175550077694
496,3764.44,1.4688884831169167
497,3766.3999999999996,1.5263784108573928
498,3768.36,1.7025253385978691
499,3770.3199999999997,1.7434842663383452
500,3772.27,1.7715021944474925
501,3774.23,1.7754491221879687
502,3776.1899999999996,1.8062130499284448
503,3778.15,1.9481949776689211
504,3780.1,1.9617029057780682
505,3782.06,2.0442648335185445
506,3784.02,1.9298297612590207
507,3785.98,1.8192516889994967
508,3787.93,1.6204256171086442
509,3789.8900000000003,1.52151154484912
510,3791.85,1.5234374725895963
511,3793.8100000000004,1.5238954003300726
512,3795.76,1.5292273284392197
513,3797.72,1.495888256179696
514,3799.68,1.4877121839201721
515,3801.64,1.5032311116606485
516,3801.8939600000003,1.5148451077264709
517,3803.6,1.5928650525064123
518,3805.5499999999997,1.6465059955948749
519,3807.51,1.6503609383914832
520,3809.47,1.5977348811880916
521,3811.4300000000003,1.4997388239847
522,3813.38,1.4023027670731625
523,3815.3399999999997,1.361707709869771
524,3817.3,1.3631756526663794
525,3819.2599999999998,1.316426595462988
526,3821.21,1.2145815385514502
527,3823.17,1.1320154813480587
528,3825.13,1.1460654241446675
529,3827.09,1.1016133669412758
530,3829.0400000000004,1.1320173100297384
531,3831.0,1.1020752528263467
532,3832.96,1.155158195622955
533,3834.92,1.1783921384195637
534,3836.87,1.1624160815080262
535,3838.83,1.2043850243046346
536,3840.79,1.226149967101243
537,3842.75,1.2165049098978513
538,3844.7,1.256551852986314
539,3846.66,1.3226757957829223
540,3848.62,1.3762167385795308
541,3850.58,1.3299276813761394
542,3852.53,1.2859416244646016
543,3854.49,1.2526935672612103
544,3856.4500000000003,1.3578485100578188
545,3858.41,1.4298494528544272
546,3860.3700000000003,1.5080033956510357
547,3862.32,1.4003723387394982
548,3864.2799999999997,1.3240512815361065
549,3866.2400000000002,1.335621224332715
550,3868.2,1.3684981671293233
551,3870.15,1.3429721102177858
552,3872.11,1.2840090530143944
553,3874.07,1.3226719958110027
554,3876.0299999999997,1.4380209386076113
555,3877.9799999999996,1.5012128816960737
556,3879.94,1.4626378244926823
557,3881.8999999999996,1.4370127672892907
558,3883.86,1.440408710085899
559,3885.81,1.4553846531743617
560,3887.77,1.49064959597097
561,3889.73,1.6797465387675785
562,3891.69,1.796656481564187
563,3893.64,1.9182594246526494
564,3895.6000000000004,1.9500333674492578
565,3897.56,2.0316773102458665
566,3899.52,2.0417772530424747
567,3901.4700000000003,1.9814461961309373
568,3903.43,1.9988931389275457
569,3905.3900000000003,2.043708081724154
570,3907.35,2.0760330245207625
571,3909.3,2.094868967609225
572,3911.2599999999998,2.0880699104058333
573,3913.2200000000003,2.1252628532024422
574,3915.18,2.098717795999051
575,3917.14,2.046182738795659
576,3919.09,1.9935656818841214
577,3921.0499999999997,1.8820696246807298
578,3923.01,1.7628595674773382
579,3924.97,1.5968105102739467
580,3926.92,1.5360184533624093
581,3928.88,1.3868683961590176
582,3930.8399999999997,1.2405653389556264
583,3932.8,1.1073962817522347
584,3934.75,1.1334832248406972
585,3936.71,1.2710581676373056
586,3938.67,1.360233110433914
587,3940.63,1.4616230532305226
588,3942.58,1.538865996318985
589,3944.5400000000004,1.7363199391155935
590,3946.5,1.8497398819122017
