,lambda (Angstroms),Total Flux (erg/s/cm^2/Angstrom)
0,102.07000000000001,0.00011690484313411558
1,103.97,0.00013660880015222844
2,104.712855,0.00014434034392411222
3,105.9,0.00013428268849526923
4,108.12,0.00011550526791841556
5,109.88,0.00010124722428991902
6,114.0,6.655277479593825e-05
7,118.01,3.273318052873855e-05
8,120.22644299999999,1.976074387450666e-05
9,121.02999999999999,2.1639072743773726e-05
10,125.0,2.1956217582138922e-05
11,127.03,2.1973433507046064e-05
12,127.91,2.2197310952326013e-05
13,130.89,2.2148988664751275e-05
14,132.1,2.3830545152011194e-05
15,133.94,2.391228071941471e-05
16,137.06,2.616499711631633e-05
17,138.038426,2.6309544397928858e-05
18,139.93,2.731409691186348e-05
19,142.86,5.139983713510038e-05
20,146.85999999999999,9.351709092108933e-05
21,150.98,9.909347062065793e-05
22,154.85,0.00010573807883360224
23,158.489319,0.00011271611532475799
24,158.82,0.0001133476739701189
25,162.15,0.00011905216926550643
26,165.92,0.00012765097685217642
27,170.17999999999998,0.00013470581858141093
28,172.94,0.00014091640477218256
29,176.97,0.00014806390598551944
30,179.85000000000002,0.0001538332046193681
31,181.93,0.00015806385363270327
32,181.970086,0.00015813632962167164
33,186.17000000000002,0.0001658495323008461
34,190.94,0.00017562983114718253
35,194.04999999999998,0.0001825879113174354
36,198.10999999999999,0.00019027578350110956
37,201.79,0.00019873901887941523
38,205.07000000000002,0.00020521947867312246
39,208.929613,0.00020714562599834522
40,209.85,0.0002076373444851672
41,216.23,0.0002277608907385208
42,220.25,0.0002369413891614803
43,222.8,0.0002408706433849994
44,226.94,0.000251143198477301
45,230.09,0.00037726913604753046
46,233.83,0.0006076288355753584
47,239.83,0.0007386528690424621
48,239.88329199999998,0.0007383123526968294
49,245.98,0.0006988880836172884
50,251.70999999999998,0.0007265004818235132
51,256.97999999999996,0.000605918747713008
52,259.96,0.0006968127048953028
53,264.18,0.0007210540187574789
54,269.1,0.0007142365339712007
55,274.1,0.0007043303721965278
56,275.42287,0.0007017949096839878
57,279.19,0.0006948450631346544
58,283.72999999999996,0.0006886223167799465
59,289.67,0.0006504393548092494
60,295.74,0.0006536359106742105
61,301.24,0.0006303032421828243
62,308.25,0.0006305723347056211
63,316.227766,0.0006285786900109585
64,318.35,0.0006279120835168633
65,328.02,0.0006120278852472919
66,337.99,0.0005910518432878682
67,348.26000000000005,0.0005708486576385922
68,357.20000000000005,0.0005563731756809946
69,363.078055,0.0005497093774562902
70,366.36,0.0005461473436280775
71,374.89000000000004,0.0005303151606841267
72,385.39,0.0004987075142701189
73,395.28000000000003,0.0004989041443620681
74,405.42,0.0004900424709679693
75,413.90999999999997,0.00047694044058178603
76,416.86938299999997,0.0004716427732170927
77,421.60999999999996,0.00046311629806140256
78,430.43,0.0004507143125113256
79,441.46999999999997,0.0004447117462445626
80,450.72,0.00043477442659170404
81,460.16,0.00042314492210273274
82,469.79,0.0004175245327776487
83,478.630092,0.00041932846860313043
84,479.63,0.0004195031376247522
85,489.66999999999996,0.00040708890562975744
86,499.93,0.00042109350699742217
87,505.71999999999997,0.000424850907769233
88,511.57,0.0005614137085490418
89,519.88,0.0005664349096567703
90,529.5500000000001,0.000570165544279121
91,539.39,0.0005470008455907995
92,549.42,0.0006034668802611385
93,549.5408739999999,0.0006046498354008775
94,559.64,0.0007036002822058247
95,570.04,0.0007765292665863442
96,580.64,0.0007835855660511046
97,590.0699999999999,0.0008708306122730564
98,599.66,0.000858866690562401
99,609.41,0.0009011984009191381
100,619.31,0.0011030621975890557
101,629.3700000000001,0.001146959626326366
102,630.957344,0.001162740355903223
103,639.6,0.0012487722108327512
104,649.99,0.001331886182606903
105,657.5200000000001,0.0013503842420351379
106,665.13,0.001494228886424098
107,674.38,0.0016009475225079192
108,685.34,0.0015467796621272361
109,694.8699999999999,0.0018591953455735948
110,704.5400000000001,0.0017234170527012222
111,715.99,0.0021392377752049796
112,724.43596,0.002242238485586818
113,725.95,0.0022606978310098186
114,734.36,0.0023725918191782104
115,744.5699999999999,0.0025015122958963174
116,754.9300000000001,0.002631348396660234
117,765.43,0.0026013120798669066
118,774.29,0.0029386609401727275
119,785.0699999999999,0.002986329788264911
120,794.16,0.003229267605440973
121,805.1999999999999,0.0034127205352125598
122,814.53,0.003556900350861917
123,825.86,0.0037936164871220698
124,831.763771,0.0034776262671057327
125,835.4200000000001,0.003281883887860358
126,845.1,0.004036654093556441
127,854.88,0.0041402473922865736
128,864.78,0.004425784602657567
129,874.79,0.004634188815366016
130,884.92,0.004863476939715327
131,895.17,0.005069006975705496
132,905.54,0.005127554923336527
133,916.02,0.005995954873305014
134,924.5,0.02408322496259249
135,935.2,0.04794104791723589
136,946.0300000000001,0.08564288969282355
137,954.79,0.11578782024260637
138,954.992586,0.11611931693544657
139,965.84,0.133869302855026
140,974.78,0.030388070039184548
141,986.07,0.12180497385452575
142,995.1899999999999,0.12265386078064726
143,1004.4,0.1639359475777502
144,1016.03,0.15440843090568807
145,1025.43,0.07041694743041856
146,1034.92,0.11552560382613053
147,1044.49,0.19983579010715935
148,1054.1599999999999,0.19618917624483423
149,1063.91,0.16131456226782595
150,1076.23,0.18607174460662168
151,1086.1899999999998,0.15299463032857016
152,1096.24,0.19084341592150011
153,1096.4782,0.19061373123003103
154,1103.84,0.18351508254970672
155,1114.05,0.1785122367403107
156,1124.36,0.16131359048224278
157,1134.77,0.19438704377550306
158,1145.27,0.17809959666495867
159,1155.86,0.1856416491506096
160,1163.8700000000001,0.1895307132119943
161,1174.64,0.1373013648900359
162,1185.51,0.18099821611940567
163,1193.73,0.13325267923857947
164,1204.78,0.10272142966033988
165,1215.92,0.06556556967829565
166,1224.35,0.12407204185525857
167,1235.68,0.17565979102073778
168,1244.25,0.19083845256956014
169,1255.76,0.18478930092743004
170,1258.92541,0.17692830025432169
171,1264.46,0.16318368849142081
172,1276.16,0.1998331922253279
173,1285.01,0.2068580950496935
174,1293.92,0.17205629789320734
175,1305.89,0.1693059017132815
176,1314.94,0.20122090460147457
177,1324.05,0.1930516075088159
178,1336.31,0.1752567114214399
179,1345.5700000000002,0.19891361437665184
180,1354.9,0.19260411735420335
181,1364.29,0.17606432035090314
182,1373.74,0.18141692336675116
183,1386.4599999999998,0.18224912742617835
184,1396.0700000000002,0.1576431304930883
185,1405.74,0.16094253357914656
186,1415.49,0.1696969366907358
187,1425.3,0.17047993982147328
188,1435.18,0.17008714297455035
189,1441.8,0.17647124508723966
190,1445.43977,0.1773618968748022
191,1448.46,0.17810094705779092
192,1455.14,0.1732472488470203
193,1465.2299999999998,0.16243195154961376
194,1475.39,0.16131165427095662
195,1485.61,0.16243165700837042
196,1495.91,0.16355945976721212
197,1506.2800000000002,0.1561974625448032
198,1513.23,0.14212696440635172
199,1516.72,0.14951146534114373
200,1523.72,0.1454374672160847
201,1534.2900000000002,0.12872747004724555
202,1544.9199999999998,0.1347938728944773
203,1555.63,0.12843297576313695
204,1566.41,0.13203097865054603
205,1573.64,0.13952978058709217
206,1584.5500000000002,0.14410498350932158
207,1595.53,0.1464459864503004
208,1606.59,0.1418006894127071
209,1614.01,0.14114499140014453
210,1625.2,0.13510479439737158
211,1636.46,0.141472697413348
212,1644.02,0.14212519943828425
213,1655.4099999999999,0.13325340248908105
214,1659.58691,0.13671947483895858
215,1666.89,0.1427797178930626
216,1670.73,0.12931962540429062
217,1678.4399999999998,0.14376894048542815
218,1686.1899999999998,0.14711835564480763
219,1693.97,0.13921017086286858
220,1705.71,0.13417599382688344
221,1713.5900000000001,0.1284334092405493
222,1725.46,0.12696123245885052
223,1733.43,0.13355984804856075
224,1745.44,0.13021987154070885
225,1753.5,0.1363534873064635
226,1765.66,0.12637651109201894
227,1773.8100000000002,0.128728827033818
228,1786.1,0.12992015107365976
229,1794.3500000000001,0.13572666721106375
230,1806.78,0.13448669152475237
231,1815.1200000000001,0.12608960783820075
232,1823.5000000000002,0.1272558242298911
233,1836.14,0.12321674895435
234,1844.62,0.11420106554164523
235,1853.13,0.11472888218762192
236,1865.9800000000002,0.11713230732285113
237,1874.59,0.12321722416443272
238,1883.24,0.11472944108425627
239,1896.3,0.11057996663025575
240,1905.0500000000002,0.1155248837456842
241,1905.46072,0.11535369981733207
242,1913.84,0.1118612634218168
243,1927.11,0.10906312996325178
244,1936.0,0.11108930754828245
245,1944.94,0.11552468500724467
246,1953.92,0.10856186236535213
247,1967.46,0.1163249282260175
248,1976.54,0.11848900533198807
249,1985.6699999999998,0.1128921823118902
250,1994.83,0.10956725921615126
251,2004.04,0.11160403599434389
252,2013.2900000000002,0.10881101267168175
253,2027.2399999999998,0.11160527749858588
254,2036.6000000000001,0.10707335389857318
255,2046.0,0.10956723019770571
256,2055.4500000000003,0.10248600637076981
257,2064.9300000000003,0.10391298246819282
258,2074.47,0.11108795841433372
259,2079.25,0.10731684636219048
260,2084.04,0.10981973428483355
261,2093.66,0.10463381002926492
262,2103.3199999999997,0.10487468567284154
263,2113.0299999999997,0.10560316119034974
264,2122.79,0.10633553658178946
265,2132.58,0.10015361189758813
266,2147.37,0.10154777460654241
267,2157.28,0.1041528496197768
268,2167.23,0.10061882453215645
269,2177.24,0.09992475929325398
270,2187.29,0.09855392395349674
271,2187.7616199999998,0.09871583238765906
272,2197.38,0.10201789209989552
273,2207.53,0.09923465250412127
274,2212.62,0.09498757273638815
275,2222.83,0.09261191326123
276,2233.09,0.09720195388658529
277,2243.4,0.09368670461245399
278,2253.75,0.09009030541873343
279,2264.15,0.0911340463255263
280,2274.61,0.09282788735293528
281,2285.1,0.09433422844065233
282,2295.65,0.08927034964898549
283,2306.25,0.08971983095783206
284,2316.89,0.08670963234708938
285,2327.59,0.07282330385696283
286,2332.95,0.08153591463200223
287,2343.72,0.07862349628259446
288,2354.54,0.08370283803370013
289,2365.41,0.0779691598853192
290,2376.33,0.07963609183745173
291,2387.29,0.07418344386999498
292,2392.7999999999997,0.07787469494657467
293,2403.8399999999997,0.07544032713993941
294,2414.94,0.07634615945392027
295,2426.0899999999997,0.07997864186841455
296,2437.28,0.07729998436331958
297,2442.9,0.0804047456610288
298,2454.18,0.079155778336858
299,2465.5099999999998,0.0782844311132006
300,2476.89,0.07583364399005665
301,2482.6,0.07655508546869005
302,2494.06,0.07114899850636759
303,2505.5699999999997,0.07895099164455854
304,2511.34,0.07152767324380806
305,2511.88643,0.07163884028797855
306,2517.13,0.07270559026264083
307,2522.94,0.0705775257423048
308,2534.5800000000004,0.07110161668607222
309,2546.28,0.07031749758315804
310,2552.15,0.07415965301614041
311,2563.93,0.07233919385098407
312,2575.76,0.07526295464692638
313,2587.65,0.0742660353961871
314,2593.62,0.07309543075136678
315,2605.5899999999997,0.07097551143838533
316,2617.62,0.0697106320787223
317,2623.65,0.07218150738722036
318,2635.7599999999998,0.07406888796531517
319,2647.93,0.07903765849672835
320,2654.03,0.08052676375076455
321,2666.2799999999997,0.07415572421993559
322,2672.4300000000003,0.07642899943507044
323,2684.7599999999998,0.07664227984199934
324,2697.1600000000003,0.07289435019446636
325,2703.37,0.07460862536291958
326,2715.8500000000004,0.07095976565314445
327,2722.1099999999997,0.07032558078269634
328,2734.68,0.0728349810028988
329,2747.2999999999997,0.06494679118419991
330,2753.63,0.0663221762592899
331,2766.3399999999997,0.06837105637056862
332,2772.7200000000003,0.07062856140675727
333,2785.5200000000004,0.06671174144801355
334,2791.94,0.055887766453081154
335,2804.83,0.058823196424315
336,2817.77,0.06914332635664752
337,2824.27,0.07192490129947296
338,2837.31,0.06967874115400279
339,2843.85,0.06764175606570717
340,2856.97,0.06477742585799486
341,2863.56,0.07023451073079788
342,2876.7799999999997,0.07059290044528288
343,2883.4100000000003,0.06996654528696485
344,2884.0315,0.06996064965879306
345,2896.72,0.06984029460138858
346,2910.09,0.07453354438850482
347,2930.26,0.0715624740673481
348,2950.57,0.07015177374396223
349,2971.02,0.0706959434183472
350,2991.62,0.0704274230903438
351,3012.35,0.07064450276027048
352,3033.24,0.07038038242764957
353,3047.24,0.07025404220473465
354,3068.36,0.07015190186845155
355,3089.6299999999997,0.07004930152978009
356,3111.04,0.06994710118887947
357,3132.61,0.06856778084543126
358,3147.07,0.06844974061519199
359,3168.88,0.06866624026792237
360,3190.85,0.06532893991810515
361,3212.97,0.06690878956589956
362,3227.8,0.06393392932976896
363,3250.17,0.06747251897358277
364,3272.7000000000003,0.06942270861484894
365,3287.8,0.06866665837441928
366,3310.59,0.06809892801154561
367,3311.31121,0.06807140590902813
368,3318.2299999999996,0.06780737589414322
369,3325.88,0.06782670356566096
370,3333.54,0.06942691123413494
371,3341.23,0.06601851889347761
372,3348.93,0.07092429654977651
373,3356.65,0.06806362419998788
374,3364.39,0.061242481844111706
375,3372.1400000000003,0.06182603948519177
376,3379.92,0.06781107711714053
377,3387.71,0.06751950474604552
378,3395.52,0.06585274236886299
379,3403.35,0.0692926699855929
380,3411.19,0.06454062759927905
381,3419.06,0.0657581852038339
382,3426.94,0.06669600280534499
383,3434.84,0.07002165040076853
384,3442.76,0.06461942799010455
385,3450.69,0.06629801557639681
386,3458.6499999999996,0.06525776315355773
387,3466.6200000000003,0.06437905072767493
388,3474.61,0.06651077829570456
389,3482.6200000000003,0.06442236585764666
390,3490.65,0.06670383341350122
391,3498.7000000000003,0.062270930963268266
392,3506.7599999999998,0.06613639850999153
393,3514.84,0.06274408605062726
394,3522.9500000000003,0.06617577358213168
395,3531.07,0.06469023111059234
396,3539.21,0.06667613863296547
397,3547.3700000000003,0.06856354614925106
398,3555.54,0.06718083366249288
399,3563.7400000000002,0.0662784611666034
400,3571.96,0.062018558664626376
401,3580.1899999999996,0.061329316159605594
402,3588.44,0.056336853648497276
403,3596.71,0.06250776113130142
404,3605.01,0.06487159860497425
405,3613.3199999999997,0.06084056607560334
406,3621.65,0.060860253540144876
407,3630.0,0.06989936099859888
408,3638.36,0.06540767845400912
409,3646.7500000000005,0.06497814590028805
410,3655.16,0.06590372334047945
411,3663.5800000000004,0.07015174077762708
412,3672.03,0.0670151682056434
413,3680.4900000000002,0.06521078563061597
414,3680.58,0.08297747560322205
415,3683.3199999999997,0.06922576476922972
416,3686.06,0.06488753393523738
417,3688.81,0.07545925309820127
418,3691.55,0.057471642264208936
419,3694.29,0.053602301430216596
420,3697.04,0.04906675059318049
421,3699.7799999999997,0.04847971975918815
422,3702.5200000000004,0.06087618892519581
423,3705.27,0.06765729808815969
424,3708.0099999999998,0.06265315725416737
425,3710.75,0.06946221642017501
426,3713.49,0.06928894558618269
427,3716.2400000000002,0.06896952474914658
428,3718.98,0.08683916391515424
429,3721.7200000000003,0.1588062030811619
430,3724.47,0.2844516022441258
431,3727.21,0.3453069014101334
432,3729.9500000000003,0.2998318005761411
433,3732.7,0.20930899973910502
434,3735.44,0.11971349890511267
435,3738.18,0.08195318807112033
436,3740.9300000000003,0.08113722723408423
437,3743.67,0.06137253640009189
438,3746.41,0.057101285566099544
439,3749.15,0.052179854732107206
440,3751.9,0.0716489538950711
441,3754.6400000000003,0.07409209306107876
442,3757.38,0.07383215222708643
443,3760.1299999999997,0.07874944139005031
444,3762.87,0.08240227055605799
445,3765.6099999999997,0.06844562972206564
446,3768.36,0.06697956888502953
447,3771.1,0.0660261180510372
448,3773.84,0.07784336721704485
449,3776.59,0.07544735638000874
450,3779.3300000000004,0.08187419554601641
451,3782.07,0.07824919471202407
452,3784.81,0.08528682387803173
453,3787.56,0.08804081304099562
454,3790.2999999999997,0.07803244220700328
455,3793.04,0.07947080137301095
456,3795.79,0.06773221053597485
457,3798.5299999999997,0.0617823697019825
458,3801.27,0.05822037886799016
459,3801.8939600000003,0.06123057726789111
460,3804.02,0.07148732816578864
461,3806.76,0.08694940750556852
462,3809.5,0.08593292684534842
463,3812.25,0.08477809618271875
464,3814.99,0.08839547552249864
465,3817.7299999999996,0.08507783486227855
466,3820.4700000000003,0.09349854420205844
467,3823.22,0.08808416353942879
468,3825.96,0.07693307287920867
469,3828.7,0.07409219221898856
470,3831.4500000000003,0.0720232415563589
471,3834.19,0.0679529608961388
472,3836.93,0.06002112023591869
473,3839.68,0.06654611957328903
474,3842.4199999999996,0.07241736891306894
475,3845.1600000000003,0.07879692825284881
476,3847.91,0.09408914759021916
477,3850.65,0.09920781692999905
478,3853.39,0.09224929626977894
479,3856.1299999999997,0.09895200560955884
480,3858.88,0.09888861494692917
481,3861.62,0.09053913428670907
482,3864.36,0.09521255362648896
483,3867.11,0.1021826629638593
484,3869.8500000000004,0.1003505623036392
485,3872.59,0.08796223164341908
486,3875.3399999999997,0.09403400098078943
487,3878.08,0.08222095032056934
488,3880.8199999999997,0.08070404966034922
489,3883.57,0.07971079899771956
490,3886.31,0.07673200833749945
491,3889.05,0.07809943767727935
492,3891.8,0.08358018701464968
493,3894.5400000000004,0.06606544635442958
494,3897.28,0.08644903569420948
495,3900.02,0.08699293503398936
496,3902.77,0.0852628143713597
497,3905.5099999999998,0.0952399437111396
498,3908.25,0.0996690630509195
499,3911.0,0.10006275238828984
500,3913.74,0.10157205172806973
501,3916.48,0.09452684106784963
502,3919.23,0.09312375040521996
503,3921.9700000000003,0.09128768974499986
504,3924.71,0.08468377908477975
505,3927.46,0.08140904842215008
506,3930.2,0.07559321776192998
507,3932.9399999999996,0.06803966710170987
508,3935.68,0.07353657644148978
509,3938.43,0.0765585757788601
510,3941.17,0.08480192511864
511,3943.91,0.0856255944584199
512,3946.6600000000003,0.08212232379579022
513,3949.4,0.08689422313557013
514,3952.14,0.09069681247535002
515,3954.89,0.09603960181272035
516,3957.6299999999997,0.08350548115250025
517,3960.37,0.07695278049228015
518,3963.12,0.07099469982965048
519,3965.86,0.07201141916943038
520,3968.6,0.06974188850921027
521,3971.3399999999997,0.06519480784899018
522,3974.09,0.0735363071863605
523,3976.83,0.0861574065261404
524,3979.57,0.08971173586592031
525,3982.3199999999997,0.08559769520329062
526,3985.0600000000004,0.09693030454307053
527,3987.8,0.09728508388285043
528,3990.5499999999997,0.09350989322022076
529,3993.29,0.09287958256000066
530,3996.0299999999997,0.09562221189978055
531,3998.78,0.0878199912371509
532,4001.52,0.09827389057693078
533,4004.26,0.09882174991671068
534,4007.0,0.09367972925649058
535,4009.7500000000005,0.0986757685938609
536,4012.4900000000002,0.1031167279336408
537,4015.23,0.0951415572734207
538,4017.98,0.10163102661079103
539,4020.72,0.10388502595057093
540,4023.46,0.10022852529035083
541,4026.21,0.10059462462772116
542,4028.95,0.09691450396750105
543,4031.69,0.08935309330728095
544,4034.44,0.10879442264465129
545,4037.1800000000003,0.10177682198443118
546,4039.92,0.10258482132421108
547,4042.6600000000003,0.09446385066399098
548,4045.41,0.09567716000136131
549,4048.1499999999996,0.0994836893411412
550,4050.89,0.0951849086809211
551,4053.64,0.09426252801829144
552,4056.38,0.09542113735807133
553,4059.12,0.09137057669785123
554,4061.8700000000003,0.10063011603522157
555,4064.61,0.09926688537500146
556,4067.35,0.10219871471478136
557,4070.1,0.09759992405215169
558,4072.8399999999997,0.0989397933919316
559,4075.58,0.09827796273171148
560,4078.3199999999997,0.08901824207149138
561,4081.07,0.08977843140886171
562,4083.81,0.0883442807486416
563,4086.5499999999997,0.0923438700884215
564,4089.3,0.08582227942579183
565,4092.04,0.08889981876557174
566,4094.78,0.08752871810535162
567,4097.53,0.08501054744272196
568,4100.2699999999995,0.08720543678250187
569,4103.01,0.09060611612228175
570,4105.76,0.08649996545965209
