,lambda (Angstroms),Total Flux (erg/s/cm^2/Angstrom)
0,102.05000000000001,0.00392173069293819
1,103.95,0.004587469100391632
2,104.712855,0.0048547649567415125
3,105.88,0.004513542684631317
4,108.10000000000001,0.0038645118188072934
5,110.11,0.0032768781183604005
6,113.98,0.002145462642417838
7,117.97999999999999,0.0009760425171983474
8,120.22644299999999,0.0003193234706496909
9,121.01,0.00030873908604775956
10,124.97,0.000255203614107237
11,127.0,0.00022776164844232264
12,127.88000000000001,0.0002158694600644286
13,130.86,0.000175591241471106
14,132.07,0.0001592564888265021
15,133.91,0.00013439548752726936
16,137.03,9.227488823291813e-05
17,138.038426,7.865726548456333e-05
18,139.9,7.781250008706646e-05
19,143.16,7.678340299467931e-05
20,146.83,7.6175886863679e-05
21,150.95000000000002,7.466852706103018e-05
22,155.17,7.32230381757928e-05
23,158.489319,7.219802589081606e-05
24,159.14999999999998,7.18246657066672e-05
25,162.10999999999999,7.02319070329631e-05
26,165.89,6.837580730100316e-05
27,170.14999999999998,6.62298217300642e-05
28,172.91,6.504954765593471e-05
29,176.94000000000003,6.33343641745065e-05
30,179.81,6.224672897061101e-05
31,181.89000000000001,6.148349233503516e-05
32,181.970086,6.145509538994959e-05
33,186.13000000000002,6.401647983148511e-05
34,190.91,6.742336864080572e-05
35,194.01000000000002,6.975859477237347e-05
36,198.07000000000002,7.286771957694286e-05
37,202.22,7.634071488210614e-05
38,205.03,7.901124495620465e-05
39,208.929613,8.205497351318814e-05
40,209.81,8.379713304442628e-05
41,216.17999999999998,9.87369432139917e-05
42,220.20000000000002,0.00010816728890969872
43,222.75,0.00011436541610473665
44,226.89000000000001,0.00012461469943315129
45,230.05,0.00015278706042778657
46,233.79,0.00020914033831384224
47,239.78,0.0002563790743131668
48,239.88329199999998,0.0002566306443502853
49,245.93,0.0002555375389071995
50,252.24,0.00026935008284288
51,256.93,0.00024552563958746656
52,259.91,0.00027374306540812077
53,264.13,0.0002866135382145505
54,269.04,0.0002929191129727425
55,274.04,0.00029873313146377295
56,275.42287,0.0003002785415254838
57,279.14,0.0003135150281918566
58,283.67,0.00033218248476186795
59,290.28000000000003,0.00034291741101523995
60,295.68,0.0003699317188470415
61,301.18,0.0003841739934905431
62,308.19,0.00041386458699071516
63,316.227766,0.00044862318821494286
64,318.29,0.00045303349285495307
65,327.96,0.0004678032857775543
66,337.92,0.00048035877890155714
67,348.19000000000005,0.0004910830894822308
68,357.12,0.0005021243439598759
69,363.078055,0.0005097123600762241
70,366.29,0.0005190879029947271
71,374.82,0.0005420845766128365
72,385.32,0.0005539737152986689
73,395.2,0.0005912327781763852
74,405.34000000000003,0.0006172786663929892
75,413.83000000000004,0.000635486589958962
76,416.86938299999997,0.0006410885888255239
77,421.52000000000004,0.0006483185683261461
78,430.34999999999997,0.0006609025842019339
79,441.39,0.0006823385609028055
80,450.63,0.0006941925011850569
81,460.07,0.0007062332899582661
82,469.7,0.0007198386997978852
83,478.630092,0.0007336779425656388
84,479.53000000000003,0.000734172530816301
85,489.58000000000004,0.0007312214600315937
86,499.83,0.00073805281122132
87,505.61,0.0007362000962824536
88,511.46999999999997,0.0007664526901333605
89,519.7800000000001,0.00076775607817108
90,529.4399999999999,0.0007638066895362271
91,540.53,0.0007529897330185748
92,549.5408739999999,0.0007560333724350645
93,550.58,0.0007567820539423226
94,559.53,0.0007800219339538063
95,569.9300000000001,0.0007957578386598881
96,580.52,0.0007921772555673309
97,589.96,0.0008101651459928512
98,599.54,0.0008001186822509534
99,610.6899999999999,0.0007595622824887238
100,620.61,0.0008456605300545248
101,630.7,0.0008490850832741752
102,630.957344,0.0008496180207222266
103,639.47,0.0008709380947298706
104,649.86,0.0008882211534945234
105,657.38,0.0008900917897707687
106,665.0,0.000922196618816645
107,674.25,0.0009459014000075053
108,685.1999999999999,0.0009310847582820912
109,694.7399999999999,0.000999699128504881
110,704.4,0.0009713746700512282
111,715.8499999999999,0.0010652053921739687
112,724.43596,0.001088752694306216
113,725.8000000000001,0.0010923472672744938
114,734.21,0.0011212879932813538
115,744.42,0.0011512590570780287
116,754.7800000000001,0.001184498365690522
117,765.28,0.0011541945027977783
118,774.14,0.001261739363252092
119,784.9100000000001,0.0012793117410278207
120,795.83,0.0013415653636193675
121,805.0400000000001,0.0013920047953105898
122,814.37,0.0014382222228544663
123,825.69,0.001505432498288194
124,831.763771,0.0014231614100399747
125,835.26,0.0013742292275662
126,844.93,0.0015777764740278301
127,854.71,0.0016123347563850939
128,864.61,0.0016909819869921404
129,874.62,0.0017587432534948205
130,884.75,0.001833611468247283
131,894.99,0.0018996517188953792
132,905.36,0.0019256958301474064
133,915.84,0.0022980669772950674
134,924.31,0.007955259741258875
135,935.02,0.01553014387255195
136,945.84,0.027423023039740663
137,954.6,0.03730041826197477
138,954.992586,0.03751738751072222
139,965.65,0.04341015693204232
140,974.58,0.010377121121668255
141,985.8699999999999,0.04014466013632412
142,994.99,0.04117206505338892
143,1004.1999999999999,0.0560264955781879
144,1015.83,0.053753177999839606
145,1025.23,0.025181889252077438
146,1034.71,0.041360536600079004
147,1044.29,0.07231751906778522
148,1053.95,0.07182077763125516
149,1066.15,0.05961117223522342
150,1076.02,0.06954283055007315
151,1085.97,0.0577230249606866
152,1096.02,0.0733204244910047
153,1096.4782,0.07323023568984648
154,1106.16,0.07132353328867111
155,1113.83,0.07002083173905306
156,1124.14,0.06401136694419492
157,1134.54,0.07837285840233994
158,1145.04,0.07247407458604405
159,1155.6299999999999,0.07641236702275132
160,1166.32,0.07891178418501771
161,1174.41,0.05744622848274782
162,1185.28,0.07693494815102056
163,1196.24,0.05717869407229647
164,1204.54,0.04449635629370067
165,1215.68,0.029079714720982936
166,1224.1100000000001,0.05523529708561395
167,1235.43,0.07908322801890257
168,1244.0,0.0867034089993163
169,1255.51,0.08453594091116719
170,1258.92541,0.08092838902235025
171,1264.21,0.07534736664139434
172,1275.91,0.09354277375733175
173,1284.75,0.09772533980048444
174,1293.66,0.08185468660415984
175,1305.63,0.08110612665354196
176,1314.68,0.09772543497826278
177,1323.79,0.09462776395486018
178,1336.04,0.0865045270463331
179,1345.3000000000002,0.09931291765262203
180,1354.63,0.09705235901943365
181,1364.02,0.08913179103812187
182,1373.47,0.0926882837086867
183,1386.1799999999998,0.09397736179788022
184,1395.7900000000002,0.08185601620678266
185,1405.46,0.08415034126756168
186,1415.21,0.08933751719750953
187,1425.02,0.09057982377933396
188,1434.89,0.09120735101303501
189,1441.52,0.09528436304539951
190,1445.43977,0.09606461669390132
191,1448.17,0.0966080805279263
192,1454.8500000000001,0.09462964143987827
193,1464.94,0.08892846344610517
194,1475.09,0.08913390599944537
195,1485.32,0.09058116928227006
196,1495.61,0.09184057311220808
197,1505.98,0.08811259767163056
198,1512.93,0.08055082104559258
199,1516.42,0.08512361286935191
200,1523.42,0.08318729669924173
201,1533.98,0.07397561299118978
202,1544.61,0.07835710992143673
203,1555.32,0.07500342758116814
204,1566.1,0.07763767587919844
205,1573.33,0.08261634180635606
206,1584.23,0.08591334119861303
207,1595.22,0.08791226141154003
208,1606.27,0.08591353217158038
209,1613.69,0.08610911983126358
210,1624.87,0.08261780177671615
211,1636.14,0.08730786454283875
212,1643.6899999999998,0.08852135338793417
213,1655.08,0.08338101724828345
214,1659.58691,0.08588466453165466
215,1666.55,0.08975315202465022
216,1670.3999999999999,0.08148430840040427
217,1678.11,0.09142067181782342
218,1685.8500000000001,0.09419789723297572
219,1693.63,0.08934232531177223
220,1705.37,0.08670981709134432
221,1713.24,0.08357716116334027
222,1725.12,0.08319295226566706
223,1733.08,0.08832203233086244
224,1745.1,0.08671164275594392
225,1753.15,0.09142629881433877
226,1765.3,0.0851321578962639
227,1773.45,0.08711548061376921
228,1785.7500000000002,0.0887331996843601
229,1793.99,0.09377125839506487
230,1806.42,0.09312793612249938
231,1814.76,0.08772048149231464
232,1823.14,0.08914562952577411
233,1835.78,0.08651832123734067
234,1844.25,0.08037822526399957
235,1857.03,0.08149785629832082
236,1865.6000000000001,0.08416608698409023
237,1874.21,0.08894503033350384
238,1882.8700000000001,0.0833949770124727
239,1895.92,0.08131178602639227
240,1904.67,0.08514055869856058
241,1905.46072,0.08494934796981582
242,1913.4599999999998,0.0830137547218801
243,1926.72,0.08093904652756731
244,1935.6200000000001,0.08187234258115828
245,1944.55,0.08732120605964898
246,1953.53,0.08262901524630592
247,1967.07,0.08955582301772409
248,1976.15,0.09121927362071351
249,1985.27,0.08771932079023594
250,1994.43,0.08592201452629135
251,2003.6399999999999,0.08751690397051301
252,2012.8899999999999,0.08592042998126766
253,2026.84,0.08771634255964901
254,2036.2,0.08571941912836939
255,2045.59,0.08872938312198951
256,2055.04,0.08357615196540912
257,2064.52,0.08473629823372848
258,2074.05,0.09163186021021409
259,2078.83,0.09311946991090675
260,2083.62,0.09750635875323267
261,2093.2400000000002,0.09269127300441753
262,2102.9,0.09269076382213536
263,2112.61,0.09484781034801942
264,2127.25,0.09441108369909489
265,2137.07,0.08892665078294469
266,2146.94,0.09375795357496072
267,2156.85,0.09616313293350977
268,2166.8,0.0918350788585918
269,2176.8,0.09183446049184006
270,2186.85,0.09418887783325458
271,2187.7616199999998,0.09448736325617124
272,2196.95,0.09749726840742615
273,2207.0899999999997,0.0950598223579874
274,2217.27,0.08831138904602623
275,2227.51,0.08851652984028138
276,2232.64,0.09727588092177834
277,2242.95,0.09354249650661924
278,2253.3,0.08670308482893768
279,2263.7,0.08710484657310308
280,2274.15,0.09037188173911541
281,2284.65,0.0966091703269747
282,2295.19,0.08933763165231155
283,2305.79,0.09353483708386474
284,2316.43,0.08849575525289549
285,2327.12,0.07326898684377318
286,2332.4900000000002,0.07940827435013552
287,2343.25,0.07342417073159893
288,2354.07,0.0854539012192787
289,2364.94,0.07408257512880542
290,2375.85,0.07882154177580969
291,2386.82,0.06928370252903031
292,2392.32,0.07457101893219469
293,2403.36,0.07269931447600103
294,2414.46,0.07558725412602371
295,2425.6,0.08696576651352395
296,2436.8,0.08497507300724053
297,2442.4100000000003,0.0914617069384682
298,2453.69,0.09208183890713989
299,2465.0099999999998,0.08853728361328915
300,2476.39,0.08396320242565475
301,2487.82,0.0781720646598673
302,2493.56,0.07586355748789704
303,2505.0699999999997,0.09139193519706469
304,2510.8399999999997,0.07210400007820261
305,2511.88643,0.0718652199787308
306,2516.63,0.07078235605021771
307,2522.43,0.06996852242621393
308,2534.0699999999997,0.0763483141187305
309,2545.77,0.07686583422203322
310,2557.52,0.09195968300099108
311,2563.42,0.08386722672829759
312,2575.25,0.09214960338830368
313,2587.14,0.08880470845909592
314,2593.1,0.08539272059718861
315,2605.0699999999997,0.08060604354902909
316,2617.09,0.07785789517652471
317,2623.13,0.0867426951956656
318,2635.24,0.10425914443934046
319,2647.3999999999996,0.1230279223586705
320,2653.4999999999995,0.14286736078859755
321,2665.75,0.11243813632410682
322,2678.05,0.12157021053527121
323,2684.23,0.1293542468462465
324,2696.6200000000003,0.11059561867359016
325,2702.84,0.12237005392508957
326,2715.3100000000004,0.10462712363348144
327,2727.84,0.09763183175265949
328,2734.13,0.10852482515007608
329,2746.75,0.08213523088543338
330,2753.08,0.09214317322337409
331,2765.7900000000004,0.10407628657491064
332,2772.17,0.1097243175885065
333,2784.96,0.08796029882109126
334,2797.8199999999997,0.06227618819959324
335,2804.27,0.06780434735910627
336,2817.21,0.10424412461865647
337,2823.71,0.12617435245382466
338,2836.74,0.1215912073295541
339,2843.28,0.10638913410524639
340,2856.4,0.08587640659715509
341,2862.9900000000002,0.12466631204850252
342,2876.2,0.14211776215659047
343,2882.83,0.134467086548462
344,2884.0315,0.13560476058095403
345,2896.14,0.14707034816091766
346,2909.51,0.17882154091357116
347,2929.6699999999996,0.1638018299856351
348,2949.98,0.15674871897639
349,2970.43,0.16296030789125648
350,2991.02,0.16480309673023447
351,3011.7500000000005,0.16782018549332406
352,3032.63,0.17286887417510455
353,3046.63,0.17849766658626007
354,3067.75,0.1868547551379461
355,3089.0099999999998,0.18594594361374372
356,3110.42,0.20102573200823223
357,3131.9799999999996,0.19192702032141176
358,3146.4399999999996,0.19144931248321953
359,3168.2500000000005,0.20413450066088396
360,3190.21,0.18441798875723933
361,3212.32,0.1998336767722856
362,3227.1499999999996,0.1776634687335311
363,3249.52,0.22306685660764172
364,3272.05,0.24963874439502273
365,3287.1499999999996,0.24615203620991188
366,3309.93,0.2377377238617778
367,3311.31121,0.23695612819252893
368,3325.21,0.22909097909235443
369,3332.8799999999997,0.24152129961500746
370,3340.5600000000004,0.21773942003403948
371,3348.26,0.2599357402458294
372,3355.98,0.24993606025037718
373,3363.7200000000003,0.18230618004768287
374,3371.47,0.2031177997413675
375,3379.2400000000002,0.25158421922781005
376,3387.0299999999997,0.24023153850701048
377,3394.84,0.2385611575789688
378,3402.67,0.278304976443685
379,3410.5099999999998,0.23308529520478022
380,3418.37,0.22257951375863327
381,3426.25,0.2451362321052442
382,3434.15,0.27185755024461306
383,3442.0699999999997,0.22147936817673983
384,3449.9999999999995,0.23674248600524553
385,3457.96,0.2478621035228881
386,3465.93,0.2255163209369096
387,3473.9199999999996,0.264308638143689
388,3481.93,0.23392955514322625
389,3489.95,0.25646637203914247
390,3498.0,0.23388798862419558
391,3506.06,0.27602050510562764
392,3514.14,0.24092842137981751
393,3522.24,0.2709264374467653
394,3530.36,0.23004035330647105
395,3538.5,0.27462516895893463
396,3546.66,0.2822987844041562
397,3554.84,0.2816217996421356
398,3563.0299999999997,0.26460481477649395
399,3571.24,0.22469122970361013
400,3579.48,0.24183564431986324
401,3587.73,0.19565835883249527
402,3595.9999999999995,0.2549221731378852
403,3604.29,0.283376787236033
404,3612.6000000000004,0.22456360112693877
405,3620.92,0.2536750149142234
406,3621.93,0.27092520444849716
407,3624.6699999999996,0.2503135760563289
408,3627.42,0.24056674756053958
409,3630.16,0.26532251916837135
410,3632.9,0.26160209077620306
411,3635.64,0.27906456238403476
412,3638.3900000000003,0.2781754338882455
413,3641.13,0.2725313054960772
414,3643.8700000000003,0.2844971771039089
415,3646.61,0.2973509487117406
416,3649.3599999999997,0.31390262021595133
417,3652.1,0.31705299182378305
418,3654.8399999999997,0.31806816343161476
419,3657.5800000000004,0.2992112350394465
420,3660.33,0.29844890654365724
421,3663.07,0.2920437781514889
422,3665.81,0.2942850497593206
423,3668.5499999999997,0.30170572136715235
424,3671.3,0.2768432928713631
425,3674.04,0.2804798644791948
426,3676.78,0.27842953608702653
427,3679.52,0.2835459076948582
428,3682.2700000000004,0.2824454791990689
429,3685.01,0.2961025508069007
430,3687.75,0.30337522241473236
431,3690.4900000000002,0.3013461940225642
432,3693.24,0.2949604655267748
433,3695.98,0.3014932371346065
434,3698.72,0.29933730874243825
435,3701.4599999999996,0.28202368035027003
436,3704.21,0.29584835185448066
437,3706.95,0.3086175234623124
438,3709.69,0.2960181950701441
439,3712.43,0.3067579666779759
440,3715.1800000000003,0.34324513818218655
441,3717.92,0.39698460979001826
442,3720.66,0.39425798139785007
443,3723.4,0.33140775300568176
444,3726.1499999999996,0.2971166245098924
445,3728.8900000000003,0.2643280961177241
446,3731.63,0.2760191677255559
447,3734.38,0.27460153922976654
448,3737.12,0.2635877108375983
449,3739.8599999999997,0.24293378244543004
450,3742.6,0.2603961540532618
451,3745.35,0.27724402555747246
452,3748.09,0.29297279716530417
453,3750.83,0.29443186877313593
454,3753.57,0.28798444038096765
455,3756.32,0.2967353118851783
456,3759.0600000000004,0.29276138349301
457,3761.8,0.3005202551008418
458,3764.54,0.3290392267086735
459,3767.29,0.34195469821288416
460,3770.0299999999997,0.3605797698207159
461,3772.7699999999995,0.37074884142854764
462,3775.51,0.3683181130363794
463,3778.2599999999998,0.35491358454059
464,3781.0,0.32362625614842183
465,3783.74,0.31123832775625354
466,3786.48,0.29705339936408526
467,3789.23,0.2984474708682959
468,3791.9700000000003,0.30449404247612766
469,3794.71,0.3268187140839594
470,3797.45,0.3456764856917911
471,3800.2000000000003,0.3499243571960018
472,3801.8939600000003,0.34524560975833796
473,3802.94,0.342356431062305
474,3805.6800000000003,0.3213433085859831
475,3808.42,0.3089764861096612
476,3811.1699999999996,0.30001176355130893
477,3813.91,0.280330341074987
478,3816.6499999999996,0.27181111859866514
479,3819.39,0.2550469961223432
480,3822.14,0.23432837356399092
481,3824.88,0.228937851087669
482,3827.62,0.2359356286113471
483,3830.3599999999997,0.24893730613502518
484,3833.11,0.2816827835766729
485,3835.85,0.306586661100351
486,3838.59,0.3073058386240291
487,3841.33,0.3264806161477072
488,3844.0800000000004,0.3218495935893549
489,3846.82,0.31815037111303296
490,3849.5600000000004,0.325803648636711
491,3852.3,0.33039152616038914
492,3855.0499999999997,0.3459919036020369
493,3857.79,0.34250418112571496
494,3860.5299999999997,0.34159555864939306
495,3863.27,0.34174393617307114
496,3866.02,0.32419601361471884
497,3868.7599999999998,0.32318169113839695
498,3871.5,0.314472168662075
499,3874.24,0.3012809461857531
500,3876.9900000000002,0.29610032362740085
501,3879.73,0.31032820115107895
502,3882.4700000000003,0.320645178674757
503,3885.21,0.3343023561984351
504,3887.9599999999996,0.3471333336400828
505,3890.7000000000003,0.3697540111637609
506,3893.44,0.368845488687439
507,3896.1800000000003,0.3862868662111171
508,3898.93,0.3939170436527648
509,3901.67,0.4004922211764429
510,3904.41,0.405946898700121
511,3907.1499999999996,0.3922695762237991
512,3909.9,0.3849745536654468
513,3912.64,0.3476198311891249
514,3915.38,0.319862808712803
515,3918.12,0.28561548623648103
516,3920.8700000000003,0.23227706367812878
517,3923.61,0.21295494120180686
518,3926.35,0.21118361872548494
519,3929.1,0.2552774961671327
520,3931.8399999999997,0.29193527369081074
521,3934.58,0.32588725121448886
522,3937.32,0.36112892873816693
523,3940.07,0.37935050617981464
524,3942.81,0.3875534837034928
525,3945.5499999999997,0.37133926122717087
526,3948.29,0.35495583875084896
527,3951.04,0.31878311619249666
528,3953.78,0.27603759371617476
529,3956.52,0.2329113712398528
530,3959.26,0.2149210487635309
531,3962.01,0.22849242620517862
532,3964.75,0.2819146037288567
533,3967.4900000000002,0.3347871812525348
534,3970.23,0.3845735587762129
535,3972.98,0.41818533621786064
536,3975.72,0.4380367137415387
537,3978.4599999999996,0.44382969126521676
538,3981.2,0.4604255687888949
539,3983.95,0.46207274623054256
540,3986.69,0.4641240237542207
541,3989.43,0.47733730127789875
542,3992.17,0.48378577880157686
543,3994.92,0.4779491562432246
544,3997.6600000000003,0.48038093376690266
545,4000.4,0.4902118112905808
546,4003.14,0.5061100888142589
547,4005.89,0.5139935662559066
548,4008.63,0.5126835437795847
549,4011.3700000000003,0.5012682213032628
550,4014.11,0.5149466988269409
551,4016.8599999999997,0.5089408762685885
552,4019.6,0.49492545379226666
553,4022.3399999999997,0.48725193131594474
554,4025.08,0.4870835088396228
555,4027.83,0.5049663862812706
556,4030.57,0.5035929638049486
557,4033.31,0.4906555413286267
558,4036.0499999999997,0.49494771885230476
559,4038.8,0.4993218962939525
560,4041.54,0.4993013738176306
561,4044.28,0.4988791513413087
562,4047.02,0.4786906288649868
563,4049.77,0.4814371063066345
564,4052.5099999999998,0.4871032838303126
565,4055.2500000000005,0.4928540613539907
566,4057.9900000000002,0.49528583887766875
567,4060.74,0.4888995163193165
568,4063.48,0.4967009938429946
569,4066.22,0.48539147136667266
570,4068.9599999999996,0.4929180488903508
571,4071.71,0.5099976263319984
572,4074.45,0.5323861038556765
573,4077.19,0.5307376813793546
574,4079.93,0.5226204589030328
575,4082.6800000000003,0.5051353363446804
