,lambda (Angstroms),Total Flux (erg/s/cm^2/Angstrom)
0,100.09,0.008288048780531049
1,101.94999999999999,0.0099577736761402
2,104.08000000000001,0.01186987798626625
3,104.712855,0.01243799293694514
4,106.02000000000001,0.011458909700682637
5,107.99,0.0099833321578715
6,110.0,0.008477794040334509
7,114.13,0.005384325177143063
8,117.87,0.0025829766195488413
9,120.22644299999999,0.0008179594680506174
10,120.89000000000001,0.000794966061907307
11,125.14000000000001,0.0006476804226344386
12,126.88,0.0005873817893680648
13,128.05,0.0005468362205756747
14,131.03,0.0004435669831632637
15,131.94,0.00041204276591584973
16,134.09,0.0003375390424323984
17,136.89,0.00024053393323650923
18,138.038426,0.00020074138975035219
19,140.07999999999998,0.00019826056024376334
20,143.02,0.00019500966934062668
21,147.02,0.00019112137527513455
22,151.14000000000001,0.00018640178221767775
23,155.02,0.00018205503414415043
24,158.489319,0.00017823615780634464
25,159.0,0.00017733866986217826
26,161.95000000000002,0.00017219527031871434
27,166.11,0.00016504953430488046
28,169.98,0.00015845916346989564
29,173.14,0.00015313588155554107
30,177.17,0.00014642514510463948
31,180.05,0.00014172409501813905
32,181.970086,0.00013860207579295778
33,182.13,0.00013873959807281255
34,185.95000000000002,0.0001421618083760664
35,191.16,0.0001468882628079912
36,193.81,0.000149627362434594
37,197.87,0.00015354766659459682
38,202.02,0.00015778162057588044
39,204.83,0.0001608559694403159
40,208.929613,0.00016460653455007866
41,210.07999999999998,0.00016919084780814904
42,215.97000000000003,0.00019490625727045714
43,219.98,0.00021219062192985515
44,223.04000000000002,0.00022508414538565533
45,227.19,0.00024331560327505727
46,229.82,0.0002701610732387024
47,234.09,0.0003217685067538221
48,239.88329199999998,0.0003690464494975522
49,240.1,0.0003693623655399586
50,246.26,0.0003534927543827422
51,251.98999999999998,0.00035176332484851327
52,257.27,0.0003230218295708991
53,260.25,0.0003355210871604275
54,263.87,0.00033730536047388147
55,268.77000000000004,0.0003305446652351865
56,273.77,0.0003231624068283552
57,275.42287,0.00032080219768496694
58,278.86,0.0003374107680779927
59,284.03999999999996,0.0003622777962514729
60,289.99,0.00038234218672101124
61,296.06,0.00041539186741850647
62,300.88,0.0004373433249081155
63,307.88,0.00047337225487227813
64,316.227766,0.0005179239290204773
65,317.96999999999997,0.0005174655147542109
66,327.63,0.000510301840383231
67,338.37,0.000499164595585682
68,347.85,0.0004898797996191304
69,356.77,0.00048124629202191105
70,363.078055,0.00047577457557414573
71,365.92,0.0004852896930004232
72,375.31,0.000513359898827961
73,384.93,0.000532615912465971
74,394.81,0.000571997269715819
75,404.94,0.0006042167919770499
76,414.37,0.0006298485122064089
77,416.86938299999997,0.0006358216553170692
78,422.07,0.0006444062186573506
79,429.92,0.0006590336719951911
80,440.95000000000005,0.0006825261744558765
81,451.22,0.0006983140689500959
82,459.61,0.0007111783174220043
83,470.31000000000006,0.0007293739506340927
84,478.630092,0.0007456173403437373
85,480.16,0.0007446840192493497
86,490.21000000000004,0.0007282208891836641
87,500.48,0.0007235919528876852
88,506.27,0.0007123452343722307
89,512.14,0.0007290839226821239
90,520.46,0.0007210240325182928
91,530.13,0.0007069735950322054
92,539.99,0.000686600461256319
93,549.5408739999999,0.0006823156067839581
94,550.0300000000001,0.0006825757704476063
95,560.26,0.0006954302004086171
96,569.36,0.0007084253728079523
97,579.9399999999999,0.000697960305553553
98,589.37,0.0007134732434355014
99,600.32,0.0007037952162676684
100,610.08,0.0006729278196322302
101,619.99,0.0007342218527616161
102,630.0699999999999,0.0007380472529578026
103,630.957344,0.0007382738275275118
104,640.3000000000001,0.0007510380699798638
105,650.71,0.0007767729272305606
106,658.2399999999999,0.0007920820424176639
107,664.33,0.0008133833865729709
108,675.13,0.000822983369311446
109,684.52,0.0008168088137479535
110,695.64,0.000900872378937939
111,705.3199999999999,0.0008861979730961278
112,716.7800000000001,0.0009582285758908431
113,724.43596,0.0009769463951215885
114,726.75,0.0009819678054077369
115,735.17,0.0010017984223408653
116,745.39,0.0010600575949129048
117,755.76,0.0010992395971215203
118,764.5200000000001,0.0011042866878975544
119,775.15,0.001190260234809568
120,784.13,0.0012342349557192466
121,795.0300000000001,0.001276182775977097
122,804.24,0.0013190507556628587
123,815.4300000000001,0.0013543632065514226
124,824.87,0.0014415246450132674
125,831.763771,0.0013114181465470557
126,834.4200000000001,0.0012582219089815362
127,844.0799999999999,0.0014854962602165694
128,855.83,0.0015039952940687062
129,865.74,0.0015836788800665511
130,875.76,0.0016662714493600327
131,885.9,0.001779369091339664
132,894.1,0.0018556943915598785
133,904.4499999999999,0.0018254809107402712
134,914.9300000000001,0.002801655591997326
135,925.52,0.019086617256550018
136,934.08,0.04186457577482868
137,944.9000000000001,0.08254245649536317
138,954.992586,0.12101014119467342
139,955.84,0.12424060668903614
140,964.6899999999999,0.12683620013700406
141,975.86,0.017400723505795215
142,984.89,0.08821309444762011
143,994.0,0.10898083538671478
144,1005.51,0.18750309624390243
145,1014.8100000000001,0.1905488334265128
146,1024.2,0.08522258935605165
147,1036.06,0.11864927645129453
148,1045.65,0.2684495773740078
149,1055.32,0.2659933682939908
150,1065.0900000000001,0.19010014671056105
151,1074.94,0.24260591512440105
152,1084.89,0.1745912710348283
153,1094.9299999999998,0.26476861569218396
154,1096.4782,0.2633058698221456
155,1105.06,0.2551954637626406
156,1115.29,0.23707426041393065
157,1125.61,0.2084085218451441
158,1136.02,0.296352548056281
159,1143.89,0.26413816825624703
160,1154.48,0.29295612402723065
161,1165.1599999999999,0.3025415445781376
162,1175.94,0.19050742599562612
163,1184.09,0.2963343366220205
164,1195.05,0.17576074759935573
165,1206.11,0.11120031944327251
166,1214.47,0.09510057788948807
167,1225.71,0.20316234929325158
168,1234.2,0.34098062686602315
169,1245.6200000000001,0.3799168578296334
170,1254.26,0.35294847670227725
171,1258.92541,0.3277219454503584
172,1265.8600000000001,0.2902285439945628
173,1274.6399999999999,0.4117962883888911
174,1286.43,0.4422488165676075
175,1295.3500000000001,0.31241166485888405
176,1304.33,0.3074165148202813
177,1316.39,0.4272395505145408
178,1325.52,0.4061484046512398
179,1334.71,0.33706886045805945
180,1343.9599999999998,0.4442953179349998
181,1356.39,0.42920656392833695
182,1365.8000000000002,0.3670296258589325
183,1375.26,0.3978106891812953
184,1384.8,0.4042917547304857
185,1394.4,0.3481073219497967
186,1404.06,0.3636713908392285
187,1413.79,0.36703696167713445
188,1423.5900000000001,0.3896597344635145
189,1433.46,0.3843152091983687
190,1443.3999999999999,0.41464618588169705
191,1445.43977,0.4217759432344736
192,1446.73,0.42628577280164764
193,1453.3999999999999,0.40990822862564913
194,1463.48,0.36788126411379546
195,1473.62,0.37128760100365693
196,1483.84,0.3860946397624719
197,1494.12,0.397817779923002
198,1504.48,0.37043272195248567
199,1511.42,0.31676528408420546
200,1518.4,0.350521447150402
201,1525.41,0.33398331091745614
202,1535.98,0.27845635785294287
203,1546.6299999999999,0.3256347066573831
204,1553.77,0.3053080734614867
205,1564.5400000000002,0.3081331250693573
206,1575.38,0.3324542783125622
207,1586.3,0.35951663342472073
208,1593.6200000000001,0.36704110443396976
209,1604.67,0.3628432625831778
210,1615.79,0.3678860223677201
211,1623.25,0.3417650966476379
212,1634.5000000000002,0.3730055594692297
213,1645.8300000000002,0.38079332415977507
214,1653.4299999999998,0.34492710171036156
215,1659.58691,0.36704833549480415
216,1664.8899999999999,0.38610265029570306
217,1672.58,0.32864676226908907
218,1676.4299999999998,0.3878854191088207
219,1684.17,0.41659133961259276
220,1695.8400000000001,0.3861101306047143
221,1703.6699999999998,0.36705006646318145
222,1715.48,0.3409890813403841
223,1723.3999999999999,0.3402057325535463
224,1735.35,0.3713027713158301
225,1743.36,0.36202183788368725
226,1755.44,0.396926098824975
227,1763.5400000000002,0.35378748074752725
228,1775.7700000000002,0.3653752672799734
229,1783.96,0.3756109645572206
230,1796.33,0.41183397497474783
231,1804.6200000000001,0.4099389893127674
232,1812.95,0.3687607104750958
233,1825.52,0.38081805501416754
234,1833.94,0.36203839153119094
235,1846.6599999999999,0.3271682616614211
236,1855.1799999999998,0.3256710152392167
237,1863.74,0.3402286756413213
238,1876.66,0.38174077989309596
239,1885.3200000000002,0.34496445735597275
240,1894.03,0.3302034433492357
241,1905.46072,0.351464704499606
242,1907.1599999999999,0.35462471982075117
243,1915.9599999999998,0.3378923845665293
244,1924.8000000000002,0.33402514051569737
245,1933.69,0.3465541854691028
246,1947.09,0.36287503860471954
247,1956.08,0.3378837615665997
248,1965.11,0.38081887573186984
249,1974.18,0.3942044811005298
250,1983.29,0.36875787767257967
251,1997.04,0.356241453837858
252,2006.25,0.3713101284183827
253,2015.52,0.3529730898039921
254,2024.82,0.3764670445921441
255,2034.16,0.3521611905836859
256,2043.5500000000002,0.3721555255794651
257,2052.9900000000002,0.3537764495794816
258,2067.22,0.35296082018543884
259,2071.98,0.385236473388837
260,2076.76,0.36284562219393013
261,2086.35,0.3817019132066588
262,2095.98,0.3578621954227774
263,2105.65,0.35868806884228593
264,2115.37,0.3636699312660318
265,2125.13,0.3704299848931676
266,2134.94,0.33784572752454073
267,2144.8,0.3513213591601512
268,2154.7,0.36872088199915165
269,2164.64,0.355387696041542
270,2174.63,0.35212919908816964
271,2184.67,0.34411569113903473
272,2187.7616199999998,0.35036630982380795
273,2194.75,0.3644981365647279
274,2204.89,0.3529368144797343
275,2215.06,0.3316738976548443
276,2225.29,0.3189442913501614
277,2235.56,0.34650539205895
278,2245.88,0.32863690153457775
279,2256.24,0.310263918023677
280,2266.66,0.3211638450329834
281,2277.12,0.3324503790557612
282,2287.63,0.34413142184537826
283,2292.91,0.32267164762360645
284,2303.49,0.3213493026867985
285,2314.12,0.3021341665168299
286,2324.7999999999997,0.22053953911370056
287,2335.53,0.27456382047741046
288,2346.31,0.26660281060795965
289,2357.14,0.29448600950534815
290,2362.58,0.26435846333746205
291,2373.48,0.27441087450842555
292,2384.44,0.2521393961995962
293,2395.44,0.27405792490423825
294,2406.5,0.2606591641290874
295,2417.61,0.2705727121207759
296,2423.18,0.2913261887466719
297,2434.37,0.2783634507653032
298,2445.6,0.299101119797406
299,2456.89,0.2944727993497159
300,2462.56,0.29184719350929045
301,2473.92,0.27950858533517536
302,2485.34,0.2888136876812673
303,2496.81,0.2715545987941987
304,2502.57,0.30756630873408397
305,2511.88643,0.2746940922092259
306,2514.1200000000003,0.26681259067702007
307,2519.92,0.27689049708929653
308,2525.73,0.2620789028229734
309,2537.38,0.2689389122545287
310,2543.23,0.2622835152738076
311,2554.97,0.2883886185979672
312,2566.77,0.2774665178505296
313,2572.68,0.2987514167982113
314,2584.5600000000004,0.2934562106219776
315,2596.4900000000002,0.28825580105274623
316,2602.4700000000003,0.2766351952502312
317,2614.48,0.2723620802522037
318,2626.55,0.2886423611825791
319,2632.61,0.3037138499512679
320,2644.7599999999998,0.335489725452847
321,2656.9700000000003,0.34906609688282897
322,2663.09,0.30413038157992067
323,2675.38,0.3238003475811065
324,2687.73,0.3232354095106952
325,2693.93,0.30524588877899067
326,2706.3599999999997,0.31906704527978313
327,2712.6,0.29717942183368057
328,2725.12,0.29529857222707734
329,2737.7000000000003,0.314403218548877
330,2744.01,0.2634192903525777
331,2756.6800000000003,0.27156943056698163
332,2763.03,0.28509949965628434
333,2775.7900000000004,0.3014587337632925
334,2782.19,0.28077709945959756
335,2795.03,0.2206347281378096
336,2807.9300000000003,0.23982835274442446
337,2814.4,0.2978325136905329
338,2827.3900000000003,0.32004073218975204
339,2833.91,0.3064342897428628
340,2846.99,0.2955284021346863
341,2853.55,0.2803730569733989
342,2866.73,0.3205977625792272
343,2873.33,0.3266503147035417
344,2884.0315,0.3225901151995837
345,2886.6000000000004,0.32161578493320814
346,2893.25,0.32171167569789283
347,2913.31,0.3604363478391823
348,2926.75,0.34284472917412406
349,2947.0400000000004,0.33611670099599666
350,2967.47,0.3458398726234415
351,2988.04,0.34774934405645874
352,3008.75,0.35372211529504827
353,3029.6099999999997,0.35486388632532245
354,3050.61,0.35518815716116886
355,3071.7499999999995,0.3596347278025876
356,3093.0400000000004,0.363301598235691
357,3107.32,0.36688787840406656
358,3128.86,0.3605364484899776
359,3150.5499999999997,0.36254221836757333
360,3172.39,0.3654008880368536
361,3187.03,0.3420292677052723
362,3209.12,0.36013853702736026
363,3231.37,0.33721240612724523
364,3246.28,0.36912168542069623
365,3268.78,0.3886903541733888
366,3291.44,0.38459652270387834
367,3306.6299999999997,0.38220610160847396
368,3311.31121,0.3806770531219574
369,3321.8999999999996,0.37721811399702876
370,3329.55,0.3987770109054588
371,3337.23,0.38626410701745134
372,3344.92,0.38110730286396466
373,3352.6299999999997,0.37083149817951966
374,3360.36,0.38664119296411636
375,3368.11,0.3850107872177546
376,3375.8700000000003,0.34484398120591375
377,3383.65,0.3529926746631145
378,3391.46,0.3916442673238777
379,3399.27,0.4008986599846409
380,3407.1099999999997,0.38121675184896664
381,3414.96,0.38489704344781317
382,3422.8399999999997,0.40969323425022214
383,3430.73,0.396838924787152
384,3438.64,0.4024886147931234
385,3446.5600000000004,0.34510310453361576
386,3454.51,0.3909233934776705
387,3462.4700000000003,0.35664898215624613
388,3470.45,0.3822777703038633
389,3478.4500000000003,0.34877295792052215
390,3486.47,0.3721190450062227
391,3494.51,0.3654567315609649
392,3502.56,0.3917186178502279
393,3510.64,0.3864857033430533
394,3518.73,0.3752161885703997
395,3526.84,0.36765117326678753
396,3534.9700000000003,0.3958885574322172
397,3543.1200000000003,0.4185255410666884
398,3551.2899999999995,0.4176910241702013
399,3559.48,0.4074148067427558
400,3567.68,0.3973661890498312
401,3575.91,0.36004297056046897
402,3584.1499999999996,0.3369125518056276
403,3592.41,0.35291183251982794
404,3600.6899999999996,0.41094171270306984
405,3608.9900000000002,0.37580609235535345
406,3617.3100000000004,0.39182997147667864
407,3625.65,0.40669345006704555
408,3627.3,0.46133210626298143
409,3630.04,0.4025588335216871
410,3632.7799999999997,0.42811556078039276
411,3635.52,0.4792669880390984
412,3638.25,0.3339209155632833
413,3640.9900000000002,0.5050918428219889
414,3643.73,0.39831367008069457
415,3646.47,0.20432709733940024
416,3649.21,0.47725942459810594
417,3651.95,0.3705305518568116
418,3654.69,0.48719377911551726
419,3657.43,0.2942386063742229
420,3660.1699999999996,0.3331237336329286
421,3662.91,0.35314836089163426
422,3665.6499999999996,0.21304008815033992
423,3668.3900000000003,0.4089677154090456
424,3671.13,0.5020190426677512
425,3673.8700000000003,0.3158248699264569
426,3676.61,0.42439999718516264
427,3679.35,0.4554170244438682
428,3682.09,0.4430176517025739
429,3684.83,0.30099457896127957
430,3687.57,0.3844716062199853
431,3690.31,0.5097913334786909
432,3693.0499999999997,0.46588186073739657
433,3695.79,0.5264751879961023
434,3698.5299999999997,0.4773330152548079
435,3701.27,0.3246284425135135
436,3704.0099999999998,0.4230716697722192
437,3706.7499999999995,0.3687005970309249
438,3709.49,0.29419872428963056
439,3712.2300000000005,0.3917508515483363
440,3714.9700000000003,0.44119617880704187
441,3717.71,0.5077046060657475
442,3720.4500000000003,0.6961201333244532
443,3723.19,1.152466060583159
444,3725.9300000000003,1.3505499878418645
445,3728.67,1.16744291510057
446,3731.41,0.9414882423592759
447,3734.15,0.6215721696179816
448,3736.89,0.45476989687668723
449,3739.63,0.4412709241353929
450,3742.37,0.34428365139409856
451,3745.1099999999997,0.49462157865280426
452,3747.85,0.50520060591151
453,3750.5899999999997,0.4600399331702155
454,3753.3300000000004,0.43759216042892124
455,3756.07,0.4177988876876269
456,3758.8100000000004,0.3877296149463325
457,3761.55,0.5278749422050382
458,3764.29,0.4324348694637439
459,3767.03,0.4780502967224496
460,3769.77,0.5164991239811553
461,3772.51,0.47971845123986084
462,3775.2400000000002,0.44567017876404574
463,3777.98,0.3181697060227514
464,3780.7200000000003,0.577322533281457
465,3783.46,0.5842993605401627
466,3786.2000000000003,0.5420960877988684
467,3788.94,0.621269415057574
468,3791.68,0.5826683423162797
469,3794.42,0.5759945695749854
470,3797.16,0.44623809683369103
471,3799.9,0.5207094240923967
472,3801.8939600000003,0.6375699816094892
473,3802.64,0.6812933554778784
474,3805.3799999999997,0.617325097893099
475,3808.12,0.5671210403083194
476,3810.8599999999997,0.7317241827235401
477,3813.6,0.6392413251387606
478,3816.3399999999997,0.6632435675539812
479,3819.0800000000004,0.5808470099692017
480,3821.82,0.4499909523844223
481,3824.5600000000004,0.4792257947996429
482,3827.3,0.4234100372148634
483,3830.04,0.6014362796300841
484,3832.78,0.32164102204530454
485,3835.52,0.44187596446052513
486,3838.26,0.38078950687574564
487,3841.0,0.5455821492909663
488,3843.74,0.5277983917061868
489,3846.48,0.5930176341214074
490,3849.22,0.4750538765366279
491,3851.96,0.5820211189518485
492,3854.7,0.48256146136706907
493,3857.4399999999996,0.5967332037822896
494,3860.18,0.6131136461975101
495,3862.92,0.6037856886127307
496,3865.6600000000003,0.5923343310279512
497,3868.4,0.5988939734431719
498,3871.1400000000003,0.6452299158583923
499,3873.88,0.6155778582736129
500,3876.62,0.5974906006888334
501,3879.36,0.585356643104054
502,3882.1,0.5585483855192747
503,3884.84,0.45912682793449516
504,3887.58,0.5659043703497157
505,3890.3199999999997,0.49749991276493627
506,3893.06,0.5265450551801569
507,3895.7999999999997,0.45723049759537737
508,3898.54,0.557410140010598
509,3901.2799999999997,0.5991200824258185
510,3904.0200000000004,0.5424323248410391
511,3906.76,0.6079926672562596
512,3909.49,0.6039005098816437
513,3912.23,0.6119011522968641
514,3914.97,0.5076635947120848
515,3917.7099999999996,0.5616970371273052
516,3920.45,0.6272956795425259
517,3923.1899999999996,0.6687403219577464
518,3925.9300000000003,0.568863264372967
519,3928.67,0.4729298067881875
520,3931.4100000000003,0.5040227492034081
521,3934.15,0.46773479161862863
522,3936.8900000000003,0.4710336340338492
523,3939.63,0.49969967644906976
524,3942.37,0.5725406188642903
525,3945.11,0.5408407612795109
526,3947.85,0.6219479036947314
527,3950.59,0.652889146109952
528,3953.33,0.6090554885251726
529,3956.0699999999997,0.5546805309403932
530,3958.81,0.4980304733556136
531,3961.5499999999997,0.4920772157708342
532,3964.29,0.46780945818605474
533,3967.0299999999997,0.3547295006012753
534,3969.7700000000004,0.38810504301649584
535,3972.51,0.4140410854317164
536,3975.25,0.47076662784693696
537,3977.9900000000002,0.5905881702621576
538,3980.73,0.6594855126773781
539,3983.4700000000003,0.6326014550925987
540,3986.21,0.5872509975078192
541,3988.95,0.6335491399230399
542,3991.69,0.6561482823382603
543,3994.43,0.652204624753481
544,3997.17,0.6682059671687014
545,3999.91,0.624713709583922
546,4002.6499999999996,0.6891365519991425
547,4005.39,0.7025594944143632
548,4008.1299999999997,0.7195467368295836
549,4010.8700000000003,0.7519666792448042
550,4013.61,0.7616356216600249
551,4016.3500000000004,0.7690675640752453
552,4019.09,0.7471886064904659
553,4021.83,0.7536724489056865
554,4024.57,0.7627726913209071
555,4027.31,0.7253093337361276
556,4030.05,0.7513590761513482
557,4032.79,0.7435478185665687
558,4035.5299999999997,0.7387319609817893
559,4038.27,0.6161045033970098
560,4041.0099999999998,0.6323713458122304
561,4043.75,0.7284557882274509
562,4046.48,0.753182030852835
563,4049.2200000000003,0.7022955732680555
564,4051.96,0.720496215683276
565,4054.7,0.7035465580984965
566,4057.44,0.7076796005137171
567,4060.18,0.7594379429289376
568,4062.92,0.7642533853441583
569,4065.66,0.6918672277593788
570,4068.3999999999996,0.6832596701745994
571,4071.14,0.6876201125898199
572,4073.8799999999997,0.7042661550050405
