,lambda (Angstroms),Total Flux (erg/s/cm^2/Angstrom)
0,100.1,0.00048502662487533453
1,101.96000000000001,0.0005833021212046177
2,104.10000000000001,0.0006949703099920717
3,104.712855,0.0007273051088085134
4,106.03,0.0006733689190287287
5,108.01,0.0005932961779192107
6,110.01,0.0005177855120510111
7,113.88000000000001,0.0003633469462460447
8,117.88,0.00020338028450964603
9,120.22644299999999,0.00020504829886502278
10,120.91,0.0002333224675479641
11,124.87,0.00025640700429056015
12,126.9,0.0002637744069641637
13,128.07,0.0002712115996381126
14,131.05,0.00028135060405552075
15,131.96,0.00031885779835748095
16,134.10999999999999,0.00032569282335661773
17,136.91,0.0003830611442857261
18,138.038426,0.0003882455431312792
19,140.1,0.00040163962984996534
20,143.04000000000002,0.0009759118368012151
21,147.04,0.0021759515068029154
22,151.16,0.002246746517904667
23,155.04,0.002351692246806316
24,158.489319,0.002451860958629088
25,159.01999999999998,0.0024672521786653447
26,161.98000000000002,0.0025473313786962136
27,166.13,0.00269125221657733
28,170.0,0.002785199022023094
29,173.16000000000003,0.0028755878166506436
30,177.19,0.0029761874977737523
31,180.07,0.0030447992599659493
32,181.970086,0.0030958491282989885
33,182.16,0.0031009784403105436
34,185.97,0.003202667661571391
35,191.18,0.003323082100618378
36,193.83999999999997,0.0034236707144120406
37,197.89999999999998,0.0035111505459918422
38,202.05,0.003617618477286467
39,204.86,0.0036936602572715015
40,208.929613,0.0036610629026345254
41,210.10999999999999,0.003651814303671245
42,216.0,0.003940497226087191
43,220.01,0.004051621937273598
44,223.07,0.004080459951296144
45,227.22,0.004204847944169857
46,229.85,0.006300111021581392
47,234.13,0.010375727204593318
48,239.88329199999998,0.012387773209599913
49,240.13,0.01247395802768124
50,245.72,0.011535114907154885
51,252.03,0.011910827735326389
52,256.71,0.009840363401862465
53,260.28,0.01119285631415601
54,263.91,0.011557480888841041
55,268.81,0.011320076650812572
56,273.81,0.011036675183436585
57,275.42287,0.01095669807005453
58,278.90000000000003,0.010785516905082698
59,284.09,0.010589871591492389
60,290.03000000000003,0.009862476238365905
61,296.10999999999996,0.009795068637859339
62,300.92,0.00946409342430069
63,307.93,0.009314539894769271
64,316.227766,0.009158899650305525
65,318.02,0.009124711767260107
66,327.68,0.00875424521428196
67,337.64000000000004,0.00835879924040387
68,347.90000000000003,0.007945571845625837
69,356.82,0.007657369997534216
70,363.078055,0.007490877804152009
71,365.96999999999997,0.00741463291608465
72,375.36,0.007114983332760196
73,384.99,0.006595911986922655
74,394.86,0.006506848878572031
75,404.99,0.006287594110832229
76,414.43,0.006019503785317549
77,416.86938299999997,0.005942687837266652
78,422.13,0.005776810207048045
79,429.98,0.005556057483198156
80,441.01,0.00533181439350844
81,451.28000000000003,0.005081604353516292
82,459.67,0.00486548869961813
83,470.38000000000005,0.00465844642032739
84,478.630092,0.004518547860724916
85,480.23,0.0044911845889500325
86,490.28000000000003,0.004249986215615284
87,500.55,0.004133839643063259
88,506.35,0.003993359845516837
89,512.21,0.004039114084547522
90,520.53,0.003910600823239551
91,530.21,0.003717530057679317
92,540.07,0.0035016034018504004
93,549.5408739999999,0.0033599982273825185
94,550.11,0.0033515206124264093
95,560.34,0.003297823172807483
96,569.44,0.0032228721580927
97,580.03,0.0030708670255839583
98,589.4499999999999,0.0029806093949671167
99,600.41,0.0028142173003216204
100,610.1700000000001,0.002452430515308842
101,620.08,0.0026753916915919743
102,630.1600000000001,0.0025552102906771373
103,630.957344,0.002550678378240229
104,640.4,0.0024976055236476486
105,649.3000000000001,0.0024025665303103565
106,658.34,0.0023057426179767474
107,664.4300000000001,0.00229545764163696
108,675.22,0.0022285692418493896
109,684.62,0.002100156394953823
110,695.74,0.0020862219718177904
111,705.42,0.00195717428692959
112,715.23,0.0019619833201162374
113,724.43596,0.0019051932926219272
114,725.18,0.0019005917950185838
115,735.27,0.0018536351486775134
116,745.5,0.0017914113932692727
117,754.13,0.0017312945986286943
118,764.62,0.0015661952120957082
119,775.26,0.001635751922990754
120,784.2399999999999,0.0015630123556822494
121,795.15,0.0015419966419477522
122,804.3599999999999,0.0015074548240288962
123,815.5500000000001,0.001470377892160058
124,824.99,0.0014375178236308507
125,831.763771,0.001353236651821025
126,834.54,0.001318511721485362
127,844.2099999999999,0.0013576204079112353
128,855.95,0.0013175559093217579
129,865.86,0.0012933347916878803
130,875.89,0.0012695702720241272
131,883.99,0.001240666635007537
132,894.23,0.0012150436617915023
133,904.5799999999999,0.001179175736714748
134,915.0600000000001,0.0013668279594389622
135,925.65,0.0026703252303024575
136,934.22,0.0042535464353355215
137,945.0400000000001,0.006386907352308423
138,954.992586,0.007921633881428043
139,955.98,0.008073934291818845
140,964.8199999999999,0.00887224339240125
141,976.0000000000001,0.0029455128431378217
142,985.03,0.007622827591809668
143,994.14,0.007693217771256016
144,1005.65,0.010161386873937405
145,1014.96,0.009771674630320006
146,1024.35,0.004891677817477108
147,1033.83,0.007432010364255525
148,1045.8,0.012185891193890299
149,1055.48,0.011854162317604968
150,1065.24,0.009659521872094139
151,1075.1,0.011038202715051439
152,1085.05,0.008851057917630049
153,1095.09,0.011268690479829976
154,1096.4782,0.01119924182425961
155,1105.22,0.010761775925435046
156,1115.45,0.010348788106818302
157,1125.77,0.009288159283932203
158,1136.18,0.011267946456776751
159,1144.06,0.010300740971859845
160,1154.6399999999999,0.010711535358862276
161,1165.33,0.010860097296202161
162,1176.11,0.0077261042292726895
163,1184.26,0.01032361573154772
164,1195.22,0.007602423656079537
165,1206.28,0.005848878353645405
166,1214.64,0.003975132179291937
167,1225.88,0.007259878868319094
168,1234.38,0.010110939576213295
169,1245.8,0.010858265256701742
170,1254.44,0.010393502846843612
171,1258.92541,0.009915673539388442
172,1266.04,0.00915792822798807
173,1274.8200000000002,0.011265118135739265
174,1283.66,0.01163393213853204
175,1295.53,0.009436233940924599
176,1304.5100000000002,0.009285309165481061
177,1313.56,0.011187509500919365
178,1325.71,0.010659918746839298
179,1334.8999999999999,0.009545375304041289
180,1344.15,0.011009107956284861
181,1353.47,0.010611012719410274
182,1365.99,0.00956750355141995
183,1375.46,0.009880618552149313
184,1385.0000000000002,0.00988060366376052
185,1394.6,0.008468952870413307
186,1404.26,0.008626396172107675
187,1414.0,0.009074130600524147
188,1423.8,0.0091581701239822
189,1433.6699999999998,0.009095270758322097
190,1443.61,0.009479730503543837
191,1445.43977,0.009528152863869389
192,1446.9299999999998,0.009567589383144467
193,1453.61,0.009264244263917506
194,1463.69,0.008586892664844487
195,1473.83,0.008527954145538892
196,1484.0500000000002,0.008606728732589861
197,1494.3400000000001,0.008666253412702822
198,1504.6899999999998,0.008201013172583205
199,1511.6399999999999,0.007377299412309646
200,1518.62,0.007796192691919799
201,1525.63,0.007566499011413662
202,1536.2,0.006606311063774594
203,1543.29,0.006981053489625021
204,1553.99,0.00662154071481537
205,1564.76,0.006791177033067711
206,1575.6100000000001,0.007193089457676614
207,1586.53,0.007445715975347512
208,1593.85,0.007566621706973059
209,1604.8999999999999,0.007360497397473372
210,1616.03,0.007326594194330248
211,1623.49,0.006949319112079779
212,1634.74,0.007326676068471501
213,1646.07,0.007394412131219786
214,1653.6699999999998,0.006853895235093304
215,1659.58691,0.0071330088059067525
216,1665.1299999999999,0.007394534917989394
217,1672.82,0.006606576578475816
218,1676.67,0.007601730957262907
219,1684.41,0.007814579103188123
220,1696.0900000000001,0.007326994501690258
221,1703.9199999999998,0.007095049521405302
222,1715.73,0.006870371182048299
223,1723.6499999999999,0.006854534075553172
224,1735.59,0.0073444019983370315
225,1743.61,0.007160880862719491
226,1755.69,0.007743659144731973
227,1763.8000000000002,0.00698222088290426
228,1776.0200000000002,0.007260853524145363
229,1784.22,0.007412873136107478
230,1796.5900000000001,0.008183443233664963
231,1804.88,0.007906067719416904
232,1813.21,0.007395984593519883
233,1825.78,0.007533370632832539
234,1834.21,0.007244703477813105
235,1846.9199999999998,0.006457929876354383
236,1855.4499999999998,0.006903241692212534
237,1864.0100000000002,0.007447771799333962
238,1876.93,0.007726918236718172
239,1885.5900000000001,0.007328910314717187
240,1894.3,0.007499666878154994
241,1903.04,0.007638853732856078
242,1905.46072,0.007626069625840629
243,1916.2299999999998,0.007568956460558973
244,1925.0800000000002,0.0070480677052859675
245,1933.96,0.00631132557457136
246,1942.8899999999999,0.008053426818120745
247,1956.3600000000001,0.007798079244840816
248,1965.3899999999999,0.008809027236918192
249,1974.46,0.00854915772840676
250,1983.5700000000002,0.008808860719306527
251,1992.73,0.008748070084470289
252,2006.54,0.008529242256185518
253,2015.8000000000002,0.008489926369877268
254,2025.11,0.008033881857833011
255,2034.4599999999998,0.00882837084519995
256,2043.8500000000001,0.009480758331978083
257,2053.28,0.008909805318167414
258,2062.7599999999998,0.008706905678620737
259,2072.2799999999997,0.009768319538485256
260,2077.06,0.013265572718123113
261,2086.64,0.015090172827104426
262,2096.28,0.013954152185202531
263,2105.95,0.013234711167859034
264,2115.67,0.01424606952477953
265,2125.44,0.013173577255964021
266,2135.25,0.012070294486559708
267,2145.1,0.01447698121656659
268,2155.0099999999998,0.014711787195690265
269,2164.95,0.013112762799372336
270,2174.95,0.0133253776521712
271,2184.98,0.015333982129528462
272,2187.7616199999998,0.015412477771573523
273,2195.07,0.015618880240564334
274,2205.2,0.01495073131661764
275,2215.38,0.012181652891565583
276,2225.61,0.013142914965408162
277,2235.88,0.01654426743836645
278,2246.2,0.015619320410219373
279,2256.57,0.012552143880966933
280,2266.98,0.012210337750830203
281,2277.45,0.013449312219367036
282,2282.7,0.016431044603303843
283,2293.23,0.014115619670514239
284,2303.82,0.0163109153363982
285,2314.4500000000003,0.014229711401397867
286,2325.14,0.0108382580650711
287,2335.87,0.010272485127860042
288,2346.65,0.00768207568954362
289,2357.48,0.012793400750121834
290,2362.92,0.008165526029858258
291,2373.82,0.010152763788888963
292,2384.7799999999997,0.006705869146593231
293,2395.79,0.008073189003192137
294,2406.85,0.007920110358685676
295,2412.39,0.009194004636211374
296,2423.53,0.014257509789936333
297,2434.72,0.014213941442555927
298,2445.9500000000003,0.016495073494291232
299,2457.24,0.017259096144700097
300,2462.9100000000003,0.015412622719351851
301,2474.28,0.013822146167992136
302,2485.7000000000003,0.010311960115527057
303,2497.17,0.011245344561956616
304,2502.93,0.016622142034618714
305,2511.88643,0.010117430639019452
306,2514.48,0.008233784385308552
307,2520.2799999999997,0.006942707987406885
308,2526.0899999999997,0.007487079550888146
309,2537.7499999999995,0.01051483152338238
310,2543.6,0.011158538932395353
311,2555.3399999999997,0.017665443595953012
312,2567.13,0.013735438066425312
313,2573.05,0.01685017520511878
314,2584.93,0.015180229328037437
315,2596.8599999999997,0.01370725325787073
316,2602.84,0.012017650164861771
317,2614.86,0.010901593747141418
318,2626.9300000000003,0.014622937136335706
319,2632.9799999999996,0.022843323773007244
320,2645.1400000000003,0.030716016814647883
321,2657.35,0.03971434966320317
322,2663.47,0.0263528360295552
323,2675.77,0.030092228530556837
324,2681.94,0.033515884703823516
325,2694.32,0.025816106895888574
326,2706.75,0.031010978894868278
327,2712.9900000000002,0.02335399479781545
328,2725.5099999999998,0.020465026449241506
329,2738.09,0.024524507868965126
330,2744.41,0.013757183462975726
331,2757.0699999999997,0.017992204573762775
332,2763.43,0.022848110013305084
333,2776.18,0.02485728077653849
334,2782.58,0.01553632606161251
335,2795.43,0.007214993438675195
336,2801.8700000000003,0.00862892556928093
337,2814.81,0.02224852159878997
338,2827.7999999999997,0.03212690143521365
339,2834.32,0.03116443625688281
340,2847.4,0.02542729574575284
341,2853.96,0.016299620412953714
342,2867.1400000000003,0.03293523951565303
343,2873.75,0.03994466398976854
344,2884.0315,0.03706302843570148
345,2887.0099999999998,0.03622824405023317
346,2893.6600000000003,0.04138464352467896
347,2907.02,0.0541280224688287
348,2927.17,0.04773181087635994
349,2947.46,0.04499847927282688
350,2967.8900000000003,0.04792712765822952
351,2988.47,0.04841202603177756
352,3009.1800000000003,0.0498083843950516
353,3030.04,0.05148416274647103
354,3051.04,0.05346057108682618
355,3072.19,0.0565432094153267
356,3093.49,0.05645823773197263
357,3107.7700000000004,0.06198423660341412
358,3129.31,0.05856303490109267
359,3151.0,0.058203793186916625
360,3172.84,0.06255648146088597
361,3187.4900000000002,0.0546795903030861
362,3209.5800000000004,0.06069323855729777
363,3231.83,0.05145859679886451
364,3246.75,0.06822853561972636
365,3269.25,0.07803094384153543
366,3291.9100000000003,0.0763062420506996
367,3307.1099999999997,0.07346712084943284
368,3311.31121,0.07303056359099931
369,3322.37,0.07188140381020088
370,3330.0299999999997,0.07769179223775867
371,3337.71,0.0748402706351012
372,3345.4,0.07445572901733609
373,3353.11,0.06896825736935573
374,3360.84,0.07751771569116012
375,3368.59,0.07641103398274926
376,3376.36,0.061650402244123145
377,3384.14,0.06451732049038938
378,3391.94,0.0773452687064404
379,3399.76,0.08113101689227616
380,3407.6,0.07497880504789664
381,3415.45,0.07407793318840951
382,3423.33,0.08519905128359949
383,3431.22,0.08226028936368185
384,3439.13,0.08108475741354895
385,3447.06,0.06105228543320081
386,3454.9999999999995,0.07489403343774503
387,3462.9700000000003,0.06579537139696638
388,3470.95,0.07429085934108011
389,3478.9500000000003,0.06049270725497856
390,3486.97,0.07086693513866177
391,3495.01,0.06579528299212972
392,3503.0699999999997,0.08258863081538244
393,3511.14,0.0795548786235275
394,3519.2400000000002,0.07896195638634969
395,3527.3500000000004,0.06312079413406427
396,3535.4799999999996,0.07724997185156357
397,3543.6299999999997,0.08742399953884765
398,3551.8,0.08617401719591644
399,3559.9900000000002,0.08186722482277001
400,3568.19,0.06758695243451593
401,3576.42,0.06801517000093897
402,3584.66,0.05525168755225438
403,3592.93,0.06354406505824692
404,3601.21,0.08867420254913183
405,3609.51,0.0728689000098015
406,3617.8300000000004,0.07875411744025589
407,3626.17,0.08472404484049505
408,3634.53,0.07091558221051894
409,3642.91,0.09494423955032757
410,3651.31,0.07450876685992096
411,3659.7200000000003,0.10021345415440672
412,3668.16,0.0965276914035696
413,3676.62,0.10124762862251722
414,3685.0899999999997,0.08612299582635721
415,3693.59,0.09415597298487434
416,3702.1,0.10082449012828383
417,3710.64,0.07216002722637044
418,3719.19,0.10351936430934942
419,3727.7599999999998,0.08428503136211316
420,3736.36,0.060602778369553995
421,3744.9700000000003,0.09082209536188722
422,3753.6000000000004,0.05860586232400519
423,3762.26,0.07579443924080027
424,3770.9300000000003,0.07804787614248773
425,3779.6200000000003,0.09573485301395994
426,3788.33,0.1083394598552169
427,3797.07,0.08175388665115096
428,3801.8939600000003,0.08827866842354416
429,3805.8199999999997,0.09358894466783746
430,3814.59,0.1032625241791166
431,3823.39,0.07846373365451641
432,3832.2000000000003,0.06507106311795643
433,3841.04,0.05624698254551715
434,3849.8900000000003,0.09094757196111808
435,3858.7599999999998,0.08943621135279949
436,3867.66,0.09576802070860156
437,3876.58,0.0833553200404841
438,3885.5099999999998,0.08310670936040684
439,3894.47,0.0767978986444503
440,3896.21,0.1023921265634498
441,3897.9799999999996,0.09322660444657
442,3899.75,0.10010812232969019
443,3901.53,0.09250004020085059
444,3903.3,0.07819664808397078
445,3905.0699999999997,0.09445139596709097
446,3906.85,0.09611653383825139
447,3908.62,0.09605788172137157
448,3910.3900000000003,0.10535660960449175
449,3912.1699999999996,0.11854630747565217
450,3913.94,0.10058810535877237
451,3915.72,0.10025640322993278
452,3917.4900000000002,0.10086000111305297
453,3919.2599999999998,0.09892717899617316
454,3921.04,0.08361977686733357
455,3922.81,0.08899204475045376
456,3924.58,0.08092505263357394
457,3926.3599999999997,0.06981407050473437
458,3928.13,0.05836945838785455
459,3929.91,0.04667846625901497
460,3931.6800000000003,0.04308024414213516
461,3933.45,0.04003104202525535
462,3935.23,0.04786687989641576
463,3937.0,0.05550249777953595
464,3938.77,0.06243002566265614
465,3940.5499999999997,0.06739893353381655
466,3942.32,0.07169794141693674
467,3944.09,0.08438762930005693
468,3945.8700000000003,0.08971537717121734
469,3947.64,0.09595775505433754
470,3949.42,0.09837540292549794
471,3951.19,0.10140136080861814
472,3952.9599999999996,0.10725615869173832
473,3954.74,0.10358015656289873
474,3956.5099999999998,0.09657880444601892
475,3958.28,0.08934641232913912
476,3960.0600000000004,0.07996233020029954
477,3961.83,0.07455732808341972
478,3963.61,0.06655159595458014
479,3965.38,0.05232766383770033
480,3967.1499999999996,0.04311880172082052
481,3968.93,0.05022805959198093
482,3970.7,0.06559205747510112
483,3972.4700000000003,0.0786098853582213
484,3974.2499999999995,0.07825559322938172
485,3976.02,0.08535218111250191
486,3977.79,0.1040426289956221
487,3979.57,0.11224292686678251
488,3981.3399999999997,0.11675742474990271
489,3983.12,0.12024532262106312
490,3984.89,0.1221317205041833
491,3986.6600000000003,0.12052541838730349
492,3988.4399999999996,0.11889551625846391
493,3990.21,0.1273164141415841
494,3991.98,0.1295858120247043
495,3993.76,0.1228323098958647
496,3995.5299999999997,0.1244574077789849
497,3997.31,0.1275115056501453
498,3999.08,0.1359401035332655
499,4000.8500000000004,0.1380427014163857
500,4002.6299999999997,0.13414319928754612
501,4004.4,0.1293595971706663
502,4006.17,0.1257256950537865
503,4007.9500000000003,0.1310147929249469
504,4009.72,0.13731629080806707
505,4011.49,0.13948748869118727
506,4013.27,0.14265198656234768
507,4015.0400000000004,0.14788078444546787
508,4016.8199999999997,0.1493145823166283
509,4018.59,0.14300638019974846
510,4020.36,0.14374537808286866
511,4022.1400000000003,0.15253077595402909
512,4023.91,0.14789097383714928
513,4025.68,0.14713617172026947
514,4027.46,0.13995716959142987
515,4029.2299999999996,0.13652026747455007
516,4031.0099999999998,0.13889166534571046
517,4032.78,0.13154656322883065
518,4034.55,0.13453646111195083
519,4036.3300000000004,0.14695875898311125
520,4038.1,0.14168425686623146
521,4039.87,0.15152525474935163
522,4041.65,0.13679965262051205
523,4043.4199999999996,0.13574785050363225
524,4045.19,0.13073834838675244
525,4046.97,0.13278824625791283
526,4048.7400000000002,0.14199264414103302
527,4050.5200000000004,0.14338294201219345
528,4052.29,0.14776463989531363
529,4054.06,0.14262683777843382
530,4055.84,0.13788033564959426
531,4057.6099999999997,0.13474183353271443
532,4059.38,0.13448253141583463
533,4061.16,0.13337612928699502
534,4062.9300000000003,0.12298692717011522
535,4064.7100000000005,0.12998532504127563
536,4066.48,0.13501382292439584
537,4068.25,0.13946422080751603
538,4070.03,0.14452541867867644
539,4071.7999999999997,0.12914411656179664
540,4073.57,0.1340411144449168
541,4075.35,0.13336341231607723
542,4077.1200000000003,0.1319721101991974
543,4078.8999999999996,0.13708730807035782
544,4080.67,0.14229800595347802
545,4082.44,0.1496692038365982
546,4084.2200000000003,0.13807300170775863
547,4085.99,0.1480774995908788
548,4087.7599999999998,0.151589297473999
549,4089.54,0.14857509534515942
550,4091.3100000000004,0.1491377932282796
551,4093.08,0.1452190911113998
552,4094.86,0.1472715889825602
553,4096.63,0.1305171868656804
554,4098.41,0.12096858473684081
555,4100.18,0.123202082619961
556,4101.95,0.1197118805030812
557,4103.73,0.1288970783742416
558,4105.5,0.1326961762573618
559,4107.27,0.13630467414048197
560,4109.05,0.1359862720116424
