,lambda (Angstroms),Total Flux (erg/s/cm^2/Angstrom)
0,100.11000000000001,0.014405678322006706
1,101.97,0.01730159814908309
2,104.10000000000001,0.02061789343493163
3,104.712855,0.021572075664144607
4,106.04,0.019848001422471086
5,108.01,0.017288803856143328
6,110.02,0.014677642892977372
7,113.88000000000001,0.009663174577522629
8,117.88,0.004466834365827192
9,120.22644299999999,0.0014186055065196104
10,120.91,0.0013775164597418434
11,124.87,0.0011394782153985577
12,126.9,0.0010174535815957475
13,128.07,0.0009471241223170232
14,131.06,0.000767393322762492
15,131.96,0.0007132939009378724
16,134.10999999999999,0.000584056099800161
17,136.92,0.0004151456626176341
18,138.038426,0.00034791649378147397
19,140.10999999999999,0.00034351901448794625
20,143.04000000000002,0.00033730350277896745
21,147.04999999999998,0.00032880296194522535
22,151.17000000000002,0.0003200628471772757
23,155.04,0.00031185559361570665
24,158.489319,0.00030454233231156324
25,159.01999999999998,0.0003028127767343009
26,161.98000000000002,0.0002931675822794435
27,166.13,0.00027964763545776865
28,170.0,0.0002670437008235802
29,173.16000000000003,0.00025675412874623247
30,177.2,0.00024360347780392734
31,180.07999999999998,0.00023423338524406623
32,181.970086,0.00022808500844529424
33,182.16,0.00022828605216584596
34,185.98,0.00023233693841639405
35,191.19,0.00023786709313585892
36,193.85,0.0002407049809029945
37,197.89999999999998,0.0002450218170390468
38,202.05,0.00024945562453401407
39,204.86,0.00025247145623952195
40,208.929613,0.0002568185333167576
41,210.10999999999999,0.000264364713952049
42,216.0,0.00030211457762492286
43,220.02,0.000327882260665492
44,223.08,0.00034749287454562675
45,227.23,0.00037412532479646295
46,229.85999999999999,0.0003916912900349447
47,234.13,0.0004207277484183354
48,239.88329199999998,0.0004589234235197823
49,240.14000000000001,0.000457643329826595
50,245.73000000000002,0.00042880453572806583
51,252.03,0.0003969015236277556
52,256.72,0.0003718107646864134
53,260.29,0.00035455181702957094
54,263.91,0.0003366055767528848
55,268.82,0.00031171551268423047
56,273.81,0.00028644156102382605
57,275.42287,0.00027827476998929066
58,278.90999999999997,0.00029847824641549274
59,284.09,0.0003285890266935783
60,290.03999999999996,0.00036259448755354137
61,296.10999999999996,0.00039826669343925164
62,300.92,0.0004261820265546171
63,307.93,0.0004673921784753467
64,316.227766,0.0005163743223021098
65,318.02,0.0005095467166501119
66,327.68,0.0004726368729889308
67,337.64000000000004,0.0004345423912016261
68,347.90000000000003,0.0003952017912881979
69,356.83,0.0003612345250672513
70,363.078055,0.00033759520164238996
71,365.97999999999996,0.00034783267424034597
72,375.37,0.00038062318530408286
73,385.0,0.00041355110572408125
74,394.87,0.00044945071550034127
75,405.0,0.00048541186207921817
76,414.44,0.0005184966467588427
77,416.86938299999997,0.0005270353559462146
78,422.14000000000004,0.000538803476773447
79,429.99,0.0005562688949237354
80,441.02000000000004,0.0005814377417896825
81,451.29,0.0006041264950003147
82,459.68,0.0006231926718004321
83,470.39,0.0006471748150220359
84,478.630092,0.0006661405378025362
85,480.23999999999995,0.0006626914088269715
86,490.29,0.0006404155006496095
87,500.56000000000006,0.0006189893302633899
88,506.36,0.000621401827484415
89,512.2199999999999,0.0007271501531939336
90,520.5400000000001,0.0007222717369316794
91,530.22,0.000717458299741942
92,540.08,0.0006937585480176844
93,549.5408739999999,0.0007734539104315538
94,550.12,0.0007793171440492724
95,560.35,0.000856845100196938
96,569.45,0.000925679223945106
97,580.04,0.0009121570674058862
98,589.46,0.0010486227020990446
99,600.42,0.00108395332696497
100,610.1800000000001,0.0012414528607871808
101,620.09,0.0013983569059898562
102,630.1700000000001,0.0015170453507570576
103,630.957344,0.0015204136414697844
104,640.41,0.0015790649173040682
105,649.32,0.0018055493352147393
106,658.35,0.0019505144860265642
107,664.44,0.0020891406807601208
108,675.24,0.0021813356418639643
109,684.63,0.0022166219913792506
110,695.76,0.0028319969679612674
111,705.43,0.002777068027579246
112,715.25,0.003381650003323667
113,724.43596,0.0035791663949682182
114,725.2,0.0035952305041458505
115,735.29,0.0037955015520033946
116,745.5100000000001,0.004340662414154445
117,754.15,0.004710124917969032
118,764.64,0.005083147702114287
119,775.28,0.005616114887367436
120,784.25,0.0061692430736193845
121,795.1600000000001,0.00655403818086674
122,804.3699999999999,0.006948496408891316
123,815.5600000000001,0.007321783731540069
124,825.0,0.00815899270793008
125,831.763771,0.007315951265260332
126,834.5600000000001,0.006961831020411195
127,844.22,0.008883556576976403
128,855.97,0.00930270867010696
129,865.88,0.010139701228653665
130,875.9,0.011034355868072235
131,884.01,0.012150589012352133
132,894.24,0.013002693533435163
133,904.6,0.013251679695548572
134,915.07,0.02083560493853384
135,925.67,0.14704404182254951
136,934.2399999999999,0.32944428385047536
137,945.0500000000001,0.6434795526161554
138,954.992586,0.8919843443320449
139,956.0,0.9171647930038102
140,964.84,1.067656576002141
141,976.0099999999999,0.1811923537274075
142,985.05,0.9625775933546599
143,994.1600000000001,1.0149172178020347
144,1005.6700000000001,1.4601217217964677
145,1014.98,1.4137927028727642
146,1024.37,0.6088709666006293
147,1033.8500000000001,1.033761610811509
148,1045.82,1.9560470150524616
149,1055.5,1.9380719158922628
150,1065.26,1.5681157993836328
151,1075.12,1.8764466611894632
152,1085.0700000000002,1.5218525034783086
153,1095.11,2.0107993262501687
154,1096.4782,1.9985745069622427
155,1105.24,1.9202840827561987
156,1115.47,1.8636701394698338
157,1125.79,1.6763431350988378
158,1136.2,2.1397500696432115
159,1144.08,1.9649857213444277
160,1154.67,2.100542533719539
161,1165.35,2.1794072850100203
162,1176.1299999999999,1.5253289684286897
163,1184.29,2.1793754300888324
164,1195.24,1.5898649981254211
165,1206.3,1.1597854915030168
166,1214.66,0.7471822174195356
167,1225.9,1.5752641886278695
168,1234.3999999999999,2.324466419523852
169,1245.82,2.519528668562924
170,1254.46,2.4228838044383694
171,1258.92541,2.321542505296092
172,1266.07,2.159403118601465
173,1274.84,2.6626635419887945
174,1283.68,2.756241968755498
175,1295.56,2.2096785422836023
176,1304.54,2.255859975809055
177,1313.58,2.756217412231114
178,1325.73,2.626200998793948
179,1334.92,2.3787104424575234
180,1344.18,2.7689838895004737
181,1353.49,2.7122583389572625
182,1366.02,2.4677899438652715
183,1375.49,2.5604394010463443
184,1385.0199999999998,2.608072861124024
185,1394.6200000000001,2.224973324581078
186,1404.29,2.346015791417506
187,1414.02,2.462236261150541
188,1423.8200000000002,2.51379373426295
189,1433.69,2.548819210754734
190,1443.6299999999999,2.668790690625892
191,1445.43977,2.6755113833471054
192,1446.9599999999998,2.681156839592741
193,1453.6399999999999,2.626213110254337
194,1463.71,2.456503518272641
195,1473.86,2.479289929532401
196,1484.0800000000002,2.5022803436284353
197,1494.3600000000001,2.5369407601555616
198,1504.72,2.395074179924144
199,1511.6699999999998,2.149543461525655
200,1518.65,2.2872877443427115
201,1525.66,2.2768550283753144
202,1536.23,2.0013724566527196
203,1543.32,2.124946743926779
204,1554.0200000000002,2.0433971774715505
205,1564.79,2.1346476138525965
206,1575.64,2.271665053475098
207,1586.56,2.356796495933875
208,1593.88,2.4006357925271207
209,1604.93,2.3841022402532634
210,1616.06,2.4006086912208624
211,1623.52,2.313864993486656
212,1634.7700000000002,2.4677854493164397
213,1646.1000000000001,2.490798908387679
214,1653.6999999999998,2.3677632163260216
215,1659.58691,2.460768413781483
216,1665.16,2.5488171039128127
217,1672.85,2.3841083793595903
218,1676.7,2.5664275185624636
219,1684.44,2.638250808804084
220,1696.1200000000001,2.508035264879294
221,1703.9499999999998,2.4284755817516306
222,1715.76,2.303126076293431
223,1723.6799999999998,2.2979144197964843
224,1735.6299999999999,2.439624955763844
225,1743.6399999999999,2.3896843258976137
226,1755.72,2.513810900331564
227,1763.8300000000002,2.3731893000550186
228,1776.0600000000002,2.384126918873496
229,1784.25,2.4454003422686994
230,1796.62,2.5664500025127355
231,1804.91,2.5842254554976236
232,1813.2400000000002,2.3678209203183855
233,1825.81,2.456552639741792
234,1834.24,2.3787691341522392
235,1846.96,2.2047308979601734
236,1855.48,2.189467419001337
237,1864.04,2.255944951878374
238,1876.97,2.4509767778246467
239,1885.63,2.240499340291369
240,1894.33,2.1250049145939656
241,1903.0800000000002,2.308547503691404
242,1905.46072,2.2879646365847464
243,1916.27,2.1945040853246427
244,1925.11,2.1496247136219475
245,1933.9999999999998,2.266340322848536
246,1942.9299999999998,2.3352999168185513
247,1956.39,2.164504782981642
248,1965.4199999999998,2.373213338810224
249,1974.4999999999998,2.462278875568089
250,1983.6100000000001,2.3191384008835247
251,1992.7700000000002,2.2717009071282432
252,2006.58,2.3622276397963176
253,2015.8400000000001,2.3085201078996036
254,2025.15,2.4340525569321723
255,2034.49,2.271701994522311
256,2043.8799999999999,2.3406764130417335
257,2053.3199999999997,2.2456478124904393
258,2062.7999999999997,2.287295196682572
259,2072.32,2.428461565618131
260,2077.09,2.2610917462717675
261,2086.68,2.367771088508323
262,2096.31,2.2508404154883057
263,2105.9900000000002,2.3138697233975716
264,2115.71,2.3352500160502645
265,2125.48,2.373129289632241
266,2135.29,2.2820725479576436
267,2145.1400000000003,2.266286791026473
268,2155.04,2.362191015024586
269,2164.99,2.3244672199519827
270,2174.98,2.308472409622806
271,2185.02,2.2610445802229124
272,2187.7616199999998,2.282664835645706
273,2195.11,2.3406187691632443
274,2205.24,2.3030718496840232
275,2215.42,2.245604945409742
276,2225.65,2.179335056340401
277,2235.92,2.266623179435011
278,2246.24,2.226769317734561
279,2256.61,2.1624664712390507
280,2267.0299999999997,2.2143646399484798
281,2277.4900000000002,2.246703820821861
282,2282.7400000000002,2.2786664173405273
283,2293.28,2.177555622541812
284,2303.86,2.189232839907048
285,2314.5,2.121164075518212
286,2325.18,1.7615403232933275
287,2335.91,2.037838586273383
288,2346.69,2.025276864458378
289,2357.5299999999997,2.0931571608893003
290,2362.96,2.01808581214575
291,2373.87,2.038205129863588
292,2384.82,1.9750034597453778
293,2395.83,2.0552848078730954
294,2406.89,1.9915231712057524
295,2412.44,2.015227858954057
296,2423.5699999999997,2.06374724357363
297,2434.7599999999998,1.9996186464391301
298,2446.0,2.0714650645095705
299,2457.29,2.0538654977849498
300,2462.95,2.045252218984122
301,2474.32,2.000170676587405
302,2485.74,2.052986149395628
303,2497.22,1.9173786404497783
304,2502.97,2.074177389017841
305,2511.88643,1.9823231311915421
306,2514.5299999999997,1.9550887893604871
307,2520.3199999999997,2.0292801079108402
308,2526.1299999999997,1.965519424107309
309,2537.79,1.9716220517924767
310,2543.64,1.9362373632811758
311,2555.3900000000003,2.005915980373862
312,2567.18,1.9888585927587785
313,2573.1,2.050096896008881
314,2584.97,2.042196498978258
315,2596.91,2.0391420937090388
316,2602.89,1.9980193898974865
317,2614.91,1.985801975212728
318,2626.98,2.0104005546432577
319,2633.03,2.0296208425931086
320,2645.19,2.0978594114311564
321,2657.3999999999996,2.1043269743844926
322,2663.52,2.014885254095747
323,2675.8199999999997,2.0635558064566015
324,2681.98,2.0547690814600865
325,2694.36,2.0050126244054014
326,2706.7999999999997,2.0204501602890623
327,2713.04,1.9798554258770078
328,2725.5600000000004,1.9812949523451295
329,2738.14,2.024400471751597
330,2744.46,1.9076497279240037
331,2757.1200000000003,1.9178972379149317
332,2763.48,1.9453674893795687
333,2776.24,1.992237987601073
334,2782.6400000000003,1.97014923435794
335,2795.48,1.8024027231639055
336,2801.92,1.8751429652130032
337,2814.86,1.9879204422495442
338,2827.85,1.9940379134013733
339,2834.37,1.927223146034932
340,2847.4500000000003,1.9155426065942796
341,2854.02,1.907456833343126
342,2867.19,1.9670892833099922
343,2873.8,1.9543315053510693
344,2884.0315,1.9555887910945846
345,2887.0600000000004,1.9559612938678943
346,2893.7200000000003,1.9476932778263578
347,2907.0800000000004,1.9900772456469389
348,2927.23,1.9608011971128603
349,2947.52,1.9363691482415724
350,2967.95,1.943196099033075
351,2988.52,1.9322490494873679
352,3009.2400000000002,1.9302649995803651
353,3030.1,1.9327769493361528
354,3051.1,1.922006898754731
355,3072.2500000000005,1.9157208478120131
356,3093.54,1.9049517965320863
357,3107.82,1.8979487621367193
358,3129.3700000000003,1.878717710230546
359,3151.06,1.876926657987163
360,3172.9,1.8663306053824846
361,3187.55,1.8171085700959213
362,3209.6400000000003,1.8406505168890828
363,3231.89,1.809577463296862
364,3246.81,1.8321984273599663
365,3269.3100000000004,1.8431663731655856
366,3291.9700000000003,1.8329243185858228
367,3307.1699999999996,1.8219632819745082
368,3311.31121,1.832784421983445
369,3322.4300000000003,1.8618377600473535
370,3330.09,1.8627404073510663
371,3337.77,1.8381290537339012
372,3345.46,1.8095766996562967
373,3353.18,1.8187303441973754
374,3360.91,1.7987869882780152
375,3368.65,1.8038296318982157
376,3376.42,1.7313332741370995
377,3384.2,1.788897915915544
378,3392.0,1.8230405567731105
379,3399.82,1.8706361967097989
380,3407.6600000000003,1.7749978357256095
381,3415.5200000000004,1.7922644738205418
382,3423.39,1.8433351114550354
383,3431.2799999999997,1.8399207481686506
384,3439.1899999999996,1.8366853839613881
385,3447.1200000000003,1.7669790188332475
386,3455.07,1.7516016527842286
387,3463.03,1.7204642862747708
388,3471.0099999999998,1.7573429188444352
389,3479.01,1.7300745504932213
390,3487.04,1.7469161807606903
391,3495.07,1.7679868110281596
392,3503.1299999999997,1.7486114399143118
393,3511.21,1.7334100678795858
394,3519.3,1.7422486953844207
395,3527.4100000000003,1.7310973219683778
396,3535.55,1.7722719471710178
397,3543.7000000000003,1.7978845719132188
398,3551.86,1.8029231961949808
399,3560.05,1.7789718190954256
400,3568.2599999999998,1.7433384410749924
401,3576.48,1.6811130625941202
402,3584.73,1.655050682731931
403,3585.53,1.7508666458968096
404,3588.2,1.8476385229595917
405,3590.87,1.8251894000223743
406,3593.54,1.7234812770851566
407,3596.22,1.8273381536875
408,3598.8900000000003,1.7514570307502824
409,3601.56,1.6101819078130648
410,3604.23,1.4765937848758472
411,3606.9,1.5518856619386296
412,3609.58,1.726434538540973
413,3612.25,1.7256104156037555
414,3614.9199999999996,1.7784332926665376
415,3617.59,1.7294201697293201
416,3620.26,1.6750380467921027
417,3622.93,1.546334923854885
418,3625.61,1.7898878004572283
419,3628.2799999999997,1.8016536775200107
420,3630.95,1.8435025545827932
421,3633.6200000000003,1.8226704316455753
422,3636.29,1.657921308708358
423,3638.96,1.6911491857711403
424,3641.64,1.5786740623734836
425,3644.31,1.6259289394362662
426,3646.98,1.6863128164990484
427,3649.6499999999996,1.7552286935618309
428,3652.32,1.7294385706246134
429,3654.9900000000002,1.6350764476873956
430,3657.67,1.590204324289739
431,3660.34,1.5645402013525214
432,3663.0099999999998,1.6630180784153037
433,3665.68,1.6579909554780863
434,3668.3500000000004,1.7323118325408684
435,3671.02,1.740934709603651
436,3673.7,1.6377805862059942
437,3676.37,1.6503724632687766
438,3679.04,1.7632543403315593
439,3681.71,1.6066952173943414
440,3684.3799999999997,1.748261094457124
441,3687.05,1.6212099715199062
442,3689.73,1.5929148481222497
443,3692.4,1.723254725185032
444,3695.0699999999997,1.6593706022478143
445,3697.74,1.6798834793105968
446,3700.4100000000003,1.6621943563733792
447,3703.0800000000004,1.6338532334361617
448,3705.76,1.6368461100385048
449,3708.43,1.7006599871012873
450,3711.1,1.62587486416407
451,3713.77,1.688575741226852
452,3716.4399999999996,1.9440816182896345
453,3719.1200000000003,2.617943494891978
454,3721.79,4.14996337195476
455,3724.46,6.051250249017542
456,3727.13,6.7359051260803255
457,3729.7999999999997,5.696902003143108
458,3732.47,3.92780788020589
459,3735.1499999999996,2.4069107568082333
460,3737.82,1.8038036338710157
461,3740.4900000000002,1.635804510933798
462,3743.16,1.6685473879965804
463,3745.83,1.6311012650593628
464,3748.5,1.6874981421221453
465,3751.1800000000003,1.7041220187244888
466,3753.8500000000004,1.653744895787271
467,3756.52,1.7672377728500535
468,3759.19,1.7771886499128358
469,3761.86,1.8002155269756182
470,3764.5299999999997,1.6965144040384006
471,3767.2099999999996,1.6985362806407438
472,3769.88,1.7690681577035263
473,3772.55,1.8034450347663087
474,3775.2200000000003,1.9137239118290912
475,3777.89,1.9623977888918736
476,3780.56,2.0270566659546563
477,3783.24,1.9268295425569992
478,3785.9100000000003,2.005317419619782
479,3788.58,1.964369296682564
480,3791.25,1.7305991737453463
481,3793.92,1.7083110508081287
482,3796.59,1.7601289278709114
483,3799.27,1.8084698044732546
484,3801.8939600000003,1.7116937147270326
485,3801.9399999999996,1.7099956819777353
486,3804.61,1.758363584655951
487,3807.28,1.8844474873341666
488,3809.95,2.045014390012382
489,3812.62,2.075190292690598
490,3815.2999999999997,1.9823261950043125
491,3817.97,1.9717310976825282
492,3820.6400000000003,1.9198270003607438
493,3823.31,1.8109889030389594
494,3825.98,1.807936805717175
495,3828.66,1.8596547080308896
496,3831.33,1.7591506107091053
497,3834.0,1.6574785133873209
498,3836.6699999999996,1.7462214160655367
499,3839.34,1.8009303187437522
500,3842.01,1.855531221421968
501,3844.69,1.9961531237356822
502,3847.36,2.088112026413898
503,3850.0299999999997,2.1127189290921136
504,3852.7,2.1123618317703294
505,3855.3700000000003,2.085781734448545
506,3858.04,2.1321216371267604
507,3860.7200000000003,2.1736005394404754
508,3863.39,2.217246442118691
509,3866.06,2.3248303447969065
510,3868.73,2.212580247475122
511,3871.3999999999996,2.1127221501533375
512,3874.07,2.064051052831553
513,3876.75,1.9622069551452679
514,3879.42,1.9149728578234837
515,3882.09,1.9250327605016992
516,3884.7599999999998,1.911743663179915
517,3887.43,1.9182105658581305
518,3890.1000000000004,1.988796468536346
519,3892.78,1.9474793708500608
520,3895.45,1.8817462735282764
521,3898.12,1.931677176206492
522,3900.79,1.9790940788847078
523,3903.46,2.0044209815629235
524,3906.1299999999997,2.119009884241139
525,3908.81,2.1374997865548537
526,3911.48,2.177732689233069
527,3914.15,2.074462591911285
528,3916.8199999999997,2.0793134945895004
529,3919.49,2.129245397267716
530,3922.1600000000003,2.0198682999459314
531,3924.84,1.9550222022596464
532,3927.51,1.997231104937862
533,3930.18,1.8407980076160775
534,3932.85,1.8152949102942932
535,3935.52,1.897734812972509
536,3938.2,1.9372397152862235
537,3940.8700000000003,1.892340617964439
538,3943.54,2.0775135206426545
539,3946.21,2.1753984233208703
540,3948.88,2.2012633259990864
541,3951.5499999999997,2.0762612286773017
542,3954.23,2.057573130991016
543,3956.8999999999996,2.0579340336692318
544,3959.57,1.9812449363474476
545,3962.2400000000002,1.993818839025663
546,3964.91,1.953589741703879
547,3967.58,1.9411986443820946
548,3970.2599999999998,1.8752755466958089
549,3972.9300000000003,1.9049124493740246
550,3975.6000000000004,1.8542653520522403
551,3978.27,1.844209254730456
552,3980.94,1.9636471574086716
553,3983.61,2.0602750600868873
554,3986.29,2.140549962400602
555,3988.9599999999996,2.1446818650788173
556,3991.63,2.196050767757033
557,3994.3,2.2740006704352487
558,3996.9700000000003,2.311000573113464
559,3999.64,2.2003664757916797
560,4002.3199999999997,2.2255013781053945
561,4004.99,2.19982028078361
562,4007.6600000000003,2.1689301834618258
563,4010.33,2.1333700861400415
564,4013.0,2.1434299888182573
565,4015.67,2.2352088914964727
566,4018.35,2.2892607938101874
567,4021.02,2.2752536964884027
568,4023.6899999999996,2.205568599166619
569,4026.36,2.1085845018448346
570,4029.03,2.19677240452305
571,4031.71,2.217776306836764
572,4034.38,2.1689262095149804
573,4037.0499999999997,2.203950112193196
574,4039.72,2.1824000148714116
575,4042.3900000000003,2.1710869175496272
576,4045.06,2.1260078202278425
577,4047.7400000000002,2.1576087225415574
578,4050.41,2.142883625219773
579,4053.08,2.1263615278979886
