,lambda (Angstroms),Total Flux (erg/s/cm^2/Angstrom)
0,102.07000000000001,4.9442692903816186
1,103.97,4.9301768318142996
2,104.712855,4.924667014336568
3,105.9,4.878414829571372
4,108.12,4.791921730502048
5,109.88,4.723350626096684
6,114.0,4.562831902795807
7,118.01,4.406598874099805
8,120.22644299999999,4.3202443703478
9,121.04,4.293669871169666
10,125.0,4.164318115803652
11,127.03,4.09800900969891
12,127.91,4.069264176458748
13,130.89,3.9719237172433774
14,132.1,3.932399574641098
15,133.94,3.872296743333922
16,137.06,3.7703832529034313
17,138.038426,3.7384233785253227
18,139.93,3.694258708840915
19,142.86,3.6258488077937594
20,146.85999999999999,3.532456455416676
21,150.98,3.436262305043448
22,154.85,3.3459051995441698
23,158.489319,3.2609340700812433
24,158.82,3.255097030073543
25,162.15,3.196317294138721
26,165.92,3.1297709050086846
27,170.17999999999998,3.05457525312151
28,172.95000000000002,3.0056804646730595
29,176.97,2.9347212488035015
30,179.85000000000002,2.8838848256646985
31,181.93,2.8471696314882853
32,181.970086,2.846462052248421
33,186.17000000000002,2.7899042655403528
34,190.95000000000002,2.7255348867153892
35,194.04999999999998,2.683789071567363
36,198.10999999999999,2.6291155644885156
37,201.8,2.5794247002197963
38,205.07000000000002,2.535389682065062
39,208.929613,2.4834147497681296
40,209.85,2.4740965958242978
41,216.23,2.4095046635524935
42,220.25,2.36880572611362
43,222.8,2.342989323269521
44,226.94,2.301075601987278
45,230.1,2.269089974791218
46,233.83999999999997,2.23123460702054
47,239.83,2.170597429059186
48,239.88329199999998,2.1700579040045644
49,245.98999999999998,2.1224163212737017
50,251.72,2.077715745639922
51,256.99,2.0365969123253285
52,259.96,2.0134316181466674
53,264.19,1.980433282796757
54,269.1,1.9421288713010922
55,274.1,1.9031222288281953
56,275.42287,1.892802078795795
57,279.2,1.8701882127410305
58,283.72999999999996,1.8430673384588605
59,289.67,1.8075024990910482
60,295.74,1.7711623872112978
61,301.24,1.7382318015785083
62,308.26,1.6962039325638216
63,316.227766,1.6485017120699683
64,318.35,1.6390122422569615
65,328.03,1.595727666058371
66,337.99999999999994,1.5511456128224674
67,348.27,1.5052218264931359
68,357.20000000000005,1.4652903535131134
69,363.078055,1.4390060652794336
70,366.36,1.428016097257951
71,374.90000000000003,1.3994185452756522
72,385.4,1.364254570905613
73,395.29,1.3311382847985949
74,405.43,1.2971826471018137
75,413.90999999999997,1.2687853969650582
76,416.86938299999997,1.2588751622426586
77,421.60999999999996,1.246752375342058
78,430.44,1.224171465654118
79,441.48,1.195940729850284
80,450.72,1.1723123452612054
81,460.16,1.1481719091593765
82,469.8,1.1235210396447965
83,478.630092,1.1009415890226313
84,479.64,1.098955579292015
85,489.67999999999995,1.0792110210002086
86,499.93,1.059055781418633
87,505.71999999999997,1.0477434081435775
88,511.58000000000004,1.0365336703385986
89,519.89,1.0201991713863166
90,529.5500000000001,1.0012161293569488
91,539.4,0.9818246450463621
92,549.43,0.9622317858588302
93,549.5408739999999,0.9620150168804319
94,559.64,0.9469814056896714
95,570.05,0.9314470225641455
96,580.65,0.9155222195398826
97,590.0799999999999,0.9015122213867883
98,599.67,0.8871411418137052
99,609.41,0.8726740868468824
100,619.31,0.8579940748600711
101,629.38,0.8429754932270213
102,630.957344,0.8406182276236132
103,639.6,0.830390096693449
104,650.0,0.8181669513051092
105,657.5200000000001,0.8093009004550784
106,665.14,0.800358162822468
107,674.39,0.7894482099338002
108,685.35,0.776410667163011
109,694.88,0.7654583180831187
110,704.5500000000001,0.7538855589076142
111,716.0,0.7406974798021821
112,724.43596,0.7307657563820622
113,725.9599999999999,0.7294386984326223
114,734.36,0.722162649461056
115,744.5799999999999,0.713404178712317
116,754.94,0.7044412709807186
117,765.44,0.6953568422662606
118,774.3,0.6878109053510133
119,785.0699999999999,0.6785995376696125
120,794.17,0.6707621857837489
121,805.2099999999999,0.6612108771354046
122,814.54,0.6531669792777005
123,825.8699999999999,0.6435409616648617
124,831.763771,0.6380697636700929
125,835.4300000000001,0.6354838923207847
126,845.11,0.629910555227497
127,854.89,0.6237039911394439
128,864.79,0.6175419396576722
129,874.8000000000001,0.6113162139816586
130,884.9300000000001,0.6050505809119265
131,895.18,0.5986309794484761
132,905.55,0.5919915775913073
133,916.0300000000001,0.5884272425398964
134,924.5100000000001,0.6363073533837931
135,935.21,0.7002808299438985
136,946.04,0.818718213910809
137,954.8,0.8912561391693625
138,954.992586,0.892424283575036
139,965.85,0.9584355125708043
140,974.79,0.6564268915483896
141,986.08,0.9579359275279129
142,995.1999999999999,0.9394825691694765
143,1004.4100000000001,1.0114914921430291
144,1016.04,0.9711720687100669
145,1025.44,0.7155509967178187
146,1034.93,0.8871114060575598
147,1044.51,1.0702436967292899
148,1054.17,1.053501426362788
149,1063.92,0.9822151373282755
150,1073.77,1.030501271995973
151,1086.2,0.9620877381806916
152,1096.25,1.0328738202528092
153,1096.4782,1.0319910195859896
154,1103.85,1.0043357433907012
155,1114.0700000000002,0.9976591310150755
156,1124.37,0.9452814210866076
157,1134.78,1.0059238520229812
158,1145.28,0.9650451982124066
159,1155.8799999999999,0.9768250724607794
160,1163.89,0.981484329982427
161,1174.66,0.8512278219310092
162,1185.53,0.9548691419385387
163,1193.74,0.8806543555780801
164,1204.79,0.7874350060917139
165,1215.9399999999998,0.6089459846642945
166,1224.3700000000001,0.814151880033519
167,1235.69,0.9099686763063095
168,1244.26,0.9300961509580599
169,1255.77,0.9152477905428493
170,1258.92541,0.9056510526165292
171,1264.48,0.8896007542568993
172,1276.18,0.9298865456375467
173,1285.02,0.9304568146807026
174,1293.93,0.8690670996551955
175,1305.9,0.8704259239138579
176,1314.96,0.9152639715983593
177,1324.07,0.8927565735195301
178,1336.32,0.8637137615035412
179,1345.5800000000002,0.8884162261347202
180,1354.91,0.8823904066972363
181,1364.3,0.8531677723437561
182,1373.76,0.8519978539216129
183,1386.47,0.8508220608829827
184,1396.0800000000002,0.7848366051708479
185,1405.76,0.7952157653900502
186,1415.5,0.8197536106932557
187,1425.32,0.8091322027751324
188,1435.2,0.8111605799410124
189,1441.82,0.8191957008760455
190,1445.43977,0.8159099956036759
191,1448.48,0.8134963962191653
192,1455.16,0.8047489462928481
193,1465.2499999999998,0.7838943550119293
194,1475.4,0.7812288782526302
195,1485.63,0.7763125541888243
196,1495.93,0.7713774137335749
197,1506.3,0.7512786568868823
198,1513.2499999999998,0.7205402723078549
199,1516.74,0.732815983648746
200,1523.74,0.7309743445044019
201,1534.3000000000002,0.6907210003095055
202,1544.9399999999998,0.6945804088101024
203,1555.65,0.6776157009192556
204,1566.43,0.6889246766369657
205,1573.66,0.7046463264921645
206,1584.57,0.7047817003400509
207,1595.55,0.7069626577964938
208,1606.61,0.6929876679484299
209,1614.03,0.6880660304554251
210,1625.22,0.6792472387375378
211,1636.4799999999998,0.688119830628207
212,1644.04,0.6841256603523154
213,1655.43,0.6713013503731609
214,1659.58691,0.6755789888452126
215,1666.91,0.6836920139554454
216,1670.75,0.66330943616843
217,1678.46,0.6856104526429377
218,1686.21,0.6852056985154975
219,1693.99,0.6697407164365963
220,1705.73,0.6578338447648352
221,1713.6100000000001,0.6449832361810637
222,1725.48,0.6399894100529714
223,1733.45,0.6508046176148167
224,1745.46,0.6409843943799061
225,1753.52,0.6490272180873683
226,1765.68,0.6279496550951523
227,1773.8300000000002,0.6292212949482313
228,1786.12,0.6297423774996842
229,1794.3700000000001,0.637659490847893
230,1806.8000000000002,0.6353741762925275
231,1815.14,0.6142709057863531
232,1823.5199999999998,0.6172949646782306
233,1836.16,0.6076739544626377
234,1844.6399999999999,0.5824611868496452
235,1853.15,0.5808966912851914
236,1865.9999999999998,0.5862473854093712
237,1874.61,0.5961046633400473
238,1883.26,0.5711366706687753
239,1896.32,0.5547403691327275
240,1905.0700000000002,0.5704867499565853
241,1905.46072,0.5699327636805791
242,1913.86,0.5584372778184585
243,1927.1299999999999,0.5485213960352087
244,1936.03,0.5546185064443327
245,1944.96,0.5667768658773078
246,1953.94,0.5440945736833678
247,1967.48,0.5611990331147768
248,1976.56,0.5685085376670067
249,1985.69,0.5512003905923216
250,1994.85,0.5426001925414876
251,2004.06,0.5462557428637385
252,2013.3100000000002,0.5433679918844572
253,2027.27,0.5472479376497799
254,2036.6200000000001,0.5337360834166687
255,2046.02,0.5364982775566425
256,2055.4700000000003,0.5224562200697012
257,2064.96,0.5251206612812278
258,2074.49,0.5408727011912224
259,2079.27,0.5271693456581453
260,2084.06,0.5321794397996851
261,2093.68,0.5180929267812328
262,2103.35,0.5215232621358652
263,2113.06,0.5218000961889658
264,2122.81,0.5229020289405343
265,2132.61,0.5112580100651878
266,2147.3900000000003,0.5084942291491039
267,2157.3,0.5126519566945442
268,2167.26,0.5050288326130696
269,2177.26,0.501348307230063
270,2187.31,0.4992211302201413
271,2187.7616199999998,0.49943851913311466
272,2197.41,0.5045042087160757
273,2202.48,0.49781303342517413
274,2212.64,0.4885205557219077
275,2222.85,0.4831045102149835
276,2233.11,0.49119229690440147
277,2243.42,0.48420641579016166
278,2253.7799999999997,0.4751338668722641
279,2264.1800000000003,0.4749181637114402
280,2274.63,0.4768963927469585
281,2285.13,0.479660853978819
282,2295.68,0.46631354740702174
283,2306.27,0.4697442865922982
284,2316.92,0.46234524441318536
285,2327.61,0.42585154799114616
286,2332.98,0.4490904658782977
287,2343.75,0.43937446097040606
288,2354.57,0.45137968825885655
289,2365.44,0.4368421477436494
290,2376.35,0.4405995529855159
291,2387.32,0.42515857686299297
292,2392.83,0.43249660489990266
293,2403.87,0.4263097338522589
294,2414.97,0.42664928144022574
295,2426.11,0.43563707478526625
296,2437.31,0.42800628676591757
297,2442.9300000000003,0.43352646563478
298,2454.21,0.43121106912957874
299,2465.5299999999997,0.4269057183814512
300,2476.91,0.4193703862689343
301,2482.62,0.4182377430912128
302,2494.08,0.40461010249284346
303,2505.6,0.4234513805300846
304,2511.37,0.4031152559879737
305,2511.88643,0.4031257940441707
306,2517.16,0.4033562154750868
307,2522.96,0.39868632092851675
308,2534.61,0.399785728434113
309,2546.31,0.39720543253844576
310,2552.18,0.4080442732301067
311,2563.96,0.4022583318924178
312,2575.79,0.40846498715346535
313,2587.68,0.4058103583329966
314,2593.65,0.40226449222213045
315,2605.6200000000003,0.3952949179596401
316,2617.65,0.3902733596156335
317,2623.68,0.39725360942325116
318,2635.79,0.40341640563722286
319,2647.9599999999996,0.4177073177696784
320,2654.06,0.42344930281552706
321,2666.31,0.4059907695059609
322,2672.46,0.41149725115054603
323,2684.7900000000004,0.4133820723989582
324,2697.19,0.3989055288856015
325,2703.4,0.4043100264486704
326,2715.88,0.39143003749329197
327,2722.1400000000003,0.38793733165509736
328,2734.71,0.39462991657744456
329,2747.33,0.3707965980985283
330,2753.66,0.3762660274985647
331,2766.3700000000003,0.38330308289737397
332,2772.75,0.3890846088961469
333,2785.55,0.3748388381726818
334,2791.97,0.3390069414504439
335,2804.86,0.34761934460470445
336,2817.81,0.3825116636774488
337,2824.3,0.38961880219344197
338,2837.3399999999997,0.38313669514391197
339,2843.8799999999997,0.37535163025864154
340,2857.0099999999998,0.3620967970868371
341,2863.5899999999997,0.38209550948055593
342,2876.8100000000004,0.38566505018647707
343,2883.44,0.38272265917893233
344,2884.0315,0.38276982428608686
345,2896.75,0.3840382884066539
346,2910.12,0.39841756071727435
347,2930.29,0.3889971408597736
348,2950.6,0.3823544908693998
349,2971.06,0.3840202300223763
350,2991.65,0.3824936197662563
351,3012.39,0.38160499865348657
352,3033.27,0.38134644740784374
353,3047.2700000000004,0.3820291341205353
354,3068.39,0.3811255455042529
355,3089.6600000000003,0.3789179460313208
356,3111.08,0.379939635701739
357,3132.64,0.37387219523928406
358,3147.1,0.3719794686582498
359,3168.92,0.374227329377602
360,3190.8799999999997,0.36259495996408114
361,3212.9999999999995,0.36850599897013386
362,3227.83,0.3573126856093636
363,3250.21,0.37266452579722353
364,3272.7400000000002,0.3808882551284336
365,3287.84,0.3782451622256938
366,3310.63,0.3739734927387111
367,3311.31121,0.37347956707712693
368,3318.26,0.36853863561974615
369,3325.9100000000003,0.3689630493380329
370,3333.58,0.37726298204643294
371,3341.27,0.35837423374494615
372,3348.97,0.3788258449385159
373,3356.69,0.36742477512219884
374,3364.43,0.3367479242959949
375,3372.1800000000003,0.3394160329648476
376,3379.96,0.36482382011887005
377,3387.75,0.36652566676794907
378,3395.5600000000004,0.3618129324071412
379,3403.39,0.37326001703644657
380,3411.23,0.3526210611608085
381,3419.09,0.3624060242752836
382,3426.98,0.3692814658749285
383,3434.88,0.3797228669696299
384,3442.79,0.36172132755938796
385,3450.73,0.3666408666343157
386,3458.6899999999996,0.3606159246993567
387,3466.66,0.35974654225945424
388,3474.65,0.3712002788096649
389,3482.6600000000003,0.36184093434998876
390,3490.69,0.3754168088804258
391,3498.73,0.35502884290591946
392,3506.7999999999997,0.36960485541658283
393,3514.88,0.35707962742230276
394,3522.99,0.3718007779131925
395,3531.11,0.36171698789913875
396,3539.25,0.3740081168751982
397,3547.41,0.38336726484137085
398,3555.58,0.3810618723026
399,3563.7799999999997,0.373307958248999
400,3572.0,0.3547792631855112
401,3580.23,0.3526565276170799
402,3588.48,0.32898611103876174
403,3596.7599999999998,0.3572465729456134
404,3605.05,0.37077829434752163
405,3613.36,0.352309034739543
406,3621.69,0.34955829412167755
407,3630.04,0.38949427249392526
408,3638.4,0.3698141103612296
409,3646.79,0.3688932267137036
410,3648.0099999999998,0.3597647851106069
411,3650.7400000000002,0.24514262726105437
412,3653.47,0.30771906941150184
413,3656.2,0.36839011156194934
414,3658.9300000000003,0.43759865371239676
415,3661.66,0.48333229586284426
416,3664.3900000000003,0.45882393801329163
417,3667.12,0.38532568016373914
418,3669.85,0.3893122223141866
419,3672.59,0.3458949239596907
420,3675.32,0.4096313661101381
421,3678.0499999999997,0.3261304082605856
422,3680.78,0.31205265041103303
423,3683.5099999999998,0.37127009256148047
424,3686.2400000000002,0.36950393471192794
425,3688.97,0.3900524768623754
426,3691.7,0.35280511901282285
427,3694.4300000000003,0.3342448611632703
428,3697.16,0.36574920331371774
429,3699.8900000000003,0.2604340454641652
430,3702.62,0.23502178761461273
431,3705.35,0.3422520297650602
432,3708.0800000000004,0.3861290719155076
433,3710.81,0.3395013140659551
434,3713.54,0.34524665621640255
435,3716.27,0.38660769836685
436,3719.0,0.2704708405172975
437,3721.7299999999996,0.34639708266774494
438,3724.46,0.5265322248181924
439,3727.2,0.8352141264636964
440,3729.9300000000003,0.9683619686141439
441,3732.66,0.9396279107645913
442,3735.39,0.6218900529150388
443,3738.12,0.43341109506548625
444,3740.85,0.39806913721593373
445,3743.5800000000004,0.34482167936638114
446,3746.31,0.37799922151682863
447,3749.04,0.3132585636672761
448,3751.77,0.3058251058177236
449,3754.5,0.46172754796817106
450,3757.2299999999996,0.3501954901186185
451,3759.96,0.36362333226906596
452,3762.69,0.36103877441951343
453,3765.42,0.4384063165699609
454,3768.15,0.3730424587204083
455,3770.8799999999997,0.33050640087085575
456,3773.61,0.35762604302130324
457,3776.34,0.3693072851717507
458,3779.0800000000004,0.3787392868172547
459,3781.81,0.4825005289677022
460,3784.54,0.5305545711181496
461,3787.27,0.42340751326859716
462,3790.0,0.43453915541904464
463,3792.7300000000005,0.418690497569492
464,3795.46,0.39772423971993953
465,3798.19,0.354223381870387
466,3800.92,0.34175782402083443
467,3801.8939600000003,0.3532762539156542
468,3803.65,0.3740612082212197
469,3806.3799999999997,0.45204181091717305
470,3809.11,0.4169099136131264
471,3811.84,0.4546214163090797
472,3814.5699999999997,0.4346714190050331
473,3817.3,0.4830823217009865
474,3820.0299999999997,0.36312512439693984
475,3822.76,0.3822716270928932
476,3825.49,0.33346012978884654
477,3828.22,0.44372213248479986
478,3830.9500000000003,0.3388245351807533
479,3833.69,0.4013771961283401
480,3836.4199999999996,0.3311795988242935
481,3839.15,0.37516890152024684
482,3841.8799999999997,0.33360040421620024
483,3844.61,0.38558980691215355
484,3847.34,0.4335731096081069
485,3850.0699999999997,0.3703006123040603
486,3852.8,0.38871421500001363
487,3855.5299999999997,0.473937617695967
488,3858.26,0.5027818203919203
489,3860.9900000000002,0.44049862308787374
490,3863.72,0.4090553257838271
491,3866.4500000000003,0.49716132847978045
492,3869.18,0.4552385311757338
493,3871.91,0.5212007338716871
494,3874.64,0.4935315365676405
495,3877.37,0.44592923926359385
496,3880.1000000000004,0.4640009419595472
497,3882.83,0.4517700446555005
498,3885.56,0.43486124735145393
499,3888.3,0.31449930829904077
500,3891.0299999999997,0.3381770109949942
501,3893.76,0.4607745136909475
502,3896.4900000000002,0.46458041638690084
503,3899.22,0.36877031908285424
504,3901.9500000000003,0.4442225217788076
505,3904.68,0.44580552447476096
506,3907.41,0.4404510271707143
507,3910.14,0.39139542986666764
508,3912.87,0.44132073256262105
509,3915.6000000000004,0.46371613525857436
510,3918.33,0.4011641379545277
511,3921.06,0.46967904065048105
512,3923.79,0.44275484334643445
513,3926.52,0.4535104460423878
514,3929.2500000000005,0.44815594873834114
515,3931.98,0.3675029514342945
516,3934.71,0.34696655413024785
517,3937.44,0.3377890568262012
518,3940.18,0.3726897177737881
519,3942.91,0.39832172046974146
520,3945.6400000000003,0.4329796231656948
521,3948.37,0.4103792258616482
522,3951.1000000000004,0.41251172855760154
523,3953.83,0.4494537312535549
524,3956.56,0.45768113394950827
525,3959.29,0.4262745366454616
526,3962.02,0.443198039341415
527,3964.75,0.39435004203736834
528,3967.48,0.31843614473332166
529,3970.21,0.31889544742927506
530,3972.9399999999996,0.3314830501252284
531,3975.67,0.33687665282118173
532,3978.4,0.3426001555171351
533,3981.13,0.3857224582130885
534,3983.86,0.46780696090904184
535,3986.5899999999997,0.4648219636049952
536,3989.32,0.47624936630094855
537,3992.0499999999997,0.4829621689969019
538,3994.7899999999995,0.4609945299444888
539,3997.52,0.48445253264044214
540,4000.25,0.4290213353363955
541,4002.98,0.47638173803234884
542,4005.71,0.4735554407283022
543,4008.4399999999996,0.4764697434242556
544,4011.17,0.4920986461202089
545,4013.9,0.4863777488161623
546,4016.63,0.5234175515121157
547,4019.36,0.554899954208069
548,4022.0899999999997,0.5215880569040224
549,4024.82,0.47604995959997576
550,4027.5499999999997,0.49456136229592906
551,4030.28,0.5066727649918824
552,4033.01,0.4959074676878358
553,4035.74,0.5087271703837891
554,4038.4700000000003,0.4996596730797425
555,4041.2,0.5096580757756959
556,4043.93,0.47345127847164925
557,4046.6600000000003,0.48867718116760256
558,4049.4,0.4704714421151895
559,4052.13,0.5502839448111427
560,4054.86,0.5406179475070961
561,4057.5899999999997,0.4903777502030495
562,4060.32,0.5003515528990029
563,4063.05,0.5514616555949563
564,4065.7799999999997,0.4721890582909096
565,4068.51,0.48130796098686296
566,4071.24,0.5014070636828163
567,4073.9700000000003,0.5318758663787697
568,4076.7,0.49934556907472305
569,4079.43,0.5100400717706763
570,4082.1600000000003,0.49158007446662977
571,4084.89,0.4579382771625831
572,4087.6200000000003,0.47371377985853647
573,4090.35,0.5447692825544898
574,4093.08,0.5221320852504432
575,4095.81,0.48102758794639655
576,4098.54,0.4885220906423499
577,4101.27,0.5018914933383032
578,4104.01,0.5091393542858901
579,4106.74,0.44851725698184347
580,4109.47,0.4494162596777968
581,4112.2,0.45986646237375023
582,4114.93,0.4845702650697036
583,4117.66,0.47076376776565687
584,4120.39,0.4287432704616103
585,4123.12,0.47501677315756363
586,4125.849999999999,0.46139347585351703
587,4128.58,0.4611810785494704
588,4131.31,0.4647548812454237
589,4134.04,0.47856388394137706
590,4136.77,0.4787544866373304
591,4139.5,0.48000768933328375
592,4142.2300000000005,0.4975174920292371
593,4144.96,0.4858240947251905
594,4147.69,0.47354429742114384
595,4150.42,0.4872678001170972
