,lambda (Angstroms),Total Flux (erg/s/cm^2/Angstrom)
0,102.03,4.718388e-05
1,103.92999999999999,5.659758e-05
2,104.712855,6.112784283331804e-05
3,106.1,6.915504e-05
4,108.07000000000001,8.647481e-05
5,110.08,0.0001224239
6,113.95,0.0001697721
7,117.96,0.0002217227
8,120.22644299999999,0.0006750834959657612
9,120.97999999999999,0.0008258189
10,124.94999999999999,0.001008752
11,126.97999999999999,0.001078525
12,127.86,0.001137134
13,131.14000000000001,0.001241175
14,132.05,0.001461561
15,133.88,0.001537534
16,137.0,0.001922221
17,138.038426,0.001977168208236236
18,139.87,0.002074084
19,143.13,0.005698983
20,147.14,0.01376707
21,150.91,0.01458258
22,155.14,0.01562562
23,158.489319,0.01659874864623869
24,159.12,0.01678199
25,162.08,0.01761264
26,165.85,0.01900475
27,170.10999999999999,0.02008179
28,172.87,0.02103041
29,176.9,0.02212174
30,180.19,0.02295225
31,181.85,0.02359728
32,181.970086,0.0236287731199434
33,186.09,0.02470924
34,190.85999999999999,0.0261718
35,193.96,0.02728122
36,198.03,0.02836815
37,202.17,0.02963708
38,204.99,0.03060752
39,208.929613,0.030608601948224318
40,209.76000000000002,0.03060883
41,216.13,0.03379417
42,220.15,0.03514178
43,223.21,0.03563446
44,226.84,0.03713975
45,230.0,0.05634243
46,233.73000000000002,0.09393723
47,239.73000000000002,0.118262
48,239.88329199999998,0.11805888685372364
49,245.88,0.1101132
50,252.19,0.1169016
51,256.88,0.09634016
52,259.85,0.1126798
53,264.07,0.1185337
54,268.97999999999996,0.117719
55,273.97999999999996,0.1163696
56,275.42287,0.11599202072509804
57,279.08,0.115035
58,284.26,0.1145091
59,290.21999999999997,0.1083473
60,296.28999999999996,0.1083547
61,301.11,0.1051549
62,308.12,0.1056445
63,316.227766,0.10603246864433663
64,318.22,0.1061278
65,327.89,0.1041884
66,337.85,0.1008875
67,348.11,0.09768731
68,357.04,0.09590682
69,363.078055,0.09561621553195415
70,366.2,0.09546596
71,374.73,0.09286263
72,385.23,0.0866657
73,395.10999999999996,0.0880737
74,405.25,0.08686207
75,413.74,0.08449414
76,416.86938299999997,0.08338982554801733
77,422.4,0.08143815
78,430.25,0.07903766
79,441.29,0.07759563
80,450.53000000000003,0.07478777
81,459.96000000000004,0.07191774
82,469.59000000000003,0.06979793
83,478.630092,0.06874347020123948
84,480.53,0.06852186
85,489.46999999999997,0.06513669
86,499.71000000000004,0.06469005
87,505.5,0.06249347
88,512.53,0.06514007
89,519.66,0.06336294
90,530.55,0.06064843
91,540.41,0.05673287
92,549.5408739999999,0.05475347822573533
93,550.4599999999999,0.05455423
94,559.4,0.0553145
95,569.8000000000001,0.05531381
96,580.39,0.05306857
97,589.82,0.05209986
98,599.41,0.04873384
99,610.55,0.04186281
100,620.47,0.04795585
101,630.55,0.04579683
102,630.957344,0.045796823504765376
103,639.33,0.04579669
104,649.71,0.04403925
105,658.75,0.04215353
106,664.85,0.04273959
107,675.65,0.04205779
108,685.05,0.03915891
109,694.58,0.03979574
110,704.24,0.03663003
111,715.6899999999999,0.03809156
112,724.43596,0.037329826438592964
113,725.64,0.03722496
114,735.74,0.03646116
115,744.2600000000001,0.03522306
116,754.61,0.03418478
117,765.1099999999999,0.03039747
118,775.75,0.03264687
119,784.73,0.03082108
120,795.65,0.03089085
121,804.86,0.03053845
122,814.1800000000001,0.02991157
123,825.51,0.02943369
124,831.763771,0.027379365476108766
125,835.0699999999999,0.02629329
126,844.7399999999999,0.02791461
127,854.52,0.02715413
128,864.4100000000001,0.02684343
129,874.4200000000001,0.02641471
130,884.5500000000001,0.02587249
131,894.7900000000001,0.02539973
132,905.15,0.02465119
133,915.6300000000001,0.02635324
134,924.1099999999999,0.04817611
135,934.81,0.07325382
136,945.63,0.1027625
137,954.38,0.1252669
138,954.992586,0.1257633108668235
139,965.4300000000001,0.1342213
140,974.37,0.05138389
141,985.65,0.111387
142,994.77,0.1126764
143,1003.97,0.1471828
144,1015.6,0.1444849
145,1025.0,0.07976843
146,1034.48,0.1129381
147,1044.05,0.1769434
148,1056.14,0.1713303
149,1065.91,0.1399018
150,1075.78,0.1587983
151,1085.73,0.1273014
152,1095.78,0.1628632
153,1096.4782,0.16230972157396448
154,1105.9199999999998,0.154825
155,1116.15,0.1485343
156,1123.89,0.1326823
157,1134.29,0.1617421
158,1144.78,0.1488747
159,1155.3700000000001,0.154111
160,1166.06,0.1551787
161,1174.15,0.109354
162,1185.01,0.1481977
163,1195.98,0.1111298
164,1204.27,0.08646378
165,1215.4099999999999,0.06263723
166,1223.8300000000002,0.1086017
167,1235.16,0.1468409
168,1243.72,0.1566107
169,1255.23,0.1495636
170,1258.92541,0.14252647746057467
171,1263.93,0.1329963
172,1275.6200000000001,0.1617427
173,1284.46,0.1666679
174,1296.35,0.1345326
175,1305.3400000000001,0.1329964
176,1314.3799999999999,0.1602579
177,1323.49,0.1527035
178,1335.74,0.1360964
179,1345.0,0.157339
180,1354.32,0.1519999
181,1363.7099999999998,0.1364098
182,1376.3300000000002,0.1408769
183,1385.87,0.1405511
184,1395.48,0.1185308
185,1405.15,0.1207356
186,1414.89,0.1287747
187,1424.7,0.1299668
188,1434.57,0.1296686
189,1441.19,0.1348471
190,1445.43977,0.13564434664234234
191,1447.85,0.1360965
192,1454.53,0.1317712
193,1464.6100000000001,0.1215724
194,1474.76,0.1210141
195,1484.99,0.1224141
196,1495.28,0.1229808
197,1505.64,0.1161007
198,1512.5900000000001,0.1039534
199,1516.08,0.1101126
200,1526.59,0.1068647
201,1533.64,0.09286104
202,1544.27,0.09746142
203,1554.97,0.09286208
204,1565.75,0.09568282
205,1576.6,0.10112
206,1583.88,0.1049139
207,1594.86,0.1061293
208,1605.91,0.1034747
209,1613.3300000000002,0.1032357
210,1624.5100000000002,0.09791187
211,1635.77,0.1032357
212,1643.3200000000002,0.1039522
213,1654.71,0.09678991
214,1659.58691,0.09983569974061904
215,1666.1799999999998,0.1039533
216,1673.8700000000001,0.09307589
217,1677.73,0.1044321
218,1685.47,0.107607
219,1693.25,0.1008869
220,1704.99,0.09701475
221,1716.81,0.09158716
222,1724.7299999999998,0.09053883
223,1736.6899999999998,0.09590329
224,1744.7099999999998,0.0932904
225,1756.8,0.09859041
226,1764.91,0.0907478
227,1773.06,0.09179716
228,1785.35,0.09307457
229,1793.59,0.09858957
230,1806.0200000000002,0.09746195
231,1814.3500000000001,0.08950353
232,1826.9299999999998,0.09116575
233,1835.3600000000001,0.08746487
234,1843.84,0.08013595
235,1856.62,0.08013627
236,1865.1899999999998,0.08238213
237,1873.8,0.08827396
238,1886.7800000000002,0.08125175
239,1895.49,0.0783134
240,1904.24,0.08238235
241,1905.46072,0.08191782507158132
242,1913.03,0.07903746
243,1926.29,0.0767074
244,1935.18,0.07813411
245,1944.1200000000001,0.08238159
246,1953.0900000000001,0.07706129
247,1966.63,0.08430079
248,1975.71,0.08547359
249,1984.83,0.08181495
250,1993.99,0.07958581
251,2003.19,0.08143908
252,2017.08,0.07903689
253,2026.39,0.08087899
254,2035.74,0.07795392
255,2045.14,0.08125125
256,2054.58,0.07670701
257,2064.06,0.07688421
258,2073.5899999999997,0.08276223
259,2078.37,0.09032917
260,2083.16,0.09950158
261,2092.77,0.09307577
262,2107.28,0.09264709
263,2117.01,0.09656834
264,2126.78,0.09372008
265,2136.6,0.08807135
266,2146.46,0.09679023
267,2156.37,0.09836268
268,2166.3199999999997,0.09179761
269,2176.3199999999997,0.09116565
270,2186.36,0.09927408
271,2187.7616199999998,0.09943372021173434
272,2196.4500000000003,0.1004233
273,2206.59,0.09791149
274,2216.7799999999997,0.0858689
275,2227.01,0.08991579
276,2237.29,0.1058855
277,2242.45,0.1011244
278,2252.8,0.0875037
279,2263.2,0.08515244
280,2273.6400000000003,0.08981967
281,2284.14,0.1060572
282,2294.68,0.09304955
283,2305.27,0.1030111
284,2315.91,0.09205718
285,2326.6,0.07417133
286,2337.34,0.07716297
287,2342.73,0.0659928
288,2353.54,0.08783579
289,2364.4100000000003,0.0682096
290,2375.3199999999997,0.07586185
291,2386.28,0.06154634
292,2397.3,0.06860973
293,2402.83,0.06706207
294,2413.92,0.07172224
295,2425.06,0.0950241
296,2436.25,0.09462858
297,2447.5,0.1079447
298,2453.14,0.1122769
299,2464.46,0.09942027
300,2475.84,0.09133893
301,2487.27,0.07044454
302,2493.0,0.07567324
303,2504.5099999999998,0.1023584
304,2510.2799999999997,0.065046
305,2511.88643,0.06392282243196881
306,2516.07,0.06099777
307,2527.68,0.06144734
308,2533.5099999999998,0.07917656
309,2545.2000000000003,0.0810562
310,2556.9500000000003,0.1288171
311,2562.85,0.1014072
312,2574.67,0.1245271
313,2586.56,0.1130975
314,2592.52,0.1046034
315,2604.49,0.09413316
316,2616.51,0.08788865
317,2622.54,0.1094052
318,2634.65,0.1758871
319,2646.81,0.2277258
320,2652.91,0.3210094
321,2665.15,0.2012475
322,2677.46,0.2274643
323,2683.63,0.2648598
324,2696.0099999999998,0.193289
325,2702.23,0.2395006
326,2714.7,0.1756011
327,2727.23,0.137321
328,2733.52,0.1737118
329,2746.1400000000003,0.1083975
330,2752.4700000000003,0.1400037
331,2765.17,0.1787794
332,2777.94,0.1890292
333,2784.34,0.1220778
334,2797.19,0.06868264
335,2803.64,0.0788759
336,2816.5800000000004,0.1683331
337,2823.0699999999997,0.2378206
338,2836.1,0.2220616
339,2842.6400000000003,0.1583305
340,2855.7599999999998,0.1001806
341,2862.3500000000004,0.2192205
342,2875.56,0.3090923
343,2882.19,0.2813225
344,2884.0315,0.2915444865037596
345,2895.49,0.3551495
346,2908.8599999999997,0.4871137
347,2929.02,0.4206771
348,2949.32,0.3848315
349,2969.77,0.4023478
350,2990.35,0.4082504
351,3011.08,0.404813
352,3031.95,0.4411527
353,3052.97,0.4591131
354,3067.06,0.5130358
355,3088.32,0.4982919
356,3109.73,0.595417
357,3131.28,0.5447123
358,3152.99,0.5514589
359,3167.54,0.613391
360,3189.5,0.5225045
361,3211.6099999999997,0.5800085
362,3226.4300000000003,0.4826871
363,3248.7899999999995,0.7031069
364,3271.31,0.8305717
365,3286.42,0.8158583
366,3309.19,0.7550505
367,3311.31121,0.7496982762549742
368,3324.47,0.7164961
369,3332.1299999999997,0.7300153
370,3339.81,0.6345331
371,3347.51,0.8271309
372,3355.23,0.8048178
373,3362.9700000000003,0.4918299
374,3370.72,0.6440755
375,3378.4900000000002,0.7657034
376,3386.27,0.7399165
377,3394.08,0.7249487
378,3401.9100000000003,0.9024609
379,3409.7499999999995,0.7543187
380,3417.6099999999997,0.6377869
381,3425.49,0.7994609
382,3433.3799999999997,0.9224083
383,3441.2999999999997,0.7211836
384,3449.23,0.6732398
385,3457.1800000000003,0.7967025
386,3465.15,0.6845719
387,3473.1400000000003,0.8541681
388,3481.15,0.7390413
389,3489.1699999999996,0.8143243
390,3497.22,0.7243091
391,3505.28,0.9226757
392,3513.3599999999997,0.7837435
393,3521.46,0.9339054
394,3529.57,0.6301298
395,3537.71,0.882172
396,3545.87,0.8947126
397,3554.04,0.9328388
398,3562.23,0.8278216
399,3570.4399999999996,0.6487276
400,3578.6800000000003,0.7589148
401,3586.92,0.5300602
402,3595.1899999999996,0.8118023
403,3603.48,1.008278
404,3611.7899999999995,0.666364
405,3620.11,0.8726519
406,3628.46,1.064065
407,3636.82,0.7692999
408,3645.21,1.00979
409,3653.61,0.8878903
410,3662.03,1.243051
411,3670.4700000000003,1.103117
412,3678.94,1.144854
413,3687.42,1.018321
414,3695.9199999999996,1.164171
415,3704.44,1.197148
416,3712.98,0.8246669
417,3721.54,0.8677897
418,3730.1099999999997,0.9717349
419,3738.72,0.4928056
420,3747.33,0.7011548
421,3755.9700000000003,0.9056159
422,3764.63,0.8651356
423,3773.3100000000004,0.8794636
424,3782.01,1.107511
425,3790.7200000000003,0.892242
426,3799.46,0.7561712
427,3800.75,1.222928
428,3801.8939600000003,1.2001407135491204
429,3802.4799999999996,1.188467
430,3804.21,1.078156
431,3805.94,1.001585
432,3807.67,1.114956
433,3809.4,1.063453
434,3811.1299999999997,0.9551014
435,3812.87,1.084456
436,3814.6000000000004,0.9976869
437,3816.33,1.018737
438,3818.06,0.9725877
439,3819.79,0.649509
440,3821.52,0.6416826
441,3823.2500000000005,0.8100918
442,3824.98,0.8700601
443,3826.71,0.7508154
444,3828.44,0.7000723
445,3830.17,0.8118404
446,3831.8999999999996,0.5703967
447,3833.63,0.6459292
448,3835.3599999999997,0.6954348
449,3837.09,0.5554842
450,3838.82,0.6263409
451,3840.56,0.7461118
452,3842.29,0.9283568
453,3844.0200000000004,0.9925451
454,3845.75,0.7780759
455,3847.4799999999996,0.9925969
456,3849.21,1.14841
457,3850.94,0.7893309
458,3852.67,0.8211263
459,3854.4,0.7950093
460,3856.1299999999997,0.7746142
461,3857.86,0.7853053
462,3859.59,0.8081786
463,3861.3199999999997,0.6944734
464,3863.05,0.8320919
465,3864.7799999999997,1.016643
466,3866.51,1.058984
467,3868.2499999999995,0.9415105
468,3869.98,0.7666543
469,3871.71,0.7325403
470,3873.44,0.7406564
471,3875.17,0.8304904
472,3876.8999999999996,0.77271
473,3878.63,0.7624743
474,3880.36,0.8854262
475,3882.09,0.9145909
476,3883.82,0.9022453
477,3885.5499999999997,0.8163701
478,3887.28,0.868237
479,3889.0099999999998,0.8708265
480,3890.74,1.052408
481,3892.4700000000003,1.091303
482,3894.2,1.125138
483,3895.9300000000003,0.9852144
484,3897.6699999999996,1.030799
485,3899.4,1.112787
486,3901.1299999999997,0.9929739
487,3902.86,0.9779665
488,3904.59,0.9806257
489,3906.3199999999997,1.216951
490,3908.05,1.231366
491,3909.7799999999997,1.164395
492,3911.51,1.056455
493,3913.2400000000002,1.085985
494,3914.97,1.165113
495,3916.7000000000003,1.203273
496,3918.43,1.073809
497,3920.16,1.036117
498,3921.89,0.9928196
499,3923.62,0.9921575
500,3925.36,0.8670857
501,3927.0899999999997,0.697218
502,3928.82,0.6357423
503,3930.5499999999997,0.4675252
504,3932.28,0.5125401
505,3934.01,0.4278515
506,3935.74,0.4698315
507,3937.4700000000003,0.4715518
508,3939.2,0.4489395
509,3940.9300000000003,0.6652702
510,3942.66,0.6577692
511,3944.39,0.7357863
512,3946.1200000000003,0.8771598
513,3947.85,0.8856366
514,3949.58,1.114355
515,3951.31,1.158603
516,3953.05,1.033582
517,3954.7799999999997,1.106602
518,3956.5099999999998,1.142274
519,3958.2400000000002,1.125969
520,3959.97,0.9734115
521,3961.7000000000003,0.8777808
522,3963.43,0.6746214
523,3965.16,0.6721351
524,3966.8900000000003,0.7022467
525,3968.62,0.5697724
526,3970.3500000000004,0.5638055
527,3972.08,0.6612978
528,3973.81,0.8029968
529,3975.54,0.9858503
530,3977.27,1.003176
531,3978.9999999999995,1.136339
532,3980.74,1.275727
533,3982.4700000000003,1.308214
534,3984.2,1.336865
535,3985.93,1.462688
536,3987.6600000000003,1.495246
537,3989.39,1.509576
538,3991.1200000000003,1.380243
539,3992.85,1.377895
540,3994.58,1.407724
541,3996.31,1.44055
542,3998.04,1.470764
543,3999.7700000000004,1.409029
544,4001.5,1.539925
545,4003.23,1.679946
546,4004.96,1.573927
547,4006.69,1.589292
548,4008.43,1.639433
549,4010.16,1.593451
550,4011.8900000000003,1.519083
551,4013.62,1.648162
552,4015.35,1.761474
553,4017.08,1.625368
554,4018.81,1.627065
555,4020.5400000000004,1.629926
556,4022.27,1.697138
557,4024.0,1.720448
558,4025.73,1.644386
559,4027.46,1.582522
560,4029.19,1.584602
561,4030.92,1.55035
562,4032.6499999999996,1.476234
563,4034.38,1.558685
564,4036.11,1.660152
565,4037.85,1.700907
566,4039.58,1.746107
567,4041.3100000000004,1.719019
568,4043.04,1.629273
569,4044.7699999999995,1.570144
570,4046.5,1.506579
571,4048.23,1.611432
572,4049.96,1.617557
573,4051.69,1.677206
574,4053.4199999999996,1.693491
575,4055.15,1.635917
576,4056.88,1.523386
577,4058.61,1.514793
578,4060.34,1.542922
579,4062.0699999999997,1.506065
580,4063.8,1.494346
581,4065.5400000000004,1.656754
582,4067.27,1.635006
583,4069.0,1.54982
584,4070.73,1.538231
585,4072.46,1.612867
586,4074.1899999999996,1.638131
587,4075.92,1.546179
588,4077.65,1.556334
589,4079.38,1.708337
590,4081.11,1.801859
591,4082.8399999999997,1.755486
592,4084.57,1.745721
593,4086.2999999999997,1.786232
594,4088.03,1.790395
595,4089.76,1.825046
596,4091.49,1.894463
597,4093.23,1.857468
598,4094.9600000000005,1.703648
599,4096.69,1.625755
600,4098.42,1.516351
601,4100.150000000001,1.500977
602,4101.88,1.56363
603,4103.61,1.598409
604,4105.34,1.633312
605,4107.07,1.707557
606,4108.8,1.744942
607,4110.53,1.756008
608,4112.26,1.736345
609,4113.99,1.65233
610,4115.72,1.723058
611,4117.450000000001,1.76383
612,4119.18,1.767732
613,4120.92,1.783097
614,4122.65,1.769417
615,4124.38,1.704817
616,4126.11,1.792739
617,4127.84,1.829725
618,4129.570000000001,1.718757
619,4131.3,1.605046
620,4133.03,1.649854
621,4134.76,1.689193
622,4136.49,1.677075
623,4138.22,1.722926
624,4139.95,1.767996
625,4141.679999999999,1.708859
626,4143.41,1.619902
627,4145.14,1.611302
628,4146.87,1.564286
629,4148.61,1.627452
630,4150.34,1.696088
631,4152.07,1.542659
632,4153.8,1.574053
633,4155.53,1.617942
634,4157.26,1.58877
635,4158.99,1.700779
636,4160.72,1.716543
637,4162.45,1.751974
638,4164.18,1.8365
639,4165.91,1.752754
640,4167.64,1.650245
641,4169.37,1.642824
642,4171.099999999999,1.667314
643,4172.83,1.652331
644,4174.5599999999995,1.655461
645,4176.3,1.612605
646,4178.03,1.555943
647,4179.76,1.569883
648,4181.49,1.66027
649,4183.22,1.686844
650,4184.95,1.637353
651,4186.68,1.721359
652,4188.41,1.749497
653,4190.14,1.718103
654,4191.87,1.756139
655,4193.6,1.713681
656,4195.33,1.649465
657,4197.06,1.637876
658,4198.79,1.695181
659,4200.5199999999995,1.716675
660,4202.25,1.681251
661,4203.99,1.75561
662,4205.72,1.81149
663,4207.45,1.79899
664,4209.18,1.802112
665,4210.91,1.78336
666,4212.64,1.735684
667,4214.37,1.767729
668,4216.099999999999,1.806807
669,4217.83,1.798858
670,4219.56,1.858776
671,4221.29,1.82712
672,4223.02,1.689452
673,4224.75,1.656502
674,4226.4800000000005,1.587206
675,4228.21,1.51388
676,4229.94,1.605838
677,4231.67,1.742205
678,4233.41,1.775543
679,4235.14,1.813962
680,4236.87,1.888989
681,4238.6,1.826864
682,4240.33,1.896542
683,4242.06,1.86203
684,4243.79,1.599315
685,4245.5199999999995,1.570534
686,4247.25,1.621595
687,4248.98,1.58473
688,4250.71,1.684373
689,4252.4400000000005,1.782186
690,4254.17,1.755879
691,4255.900000000001,1.752887
692,4257.63,1.745458
693,4259.36,1.741815
694,4261.09,1.783629
695,4262.83,1.753528
696,4264.56,1.863071
697,4266.29,1.880389
698,4268.02,1.812794
699,4269.75,1.797168
700,4271.4800000000005,1.735296
701,4273.21,1.664053
702,4274.94,1.691669
703,4276.67,1.756268
704,4278.4,1.715764
705,4280.13,1.761738
706,4281.86,1.790005
707,4283.59,1.733221
708,4285.320000000001,1.751972
709,4287.05,1.620294
710,4288.78,1.622244
711,4290.5199999999995,1.680721
712,4292.25,1.56298
713,4293.9800000000005,1.579387
714,4295.71,1.572227
715,4297.4400000000005,1.499812
716,4299.17,1.430646
717,4300.9,1.387537
718,4302.63,1.288349
719,4304.36,1.238532
720,4306.09,1.235669
721,4307.82,1.260504
722,4309.55,1.35693
723,4311.28,1.461777
724,4313.01,1.621074
725,4314.740000000001,1.719284
726,4316.47,1.896808
727,4318.21,1.995923
728,4319.94,1.988494
729,4321.67,1.862547
730,4323.4,1.803549
731,4325.13,1.803024
732,4326.860000000001,1.848484
733,4328.59,1.904625
734,4330.32,1.931582
735,4332.05,1.995667
736,4333.78,2.076417
737,4335.51,2.00257
738,4337.24,1.913093
739,4338.969999999999,1.885605
740,4340.7,1.830644
741,4342.43,1.861118
742,4344.16,1.900066
743,4345.9,1.914519
744,4347.63,1.883385
745,4349.36,1.971827
746,4351.09,2.008822
747,4352.82,2.002435
748,4354.55,2.036434
749,4356.28,1.950856
750,4358.01,1.994493
751,4359.74,2.064961
752,4361.47,2.037473
753,4363.2,2.067565
754,4364.93,2.029397
755,4365.15832,2.0284864915144536
756,4366.66,2.022498
757,4368.389999999999,1.978347
758,4370.12,1.905403
759,4371.849999999999,1.949432
760,4373.58,1.955036
761,4375.32,1.94304
762,4377.05,1.931973
763,4378.78,1.863718
764,4380.51,1.806022
765,4382.24,1.732434
766,4383.97,1.688016
767,4385.7,1.674864
768,4387.43,1.72735
769,4389.16,1.78844
770,4390.89,1.817619
771,4392.62,1.846269
772,4394.35,1.947997
773,4396.08,2.027844
774,4397.8099999999995,1.990587
775,4399.54,1.950214
776,4401.2699999999995,1.904623
777,4403.01,1.853561
778,4404.74,1.965317
779,4406.47,1.997874
780,4408.2,1.940309
781,4409.93,1.970521
782,4411.66,2.008037
783,4413.389999999999,2.039952
784,4415.12,2.075765
785,4416.85,2.100386
786,4418.58,2.129957
787,4420.31,2.154699
788,4422.04,2.160434
789,4423.77,2.116144
790,4425.5,2.080721
791,4427.23,2.135951
792,4428.96,2.088405
793,4430.7,1.995141
794,4432.43,2.103763
795,4434.16,2.129948
796,4435.89,2.108982
797,4437.62,2.191684
798,4439.35,2.211096
799,4441.08,2.203936
800,4442.8099999999995,2.220602
801,4444.54,2.261505
802,4446.2699999999995,2.241051
803,4448.0,2.247177
804,4449.7300000000005,2.280785
805,4451.46,2.257074
806,4453.1900000000005,2.172808
807,4454.92,2.148447
808,4456.65,2.120577
809,4458.389999999999,2.027054
810,4460.12,2.009075
811,4461.85,2.0096
812,4463.58,2.155994
