,lambda (Angstroms),Total Flux (erg/s/cm^2/Angstrom)
0,100.08,0.006489209822502973
1,101.94,0.007797999665941419
2,104.07,0.00929675497298383
3,104.712855,0.009749107797341141
4,106.00999999999999,0.008987680524245652
5,107.98,0.007831332138936076
6,109.99,0.0066516713573445945
7,114.11,0.004233495329006814
8,118.11999999999999,0.001880019305219325
9,120.22644299999999,0.0006482833120433135
10,120.88,0.0006320464244520676
11,125.12,0.0005194368298291715
12,126.86,0.0004733169744744927
13,128.04,0.00044211949337189443
14,131.02,0.0003629988843161794
15,131.93,0.0003412128399065485
16,134.07,0.0002845513472289552
17,136.88,0.00021401881053547924
18,138.038426,0.00018362623591260623
19,140.07,0.0001835633797544748
20,143.0,0.00023537202317551058
21,147.01000000000002,0.0003717396376527642
22,151.13,0.00038932575945981794
23,155.0,0.00041170852824459894
24,158.489319,0.00043426551682909485
25,158.98,0.0004371850168512777
26,161.94,0.00045503875284645814
27,166.08999999999997,0.000485795238785647
28,169.96,0.0005111293659144808
29,173.12,0.0005334477867742005
30,177.15,0.0005615015617946659
31,180.03000000000003,0.0005840165238440306
32,181.970086,0.0005989643479054181
33,182.11,0.0006003149594872836
34,185.92999999999998,0.0006401173043858046
35,191.14,0.0006915425059358817
36,193.79,0.0007274446527895677
37,197.85,0.0007690800434408754
38,202.0,0.0008164812262494779
39,204.81,0.0008509215702716884
40,208.929613,0.0008691101527576781
41,210.06,0.0008768210175558494
42,215.94,0.000998095292796441
43,219.96,0.0010628997105629678
44,223.01999999999998,0.0010951101793106224
45,227.16,0.0011650788782045084
46,229.8,0.0017230548630064065
47,234.07,0.002840025349788265
48,239.88329199999998,0.003477697030466156
49,240.07,0.0034971965054041293
50,246.23,0.0033492349111182325
51,251.97,0.0035613639709881923
52,257.24,0.003058300334318277
53,260.22,0.003479976835783866
54,263.84000000000003,0.003651971626154816
55,268.75,0.003656469264475635
56,273.74,0.0036531470639096244
57,275.42287,0.0036544948479850913
58,278.83000000000004,0.0036739405775061446
59,284.01,0.0036953210722874582
60,289.96000000000004,0.0035580393568335625
61,296.03000000000003,0.0036447496605637895
62,300.84,0.003640982762860724
63,307.85,0.0036988705501999155
64,316.227766,0.003773999720634199
65,317.94000000000005,0.003781839146500407
66,328.35,0.003762699161965548
67,338.33000000000004,0.003703144134524828
68,347.81,0.003637317964170317
69,356.73,0.003588899993752359
70,363.078055,0.003566144273848354
71,365.88000000000005,0.003565357900248298
72,375.27,0.003524274521643403
73,384.89000000000004,0.0033866562541056927
74,394.77,0.0034455095469048016
75,404.89,0.0034230504338609736
76,414.32,0.003370607987615589
77,416.86938299999997,0.0033527978400202194
78,422.03,0.003313755696424306
79,429.86999999999995,0.003264112410805758
80,440.9,0.00321808513524803
81,451.16999999999996,0.0031458374435002633
82,459.55999999999995,0.003087300090650822
83,470.26,0.00303188205543163
84,478.630092,0.0030014823413540867
85,480.10999999999996,0.002993135272950999
86,490.15999999999997,0.002883203825667119
87,500.42999999999995,0.0028412847218257805
88,506.22,0.002775611896972679
89,512.0799999999999,0.002810245317760387
90,520.4,0.0027595649424965174
91,530.08,0.002667899053968362
92,539.93,0.0025569564762821704
93,549.5408739999999,0.0024895214018890014
94,549.97,0.002486840212694991
95,560.2,0.00247248260192521
96,570.61,0.002452841241405815
97,579.88,0.002372312629300647
98,590.66,0.0023431590609625987
99,600.26,0.00225145007431647
100,610.02,0.002012841754559573
101,619.93,0.00220142081001133
102,630.0,0.0021375805323523185
103,630.957344,0.0021351015985985942
104,640.24,0.0021191475411682483
105,650.64,0.002084246078583553
106,658.17,0.0020401190196159802
107,664.26,0.0020431331631601346
108,675.06,0.0020144076443221817
109,684.45,0.0019365043237769618
110,695.5699999999999,0.001974622759936403
111,705.25,0.001891322398607571
112,716.71,0.0019325467869517432
113,724.43596,0.0019119390075149673
114,726.68,0.0019054698952975261
115,735.09,0.0018883837363841659
116,745.32,0.001872065193496689
117,755.68,0.0018560196231824898
118,764.43,0.00173482216176847
119,775.07,0.0018315302246890222
120,785.85,0.00179790610422695
121,794.9499999999999,0.0018041241843563694
122,804.16,0.0017994755489708699
123,815.3399999999999,0.001788215190272728
124,824.78,0.0018017469679014885
125,831.763771,0.0016908861094027988
126,834.3399999999999,0.0016476608829159823
127,845.94,0.0017592117105743805
128,855.74,0.0017355935649754411
129,865.65,0.0017434402177422276
130,875.6700000000001,0.0017549436688747407
131,885.81,0.0017702147182244092
132,894.01,0.0017759915963967252
133,904.36,0.0017407264426264166
134,914.8299999999999,0.002185879887073264
135,925.42,0.007931831929737268
136,933.99,0.015895551402412483
137,944.8,0.029041909041807937
138,954.992586,0.040310779052516975
139,955.74,0.041137506241387616
140,964.59,0.044575068952083234
141,975.75,0.008146860285570589
142,984.78,0.035195270356483746
143,993.9000000000001,0.03866550660750567
144,1005.4000000000001,0.058574599621403926
145,1014.71,0.057376147252655475
146,1024.1,0.025477707044003706
147,1035.95,0.038748595758324955
148,1045.54,0.0766331059499149
149,1055.21,0.07489350830160153
150,1064.98,0.057107510853408996
151,1074.83,0.06926118556531316
152,1084.78,0.05281660047733818
153,1094.81,0.07285091754945987
154,1096.4782,0.07236455034369035
155,1104.94,0.06989572867747597
156,1115.17,0.06614251094746676
157,1125.49,0.0586919856127947
158,1135.8999999999999,0.07696953267345981
159,1143.78,0.06940419573186914
160,1154.36,0.07435353065039332
161,1165.04,0.07643088489706992
162,1175.8200000000002,0.05100256847189892
163,1183.97,0.07383383871631974
164,1194.92,0.04893114014900781
165,1205.98,0.034354427842663536
166,1214.34,0.02514485367620439
167,1225.58,0.05040547616053444
168,1234.07,0.07747309212067342
169,1245.49,0.0851284693956778
170,1254.12,0.08036962241523013
171,1258.92541,0.0754219909042268
172,1265.73,0.06841824696079385
173,1274.5,0.0901621782931197
174,1286.3,0.09484331573000056
175,1295.21,0.0724668801166623
176,1304.19,0.07147454603049196
177,1316.26,0.09183656935787772
178,1325.3799999999999,0.08750743832604325
179,1334.57,0.07605221882137674
180,1343.82,0.0929016806257113
181,1356.25,0.08954471180710359
182,1365.6499999999999,0.07908705688394088
183,1375.12,0.08338197348794611
184,1384.65,0.08415508140095243
185,1394.25,0.07180547084112669
186,1403.9099999999999,0.07432534159030203
187,1413.6499999999999,0.07728830408481216
188,1423.45,0.07981904788832338
189,1436.6200000000001,0.07945239521406244
190,1443.25,0.08396286985868277
191,1445.43977,0.08499047380039738
192,1446.5700000000002,0.0855208583273033
193,1456.6000000000001,0.0826203019818153
194,1463.32,0.07570818502850728
195,1473.47,0.07605508088028162
196,1483.68,0.07782572783068716
197,1493.97,0.07927082624593425
198,1504.3200000000002,0.07449845575981252
199,1511.26,0.06595255283481884
200,1518.2399999999998,0.07098669064224591
201,1525.25,0.06858067899898859
202,1535.82,0.05892597254118119
203,1546.47,0.06401125754821536
204,1553.6,0.06085391810222039
205,1564.37,0.06284656530651692
206,1575.22,0.06733109397565501
207,1586.14,0.07098732392652948
208,1593.4599999999998,0.07230636795953325
209,1604.5,0.07115476010767008
210,1615.63,0.07131706390375367
211,1626.82,0.06764281879846845
212,1634.33,0.07230730631047094
213,1645.6599999999999,0.07348173376865848
214,1653.26,0.06826773292860773
215,1659.58691,0.0717090473974081
216,1664.72,0.07450161516566928
217,1672.4,0.06595665212218811
218,1676.26,0.07553874827481348
219,1683.99,0.07873169191724715
220,1695.6699999999998,0.07399507374695288
221,1703.49,0.07116139942403327
222,1715.3,0.06734087863711756
223,1723.22,0.06703447768602762
224,1735.16,0.0719861442824905
225,1743.17,0.07051437536604727
226,1755.2599999999998,0.07537553202025465
227,1763.36,0.06939133513845812
228,1775.58,0.07068143917604408
229,1783.7800000000002,0.07248994566607722
230,1796.1399999999999,0.07767001842422472
231,1804.4299999999998,0.07713617694890457
232,1816.94,0.07101063976479657
233,1825.33,0.07283007166130609
234,1833.75,0.0702022875693645
235,1846.46,0.06448256712891587
236,1854.99,0.06537711774598692
237,1863.55,0.06782796237460688
238,1876.47,0.07317321001500054
239,1885.1299999999999,0.06751802801545018
240,1893.83,0.06553186136463168
241,1905.46072,0.06910922079053372
242,1906.96,0.06956990818224375
243,1915.76,0.06705713137576812
244,1924.6,0.06523137767471761
245,1933.48,0.06674716707909222
246,1946.89,0.07118053567286062
247,1955.8700000000001,0.06674313784079798
248,1964.9,0.07367318139051676
249,1973.9699999999998,0.07538396804566064
250,1983.0800000000002,0.07232749780622962
251,1996.83,0.07084295779611145
252,2006.05,0.07265700859659949
253,2015.3,0.07067970422615637
254,2024.6100000000001,0.07315703951385091
255,2033.9499999999998,0.07051371963061427
256,2043.34,0.07365977112915904
257,2052.77,0.0684332757331289
258,2067.0,0.06938232298811209
259,2071.77,0.07623945081005655
260,2076.54,0.07783183863200101
261,2086.13,0.08319874565767132
262,2095.76,0.07854854578876676
263,2105.4300000000003,0.07836803902528729
264,2115.15,0.08055717364358922
265,2124.9100000000003,0.07981865136731625
266,2134.72,0.07483951047282467
267,2144.57,0.07926654268375821
268,2154.47,0.08204555627647313
269,2164.42,0.07799605125096945
270,2174.41,0.07817358933089087
271,2184.44,0.0801758605162374
272,2187.7616199999998,0.08110232941454593
273,2194.53,0.08299226813072523
274,2204.65,0.08092013886994956
275,2214.83,0.07431780785466337
276,2225.05,0.07449100233637017
277,2235.32,0.08242716368931817
278,2245.6400000000003,0.07926699191350742
279,2256.0099999999998,0.07280133700893789
280,2266.42,0.07364533760136134
281,2276.88,0.076759845065026
282,2287.39,0.08224409939993192
283,2292.66,0.07571017362875723
284,2303.25,0.0796469889576491
285,2313.88,0.07438628978353395
286,2324.56,0.06010810748066003
287,2335.29,0.06594037204902732
288,2346.07,0.06130697348863586
289,2356.9,0.0715620017994856
290,2362.33,0.06179321801628286
291,2373.23,0.06564384594687034
292,2384.19,0.05788710212294728
293,2395.19,0.06249122379601721
294,2406.25,0.060972603714576606
295,2417.36,0.06388539050437723
296,2422.9300000000003,0.07369420596064992
297,2434.1099999999997,0.07240172237018827
298,2445.35,0.07816336702521609
299,2456.64,0.07893958855148513
300,2462.3,0.07559164637599201
301,2473.66,0.07208102752199877
302,2485.08,0.06701552691349502
303,2496.5499999999997,0.06332062317623248
304,2502.31,0.07861731474322183
305,2511.88643,0.06397747154823526
306,2513.86,0.060960025814116886
307,2519.65,0.06069898786124076
308,2525.46,0.060304258844624134
309,2537.12,0.06585173868390987
310,2542.97,0.06632958753981223
311,2554.7,0.0799565636560062
312,2566.5,0.07231674604910841
313,2572.41,0.07949103171378925
314,2584.2900000000004,0.07632014985192943
315,2596.2200000000003,0.07327764533071837
316,2602.2000000000003,0.06937132727230744
317,2614.21,0.06706821849613434
318,2626.2799999999997,0.07494260652873974
319,2632.33,0.09073077474723705
320,2644.48,0.10764099852488042
321,2656.69,0.12537484911130228
322,2662.81,0.09649435360670783
323,2675.1000000000004,0.10513876993816765
324,2687.4500000000003,0.11118571307840598
325,2693.65,0.0964468233188495
326,2706.08,0.10703952220412581
327,2712.3199999999997,0.09136484031708834
328,2724.84,0.08592747441553236
329,2737.42,0.09470978532275488
330,2743.7299999999996,0.07107861971262565
331,2756.3900000000003,0.07906497636488613
332,2762.7400000000002,0.08893530862727587
333,2775.5,0.09426737996083386
334,2781.8900000000003,0.0761468300957426
335,2794.74,0.0556194566424683
336,2807.6299999999997,0.06032193106171299
337,2814.11,0.08940763640978945
338,2827.1000000000004,0.10979728551033163
339,2833.6099999999997,0.10734263926279733
340,2846.69,0.09641691357650722
341,2853.25,0.07788309466962168
342,2866.43,0.11364989366462906
343,2873.0299999999997,0.1275516426302625
344,2884.0315,0.1207984927722392
345,2886.2900000000004,0.11941225503486219
346,2892.9500000000003,0.1285835477855557
347,2913.0,0.15654242596144236
348,2933.19,0.14294470398494113
349,2946.73,0.1375705892468616
350,2967.16,0.14555126700912413
351,2987.72,0.14673704462988368
352,3008.4300000000003,0.1506793220873706
353,3029.29,0.1540159993815848
354,3050.29,0.1581556765234112
355,3071.43,0.16466405351284977
356,3092.72,0.16601033033901572
357,3106.9999999999995,0.17639071479545765
358,3128.5299999999997,0.17022629136038728
359,3150.2200000000003,0.1700464677511594
360,3172.05,0.17868894398954369
361,3186.7000000000003,0.1608746280432464
362,3208.7900000000004,0.17499060399862476
363,3231.0299999999997,0.1536758797907304
364,3253.42,0.19102945541956343
365,3268.44,0.21254273907052687
366,3291.1000000000004,0.20845671440546906
367,3306.29,0.20436029787139018
368,3311.31121,0.2044181054201013
369,3321.5499999999997,0.20453577936092932
370,3329.21,0.22127871997448517
371,3336.8799999999997,0.2119052603799647
372,3344.57,0.20717590036929165
373,3352.28,0.19612903994246597
374,3360.0099999999998,0.21812537909948773
375,3367.76,0.21424011784035688
376,3375.52,0.17383675637314974
377,3383.3,0.18210369448979
378,3391.1000000000004,0.21850723219027768
379,3398.92,0.22837696947461275
380,3406.75,0.2171970065508715
381,3414.61,0.21679404300290142
382,3422.48,0.23725707924685496
383,3430.37,0.22152931507465595
384,3438.28,0.22783255048630435
385,3446.2,0.17213958568987642
386,3454.15,0.22182502026921963
387,3462.11,0.1919714546404865
388,3470.09,0.21252548859560083
389,3478.0899999999997,0.18140252213456254
390,3486.11,0.20314865525737166
391,3494.14,0.19499418817210445
392,3502.2,0.2265590204626084
393,3510.27,0.22303945254503602
394,3518.3599999999997,0.20873488421131103
395,3526.47,0.19760921546143345
396,3534.6,0.2248927462954033
397,3542.75,0.24840037671322054
398,3550.92,0.24397970671488517
399,3559.1,0.23526803650847353
400,3567.3100000000004,0.22530466567783297
401,3575.53,0.19498749463911613
402,3583.77,0.1791525231842467
403,3592.0400000000004,0.17596615110514838
404,3600.32,0.24635157881797373
405,3608.6200000000003,0.21076090611464648
406,3616.94,0.21927153299516666
407,3625.27,0.23613955966761055
408,3633.63,0.23034338571582552
409,3641.28,0.23196952653745764
410,3644.04,0.21412256910839944
411,3646.79,0.22211741188741754
412,3649.54,0.17875985466643562
413,3652.2900000000004,0.18810849744545372
414,3655.05,0.2162261400163955
415,3657.7999999999997,0.2503551827954136
416,3660.55,0.23542902557443168
417,3663.2999999999997,0.24641676835344975
418,3666.05,0.22775821113246786
419,3668.81,0.22896145370340965
420,3671.56,0.21595699648242772
421,3674.31,0.2455927392614458
422,3677.06,0.23250138204046392
423,3679.81,0.22147042481948198
424,3682.57,0.21900666739042376
425,3685.32,0.22456311016944186
426,3688.07,0.20083215294845996
427,3690.82,0.24175169572747804
428,3693.5800000000004,0.22251023829841982
429,3696.33,0.2256690810774379
430,3699.08,0.220488123856456
431,3701.83,0.24629636663547408
432,3704.58,0.21472560941449217
433,3707.34,0.21249015198543394
434,3710.0899999999997,0.22950999476445205
435,3712.84,0.23745043754347012
436,3715.5899999999997,0.24649188032248823
437,3718.3500000000004,0.22509742289343
438,3721.1,0.2613386656724481
439,3723.8500000000004,0.2739766084514662
440,3726.6,0.32491875123048425
441,3729.3500000000004,0.32258129400950236
442,3732.11,0.3192635365804441
443,3734.8599999999997,0.25839997935946224
444,3737.61,0.21474622213848032
445,3740.3599999999997,0.2301621649174984
446,3743.11,0.2651776076965165
447,3745.87,0.23887095026745828
448,3748.62,0.21432719304647638
449,3751.37,0.20448153582549444
450,3754.1200000000003,0.21749987860451253
451,3756.88,0.24356522117545432
452,3759.63,0.23677766395447242
453,3762.38,0.26854720673349053
454,3765.1299999999997,0.24737424951250858
455,3767.88,0.24600169229152669
456,3770.6400000000003,0.24358123486246847
457,3773.39,0.2619765776414866
458,3776.14,0.24762392042050463
459,3778.89,0.2794941631995227
460,3781.64,0.2958046059785408
461,3784.4,0.31306474854948263
462,3787.15,0.30787309132850066
463,3789.9,0.30583453410751876
464,3792.65,0.2616397768865369
465,3795.4100000000003,0.24465721945747865
466,3798.16,0.2377989622364967
467,3800.9100000000003,0.23590450501551483
468,3801.8939600000003,0.23949944501727646
469,3803.66,0.24595175545123016
470,3806.41,0.2606801101529212
471,3809.17,0.2968084646898912
472,3811.9199999999996,0.33040751939158225
473,3814.67,0.3083892740932733
474,3817.42,0.30384992879496436
475,3820.17,0.30292598349665545
476,3822.93,0.2692606380336254
477,3825.6800000000003,0.2696686927353164
478,3828.43,0.2483352474370075
479,3831.1800000000003,0.23674440213869855
480,3833.94,0.21270775667566852
481,3836.6899999999996,0.21405901137735958
482,3839.44,0.20517296607905064
483,3842.1899999999996,0.2115476207807417
484,3844.94,0.2528233754824328
485,3847.7,0.28805483001940274
486,3850.4500000000003,0.2952858847210938
487,3853.2,0.30754593942278485
488,3855.9500000000003,0.32059439412447593
489,3858.71,0.30080344866144587
490,3861.46,0.3078986033631369
491,3864.21,0.311894958064828
492,3866.96,0.3363876127665191
493,3869.71,0.3324734674682101
494,3872.4700000000003,0.3311401220051801
495,3875.22,0.31499337670687116
496,3877.9700000000003,0.2937906314085622
497,3880.72,0.2975693861102533
498,3883.47,0.27118534081194434
499,3886.23,0.2654402953489143
500,3888.98,0.24838285005060537
501,3891.73,0.23641960475229643
502,3894.48,0.26064855945398746
503,3897.2400000000002,0.2766640139909574
504,3899.99,0.2960188686926485
505,3902.7400000000002,0.3171951233943396
506,3905.49,0.3213816780960307
507,3908.2400000000002,0.33035263279772176
508,3911.0,0.34432348733469165
509,3913.7499999999995,0.3646299420363827
510,3916.5,0.3447318967380738
511,3919.2500000000005,0.34263905143976486
512,3922.0,0.3357076061414559
513,3924.7599999999998,0.3152098606784259
514,3927.51,0.2953119153801169
515,3930.2599999999998,0.254063870081808
516,3933.01,0.21775772478349908
517,3935.77,0.201840879320469
518,3938.52,0.22463713402216007
519,3941.27,0.2747066887238512
520,3944.0199999999995,0.2978401434255422
521,3946.77,0.3092574981272333
522,3949.53,0.3126541526642032
523,3952.28,0.3436980073658943
524,3955.0299999999997,0.35063016206758535
525,3957.78,0.3426113167692764
526,3960.5299999999997,0.3138242714709675
527,3963.29,0.26770072600793743
528,3966.04,0.2280891807096285
529,3968.79,0.18815673541131955
530,3971.54,0.18295129011301062
531,3974.3,0.2037539446499806
532,3977.0499999999997,0.24896299935167165
533,3979.8,0.3005575540533627
534,3982.55,0.3236367087550538
535,3985.2999999999997,0.34766726345674487
536,3988.06,0.3784103179937148
537,3990.8100000000004,0.37971557269540585
538,3993.56,0.3839565273970969
539,3996.31,0.388007282098788
540,3999.07,0.39137643663575794
541,4001.8199999999997,0.399776491337449
542,4004.57,0.4018700460391401
543,4007.3199999999997,0.39708610074083117
544,4010.07,0.4001854554425222
545,4012.83,0.4113562099794921
546,4015.5800000000004,0.41921256468118323
547,4018.33,0.43092911938287426
548,4021.0800000000004,0.4298421740845653
549,4023.83,0.4189692287862564
550,4026.5899999999997,0.41418318332322634
551,4029.34,0.40847503802491747
552,4032.0899999999997,0.4076055927266085
553,4034.84,0.4115747474282996
554,4037.6,0.4144274019652695
555,4040.35,0.4187499566669606
556,4043.1,0.42231141136865163
557,4045.85,0.4144829660703427
558,4048.6,0.4057031207720338
559,4051.36,0.41431857530900373
560,4054.11,0.4225012300106948
561,4056.86,0.40466928471238583
562,4059.61,0.4085840394140769
563,4062.3599999999997,0.405567094115768
564,4065.12,0.40067244865273793
565,4067.87,0.40388040335442904
566,4070.62,0.4007275580561201
567,4073.37,0.40583851275781113
568,4076.13,0.3962411672947811
569,4078.8799999999997,0.38805932199647214
570,4081.63,0.3997485766981632
571,4084.38,0.4057293313998543
572,4087.13,0.4071704861015453
573,4089.89,0.40366214063851524
574,4092.6400000000003,0.3983345953402064
