,lambda (Angstroms),Total Flux (erg/s/cm^2/Angstrom)
0,102.06,0.015917932994953657
1,103.96000000000001,0.01861768872213054
2,104.712855,0.019687438511432034
3,105.89,0.018291826080126073
4,108.11,0.01565981422576622
5,110.11999999999999,0.013276776478047148
6,113.99,0.008688539628308596
7,118.0,0.003934320080135258
8,120.22644299999999,0.0012946699260003632
9,121.02,0.0012511362202266205
10,124.99,0.0010333458500400717
11,127.02,0.0009219820507501705
12,127.89999999999999,0.0008737061953154501
13,130.88,0.0007102264920024867
14,132.09,0.0006438475202398704
15,133.93,0.0005429072551771815
16,137.05,0.0003717484762405354
17,138.038426,0.0003175247858841114
18,139.92,0.0003138802599665791
19,142.85,0.0003082186963737531
20,146.85,0.00030051449425603843
21,150.96,0.00029257164523388654
22,154.84,0.0002850809500101033
23,158.489319,0.00027803925559594333
24,159.17000000000002,0.00027601830668714194
25,162.13000000000002,0.0002672364588177438
26,165.91000000000003,0.0002560353718088503
27,170.17000000000002,0.00024341083176708143
28,172.93,0.0002352464736780481
29,176.96,0.00022332779519369867
30,179.82999999999998,0.00021485273455546474
31,181.92,0.00020868161832065323
32,181.970086,0.00020853385705607209
33,186.15,0.00021264996844313125
34,190.92999999999998,0.0002173957296807633
35,194.03,0.00022048871078299336
36,198.09,0.00022455030907688167
37,201.78,0.00022828873618856832
38,205.06,0.00023160179017673433
39,208.929613,0.00023550039592950867
40,209.83,0.0002407830438141275
41,216.21,0.00027842692151614466
42,220.23000000000002,0.0003021707909271336
43,222.78,0.0003172506974788802
44,226.92000000000002,0.0003417809506334808
45,230.08,0.0003622655175485864
46,233.81,0.00038836993224584726
47,239.81,0.00042716150842642765
48,239.88329199999998,0.0004275995671054601
49,245.96,0.000399446507062622
50,252.26999999999998,0.00037201264470757255
51,256.96,0.0003483332022439937
52,259.94,0.00033747848466585606
53,264.15999999999997,0.000319760772726346
54,269.07,0.0002982057191663945
55,274.08,0.0002761637178353646
56,275.42287,0.00027027341683232757
57,279.17,0.00029096637779032293
58,283.71,0.00031642147282461675
59,290.32,0.0003515273255727849
60,295.71,0.0003824912210209884
61,301.21,0.00041262478311099207
62,308.23,0.0004524998097058698
63,316.227766,0.000498330051306693
64,318.32,0.0004917736518357101
65,328.0,0.00046113346625604237
66,337.96,0.0004291841814653925
67,348.23,0.0003960228082625838
68,357.16999999999996,0.0003678546963119405
69,363.078055,0.0003496664182728265
70,366.33,0.00036135379082578633
71,374.85999999999996,0.0003914888148497555
72,385.36,0.0004254058519249816
73,395.25,0.00046301583237012286
74,405.39,0.0004994901527456267
75,413.88,0.000529222491580738
76,416.86938299999997,0.000539483276635278
77,421.57,0.0005501180621649954
78,430.40000000000003,0.0005696545767453673
79,441.44000000000005,0.0005962006072059907
80,450.67999999999995,0.0006171702283523818
81,460.11999999999995,0.0006377891283114656
82,469.75000000000006,0.0006600971581426074
83,478.630092,0.0006810550394331541
84,479.59000000000003,0.0006794272989364995
85,489.63,0.0006595652740213391
86,499.89,0.0006426613447753684
87,505.67,0.0006335459764477163
88,511.53,0.0006523422338179514
89,519.84,0.0006397425156859808
90,529.51,0.0006242382344180924
91,540.59,0.000599208743575465
92,549.38,0.0006069190796308178
93,549.5408739999999,0.0006069490692733332
94,559.59,0.0006244189279771654
95,569.99,0.0006397355663458522
96,580.59,0.0006324265246831676
97,590.03,0.0006633849072024372
98,599.61,0.0006672673436997466
99,609.36,0.0006832197671703906
100,620.68,0.0007357556173947689
101,629.32,0.000760611920039524
102,630.957344,0.0007620364318124845
103,639.54,0.0007845949706244148
104,649.9399999999999,0.0008497392877196503
105,657.46,0.0008901786231577437
106,665.0699999999999,0.0009341819111476226
107,674.33,0.0009653164292535729
108,685.2800000000001,0.0009805859563874987
109,694.82,0.001145677026876782
110,704.48,0.0011380812341017796
111,715.9300000000001,0.0013024895976345148
112,724.43596,0.0013602919077962449
113,725.89,0.0013695401732191797
114,734.3,0.001428668828861758
115,744.51,0.001568310029945078
116,754.87,0.0016702883848151266
117,765.3699999999999,0.0017527941498861218
118,774.23,0.0019219589668888854
119,785.0,0.002056119808775992
120,794.0899999999999,0.0021764037282517392
121,805.14,0.0022974713905407392
122,814.46,0.0024118164124894703
123,825.79,0.0026408588951803633
124,831.763771,0.0024398045511368487
125,835.35,0.0023125555624531856
126,845.03,0.002848018959094826
127,854.8100000000001,0.002954236142891855
128,864.71,0.0031901770712753504
129,874.7199999999999,0.003429804265529774
130,884.8499999999999,0.003730242204370664
131,895.1,0.00397152588779802
132,905.46,0.004041872837096305
133,915.9499999999999,0.005870040009696594
134,924.42,0.03712588248175803
135,935.13,0.08246640218610017
136,945.96,0.1597131816350288
137,954.71,0.23017172551112533
138,954.992586,0.23099589369167184
139,965.76,0.2624106406993958
140,974.7,0.04253060138494582
141,985.99,0.22648823698224563
142,995.11,0.2443431320440148
143,1004.3199999999999,0.3645914092938936
144,1015.95,0.35548780760182946
145,1025.35,0.15499074724882844
146,1034.8300000000002,0.25349837106303585
147,1044.41,0.49742167508625396
148,1054.07,0.49283806327668056
149,1063.8300000000002,0.39153693167611775
150,1076.14,0.47395579540532595
151,1086.1,0.3765062242227844
152,1096.15,0.5089887352283525
153,1096.4782,0.5082904550032729
154,1103.75,0.4928158659604177
155,1113.96,0.4783162416603825
156,1124.27,0.4322297554181334
157,1134.67,0.5593048134278918
158,1145.1699999999998,0.5124843094954364
159,1155.77,0.5516350436207672
160,1163.78,0.573650382049437
161,1174.55,0.3969118108730041
162,1185.4199999999998,0.5670677777543573
163,1193.6299999999999,0.39326819229859933
164,1204.68,0.2836551476839677
165,1215.82,0.19361594732134357
166,1224.25,0.3987219255927151
167,1235.58,0.6117777075398846
168,1244.1399999999999,0.6785342052863781
169,1255.66,0.6524713695433413
170,1258.92541,0.61990896789644
171,1264.36,0.5657192863191968
172,1276.06,0.7388472018105737
173,1284.8999999999999,0.7808387912929474
174,1293.81,0.6188546838594576
175,1305.78,0.6174159112467895
176,1314.83,0.7826327099815726
177,1323.95,0.7525753118004922
178,1336.1999999999998,0.6707521515243698
179,1345.46,0.8064093595115623
180,1354.79,0.7862277705828912
181,1364.18,0.7056088842977655
182,1373.63,0.7474259006561854
183,1386.3400000000001,0.7612911606472454
184,1395.95,0.6600389840551201
185,1405.6299999999999,0.6911529105471311
186,1415.37,0.7187478396826877
187,1425.18,0.7422847719023808
188,1435.06,0.7439711072062103
189,1441.6899999999998,0.7880642993179906
190,1445.43977,0.7963273223714072
191,1448.34,0.8027182717751541
192,1455.03,0.7844323191602737
193,1465.1100000000001,0.7270754919019785
194,1475.27,0.7320753676019509
195,1485.4899999999998,0.7491604455206238
196,1495.79,0.7665875263975643
197,1506.16,0.7287278098629888
198,1513.11,0.6510093668624778
199,1516.6,0.7007554959168975
200,1523.6,0.6832531547653036
201,1534.1599999999999,0.5964644452566135
202,1544.79,0.6540125383364073
203,1555.5,0.6231353343744688
204,1566.28,0.6420836330010142
205,1573.51,0.6895765003544395
206,1584.42,0.7270818037881696
207,1595.3999999999999,0.7457106098103837
208,1606.46,0.7354781187908654
209,1613.88,0.7422802931701761
210,1625.0600000000002,0.7072523065880589
211,1636.33,0.7560792233339928
212,1643.88,0.7719211025204881
213,1655.28,0.7187475240736066
214,1659.58691,0.7447812082414106
215,1666.75,0.7880811176992413
216,1670.5900000000001,0.7072557546755779
217,1678.3000000000002,0.7990239367296287
218,1686.05,0.8328237295855163
219,1693.8300000000002,0.7862613305427816
220,1705.57,0.759591900881894
221,1713.45,0.7237362288437514
222,1725.32,0.7220886342888334
223,1733.2900000000002,0.7737036865548237
224,1745.3,0.7596006298063348
225,1753.36,0.8120263063764579
226,1765.5100000000002,0.7508914874343979
227,1773.6599999999999,0.770151488308654
228,1785.96,0.7881080098734822
229,1794.2,0.842525135051871
230,1806.6399999999999,0.8386401944231281
231,1814.97,0.7772975439056499
232,1823.35,0.7990690068904678
233,1835.99,0.771967420270909
234,1844.47,0.7122023102603191
235,1852.98,0.7188014083511066
236,1865.82,0.7440369757407321
237,1874.44,0.804615903536571
238,1883.0900000000001,0.7440375394337876
239,1896.14,0.7171603635330565
240,1904.8899999999999,0.763139526434865
241,1905.46072,0.7614594289918363
242,1913.69,0.7372288160073208
243,1926.95,0.7254420003047926
244,1935.8500000000001,0.750907802284242
245,1944.7800000000002,0.7863028938209257
246,1953.76,0.7372178679529994
247,1967.3,0.8101746547846562
248,1976.38,0.8347996941075103
249,1985.5,0.7917543195066765
250,1994.67,0.7737229275012327
251,2003.8700000000001,0.7990526250530233
252,2013.12,0.7754813052002039
253,2027.08,0.8138935458331382
254,2036.4299999999998,0.7737111911710991
255,2045.83,0.8045783191044502
256,2055.2799999999997,0.7630820296331915
257,2064.7599999999998,0.773704029719167
258,2074.3,0.8347629089196105
259,2079.08,0.7971889450389102
260,2083.87,0.8271083776772882
261,2093.4900000000002,0.786245829030356
262,2103.15,0.795349066459736
263,2112.86,0.8064198864845061
264,2122.61,0.8195091925855884
265,2137.33,0.7701062686684531
266,2147.19,0.7880633364793938
267,2157.1,0.8194972868857245
268,2167.06,0.7971618198874456
269,2177.06,0.7934898389654786
270,2187.1099999999997,0.782612940638902
271,2187.7616199999998,0.7849942396083258
272,2197.2,0.8194920332609774
273,2207.35,0.8008230502037168
274,2217.54,0.7665668782477084
275,2222.65,0.7474101964326738
276,2232.91,0.7953308439038568
277,2243.21,0.7665777024762919
278,2253.57,0.7388470777006051
279,2263.97,0.7560716640261707
280,2274.42,0.7754413642283015
281,2284.92,0.7953467783069975
282,2295.46,0.7526265034869456
283,2306.06,0.759576045318772
284,2316.7,0.7287450982518506
285,2327.4,0.5923803678368075
286,2332.76,0.686410855404599
287,2343.53,0.6692624444167471
288,2354.35,0.7187662473054605
289,2365.21,0.667723061295426
290,2376.13,0.6864199919372699
291,2387.1,0.6435907364556789
292,2392.6,0.681699162877853
293,2403.65,0.6585865295987663
294,2414.74,0.6739063074209319
295,2425.89,0.7105657018949758
296,2437.08,0.6864400074702717
297,2442.7,0.7221075671962024
298,2453.98,0.7138523977493157
299,2465.3,0.7105833394036813
300,2476.68,0.6880384977099252
301,2482.39,0.7008484824136731
302,2493.85,0.6525828629224213
303,2505.3599999999997,0.7321833573077347
304,2511.14,0.660135261438674
305,2511.88643,0.6625189136958479
306,2516.93,0.6786231268568198
307,2522.7300000000005,0.6555841038676741
308,2534.3700000000003,0.6647216535929057
309,2546.07,0.655582996873422
310,2557.82,0.6992252347833423
311,2563.72,0.6833126010530044
312,2575.5499999999997,0.718804230369971
313,2587.4399999999996,0.7122400532422222
314,2593.41,0.7040888119930497
315,2605.38,0.6833056262723474
316,2617.3999999999996,0.6755107351810486
317,2623.44,0.7024644864130418
318,2635.5499999999997,0.7238063856546703
319,2647.7099999999996,0.7773303795257026
320,2653.81,0.7935932243129804
321,2666.06,0.7288171085169398
322,2672.21,0.7578869479336214
323,2684.5400000000004,0.7596516235446272
324,2696.94,0.7254583916367984
325,2703.15,0.7457834246087648
326,2715.63,0.7122246841079822
327,2721.8900000000003,0.7106040117093525
328,2734.45,0.7406630626156162
329,2747.08,0.6585917060030454
330,2753.41,0.6723884260855812
331,2766.1200000000003,0.6960251608800567
332,2772.4900000000002,0.7237931766661155
333,2785.2900000000004,0.6880505017935181
334,2798.1499999999996,0.5776167204762053
335,2804.6,0.6132518276693105
336,2817.54,0.718816137759044
337,2824.04,0.750953339581553
338,2837.0699999999997,0.7254459400042135
339,2843.6099999999997,0.7089697375302457
340,2856.74,0.6833156272117141
341,2863.3199999999997,0.7457644204412696
342,2876.5400000000004,0.7474932004556648
343,2883.17,0.7440709883146241
344,2884.0315,0.7440706239310193
345,2896.48,0.7440666684148466
346,2909.85,0.7991063390247899
347,2930.02,0.7719750946869106
348,2950.33,0.7613898500412821
349,2970.78,0.7737773050879044
350,2991.37,0.7737747598267773
351,3012.11,0.7809336142359188
352,3032.99,0.7827340683373111
353,3046.99,0.7845352375623826
354,3068.11,0.7881686911362046
355,3089.3700000000003,0.7918063444022775
356,3110.79,0.7936034973166367
357,3132.35,0.7827385499232468
358,3146.81,0.786336318137142
359,3168.62,0.7899706701941998
360,3190.5899999999997,0.754436821899544
361,3212.7,0.779137473297139
362,3227.53,0.7475266406976967
363,3249.9,0.7899726915237574
364,3272.43,0.8158657419981045
365,3287.54,0.8102561087831638
366,3310.3300000000004,0.8065156586859765
367,3311.31121,0.8071167135178728
368,3325.6000000000004,0.8158689560956592
369,3333.27,0.8291291337923521
370,3340.95,0.790005611068832
371,3348.66,0.8445097870846732
372,3356.3700000000003,0.8121250631005144
373,3364.11,0.7441007378557168
374,3371.8700000000003,0.7509793117704934
375,3379.64,0.815860985265057
376,3387.4300000000003,0.8215091579191949
377,3395.24,0.8046781297329069
378,3403.07,0.8348774007061931
379,3410.91,0.7845686712592663
380,3418.78,0.7936294405517008
381,3426.6600000000003,0.8158596094239223
382,3434.55,0.8484271778759309
383,3442.4700000000003,0.791833145067301
384,3450.41,0.810247711418245
385,3458.3599999999997,0.7991361773489761
386,3466.34,0.7899958420190686
387,3474.33,0.8196297062689482
388,3482.33,0.7918342700986146
389,3490.36,0.8234086326676425
390,3498.4100000000003,0.7755639943962445
391,3506.47,0.8177622557046336
392,3514.56,0.7845591157523838
393,3522.6600000000003,0.8234055753799213
394,3530.78,0.7845617341670329
395,3538.9199999999996,0.8291189921137185
396,3547.0800000000004,0.8406570492199785
397,3555.25,0.8387177059060256
398,3563.4500000000003,0.8272167613314338
399,3571.66,0.7845619163366291
400,3579.8999999999996,0.7720330700811857
401,3588.15,0.7138895234055294
402,3596.42,0.7827596758894472
403,3604.71,0.8177593275329391
404,3613.02,0.7684709783360053
405,3621.35,0.7773578282986455
406,3629.7000000000003,0.8884241774208601
407,3635.76,0.9239211227718326
408,3638.48,0.8901200084739191
409,3641.2,0.8887780941760058
410,3643.92,0.8333848798780925
411,3646.63,0.828307666000392
412,3649.35,0.8282005517024786
413,3652.07,0.8324332374045653
414,3654.79,0.8329966231066519
415,3657.5099999999998,0.9191177088087386
416,3660.2200000000003,0.903456394931038
417,3662.94,0.8571303806331247
418,3665.66,0.8826378663352114
419,3668.38,0.903382152037298
420,3671.09,0.8543089381595976
421,3673.81,0.8520497238616842
422,3676.53,0.8342666095637709
423,3679.25,0.8236809952658575
424,3681.96,0.834374781388157
425,3684.6800000000003,0.7872725670902437
426,3687.4,0.7929165527923303
427,3690.12,0.809568238494417
428,3692.84,0.8586085241965036
429,3695.55,0.8790401103188031
430,3698.27,0.8398409960208898
431,3700.9900000000002,0.8654189817229765
432,3703.71,0.870992367425063
433,3706.42,0.8264350535473626
434,3709.1400000000003,0.8164492392494492
435,3711.86,0.8251978249515359
436,3714.58,0.8950189106536225
437,3717.29,0.915062596775922
438,3720.01,1.0125445824780088
439,3722.73,1.2672064681800954
440,3725.4500000000003,1.6389663538821821
441,3728.17,1.7674952395842687
442,3730.8799999999997,1.6251761257065682
443,3733.6000000000004,1.2456490114086547
444,3736.32,1.0023098971107414
445,3739.04,0.901403682812828
446,3741.75,0.8852481689351277
447,3744.47,0.8987598546372143
448,3747.19,0.855926940339301
449,3749.9100000000003,0.8423070260413875
450,3752.63,0.8590646117434741
451,3755.3399999999997,0.8608319978657738
452,3758.06,0.9283952835678604
453,3760.78,0.9736602692699471
454,3763.5,1.0130327549720335
455,3766.21,0.9560925410943332
456,3768.93,0.9428254267964198
457,3771.6499999999996,0.8980871124985065
458,3774.3700000000003,0.9804327982005931
459,3777.08,1.0586911843228928
460,3779.7999999999997,1.0708620700249794
461,3782.52,1.144810955727066
462,3785.2400000000002,1.1988258414291526
463,3787.96,1.2253917271312391
464,3790.67,1.0596786132535387
465,3793.39,0.9845269989556253
466,3796.1099999999997,0.904895084657712
467,3798.8300000000004,0.9139610703597987
468,3801.54,1.0163171564820983
469,3801.8939600000003,1.0235895881523678
470,3804.2599999999998,1.072202062900371
471,3806.98,1.111644972417789
472,3809.7,1.216218881935207
473,3812.41,1.2078967917852814
474,3815.13,1.2008747013026995
475,3817.85,1.1467156108201175
476,3820.5699999999997,1.1394105203375355
477,3823.29,1.1534154298549533
478,3826.0,1.1234663397050277
479,3828.72,1.0405882492224459
480,3831.44,0.9530533587398639
481,3834.16,0.9345293682572818
482,3836.87,0.9043670781073564
483,3839.59,0.9352020876247743
484,3842.31,1.0104917971421923
485,3845.0299999999997,1.1154177066596103
486,3847.7400000000002,1.1236076165096847
487,3850.46,1.1960045260271028
488,3853.18,1.2488194355445208
489,3855.9,1.1906033450619387
490,3858.62,1.2524502545793568
491,3861.33,1.2622281644294313
492,3864.05,1.2816670739468492
493,3866.77,1.253827983464267
494,3869.49,1.2681158929816851
495,3872.2000000000003,1.2783518028317595
496,3874.92,1.1878887123491775
497,3877.64,1.1645656218665954
498,3880.36,1.1334455313840135
499,3883.08,1.0932234409014314
500,3885.79,1.061403350751506
501,3888.51,1.024886260268924
502,3891.23,1.004880169786342
503,3893.95,1.03222207930376
504,3896.6600000000003,1.0374829891538344
505,3899.38,1.1230398986712522
506,3902.1,1.1912728081886703
507,3904.82,1.1752887177060882
508,3907.53,1.2557006275561629
509,3910.25,1.2805015370735806
510,3912.9700000000003,1.283851446590999
511,3915.69,1.2999383561084168
512,3918.41,1.2836372656258346
513,3921.1200000000003,1.2442321754759091
514,3923.84,1.2330110849933273
515,3926.56,1.1975159945107452
516,3929.28,1.068877904028163
517,3931.9900000000002,0.9934854138782376
518,3934.71,0.9565796233956556
519,3937.4300000000003,1.0357506329130737
520,3940.15,1.1380305424304915
521,3942.86,1.227614452280566
522,3945.5800000000004,1.251358361797984
523,3948.3,1.216180271315402
524,3951.02,1.25890518083282
525,3953.7400000000002,1.242145090350238
526,3956.4500000000003,1.1763850002003124
527,3959.17,1.1335869097177305
528,3961.8900000000003,1.0678198192351482
529,3964.61,0.9763689287525663
530,3967.3199999999997,0.889085738602641
531,3970.0400000000004,0.8832632481200589
532,3972.76,0.9222483576374768
533,3975.48,0.9474734671548948
534,3978.2000000000003,1.0558222766723127
535,3980.91,1.1679161865223873
536,3983.63,1.2317740960398051
537,3986.3500000000004,1.2494840055572232
538,3989.07,1.2885039150746411
539,3991.7799999999997,1.3137708249247158
540,3994.5000000000005,1.3807687344421335
541,3997.2200000000003,1.4147436439595518
542,3999.94,1.3684875534769696
543,4002.6499999999996,1.363623463327044
544,4005.37,1.371948372844462
545,4008.09,1.38207228236188
546,4010.8100000000004,1.416047191879298
547,4013.53,1.4398601013967158
548,4016.24,1.4282580112467906
549,4018.9599999999996,1.4334779207642085
550,4021.6800000000003,1.4591258302816263
551,4024.4,1.3799527397990443
552,4027.1099999999997,1.468408649649119
553,4029.83,1.450201559166537
554,4032.5499999999997,1.3854584686839548
555,4035.2700000000004,1.4571483782013728
556,4037.98,1.4715842880514474
557,4040.7,1.4561651975688654
558,4043.4199999999996,1.4424741070862832
559,4046.14,1.462971016603701
560,4048.86,1.4351669261211193
561,4051.5699999999997,1.4043008359711937
562,4054.29,1.4420507454886118
563,4057.0099999999998,1.4215856550060295
564,4059.7299999999996,1.4230655645234478
565,4062.44,1.3765344743735222
566,4065.16,1.40694538389094
567,4067.8799999999997,1.348094293408358
568,4070.6,1.438978202925776
569,4073.31,1.3479561127758506
570,4076.0299999999997,1.3758270222932685
571,4078.75,1.3560329318106865
572,4081.47,1.3475278413281044
573,4084.1899999999996,1.3257937508455224
574,4086.9,1.336453660695597
575,4089.62,1.305862570213015
576,4092.3399999999997,1.255655479730433
577,4095.06,1.2255233892478508
578,4097.77,1.2680422990979254
579,4100.49,1.2072152086153434
580,4103.21,1.2516331181327613
581,4105.93,1.1848440276501793
