,lambda (Angstroms),Total Flux (erg/s/cm^2/Angstrom)
0,102.00000000000001,1.552703e-10
1,103.9,1.888016e-10
2,104.712855,2.0722973130160556e-10
3,106.08,2.382241e-10
4,108.05,3.012901e-10
5,110.06,4.786043e-10
6,113.93,7.127946e-10
7,117.92999999999999,1.00004e-09
8,120.22644299999999,2.412795004545026e-09
9,120.95,2.857922e-09
10,124.92,4.008392e-09
11,126.95,4.698539e-09
12,128.12,5.104727e-09
13,131.1,6.369171e-09
14,132.01,7.312346e-09
15,133.85,8.414779e-09
16,136.97,1.096454e-08
17,138.038426,1.178959597354858e-08
18,140.16,1.342791e-08
19,143.09,2.280521e-08
20,147.10000000000002,3.732709e-08
21,150.88,4.74263e-08
22,155.1,6.012708e-08
23,158.489319,7.338103749713068e-08
24,159.07999999999998,7.56909e-08
25,162.04,8.953949e-08
26,165.80999999999997,1.109215e-07
27,170.07000000000002,1.355152e-07
28,172.82999999999998,1.574031e-07
29,176.86,1.901099e-07
30,180.14,2.177777e-07
31,181.81,2.387926e-07
32,181.970086,2.40516288248868e-07
33,186.05,2.844458e-07
34,190.82,3.491552e-07
35,193.92,3.944452e-07
36,197.98,4.613409e-07
37,202.12,5.370863e-07
38,204.93999999999997,5.983854e-07
39,208.929613,6.718785550250857e-07
40,210.19,6.950963e-07
41,216.07999999999998,8.729977e-07
42,220.1,9.954456e-07
43,223.16,1.089025e-06
44,226.79000000000002,1.235939e-06
45,229.94,1.968061e-06
46,234.21999999999997,3.318867e-06
47,239.88329199999998,4.508708629904824e-06
48,240.23,4.581551e-06
49,245.82,4.943233e-06
50,252.13,5.688712e-06
51,256.81,5.140909e-06
52,259.78999999999996,6.281104e-06
53,264.01,6.96632e-06
54,268.92,7.481911e-06
55,273.92,8.016694e-06
56,275.42287,8.1686111267721e-06
57,279.01,8.531215e-06
58,284.2,9.120284e-06
59,290.15,9.440728e-06
60,296.21999999999997,1.03041e-05
61,301.03999999999996,1.042338e-05
62,308.05,1.148171e-05
63,316.227766,1.2714250896382548e-05
64,318.14000000000004,1.300246e-05
65,327.81,1.425627e-05
66,337.77000000000004,1.541797e-05
67,348.03000000000003,1.655876e-05
68,356.96,1.774246e-05
69,363.078055,1.8619004960736902e-05
70,366.12,1.905483e-05
71,374.64,2.013826e-05
72,385.14,2.075032e-05
73,395.02000000000004,2.25432e-05
74,405.15000000000003,2.398953e-05
75,413.64,2.50617e-05
76,416.86938299999997,2.536789846133141e-05
77,422.29999999999995,2.588281e-05
78,430.15,2.673065e-05
79,441.17999999999995,2.844603e-05
80,451.46,2.978601e-05
81,459.84999999999997,3.083311e-05
82,469.47999999999996,3.236022e-05
83,478.630092,3.389832202798537e-05
84,480.42,3.41992e-05
85,490.48,3.572747e-05
86,499.59999999999997,3.819495e-05
87,506.55,6.081531e-05
88,512.41,0.0001655832
89,519.54,0.0001702256
90,530.42,0.0001766062
91,540.28,0.0001717957
92,549.5408739999999,0.00021742683671199944
93,550.33,0.0002213151
94,560.5600000000001,0.000266078
95,569.6600000000001,0.0002992461
96,580.26,0.0002937737
97,589.68,0.0003467567
98,600.65,0.0003540093
99,610.41,0.0004130551
100,620.3199999999999,0.0004830764
101,630.4,0.0005188341
102,630.957344,0.0005202982889067709
103,640.65,0.0005457617
104,649.56,0.0006067422
105,658.6,0.0006382974
106,664.69,0.0006918623
107,675.49,0.0007328539
108,684.89,0.0007328505
109,694.4200000000001,0.0008953845
110,705.6999999999999,0.000868974
111,715.5200000000001,0.00105682
112,724.43596,0.0011106571651015075
113,725.47,0.001116901
114,735.56,0.001177692
115,745.7900000000001,0.001300238
116,754.43,0.001386795
117,764.9300000000001,0.001472349
118,775.57,0.001606994
119,784.55,0.001745897
120,795.46,0.001845076
121,804.67,0.001945467
122,815.8700000000001,0.002046466
123,825.31,0.002233655
124,831.763771,0.0021009705988529284
125,834.87,0.002037109
126,844.54,0.002443498
127,854.3199999999999,0.002570454
128,864.2099999999999,0.00276702
129,874.22,0.00295809
130,884.34,0.003184278
131,894.5799999999999,0.003373025
132,904.94,0.003491479
133,915.42,0.005012002
134,926.02,0.02884109
135,934.59,0.06152056
136,945.41,0.1207838
137,954.16,0.1663454
138,954.992586,0.16930576359625
139,965.1999999999999,0.2055995
140,974.14,0.05296776
141,985.4200000000001,0.2264704
142,994.53,0.2259524
143,1006.05,0.2760681
144,1015.36,0.2460449
145,1024.75,0.09954581
146,1034.23,0.1981624
147,1043.8,0.3334414
148,1055.89,0.3380804
149,1065.6599999999999,0.2978634
150,1075.52,0.3372993
151,1085.47,0.2964943
152,1095.52,0.3499567
153,1096.4782,0.34905480016189533
154,1105.6499999999999,0.3404219
155,1115.88,0.339643
156,1126.21,0.3176977
157,1134.02,0.3622528
158,1144.51,0.3388573
159,1155.1,0.3523832
160,1165.79,0.3639303
161,1173.8700000000001,0.2897439
162,1184.73,0.3499566
163,1195.69,0.2747988
164,1203.98,0.2162823
165,1215.12,0.1091479
166,1226.36,0.2366028
167,1234.86,0.3349782
168,1246.29,0.369839
169,1254.9299999999998,0.3698404
170,1258.92541,0.3548952244631031
171,1263.63,0.3372973
172,1275.3200000000002,0.3972035
173,1284.16,0.4111656
174,1296.04,0.3681432
175,1305.03,0.3647642
176,1314.07,0.4140203
177,1326.23,0.4045901
178,1335.4199999999998,0.382842
179,1344.68,0.4178452
180,1354.0,0.4121119
181,1366.53,0.3899533
182,1376.0,0.399962
183,1385.5400000000002,0.4064593
184,1395.14,0.372407
185,1404.82,0.3828356
186,1414.55,0.3944717
187,1424.3600000000001,0.3953827
188,1434.23,0.3953859
189,1440.85,0.4092726
190,1445.43977,0.41123467491067667
191,1447.5,0.4121154
192,1454.1799999999998,0.4073992
193,1464.26,0.3917559
194,1474.4099999999999,0.3899571
195,1484.63,0.3917548
196,1494.92,0.3953838
197,1505.29,0.3854877
198,1512.23,0.3622587
199,1515.72,0.3767177
200,1526.23,0.3698397
201,1533.27,0.3419939
202,1543.9,0.3589338
203,1554.6,0.3451557
204,1565.38,0.3499558
205,1576.23,0.3672907
206,1583.5,0.3758537
207,1594.48,0.3846098
208,1605.53,0.3724085
209,1616.66,0.372408
210,1624.1200000000001,0.3614242
211,1635.3799999999999,0.3749889
212,1646.72,0.3767178
213,1654.32,0.3581089
214,1659.58691,0.3694622365019181
215,1665.79,0.3828336
216,1673.48,0.3572797
217,1677.33,0.381959
218,1685.08,0.389953
219,1696.76,0.375848
220,1704.59,0.3664506
221,1716.3999999999999,0.3581125
222,1724.33,0.3556414
223,1736.28,0.3706899
224,1744.29,0.363093
225,1756.3799999999999,0.3775884
226,1764.49,0.3548284
227,1776.72,0.3656099
228,1784.92,0.3681393
229,1793.16,0.3793274
230,1805.59,0.3775881
231,1813.92,0.3639329
232,1826.5,0.3656085
233,1834.9299999999998,0.3589336
234,1843.4,0.3396382
235,1856.18,0.3412056
236,1864.74,0.3467466
237,1873.35,0.3605921
238,1886.34,0.3427799
239,1895.04,0.3326699
240,1903.79,0.345952
241,1905.46072,0.34495533957818175
242,1916.99,0.3380776
243,1925.8400000000001,0.3334378
244,1934.73,0.3396375
245,1943.65,0.3515733
246,1957.1299999999999,0.3349777
247,1966.16,0.3515719
248,1975.24,0.3581112
249,1984.35,0.3451545
250,1993.51,0.3380774
251,2002.71,0.34278
252,2016.6000000000001,0.3380751
253,2025.9099999999999,0.3459481
254,2035.2600000000002,0.3365251
255,2044.65,0.341207
256,2054.09,0.3266009
257,2063.57,0.3319067
258,2073.1,0.3467447
259,2077.87,0.3373031
260,2082.66,0.3427801
261,2097.1,0.3311425
262,2106.78,0.3349768
263,2116.5,0.33575
264,2126.27,0.3396399
265,2136.09,0.3258449
266,2145.9500000000003,0.329618
267,2155.85,0.3349768
268,2165.7999999999997,0.3273536
269,2175.8,0.3258454
270,2185.84,0.3236045
271,2187.7616199999998,0.32533131077324046
272,2195.9300000000003,0.3326716
273,2206.07,0.3258465
274,2216.25,0.3169697
275,2226.48,0.3111845
276,2236.76,0.3236016
277,2247.08,0.3147883
278,2257.46,0.3083256
279,2262.66,0.3104696
280,2273.1,0.315513
281,2283.6,0.3191634
282,2294.14,0.3076582
283,2304.73,0.3091323
284,2315.36,0.3028498
285,2326.05,0.2668715
286,2336.79,0.2940256
287,2347.5699999999997,0.2847547
288,2352.9900000000002,0.2975111
289,2363.85,0.2841741
290,2374.7599999999998,0.2895161
291,2385.7200000000003,0.2758998
292,2396.73,0.2856525
293,2402.2599999999998,0.2791718
294,2413.34,0.2811625
295,2424.48,0.2897612
296,2435.67,0.2819229
297,2446.92,0.2898771
298,2452.56,0.2872439
299,2463.88,0.2846662
300,2475.25,0.2788846
301,2486.68,0.2834701
302,2492.41,0.2713653
303,2503.91,0.2894931
304,2511.88643,0.2779234814857268
305,2515.4700000000003,0.2727256
306,2527.08,0.2690366
307,2532.91,0.2690616
308,2544.6000000000004,0.2678807
309,2556.3399999999997,0.2779926
310,2562.2400000000002,0.2742003
311,2574.0600000000004,0.2825923
312,2585.94,0.2813555
313,2597.88,0.2788279
314,2603.87,0.2725112
315,2615.8900000000003,0.2700669
316,2627.9599999999996,0.2757799
317,2634.0200000000004,0.2790057
318,2646.1800000000003,0.293559
319,2652.28,0.2956303
320,2664.5200000000004,0.2823849
321,2676.8199999999997,0.2876919
322,2682.9900000000002,0.2890507
323,2695.38,0.2799377
324,2707.82,0.2832406
325,2714.06,0.2742877
326,2726.5899999999997,0.2724545
327,2732.87,0.2801211
328,2745.49,0.2596817
329,2758.16,0.262746
330,2764.52,0.2688936
331,2777.2799999999997,0.2752146
332,2783.68,0.2671291
333,2796.5299999999997,0.2337885
334,2802.98,0.2448317
335,2815.91,0.2728774
336,2822.4,0.2773426
337,2835.43,0.2717112
338,2841.97,0.2661702
339,2855.09,0.2601683
340,2868.26,0.2731214
341,2874.88,0.2737797
342,2884.0315,0.2738212851883949
343,2888.15,0.27384
344,2894.8,0.2732439
345,2908.17,0.2848689
346,2928.33,0.2778424
347,2948.6200000000003,0.2741255
348,2969.06,0.2754897
349,2989.64,0.2749533
350,3010.37,0.2763153
351,3031.2299999999996,0.2757786
352,3052.24,0.2758809
353,3073.4,0.2740806
354,3087.59,0.2741451
355,3108.99,0.2736128
356,3130.54,0.2699605
357,3152.2400000000002,0.269438
358,3166.79,0.270128
359,3188.74,0.2622595
360,3210.8399999999997,0.2672359
361,3233.1,0.260047
362,3248.02,0.2692559
363,3270.54,0.274369
364,3293.2099999999996,0.2725826
365,3308.41,0.2707776
366,3311.31121,0.27055483191060903
367,3323.68,0.2696051
368,3331.3399999999997,0.2702607
369,3339.02,0.2557665
370,3346.7200000000003,0.2690881
371,3354.43,0.2587944
372,3362.17,0.2546899
373,3369.92,0.250073
374,3377.6800000000003,0.2466751
375,3385.47,0.2613258
376,3393.28,0.2674485
377,3401.1000000000004,0.2730843
378,3408.9399999999996,0.2560651
379,3416.7999999999997,0.2632735
380,3424.67,0.2750848
381,3432.5699999999997,0.2776715
382,3440.48,0.2713854
383,3448.4100000000003,0.2550611
384,3456.36,0.2533408
385,3464.33,0.2510523
386,3472.3199999999997,0.2641301
387,3480.32,0.2546138
388,3488.3399999999997,0.259977
389,3496.38,0.2600119
390,3504.4399999999996,0.260652
391,3512.52,0.2582974
392,3520.62,0.2661803
393,3528.7400000000002,0.2524823
394,3536.87,0.2638113
395,3545.02,0.2718681
396,3553.2000000000003,0.2737901
397,3561.39,0.2688279
398,3569.6,0.2544108
399,3577.8300000000004,0.2509553
400,3586.07,0.2391421
401,3594.3399999999997,0.2527627
402,3602.63,0.2690161
403,3607.45,0.2998864
404,3610.18,0.250333
405,3612.92,0.2188689
406,3615.65,0.2755008
407,3618.3900000000003,0.2796092
408,3621.12,0.2765407
409,3623.8599999999997,0.2680983
410,3626.59,0.2818371
411,3629.33,0.2631165
412,3632.06,0.2747398
413,3634.8,0.2593066
414,3637.5299999999997,0.236458
415,3640.27,0.2647399
416,3643.0,0.2840489
417,3645.7400000000002,0.2730852
418,3648.47,0.2695449
419,3651.2099999999996,0.2707312
420,3653.94,0.2771799
421,3656.68,0.2727808
422,3659.4100000000003,0.3002271
423,3662.15,0.2644203
424,3664.8799999999997,0.2621026
425,3667.62,0.2772501
426,3670.35,0.2861187
427,3673.09,0.2817195
428,3675.82,0.2960366
429,3678.56,0.2565468
430,3681.29,0.2437936
431,3684.0299999999997,0.252747
432,3686.76,0.2706812
433,3689.5,0.2851895
434,3692.23,0.2681344
435,3694.9700000000003,0.255177
436,3697.7,0.25811
437,3700.44,0.2809484
438,3703.17,0.2858599
439,3705.91,0.2742011
440,3708.6400000000003,0.2866259
441,3711.38,0.2575309
442,3714.11,0.2639389
443,3716.85,0.2741098
444,3719.58,0.2894719
445,3722.32,0.3318163
446,3725.0499999999997,0.4653112
447,3727.7900000000004,0.7577183
448,3730.52,1.210648
449,3733.2599999999998,1.350561
450,3735.9900000000002,1.055715
451,3738.73,0.6299776
452,3741.4599999999996,0.3787435
453,3744.2,0.32548
454,3746.93,0.3249989
455,3749.67,0.2968677
456,3752.4,0.2697831
457,3755.1400000000003,0.272948
458,3757.87,0.2890406
459,3760.6099999999997,0.3209242
460,3763.34,0.315644
461,3766.08,0.3297058
462,3768.8100000000004,0.3319439
463,3771.55,0.3074298
464,3774.2799999999997,0.3109412
465,3777.02,0.3180833
466,3779.75,0.3310814
467,3782.4900000000002,0.3510585
468,3785.2200000000003,0.3892904
469,3787.96,0.4090947
470,3790.69,0.3843187
471,3793.43,0.3686672
472,3796.1600000000003,0.3343841
473,3798.9,0.3096061
474,3801.6299999999997,0.2854995
475,3801.8939600000003,0.28832667537080947
476,3804.3700000000003,0.3148466
477,3807.1,0.3234717
478,3809.8399999999997,0.3556647
479,3812.57,0.3845824
480,3815.31,0.4192408
481,3818.04,0.3992234
482,3820.7799999999997,0.406071
483,3823.5099999999998,0.3879763
484,3826.25,0.3601848
485,3828.98,0.3618549
486,3831.7200000000003,0.3409223
487,3834.45,0.3093684
488,3837.1899999999996,0.3031074
489,3839.92,0.2867119
490,3842.66,0.2939302
491,3845.3900000000003,0.3350942
492,3848.13,0.3818875
493,3850.8599999999997,0.3899547
494,3853.6,0.3982026
495,3856.33,0.4214283
496,3859.07,0.4115347
497,3861.8,0.426958
498,3864.5400000000004,0.4291687
499,3867.27,0.4544441
500,3870.0099999999998,0.4517896
501,3872.7400000000002,0.4642757
502,3875.48,0.4624634
503,3878.2100000000005,0.4286269
504,3880.9500000000003,0.4102866
505,3883.68,0.3738019
506,3886.42,0.3517938
507,3889.15,0.3323698
508,3891.89,0.3592868
509,3894.62,0.3619916
510,3897.36,0.3493536
511,3900.09,0.3528803
512,3902.83,0.3743691
513,3905.56,0.3957684
514,3908.3,0.4048735
515,3911.0299999999997,0.4089635
516,3913.7699999999995,0.4277887
517,3916.5,0.431894
518,3919.24,0.4315783
519,3921.9700000000003,0.4287232
520,3924.71,0.4329531
521,3927.4399999999996,0.4268157
522,3930.18,0.4090791
523,3932.91,0.3794836
524,3935.65,0.3551115
525,3938.38,0.3620474
526,3941.1200000000003,0.3869198
527,3943.85,0.3986701
528,3946.5899999999997,0.4050408
529,3949.32,0.4029366
530,3952.06,0.4160901
531,3954.7900000000004,0.4202105
532,3957.53,0.4160241
533,3960.2599999999998,0.3961183
534,3963.0,0.3762257
535,3965.73,0.338016
536,3968.4700000000003,0.3092659
537,3971.2,0.304503
538,3973.94,0.3026658
539,3976.67,0.3264696
540,3979.41,0.3296445
541,3982.1400000000003,0.3687235
542,3984.88,0.3942351
543,3987.6099999999997,0.4094807
544,3990.35,0.4181141
545,3993.08,0.4265112
546,3995.8199999999997,0.4415772
547,3998.55,0.4370176
548,4001.2799999999997,0.4494579
549,4004.02,0.4594102
550,4006.75,0.4544448
551,4009.49,0.4513439
552,4012.2200000000003,0.4461046
553,4014.96,0.4533225
554,4017.69,0.4688524
555,4020.43,0.4659292
556,4023.16,0.4562558
557,4025.9,0.4674612
558,4028.63,0.4716629
559,4031.3700000000003,0.4727777
560,4034.1,0.4801958
561,4036.8399999999997,0.4730212
562,4039.57,0.4641343
563,4042.31,0.4675625
564,4045.04,0.4712266
565,4047.78,0.4719306
566,4050.5099999999998,0.4643423
567,4053.25,0.4850292
568,4055.98,0.4846804
569,4058.7200000000003,0.4653304
570,4061.45,0.4601214
571,4064.1899999999996,0.4598717
572,4066.92,0.4595735
573,4069.66,0.465234
574,4072.3900000000003,0.4675282
575,4075.13,0.4659137
576,4077.8599999999997,0.4421727
577,4080.6,0.4468997
578,4083.33,0.4373531
579,4086.07,0.4321826
580,4088.8,0.4337259
581,4091.54,0.4169024
582,4094.27,0.4064274
583,4097.01,0.3916992
584,4099.74,0.3707431
585,4102.48,0.3854035
586,4105.21,0.3892549
587,4107.95,0.3747347
588,4110.68,0.3731224
589,4113.42,0.3734056
590,4116.15,0.391756
591,4118.89,0.4114437
592,4121.62,0.4156554
593,4124.360000000001,0.414655
594,4127.09,0.4299717
595,4129.83,0.4328673
596,4132.56,0.430063
597,4135.3,0.4371034
598,4138.03,0.4439583
599,4140.7699999999995,0.4504152
600,4143.5,0.4426899
601,4146.24,0.439858
602,4148.97,0.4421369
603,4151.71,0.4446166
604,4154.44,0.4411731
605,4157.179999999999,0.4350436
606,4159.91,0.4373834
607,4162.65,0.4317969
608,4165.38,0.4386974
609,4168.12,0.4379911
610,4170.849999999999,0.4328125
611,4173.59,0.4342827
612,4176.32,0.4172837
613,4179.06,0.4308583
614,4181.79,0.4189426
615,4184.53,0.4329687
616,4187.26,0.4278763
617,4190.0,0.4444491
618,4192.7300000000005,0.4418375
619,4195.47,0.4488728
620,4198.2,0.4390371
621,4200.9400000000005,0.4337956
622,4203.67,0.4292257
623,4206.41,0.4314822
624,4209.14,0.437226
625,4211.88,0.4399949
626,4214.61,0.4436942
627,4217.35,0.4466051
628,4220.08,0.4456828
629,4222.82,0.4504708
630,4225.55,0.4188664
631,4228.29,0.4282709
632,4231.0199999999995,0.4275972
633,4233.759999999999,0.4243291
634,4236.49,0.4330355
635,4239.23,0.4289456
636,4241.96,0.4318738
637,4244.7,0.4302239
638,4247.429999999999,0.4265875
639,4250.17,0.4426328
640,4252.9,0.4330761
641,4255.64,0.4217367
642,4258.37,0.439113
643,4261.110000000001,0.4360327
644,4263.84,0.4498275
645,4266.58,0.44279
646,4269.31,0.4429889
647,4272.05,0.4348101
648,4274.780000000001,0.430362
649,4277.52,0.4304979
650,4280.25,0.4387731
651,4282.99,0.4357383
652,4285.72,0.4413046
653,4288.46,0.424613
654,4291.19,0.4265164
655,4293.93,0.4295339
656,4296.66,0.4183994
657,4299.4,0.4072834
658,4302.13,0.404418
659,4304.87,0.3886194
660,4307.599999999999,0.3988882
661,4310.34,0.3912219
662,4313.07,0.3975794
663,4315.8099999999995,0.4028545
664,4318.54,0.407822
665,4321.28,0.4146038
666,4324.01,0.4068987
667,4326.75,0.3947933
668,4329.48,0.3902082
669,4332.22,0.3741711
670,4334.95,0.3623314
671,4337.6900000000005,0.3761243
672,4340.42,0.4154621
673,4343.16,0.455158
674,4345.89,0.441137
675,4348.63,0.4024841
676,4351.360000000001,0.3655173
677,4354.1,0.3747038
678,4356.83,0.3857894
679,4359.57,0.3930684
680,4362.3,0.4052143
681,4365.04,0.4102205
682,4365.15832,0.4106380785846138
683,4367.77,0.4198553
684,4370.51,0.4114178
685,4373.24,0.4145082
686,4375.98,0.4082724
687,4378.71,0.4049352
688,4381.44,0.4051645
689,4384.179999999999,0.4067311
690,4386.91,0.3919997
691,4389.65,0.4011304
692,4392.38,0.4064277
693,4395.12,0.405062
694,4397.849999999999,0.402572
695,4400.59,0.4080501
696,4403.32,0.4138547
697,4406.06,0.4150256
698,4408.79,0.4152142
699,4411.53,0.4193834
700,4414.26,0.4222608
701,4417.0,0.4253088
702,4419.7300000000005,0.4187248
703,4422.47,0.415822
704,4425.2,0.4256952
705,4427.9400000000005,0.424913
706,4430.67,0.4229913
707,4433.41,0.427688
708,4436.14,0.4283332
709,4438.88,0.4182571
710,4441.61,0.4166194
711,4444.35,0.417841
712,4447.08,0.4259387
713,4449.82,0.4299709
714,4452.55,0.4331375
715,4455.29,0.4261812
716,4458.0199999999995,0.4111353
717,4460.759999999999,0.4140109
718,4463.49,0.4249341
719,4466.23,0.4180744
720,4468.96,0.4211598
721,4471.7,0.4290728
722,4474.429999999999,0.4264408
723,4477.17,0.4325226
724,4479.9,0.427699
725,4482.64,0.4180693
726,4485.37,0.4113483
727,4488.110000000001,0.4157965
728,4490.84,0.4200335
729,4493.58,0.4213972
730,4496.31,0.42257
731,4499.05,0.4241012
732,4501.780000000001,0.4264763
733,4504.52,0.430894
734,4507.25,0.4280642
735,4509.99,0.4274798
736,4512.72,0.4290585
737,4515.46,0.4268761
738,4518.1900000000005,0.4243253
739,4520.93,0.4218486
740,4523.66,0.4202363
741,4526.4,0.4076947
742,4529.13,0.4108816
743,4531.87,0.4037782
744,4534.599999999999,0.4078072
745,4537.34,0.4128033
746,4540.07,0.41043
747,4542.8099999999995,0.4155529
748,4545.54,0.4139963
749,4548.28,0.410424
750,4551.01,0.4070056
751,4553.75,0.4093738
752,4556.48,0.409537
753,4559.22,0.4160043
754,4561.95,0.4166089
755,4564.6900000000005,0.4125344
756,4567.42,0.4153863
757,4570.16,0.4210825
758,4572.89,0.4180649
759,4575.63,0.4198041
760,4578.360000000001,0.4158733
761,4581.1,0.4239437
762,4583.83,0.4219509
763,4586.57,0.4272209
764,4589.3,0.4196071
765,4592.04,0.4183633
766,4594.77,0.4219661
767,4597.51,0.4099268
768,4600.24,0.4118249
769,4602.98,0.4233298
770,4605.71,0.4169082
771,4608.45,0.4222542
772,4611.179999999999,0.4228386
773,4613.92,0.4307112
774,4616.65,0.4292358
775,4619.39,0.4183023
776,4622.12,0.428348
777,4624.86,0.4365858
778,4627.59,0.419673
779,4630.33,0.418698
780,4633.06,0.4222754
781,4635.8,0.4252068
782,4638.53,0.4217885
783,4641.27,0.4230608
784,4644.0,0.4191351
785,4646.74,0.4178304
786,4649.47,0.4171262
787,4652.21,0.4081764
788,4654.9400000000005,0.4029672
789,4657.68,0.4110731
790,4660.41,0.4138489
791,4663.15,0.4156186
792,4665.88,0.4120683
793,4668.62,0.4149996
