,lambda (Angstroms),Total Flux (erg/s/cm^2/Angstrom)
0,100.05999999999999,0.02069161028796734
1,101.92,0.024873769227817723
2,104.05,0.029663015497576124
3,104.712855,0.03115342719473801
4,105.99000000000001,0.0287574039258316
5,107.96,0.025061532581688997
6,109.97,0.021290623714149654
7,114.09,0.013561197002419216
8,118.1,0.00603814784015474
9,120.22644299999999,0.002048959806679232
10,121.13000000000001,0.0019706029639393035
11,125.10000000000001,0.0016261237672576176
12,127.13000000000001,0.0014499791028972087
13,128.01999999999998,0.0013727738780658003
14,131.0,0.0011142228683145583
15,131.91,0.001035397551063341
16,134.05,0.0008497470362439925
17,136.86,0.0006062248147111112
18,138.038426,0.0005040289053919745
19,140.04000000000002,0.0004980660122774828
20,142.98,0.0004927073700273243
21,146.98,0.0004905394726529591
22,151.1,0.0004807074897173627
23,154.98,0.0004722610719042283
24,158.489319,0.00046517963876522726
25,158.95,0.0004634923158248561
26,161.91,0.0004528475321998114
27,166.06,0.00043872398708361696
28,169.93,0.00042590435055357543
29,173.09,0.00041569821222413577
30,177.11999999999998,0.0004031053079305785
31,180.0,0.0003948632581872917
32,181.970086,0.00038914507322393465
33,182.07999999999998,0.00038951043419776246
34,185.89000000000001,0.00040326014011479543
35,191.1,0.00042216014754989806
36,194.21,0.00043471427770789607
37,197.82000000000002,0.00044990981483663324
38,201.95999999999998,0.00046774770575435396
39,204.76999999999998,0.0004808211677299084
40,208.929613,0.0004949191207928938
41,210.02,0.0005069995947026771
42,215.9,0.0005875262143549483
43,219.92000000000002,0.0006404889992192562
44,222.98,0.000678267295160744
45,227.12,0.0007345465661404045
46,229.75,0.0008740401035018793
47,234.01999999999998,0.0011413508177731714
48,239.88329199999998,0.0013598678697468287
49,240.03,0.0013628723970574472
50,246.19,0.0013210784496812656
51,251.92,0.0013702999226576423
52,257.19,0.0012443351150809414
53,260.16999999999996,0.0013516231717073993
54,263.79,0.0014062136143207467
55,268.7,0.0014151667958764204
56,273.69,0.001423514413180455
57,275.42287,0.0014234527880300565
58,278.78,0.0014759716395214449
59,283.96000000000004,0.0015835371236399664
60,289.90999999999997,0.0016526627067490777
61,295.98,0.0017784368377528276
62,300.79,0.001857542715862883
63,307.8,0.0020332823053746266
64,316.227766,0.0022399089071116324
65,317.88,0.0022572422677976886
66,328.28999999999996,0.0023768961793466017
67,338.27000000000004,0.0024760471060764912
68,347.75,0.00258320316673775
69,356.66999999999996,0.003026649177402141
70,363.078055,0.0037198403862992203
71,365.82000000000005,0.004045401325019697
72,375.2,0.004546246073914761
73,384.82000000000005,0.004516815622355117
74,394.7,0.0067033715369695344
75,404.82,0.009058321251129242
76,414.24999999999994,0.010261636416596241
77,416.86938299999997,0.010372929289485544
78,421.95000000000005,0.010579389385427063
79,429.79999999999995,0.01133169540702503
80,440.82000000000005,0.014836387345624978
81,451.09000000000003,0.017063366575155055
82,459.47,0.016974247377829065
83,470.17999999999995,0.0193990884633468
84,478.630092,0.02345860638660645
85,480.02000000000004,0.024117413265040966
86,490.07,0.02303435130462439
87,500.34000000000003,0.030956598326168844
88,506.13,0.02853534698777959
89,511.99,0.0464118107800143
90,520.3100000000001,0.0477702377341769
91,529.98,0.04849964935037309
92,539.8399999999999,0.04365612917826289
93,549.5408739999999,0.046087383749124404
94,549.87,0.046170678348422735
95,560.1,0.0651052551840011
96,570.51,0.07868140870876852
97,579.78,0.08291897320200524
98,590.56,0.09064228825455019
99,600.15,0.08157721352856744
100,609.9,0.08402740919297498
101,619.8100000000001,0.11315578524777278
102,629.89,0.11288213984236027
103,630.957344,0.11486853451375757
104,640.12,0.13194631131402668
105,650.52,0.13409132417382236
106,658.0500000000001,0.1283936525232706
107,665.67,0.15041482463785166
108,674.93,0.16564931647263129
109,684.32,0.14907351596815832
110,695.4399999999999,0.18161327894901677
111,705.12,0.15361334168774968
112,716.58,0.20560664778133225
113,724.43596,0.21401931613381456
114,726.54,0.21627100910521843
115,734.96,0.2248770617515598
116,745.1800000000001,0.22644835035555133
117,755.55,0.2333151752893471
118,764.3,0.21729682786125767
119,774.9300000000001,0.2517017891000473
120,785.71,0.23821648666864112
121,794.81,0.26536995734342816
122,805.86,0.2810741003056695
123,815.1999999999999,0.2902529891081432
124,824.64,0.304599968797153
125,831.763771,0.2630007831450805
126,834.1800000000001,0.2488842559050782
127,845.79,0.3152631522131966
128,855.5799999999999,0.3181573546125489
129,865.49,0.33850071924764397
130,875.51,0.34874266593217
131,885.6500000000001,0.35847467485243883
132,895.9,0.3676389658221386
133,904.1899999999999,0.36846704027470556
134,914.6600000000001,0.3684482953432672
135,925.26,0.9224533928338835
136,935.97,1.551747172373931
137,944.6300000000001,2.268695013720038
138,954.992586,2.8001984186012674
139,955.57,2.829815300785027
140,964.41,3.1028245323380457
141,975.58,1.0277510341985912
142,984.6,2.5221462093805176
143,996.01,2.5748986360796065
144,1005.22,3.4813407517587134
145,1014.52,3.5460728392522736
146,1023.91,2.2018138985602875
147,1035.77,2.9427171843316455
148,1045.3500000000001,4.56792318413684
149,1055.02,4.464048155756489
150,1064.78,3.6790530991905905
151,1074.64,4.214401011307419
152,1084.58,3.570642898370429
153,1094.6200000000001,4.4434827541161654
154,1096.4782,4.415809497890052
155,1104.74,4.2927650741773125
156,1114.97,4.185309046997636
157,1125.28,3.7216159414040417
158,1135.7,4.610143727991312
159,1146.2,4.3224574361646635
160,1154.15,4.484518643781629
161,1164.83,4.515634175523669
162,1175.61,3.08837460924831
163,1183.76,4.392578620830483
164,1194.71,3.4651308879255507
165,1205.76,2.8166970570032217
166,1214.1200000000001,2.252940862748862
167,1225.3600000000001,3.489189845593479
168,1233.85,4.610080523916504
169,1245.27,4.905727330329807
170,1253.9,4.7501628714284765
171,1258.92541,4.586458680702424
172,1265.5,4.372296404027144
173,1274.2700000000002,5.256680015463949
174,1286.06,5.453887837452537
175,1294.98,4.515538459347211
176,1303.95,4.526004084727843
177,1316.02,5.416314926237788
178,1325.1399999999999,5.20841956207629
179,1334.33,4.761026202795129
180,1343.5800000000002,5.428805847697118
181,1356.01,5.280889714305952
182,1365.4099999999999,4.827327369665811
183,1374.87,4.962587029208818
184,1384.4,4.974017693632164
185,1394.0,4.01520736293585
186,1403.6599999999999,4.043077036422683
187,1413.3899999999999,4.684984714789855
188,1426.47,4.695714626716127
189,1436.3600000000001,4.79409331623836
190,1442.99,4.962558778476218
191,1445.43977,5.004997525109407
192,1446.3100000000002,5.0200730001931815
193,1456.3400000000001,4.872044587094153
194,1466.43,4.557422177505996
195,1476.6000000000001,4.599504772599005
196,1483.41,4.685003171083115
197,1493.7,4.71752977319787
198,1504.0500000000002,4.484410378823498
199,1510.99,4.0711607849144995
200,1517.9699999999998,4.292555193346082
201,1524.97,4.2045236029479565
202,1535.54,3.645151221446787
203,1546.19,3.6451458446267817
204,1553.32,3.554101261835548
205,1564.09,3.8082488920372892
206,1574.9299999999998,4.071216526335048
207,1585.8500000000001,4.233676165313972
208,1593.1699999999998,4.292584593640504
209,1604.21,4.214261239641175
210,1615.3300000000002,4.194816890323009
211,1626.53,4.061803545686008
212,1634.04,4.292551985130305
213,1645.36,4.34220864751505
214,1656.77,4.1373383151661045
215,1659.58691,4.231309492925747
216,1664.42,4.392541545276359
217,1672.1,3.978486827100322
218,1675.95,4.5156344722855115
219,1683.6899999999998,4.599549779748726
220,1695.36,4.362225766582794
221,1703.19,4.233695112504883
222,1714.9900000000002,4.015253154890659
223,1726.88,3.9784992357353106
224,1734.85,4.224001641482314
225,1746.88,4.146842782151881
226,1754.94,4.33227622635776
227,1763.04,4.080602687656471
228,1775.26,4.0899869095169965
229,1783.45,4.175707409274582
230,1795.82,4.37234669523323
231,1804.11,4.362292237722899
232,1816.61,4.043141579233257
233,1825.0,4.127787164455008
234,1833.42,4.006148762496385
235,1846.1299999999999,3.713012193744116
236,1854.6499999999999,3.7387978345175754
237,1863.2099999999998,3.8346684923838676
238,1876.13,4.071266013368973
239,1884.79,3.756007713967348
240,1893.4899999999998,3.6201794316585563
241,1905.46072,3.815882096533133
242,1906.61,3.8346699139486384
243,1915.4099999999999,3.687506066721178
244,1924.2500000000002,3.586972197460865
245,1933.13,3.7388053061676993
246,1946.53,3.8612419251622474
247,1955.52,3.595233973278739
248,1969.07,3.9059475096500917
249,1978.1599999999999,4.0153035026844535
250,1982.72,3.8083029909393136
251,1996.4699999999998,3.7129914171464056
252,2005.68,3.8346283440822106
253,2014.94,3.730078243476951
254,2024.24,3.8700891208388386
255,2033.5800000000002,3.662073976167874
256,2042.97,3.7646158039558446
257,2057.13,3.457169004326203
258,2066.63,3.54588777152383
259,2076.16,3.8700705221968184
260,2085.75,3.7994432398205285
261,2095.38,3.6117769354113864
262,2105.05,3.645139608969392
263,2114.7599999999998,3.687431260494546
264,2124.52,3.7214888844786347
265,2134.33,3.529592480921658
266,2144.18,3.55407805533183
267,2154.08,3.678856602200936
268,2164.02,3.57042412703719
269,2174.01,3.5622346243323793
270,2184.0499999999997,3.4891520940865037
271,2187.7616199999998,3.5373462454229334
272,2194.13,3.6200438464212255
273,2204.26,3.5458252951698044
274,2214.43,3.401828761485012
275,2224.65,3.3244732497585043
276,2234.92,3.4650737599902817
277,2245.2400000000002,3.3552512921803443
278,2255.6,3.2339838419370355
279,2266.0099999999998,3.301873413652012
280,2276.47,3.348013007325273
281,2286.98,3.3947346229568196
282,2297.53,3.1977062561549943
283,2302.83,3.234820583733224
284,2313.46,3.117983252064655
285,2324.14,2.6056739423543713
286,2334.87,2.9507996546023727
287,2345.64,2.890409384417002
288,2356.47,3.033839140581574
289,2367.35,2.857632918704431
290,2372.7999999999997,2.897572312157516
291,2383.76,2.7356451254136296
292,2394.7599999999998,2.864664956236371
293,2405.81,2.774077809017397
294,2416.92,2.812806688148366
295,2422.49,2.925090134301336
296,2433.67,2.8260670441739038
297,2444.9,2.9390599760047573
298,2456.19,2.8988939341855526
299,2467.53,2.8724239143246333
300,2473.22,2.7942244131774876
301,2484.63,2.8203404240581675
302,2496.1,2.52543746128879
303,2507.62,2.873146520477697
304,2511.88643,2.6955778060194033
305,2513.4,2.6325821368879208
306,2519.2,2.7125181510695198
307,2525.0,2.6387791652511194
308,2536.66,2.6633531834161963
309,2542.51,2.614761189099361
310,2554.24,2.7381621953666304
311,2566.03,2.682205191435778
312,2577.88,2.7829851773068044
313,2583.82,2.751268167692787
314,2595.7400000000002,2.713706141666005
315,2607.7299999999996,2.646012103741415
316,2613.74,2.603754082229589
317,2625.7999999999997,2.68300403240719
318,2637.92,2.7331189723866705
319,2644.0000000000005,2.8818049389770364
320,2656.21,2.9153888636593344
321,2662.33,2.7022008234509527
322,2674.62,2.7845037345357553
323,2686.96,2.778296637122124
324,2693.16,2.665553583316247
325,2705.59,2.7153034706054333
326,2718.08,2.6112173476964977
327,2724.34,2.6053782836925
328,2736.92,2.6784201454863825
329,2743.23,2.4317410729839506
330,2755.89,2.4599589211803377
331,2762.2400000000002,2.5174508418791577
332,2774.99,2.599986674778363
333,2787.7999999999997,2.488881497479447
334,2794.2299999999996,2.147954404580772
335,2807.13,2.254602211984674
336,2813.6,2.553141112287251
337,2826.5800000000004,2.630885906093658
338,2833.1,2.5416607978978005
339,2846.18,2.4954205747073384
340,2852.7400000000002,2.416397459712733
341,2865.91,2.583326221225089
342,2872.5099999999998,2.5774890994317365
343,2884.0315,2.562227670322997
344,2885.7699999999995,2.559925135090196
345,2892.42,2.54248011195852
346,2912.47,2.680987042215647
347,2932.6600000000003,2.596211971985791
348,2952.99,2.5491469012689527
349,2966.62,2.5669438538577127
350,2987.18,2.5554767823408313
351,3007.89,2.561682710302183
352,3028.74,2.5502046377765515
353,3049.73,2.538737564763938
354,3070.87,2.5332364912295566
355,3092.16,2.5277294171734086
356,3106.43,2.5221043675359622
357,3127.97,2.476330292610202
358,3149.65,2.4765622171974595
359,3171.48,2.46556514126295
360,3193.46,2.360318064806673
361,3208.2,2.4098340135343563
362,3230.44,2.3177059361736827
363,3252.83,2.4160508582912428
364,3267.85,2.4611078060449603
365,3290.5,2.438873727258124
366,3311.31121,2.4238030907823713
367,3313.31,2.4223555219588455
368,3320.95,2.461804013940733
369,3328.6,2.484758505257675
370,3336.2799999999997,2.507815994579782
371,3343.97,2.3785614832369433
372,3351.6800000000003,2.4452989705642145
373,3359.4,2.411823457226541
374,3367.15,2.4008089418940313
375,3374.91,2.240775425896577
376,3382.69,2.292980908569232
377,3390.49,2.4401453899119967
378,3398.3,2.451504870589816
379,3406.14,2.3629873492728004
380,3413.9900000000002,2.3794958272908393
381,3421.86,2.4518483039789873
382,3429.7499999999995,2.407244779337246
383,3437.65,2.440728254030559
384,3445.58,2.2209827267290363
385,3453.52,2.4465811987625687
386,3461.48,2.2729616694662105
387,3469.4599999999996,2.320608138839962
388,3477.46,2.2470846068838233
389,3485.48,2.283725073597794
390,3493.51,2.28385153964682
391,3501.5600000000004,2.3050380043659553
392,3509.64,2.2788094670902552
393,3517.73,2.22694092914961
394,3525.83,2.2737903905440193
395,3533.96,2.3591308499435932
396,3542.11,2.4197673080132773
397,3550.27,2.4198907654180153
398,3558.46,2.3539702208279185
399,3566.66,2.397877675572876
400,3574.8799999999997,2.1920671289879436
401,3583.1200000000003,2.1226335810731207
402,3591.39,2.0695910311634624
403,3592.5099999999998,2.109283956689603
404,3595.2000000000003,3.177100777819351
405,3597.88,2.106482599614045
406,3600.57,1.689350420743793
407,3603.2599999999998,2.6891522418735416
408,3605.95,2.05613706300329
409,3608.6400000000003,2.7171298841330382
410,3611.33,2.3447197052627864
411,3614.02,2.2920345263925346
412,3616.71,2.013166347522283
413,3619.3999999999996,2.3753881686520315
414,3622.09,2.0256909897817796
415,3624.77,2.231280811576473
416,3627.46,2.2906356327062216
417,3630.1499999999996,2.33149345383597
418,3632.84,1.9971312749657184
419,3635.53,2.3865140960954667
420,3638.22,2.058006917225215
421,3640.91,2.6100037383549632
422,3643.6000000000004,2.680596559484712
423,3646.29,2.7514243806144605
424,3648.98,2.5816672017442084
425,3651.66,2.312529023538902
426,3654.35,2.43428284466865
427,3657.0399999999995,1.8122726657983987
428,3659.73,1.561969486928147
429,3662.42,2.5937323080578953
430,3665.1099999999997,2.466706129187644
431,3667.7999999999997,2.381709950317392
432,3670.4900000000002,2.4086347714471406
433,3673.18,1.9984115925768888
434,3675.87,1.731016413706637
435,3678.56,2.1296472348363857
436,3681.2400000000002,1.541716056631079
437,3683.9300000000003,2.3235288777608276
438,3686.62,2.6883266988905756
439,3689.31,2.2413405200203242
440,3691.9999999999995,2.6265093411500726
441,3694.69,2.0171441622798207
442,3697.38,2.379482983409569
443,3700.0699999999997,2.918366804539317
444,3702.7599999999998,2.081998625669066
445,3705.4500000000003,2.4542874467988143
446,3708.13,1.6550412685935076
447,3710.82,2.1799960897232555
448,3713.5099999999998,1.7995069108530042
449,3716.2000000000003,2.297417731982753
450,3718.8900000000003,2.338859553112501
451,3721.58,2.9186033742422492
452,3724.27,4.393367195371997
453,3726.9600000000005,6.465435016501746
454,3729.65,7.981054837631494
455,3732.34,7.7603676587612425
456,3735.02,6.347800480555936
457,3737.71,3.9700423016856843
458,3740.3999999999996,2.912519122815433
459,3743.09,2.1763619439451816
460,3745.78,3.0190517650749293
461,3748.47,2.705177586204678
462,3751.16,2.2473044073344264
463,3753.8500000000004,2.4204542284641746
464,3756.54,2.464120049593923
465,3759.23,2.8611118707236716
466,3761.91,2.772852692518365
467,3764.6000000000004,2.7780025136481132
468,3767.29,2.6187813347778617
469,3769.98,2.62346315590761
470,3772.67,2.730816977037358
471,3775.3599999999997,2.8785607981671064
472,3778.05,2.679184619296855
473,3780.7400000000002,3.0332114404266033
474,3783.43,2.757035261556352
475,3786.12,3.0690320826860997
476,3788.8100000000004,2.923157903815848
477,3791.4900000000002,2.6987427256105416
478,3794.18,3.1560285467402904
479,3796.87,3.092572367870038
480,3799.56,2.701898188999787
481,3801.8939600000003,2.3759349243320766
482,3802.25,2.3262100150624425
483,3804.94,2.7295248734619375
484,3807.63,2.7054067318614328
485,3810.3199999999997,2.7724865902609284
486,3813.01,3.3196834486604234
487,3815.7000000000003,3.102863307059919
488,3818.38,3.34826316598581
489,3821.0699999999997,3.0165930243853056
490,3823.7599999999998,3.340414882784801
491,3826.4500000000003,3.090696741184296
492,3829.14,2.7885305995837917
493,3831.83,2.322344457983287
494,3834.52,2.7744783163827824
495,3837.2099999999996,2.524877174782277
496,3839.9,2.4195110331817724
497,3842.59,2.6180638915812677
498,3845.27,2.798368750507159
499,3847.9600000000005,2.6300166089066543
500,3850.65,2.8549124673061494
501,3853.34,2.969056325705645
502,3856.0299999999997,3.0064011841051403
503,3858.72,2.9777170425046355
504,3861.4100000000003,3.057675900904131
505,3864.1,3.0765227593036264
506,3866.79,3.3166376177031216
507,3869.48,3.274489476102617
508,3872.16,3.344163335028508
509,3874.8500000000004,3.6311071934280035
510,3877.54,3.4124130518274987
511,3880.23,3.0837869102269937
512,3882.92,2.858186768626489
513,3885.6099999999997,3.0799206270259845
514,3888.3,3.1701814854254797
515,3890.99,2.6921723438249754
516,3893.68,2.8408532022244706
517,3896.37,2.8531440606239657
518,3899.05,2.8037519195498573
519,3901.7400000000002,2.9064237779493522
520,3904.43,3.1122366363488476
521,3907.12,2.882537494748343
522,3909.8100000000004,2.889326353147838
523,3912.5,3.318163211547333
524,3915.19,3.4842880699468286
525,3917.88,3.327758928346324
526,3920.5699999999997,2.9719737867458194
527,3923.26,2.8237576451453146
528,3925.9500000000003,2.96424350354481
529,3928.63,3.1362373624707014
530,3931.3199999999997,3.0522942208701966
531,3934.01,2.7825560792696917
532,3936.7000000000003,3.0245449376691873
533,3939.39,2.9265527960686826
534,3942.08,3.0815556544681777
535,3944.7700000000004,3.223329512867673
536,3947.46,3.279054371267168
537,3950.15,3.5442222296666634
538,3952.84,3.205763088066159
539,3955.52,3.08800194699205
540,3958.2099999999996,3.2428878053915455
541,3960.9,3.2384376637910406
542,3963.59,2.482144522190536
543,3966.2799999999997,2.5285043805900314
544,3968.97,2.5103562389895266
545,3971.6600000000003,2.379233097389022
546,3974.35,2.6199329557885176
547,3977.04,2.648263814188012
548,3979.73,2.2791326725875076
549,3982.4100000000003,2.6944015315133987
550,3985.1,3.3391203899128943
551,3987.79,3.2321142483123895
552,3990.48,3.599019106711885
553,3993.1699999999996,3.54247196511138
554,3995.86,3.6415128235108756
555,3998.55,3.566818681910371
556,4001.24,3.233628540309866
557,4003.93,3.4615663987093614
558,4006.6200000000003,3.204590257108857
559,4009.31,3.788781115508352
560,4011.99,3.5365059744342435
561,4014.68,3.2835088328337383
562,4017.37,3.5139066912332337
563,4020.06,3.703797549632729
564,4022.75,3.5266644080322243
565,4025.44,3.4146232664317195
566,4028.1299999999997,3.6817821248312153
567,4030.82,3.79030598323071
568,4033.51,3.537544841630206
569,4036.2,3.665385700029701
570,4038.88,3.7356455589555924
571,4041.5699999999997,3.5085224173550875
572,4044.26,3.559330275754583
573,4046.9500000000003,3.0008901341540777
574,4049.64,3.583326992553573
575,4052.33,3.8195768509530685
576,4055.0199999999995,3.3679087093525637
577,4057.71,3.5480815677520594
578,4060.4,3.4087634261515545
579,4063.0899999999997,3.5780482845510497
580,4065.7700000000004,3.881284143476941
581,4068.46,3.5127360018764366
582,4071.15,3.379738860275932
583,4073.84,3.826370718675427
584,4076.5299999999997,3.4770225770749223
585,4079.2200000000003,3.7866794354744178
586,4081.9100000000003,3.1882012938739126
587,4084.6,3.391672152273408
588,4087.29,3.1742660106729033
