,lambda (Angstroms),Total Flux (erg/s/cm^2/Angstrom)
0,102.06,0.007951681065236693
1,103.95,0.009293225190789513
2,104.712855,0.009834708607346887
3,105.89,0.009137541188282732
4,108.10000000000001,0.007828662528469739
5,110.11,0.006638234523195243
6,113.98,0.004346216459972328
7,117.99000000000001,0.0019712831990518426
8,120.22644299999999,0.0006467470729611489
9,121.02,0.0006250013261413469
10,124.98,0.000516482915549777
11,127.01,0.00046085366478152014
12,127.89,0.0004367390021376159
13,130.87,0.0003550771379468941
14,132.07999999999998,0.00032192157882277603
15,133.92,0.00027150052377461226
16,137.04,0.00018600880829076926
17,138.038426,0.00015865021302008907
18,139.91,0.00015684393186819504
19,142.84,0.00015409772452017645
20,146.84,0.00015049348813789848
21,150.95000000000002,0.00014660957766910785
22,154.83,0.00014297594039029826
23,158.489319,0.00013956112775434786
24,159.16,0.000138587019743681
25,162.12,0.00013431256805075673
26,165.9,0.00012890167889965752
27,170.14999999999998,0.00012280441029326297
28,172.92,0.00011888482393333047
29,176.95,0.00011317497632303157
30,179.82000000000002,0.00010914633041941915
31,181.9,0.00010623019591087783
32,181.970086,0.00010613220114247878
33,186.14,0.00010849835642390401
34,190.92000000000002,0.00011132612136916436
35,194.01999999999998,0.00011320104825416583
36,198.07999999999998,0.00011566728631645808
37,202.23000000000002,0.00011825400661412137
38,205.04000000000002,0.00012009534085181626
39,208.929613,0.0001224574059487114
40,209.82,0.00012515959483336603
41,216.19,0.00014514863271991856
42,220.20999999999998,0.000157771567533724
43,222.76000000000002,0.00016580835552755597
44,226.89999999999998,0.00017896051569401224
45,230.05999999999997,0.00019443030564715287
46,233.8,0.0002175925829714397
47,239.8,0.0002451580006039852
48,239.88329199999998,0.00024541841941515524
49,245.95,0.0002322324990289117
50,252.26,0.00022358575316018723
51,256.95,0.0002080745689408025
52,259.92,0.00020926593091701295
53,264.14,0.00020454549106502928
54,269.06,0.0001964813993892568
55,274.06,0.0001880436620764799
56,275.42287,0.00018574186236164808
57,279.15,0.00019789558633039387
58,283.69,0.0002134499172916857
59,290.3,0.0002316542196824652
60,295.69,0.0002512923703611794
61,301.19,0.0002682723767680307
62,308.21000000000004,0.0002925839159636846
63,316.227766,0.00032081084725980847
64,318.29999999999995,0.0003189304464858146
65,327.98,0.0003089356625027696
66,337.94,0.0002975322991896366
67,348.21,0.00028523028340390606
68,357.14000000000004,0.00027558308798359695
69,363.078055,0.0002699096008765159
70,366.3,0.0002775706145977889
71,374.84000000000003,0.0002960665185316615
72,385.34,0.00031304028074543926
73,395.22,0.00033941676023802264
74,405.36,0.0003626162260330424
75,413.84999999999997,0.00037995187490875407
76,416.86938299999997,0.0003855906484187665
77,421.53999999999996,0.0003915833664914401
78,430.37,0.00040289033149870483
79,441.41,0.0004203634793673574
80,450.65000000000003,0.0004322832683443818
81,460.09000000000003,0.00044356978608714264
82,469.71999999999997,0.0004564151661573531
83,478.630092,0.00046953344324393326
84,479.56,0.0004690184965880058
85,489.59999999999997,0.00045794260744934584
86,499.85,0.0004531783419442396
87,505.64,0.0004460367506979407
88,511.49,0.0004530491947755142
89,519.81,0.0004460190930191745
90,529.47,0.0004359450801626548
91,540.56,0.0004196294091917645
92,549.5408739999999,0.00041341492743647427
93,550.61,0.0004135040235585968
94,559.55,0.0004207488041899215
95,569.96,0.0004251037470727056
96,580.5500000000001,0.0004200255506393419
97,589.99,0.0004244173776147004
98,599.57,0.0004179758295663883
99,609.31,0.0003962538243481672
100,620.64,0.0004265572885039735
101,629.28,0.00042454290132887794
102,630.957344,0.00042482641239158204
103,639.5000000000001,0.0004337740371463106
104,649.8900000000001,0.0004446766478505277
105,657.42,0.0004497370338565676
106,665.0300000000001,0.00046201316181220686
107,674.28,0.00046865309973463296
108,685.24,0.0004682834468297456
109,694.77,0.0004974510815757695
110,704.44,0.0004919227147335924
111,715.88,0.000521782313526301
112,724.43596,0.0005305663231264238
113,725.8399999999999,0.000531702606979996
114,734.25,0.0005393951739804384
115,744.46,0.0005555162905172419
116,754.8199999999999,0.0005664915445154088
117,765.32,0.0005614961668108482
118,774.1800000000001,0.000594606946195381
119,784.9499999999999,0.0006055337359212746
120,795.87,0.0006211701631085316
121,805.0799999999999,0.0006348840632362455
122,814.41,0.0006460378933330504
123,825.7399999999999,0.0006707949562480339
124,831.763771,0.0006409967100771438
125,835.3,0.0006202772951108871
126,844.97,0.000677512495860556
127,854.75,0.0006786911925856607
128,864.65,0.0006939886303748771
129,874.66,0.000711391764139529
130,884.7900000000001,0.0007335401389682928
131,895.04,0.0007469961548611684
132,905.4,0.0007405187667294795
133,915.89,0.0009714730647505784
134,924.36,0.004656718754859131
135,935.0600000000001,0.010036404999742425
136,945.8900000000001,0.019222362930778506
137,954.64,0.02764203988336999
138,954.992586,0.027755535342418307
139,965.7,0.031207830762269222
140,974.63,0.005101706903491063
141,985.92,0.026401701724811846
142,995.04,0.028473850081804364
143,1004.25,0.042720219541004044
144,1015.88,0.041463659748440775
145,1025.28,0.017774820423411133
146,1034.76,0.028863963189232306
147,1044.34,0.05717437606861699
148,1054.0,0.056391321038852485
149,1066.21,0.0442089639049576
150,1076.07,0.053488819102320125
151,1086.03,0.04193486441324617
152,1096.08,0.057038170826379374
153,1096.4782,0.056952395935512344
154,1106.22,0.054851897077146154
155,1113.89,0.05274807376773015
156,1124.19,0.04745902666382079
157,1134.6000000000001,0.06165865552287938
158,1145.09,0.05598507962773286
159,1155.69,0.060252569695554294
160,1163.7,0.06250627118076653
161,1174.47,0.04278481864590208
162,1185.34,0.061218815168281225
163,1196.3,0.04142539384217961
164,1204.6,0.029222665593398277
165,1215.74,0.019790318570335138
166,1224.17,0.04170260009597049
167,1235.5,0.06482530428167019
168,1244.06,0.07188765558172222
169,1255.57,0.0686544940704604
170,1258.92541,0.06476897864977298
171,1264.2700000000002,0.05858179344523264
172,1275.9699999999998,0.07737403095498427
173,1284.8200000000002,0.08157667573800152
174,1293.7199999999998,0.0636377716214878
175,1305.6899999999998,0.06305530507377215
176,1314.74,0.0804606642586655
177,1323.8600000000001,0.07719570498421548
178,1336.1100000000001,0.06787000459912637
179,1345.37,0.08233160840598963
180,1354.69,0.07972333353341571
181,1364.08,0.07090181020149842
182,1373.54,0.07509718841023777
183,1386.25,0.07631544814946369
184,1395.86,0.0664806296596101
185,1405.5300000000002,0.06945038249031935
186,1415.28,0.07090223708177905
187,1425.09,0.07338992299380155
188,1434.96,0.07305515022638691
189,1441.5900000000001,0.07755481614857948
190,1445.43977,0.07838863948994795
191,1448.24,0.07899513260617276
192,1454.93,0.07684476618550609
193,1465.01,0.07074089238575716
194,1475.17,0.07074038006378804
195,1485.39,0.07238691885015372
196,1495.69,0.07407036911429918
197,1506.06,0.06993255067150193
198,1513.01,0.0619095790536195
199,1516.5,0.066789493521762
200,1523.5000000000002,0.06467494282749191
201,1534.06,0.056083097894421625
202,1544.69,0.06248288425440864
203,1555.4,0.05899333209217543
204,1566.18,0.06008792122299951
205,1573.41,0.06437817477734628
206,1584.31,0.06803145612484
207,1595.3,0.06977334913483599
208,1606.35,0.06850270325316679
209,1613.77,0.06897582031724052
210,1624.95,0.06512470683696345
211,1636.2199999999998,0.06977415501918863
212,1643.77,0.07106962448465447
213,1655.1599999999999,0.0654256848835493
214,1659.58691,0.06798307456600747
215,1666.64,0.07205840811586822
216,1670.48,0.06393926612941951
217,1678.19,0.07373573620350297
218,1685.9399999999998,0.07738475167356092
219,1693.72,0.07222699119059975
220,1705.46,0.06946121490911335
221,1713.3300000000002,0.06679972656709478
222,1725.21,0.06680118917151909
223,1733.17,0.07223271297044313
224,1745.18,0.07026991311178456
225,1753.24,0.07633340040064482
226,1765.39,0.06883339942789696
227,1773.5400000000002,0.07174193885769985
228,1785.83,0.07307643677086272
229,1794.0800000000002,0.08011420969060182
230,1806.51,0.07865704648967542
231,1814.8500000000001,0.07324793155035714
232,1823.23,0.07460778200701336
233,1835.87,0.07125754713495304
234,1844.34,0.06485129973255185
235,1857.12,0.06666670374640225
236,1865.7,0.07028524118293093
237,1874.31,0.07530416266644048
238,1882.9599999999998,0.07012683954592451
239,1896.01,0.06869312998260274
240,1904.76,0.07209085035202302
241,1905.46072,0.07194760145488599
242,1913.56,0.07028935652099341
243,1926.82,0.06806183078230495
244,1935.71,0.06666794492884034
245,1944.65,0.0749553003810368
246,1953.6200000000001,0.07125897061662989
247,1967.17,0.07920350445077554
248,1976.25,0.08030181555882296
249,1985.37,0.0772220797113992
250,1994.53,0.0754661069085043
251,2003.74,0.07633694541127047
252,2012.99,0.07408761695856546
253,2026.94,0.07598275123799954
254,2036.3,0.07511309365774886
255,2045.7,0.07918986912202701
256,2055.14,0.07580309763083401
257,2064.62,0.07510845918416986
258,2074.15,0.08253256204316675
259,2078.94,0.08425575912549572
260,2083.73,0.0880194762078247
261,2093.35,0.0829077834170115
262,2103.0099999999998,0.08139572367072714
263,2112.72,0.08347864523010383
264,2127.36,0.08366895952766044
265,2137.18,0.07613862195949146
266,2147.04,0.08195131743585132
267,2156.96,0.08482590247900444
268,2166.91,0.08045434230555418
269,2176.91,0.080452853437765
270,2186.96,0.08213332587563686
271,2187.7616199999998,0.08248731680265564
272,2197.06,0.086596335599163
273,2207.2,0.08346812139485095
274,2217.38,0.07630971273608403
275,2222.5,0.0750917425658594
276,2232.75,0.08482734361179643
277,2243.06,0.08045813297605116
278,2253.42,0.07372668927223727
279,2263.82,0.07509678111396852
280,2274.27,0.07899461988763115
281,2284.76,0.08444593420683891
282,2295.31,0.07774450684436433
283,2305.9,0.0809035950274349
284,2316.55,0.07591389152882314
285,2327.24,0.05752336357575649
286,2332.6,0.06560000667880259
287,2343.37,0.05974482981682618
288,2354.19,0.07269151988678119
289,2365.0499999999997,0.0605263855022813
290,2375.97,0.0659482494360991
291,2386.94,0.0558055803018483
292,2392.44,0.06176587281430231
293,2403.48,0.05958236338475547
294,2414.58,0.06300893227352632
295,2425.7200000000003,0.07440590670784226
296,2436.92,0.0721049994604759
297,2442.54,0.07853698860956529
298,2453.81,0.07877918106690289
299,2465.1400000000003,0.07669404184255817
300,2476.52,0.07213475955014485
301,2482.22,0.07052416979032447
302,2493.68,0.06787555858900139
303,2505.19,0.0823955643196097
304,2510.9700000000003,0.06299267565087956
305,2511.88643,0.06272540299105953
306,2516.76,0.06130311120331087
307,2522.56,0.060209719993875886
308,2534.2,0.06470425542873395
309,2545.8999999999996,0.06520097764418407
310,2557.65,0.07699361717679425
311,2563.55,0.07090763060167934
312,2575.38,0.07833431584174558
313,2587.27,0.07608748786240385
314,2593.2300000000005,0.073536748067881
315,2605.2,0.06932488579599536
316,2617.2200000000003,0.06656885084126976
317,2623.26,0.07574221675420298
318,2635.3700000000003,0.08661481697036547
319,2647.53,0.10323973450368798
320,2653.63,0.11375130719721326
321,2665.88,0.09213458990142386
322,2672.03,0.10058781991210917
323,2684.36,0.10348395832377583
324,2696.75,0.09231939351603456
325,2702.9700000000003,0.10055925977074394
326,2715.45,0.08868403013389073
327,2727.98,0.08693822781419756
328,2734.27,0.095134010312931
329,2746.8900000000003,0.07045064316412591
330,2753.2200000000003,0.07762353351658739
331,2765.93,0.0859587115386704
332,2772.31,0.0927729892082919
333,2785.1,0.07636619293783098
334,2797.96,0.05123714291139409
335,2804.41,0.05697306682503967
336,2817.35,0.08988926250605886
337,2823.85,0.1073522737368645
338,2836.88,0.10427517458877177
339,2843.4199999999996,0.09803733367330542
340,2856.5499999999997,0.08449735915953277
341,2863.1299999999997,0.11037616609779446
342,2876.35,0.11567735675490991
343,2882.98,0.11256960101033163
344,2884.0315,0.11280552332704945
345,2896.2799999999997,0.11555433114014804
346,2909.6499999999996,0.13775901645857128
347,2929.82,0.12785129430992484
348,2950.13,0.12481517200754456
349,2970.58,0.13147174955143054
350,2991.17,0.1331737269415827
351,3011.9,0.1377176041780011
352,3032.7799999999997,0.1388562812497047
353,3046.78,0.14189146587632592
354,3067.9,0.14707104268448587
355,3089.1600000000003,0.15035321933891208
356,3110.58,0.1551317958176425
357,3132.14,0.15111167214263915
358,3146.6,0.15370655626413507
359,3168.41,0.15859783231460706
360,3190.3700000000003,0.1448558082003643
361,3212.4799999999996,0.1561375839214068
362,3227.31,0.14156366763660624
363,3249.68,0.16615774307214312
364,3272.21,0.18118161833198423
365,3287.31,0.1796956017506971
366,3310.1000000000004,0.17913027672503262
367,3311.31121,0.17888475171346035
368,3325.38,0.17603258007122372
369,3333.04,0.1861151192770003
370,3340.73,0.16826935785303446
371,3348.43,0.19597069621915453
372,3356.15,0.18767333416544632
373,3363.89,0.14985827169190985
374,3371.6400000000003,0.15954060900845926
375,3379.41,0.1892520459051804
376,3387.2000000000003,0.1850365823820733
377,3395.0099999999998,0.1739803184391379
378,3402.8399999999997,0.20780435407637426
379,3410.68,0.1761643895036965
380,3418.54,0.1750369245111905
381,3426.42,0.1846363590988562
382,3434.32,0.20394809326669366
383,3442.24,0.17570272701470285
384,3450.18,0.18534206034288378
385,3458.1299999999997,0.1884401934611506
386,3466.1,0.18256312615958917
387,3474.09,0.19616225843819943
388,3482.1000000000004,0.18614179029698147
389,3490.13,0.19635642173593523
390,3498.17,0.17269665296497488
391,3506.24,0.2011247835642721
392,3514.32,0.18268531395365525
393,3522.42,0.2008688439232101
394,3530.54,0.1795360734729367
395,3538.6800000000003,0.20246800260283504
396,3546.84,0.20871353131290513
397,3555.01,0.20882715981306108
398,3563.21,0.20091938768347464
399,3571.42,0.17711481534397408
400,3579.66,0.18259114237473112
401,3587.9100000000003,0.15875596919557403
402,3596.18,0.1909500955965887
403,3604.4700000000003,0.2070721215777751
404,3611.73,0.16910426918011684
405,3614.5899999999997,0.16974030914467572
406,3617.45,0.2019854491092346
407,3620.32,0.19907178886387936
408,3623.18,0.21236382882843824
409,3626.04,0.1985286687929971
410,3628.9,0.20323640875755597
411,3631.7700000000004,0.20339954851220074
412,3634.6299999999997,0.2000460884767596
413,3637.49,0.20369732844131846
414,3640.35,0.21149216840587737
415,3643.22,0.2167320081605221
416,3646.08,0.20801464812508097
417,3648.94,0.19852798808963987
418,3651.8,0.19905132805419873
419,3654.6600000000003,0.23474246801875762
420,3657.5299999999997,0.22168550777340237
421,3660.39,0.22330624773796123
422,3663.25,0.20491738770252013
423,3666.11,0.22462972766707898
424,3668.98,0.23646406742172374
425,3671.84,0.22117260738628264
426,3674.7000000000003,0.22936744735084147
427,3677.5600000000004,0.21028118731540035
428,3680.4300000000003,0.1990500270700451
429,3683.29,0.19571696703460398
430,3686.15,0.20681420699916286
431,3689.0099999999998,0.21509094696372175
432,3691.88,0.2222076867183665
433,3694.7400000000002,0.21404412668292536
434,3697.6,0.22955136664748424
435,3700.46,0.22335700661204314
436,3703.32,0.212373046576602
437,3706.1899999999996,0.20758258633124677
438,3709.0499999999997,0.20859812629580562
439,3711.91,0.22353106626036448
440,3714.77,0.22807470622492337
441,3717.64,0.2427705459795681
442,3720.5,0.225663785944127
443,3723.36,0.2683187259086859
444,3726.2200000000003,0.29082076587324474
445,3729.0899999999997,0.2873222056278895
446,3731.95,0.26303634559244843
447,3734.81,0.23396078555700725
448,3737.67,0.21374642552156614
449,3740.54,0.22341686527621088
450,3743.4,0.21744810524076977
451,3746.26,0.20998194520532865
452,3749.1200000000003,0.2196227851698875
453,3751.9799999999996,0.22761242513444638
454,3754.85,0.22957036488909113
455,3757.71,0.23242180485365
456,3760.5699999999997,0.23738594481820888
457,3763.43,0.24445258478276777
458,3766.3,0.2320315245374125
459,3769.16,0.2253653645019714
460,3772.02,0.23817530446653026
461,3774.88,0.2520416444310892
462,3777.7500000000005,0.2656912841857339
463,3780.6099999999997,0.2659787241502928
464,3783.47,0.28075796411485165
465,3786.33,0.2931372040794105
466,3789.2,0.2683780438340553
467,3792.06,0.24508698379861416
468,3794.92,0.226605923763173
469,3797.78,0.22410366372773188
470,3800.6400000000003,0.23925200369229077
471,3801.8939600000003,0.24546676915944685
472,3803.5099999999998,0.25347605051518884
473,3806.37,0.26177340298884677
474,3809.23,0.2562764554625047
475,3812.09,0.26411230793616264
476,3814.96,0.2641624602436446
477,3817.82,0.24232781271730255
478,3820.6800000000003,0.2350770651909605
479,3823.5400000000004,0.22827751766461843
480,3826.4100000000003,0.22153836997210036
481,3829.27,0.21501582244575831
482,3832.13,0.20265757491941627
483,3834.99,0.19833992739307424
484,3837.86,0.20370297970055615
485,3840.7200000000003,0.2150258321742141
486,3843.58,0.23535338464787203
487,3846.44,0.25450163712153
488,3849.2999999999997,0.27237818959518795
489,3852.1699999999996,0.28733024190266987
490,3855.0299999999997,0.2694645943763278
491,3857.89,0.2670649468499857
492,3860.75,0.27626499932364373
493,3863.62,0.27928925163112567
494,3866.48,0.28937120410478356
495,3869.34,0.29359695657844154
496,3872.2000000000003,0.28843850905209945
497,3875.0699999999997,0.2775146613595814
498,3877.93,0.25729021383323936
499,3880.79,0.24706526630689732
500,3883.65,0.23629661878055525
501,3886.52,0.22974207108803718
502,3889.38,0.24083932356169513
503,3892.2400000000002,0.25264427603535305
504,3895.1000000000004,0.26321842850901106
505,3897.9599999999996,0.27429518098266903
506,3900.83,0.29307273329015093
507,3903.69,0.2941704857638089
508,3906.5499999999997,0.2984680382374668
509,3909.41,0.29843759071112475
510,3912.28,0.29564674301860666
511,3915.14,0.3068773954922646
512,3918.0,0.2942218479659226
513,3920.86,0.28104310043958053
514,3923.7300000000005,0.26222225274706246
515,3926.5899999999997,0.2378030052207204
516,3929.45,0.20471735769437838
517,3932.31,0.1931180101680363
518,3935.18,0.20258346247551823
519,3938.04,0.22783391494917618
520,3940.9,0.26187386742283414
521,3943.76,0.2759351198964921
522,3946.6200000000003,0.28387347237015004
523,3949.49,0.292313024677632
524,3952.35,0.3017898771512899
525,3955.21,0.2948982296249479
526,3958.07,0.2691968820986058
527,3960.94,0.24614033440608774
528,3963.8,0.20937288687974567
529,3966.6600000000003,0.18182543935340365
530,3969.5200000000004,0.18285119182706158
531,3972.39,0.2082545441345435
532,3975.25,0.25828339660820143
533,3978.11,0.2931745490818594
534,3980.97,0.3098204015555173
535,3983.84,0.3244646538629993
536,3986.7000000000003,0.3280136063366572
537,3989.56,0.33035225881031516
538,3992.42,0.3408446112839731
539,3995.2799999999997,0.35362386375763105
540,3998.1499999999996,0.34703821606511304
541,4001.0099999999998,0.35946876853877097
542,4003.87,0.35827952101242894
543,4006.73,0.37652527348608683
544,4009.6,0.37758022579356876
545,4012.46,0.3729755782672267
546,4015.32,0.39327263074088464
547,4018.1800000000003,0.3749352832145426
548,4021.0499999999997,0.37819523552202455
549,4023.91,0.3696831879956825
550,4026.77,0.37599104046934045
551,4029.63,0.3698274929429984
552,4032.5,0.35958034525048027
553,4035.36,0.3685853977241383
554,4038.2200000000003,0.37686245019779624
555,4041.0800000000004,0.37100670267145414
556,4043.9399999999996,0.3565358551451121
557,4046.81,0.365282807452594
558,4049.67,0.360483359926252
559,4052.5299999999997,0.3741755123999099
560,4055.39,0.37542716487356786
561,4058.26,0.3595186171810498
562,4061.12,0.35568316965470775
563,4063.98,0.3767495221283657
564,4066.8399999999997,0.36943727460202364
565,4069.7100000000005,0.3640207269095056
566,4072.5699999999997,0.3589033793831635
567,4075.43,0.3634163318568215
568,4078.29,0.36413458433047946
569,4081.16,0.37096373663796134
570,4084.02,0.3769637891116193
571,4086.88,0.36824664158527726
