,lambda (Angstroms),Total Flux (erg/s/cm^2/Angstrom)
0,100.03,0.0002800259732200696
1,101.89,0.0003368095752452932
2,104.03,0.000402141165397129
3,104.712855,0.0004229879300433557
4,105.96,0.0003912201481447214
5,107.93,0.0003410395810910859
6,109.94,0.00028984074637899136
7,114.05999999999999,0.00018489498402065306
8,118.07,8.275131204657825e-05
9,120.22644299999999,2.7827526954887996e-05
10,121.1,2.6800454848279837e-05
11,125.07000000000001,2.2125643001465284e-05
12,127.10000000000001,1.9735511264076492e-05
13,127.98,1.8699742707326672e-05
14,130.96,1.5191577898105679e-05
15,131.87,1.4122458872034845e-05
16,134.01,1.1603656833802338e-05
17,137.13,7.9347596944166e-06
18,138.038426,6.8663714801271675e-06
19,140.0,6.789752600839538e-06
20,142.94,6.696126283057693e-06
21,146.94,6.568180140769467e-06
22,151.06,6.421599200612596e-06
23,154.93,6.2903584893487375e-06
24,158.489319,6.172784241746735e-06
25,158.91,6.149493316840638e-06
26,161.85999999999999,5.990231376722885e-06
27,166.01000000000002,5.769148633845365e-06
28,169.88,5.570522204945127e-06
29,173.04,5.410168204344415e-06
30,177.07,5.212189481742875e-06
31,179.95000000000002,5.078212295119439e-06
32,181.970086,4.984700845552543e-06
33,182.03,4.986992592779147e-06
34,185.84,5.14337990663151e-06
35,191.05,5.356282665206526e-06
36,194.15,5.493028585663829e-06
37,198.22,5.6791523463932566e-06
38,201.9,5.866361286807087e-06
39,205.18,6.024122885871588e-06
40,208.929613,6.206680760056332e-06
41,209.96,6.3644288636824305e-06
42,215.85,7.345618590263277e-06
43,219.85999999999999,8.005841320923581e-06
44,222.92,8.503997644070846e-06
45,227.06,9.20607719891715e-06
46,230.22,1.0991803617592102e-05
47,233.96,1.3602927790327651e-05
48,239.88329199999998,1.5894894029622232e-05
49,239.96,1.5907089663316636e-05
50,246.11999999999998,1.5586129259791638e-05
51,251.85,1.5741544759434777e-05
52,257.12,1.4386767039211273e-05
53,260.09999999999997,1.5371198593999507e-05
54,263.71999999999997,1.5631301106863062e-05
55,269.24,1.5495913745262732e-05
56,274.25,1.5410841292071133e-05
57,275.42287,1.538944671566233e-05
58,278.7,1.602733426829584e-05
59,283.89,1.7039934782110747e-05
60,289.83,1.7768340456881562e-05
61,295.90000000000003,1.9137316626218076e-05
62,300.71,1.9693494925148644e-05
63,307.71,2.1184253094070488e-05
64,316.227766,2.2973924426343134e-05
65,317.79,2.300464593136521e-05
66,328.20000000000005,2.286261917142636e-05
67,338.18,2.2689235332407176e-05
68,347.65,2.2481285887967126e-05
69,357.39,2.2234616469926357e-05
70,363.078055,2.2155517376877784e-05
71,365.72,2.2497526609995917e-05
72,375.1,2.350748831445373e-05
73,384.71999999999997,2.4150841938855023e-05
74,394.59000000000003,2.5565585896530785e-05
75,404.71,2.6654040187481e-05
76,414.14,2.7539653958593707e-05
77,416.86938299999997,2.778666250504441e-05
78,421.84,2.8111554537630614e-05
79,429.68,2.853697448029634e-05
80,440.7,2.9344353379298414e-05
81,450.96999999999997,2.9952594222560786e-05
82,460.40999999999997,3.0442780684137884e-05
83,470.04999999999995,3.10321079605789e-05
84,478.630092,3.155415780860134e-05
85,479.89,3.152102797238653e-05
86,489.94000000000005,3.111678934122781e-05
87,500.20000000000005,3.0934519216283695e-05
88,505.99,3.3554896601914645e-05
89,511.85,4.594327348961712e-05
90,520.17,4.569734859297628e-05
91,529.84,4.563696552200068e-05
92,539.69,4.407323402778044e-05
93,549.5408739999999,4.828687425712068e-05
94,549.72,4.8369467154554613e-05
95,559.94,5.2801755364644204e-05
96,570.35,5.550974643773936e-05
97,579.62,5.4272870332801045e-05
98,590.4,5.8713788033854444e-05
99,599.99,5.855968306660974e-05
100,609.74,6.270203366821184e-05
101,619.65,6.931766983866072e-05
102,629.71,7.17934724799035e-05
103,630.957344,7.19760130406388e-05
104,639.9499999999999,7.363176080622096e-05
105,650.3399999999999,7.845866560888692e-05
106,657.87,8.061510094710393e-05
107,665.49,8.476231826147493e-05
108,674.7499999999999,8.767333491909639e-05
109,685.7099999999999,8.681717223740428e-05
110,695.25,9.974441170972702e-05
111,704.93,9.643974758940041e-05
112,716.3799999999999,0.00011089402233343557
113,724.43596,0.00011377084490354625
114,726.35,0.00011443646456377386
115,734.76,0.00011850884523745087
116,744.9799999999999,0.00012619216158524864
117,755.34,0.0001315532055542491
118,765.85,0.00013656650054596673
119,774.72,0.00014515045768930977
120,785.4899999999999,0.00015398686112040388
121,794.59,0.00015951855649857995
122,805.64,0.0001649198151720795
123,814.97,0.00017011394878508858
124,824.41,0.00018128353981475696
125,831.763771,0.00017171956090795458
126,835.88,0.00016620465123871433
127,845.5600000000001,0.00019114803886435114
128,855.35,0.0001976864672584611
129,865.25,0.0002081139364210442
130,875.27,0.00021816957733105253
131,885.41,0.0002297805899884861
132,895.6600000000001,0.00023939534341439286
133,906.0300000000001,0.00024395276858772485
134,914.41,0.00034795422894958817
135,925.0,0.0019372566356598664
136,935.71,0.00405744851411757
137,944.3699999999999,0.007958910541890091
138,954.992586,0.010797741004132163
139,955.3100000000001,0.01088257542228792
140,964.15,0.013418047833601541
141,975.3100000000001,0.003599827380011043
142,984.3399999999999,0.014882171983423034
143,995.7299999999999,0.014813393551846353
144,1004.95,0.017767024347356712
145,1014.25,0.015583004802697965
146,1025.99,0.006193378882881436
147,1035.48,0.012551724530321058
148,1045.06,0.020777893795070432
149,1054.73,0.021066952677129564
150,1064.49,0.01860418117649845
151,1074.34,0.020873259293177085
152,1084.28,0.01843407702716548
153,1094.32,0.021408424335942484
154,1096.4782,0.0212841160612043
155,1104.44,0.020825459200636852
156,1114.6599999999999,0.020728963189335144
157,1124.98,0.019345835847198782
158,1135.38,0.021755877440394696
159,1145.8899999999999,0.02025710756967249
160,1153.83,0.020920301901400908
161,1164.51,0.021506759768259786
162,1175.29,0.017202706304284013
163,1186.16,0.02035011164255705
164,1194.38,0.015981072247948435
165,1205.43,0.012462975190719093
166,1213.79,0.006064537932941963
167,1225.02,0.013384724480210244
168,1236.35,0.01890445369664387
169,1244.92,0.02082367964411396
170,1256.44,0.020823766331961743
171,1258.92541,0.0203133881258956
172,1265.1499999999999,0.019035259147548163
173,1273.92,0.022261367449352906
174,1285.7099999999998,0.02304344860993191
175,1294.62,0.020775407044262614
176,1303.6000000000001,0.020442655544856293
177,1315.6599999999999,0.023149306961021084
178,1324.7800000000002,0.02262192559414072
179,1333.9599999999998,0.0214556742840572
180,1346.3,0.023309905965273905
181,1355.6399999999999,0.022884544806648623
182,1365.0300000000002,0.02165403369535404
183,1374.4899999999998,0.02220954265032244
184,1384.02,0.02246749167155382
185,1393.6200000000001,0.02082351075904818
186,1406.51,0.02130826296090258
187,1416.26,0.021704112190389035
188,1426.0800000000002,0.021703831486138473
189,1435.96,0.021604970838684748
190,1442.59,0.02236344711473554
191,1445.43977,0.022495857144019353
192,1445.92,0.022518170193902474
193,1455.94,0.022261238154626245
194,1466.0300000000002,0.021308386170963856
195,1476.19,0.021161974242915306
196,1486.43,0.02120986237842543
197,1493.29,0.021357417828581627
198,1503.6399999999999,0.02087091605148492
199,1510.58,0.01965883156519979
200,1517.55,0.020349547102749162
201,1524.5600000000002,0.019931902672077867
202,1535.1200000000001,0.01847429106182268
203,1545.76,0.01952402951512617
204,1556.48,0.01868774803198833
205,1563.66,0.018687893736379215
206,1574.5,0.019613632348579383
207,1585.4199999999998,0.020070821024338225
208,1596.41,0.020537439755710905
209,1603.77,0.019840425603108808
210,1614.8899999999999,0.019749694437764326
211,1626.08,0.019079183328033694
212,1633.5900000000001,0.019749789294604102
213,1644.91,0.019932058288156307
214,1656.32,0.018601927353212023
215,1659.58691,0.019249500782893236
216,1663.9599999999998,0.02011636532122681
217,1671.64,0.018474469880307244
218,1675.49,0.020071022217867097
219,1683.23,0.020584827125065347
220,1694.9,0.01965906483398053
221,1706.64,0.019211752949033177
222,1714.52,0.01894810866850633
223,1726.4099999999999,0.01877427765385351
224,1734.38,0.019568663895503383
225,1746.3999999999999,0.01912393363510583
226,1754.4599999999998,0.01993248039893243
227,1766.6200000000001,0.01847507095080978
228,1774.77,0.019212038236813108
229,1782.97,0.01930074581291461
230,1795.33,0.020071567525184682
231,1803.61,0.019887485565443275
232,1816.11,0.019212238089988252
233,1824.5,0.019167746768462838
234,1832.92,0.018774895620996334
235,1845.6200000000001,0.017603689305934027
236,1854.1399999999999,0.017807648738663886
237,1867.0,0.018179813351915753
238,1875.6100000000001,0.018775253306822334
239,1884.2700000000002,0.01797220355182709
240,1892.97,0.017603894028910393
241,1905.46072,0.017994177734857054
242,1906.09,0.018013831793356635
243,1914.8899999999999,0.017807875979955083
244,1923.7299999999998,0.01756318986740171
245,1937.06,0.01744224017505595
246,1946.0,0.018432983314623015
247,1954.98,0.01768478615503825
248,1968.54,0.0185602547425695
249,1977.62,0.018732346835105173
250,1982.18,0.0180965627317971
251,1995.9199999999998,0.01768446997314513
252,2005.1299999999999,0.017725051093437375
253,2014.39,0.017521911839789833
254,2023.6899999999998,0.01764355228699047
255,2033.0300000000002,0.01752165243503928
256,2047.1200000000001,0.017889057058808847
257,2056.57,0.017281586384190136
258,2066.06,0.0173212154104196
259,2075.6,0.018137354062709284
260,2080.38,0.01792950831406617
261,2085.1800000000003,0.018095742415847143
262,2094.8,0.017441030469833176
263,2104.47,0.017440968149879426
264,2114.19,0.0175616654559859
265,2123.94,0.017683632537728502
266,2133.75,0.016694349170743365
267,2143.6,0.0172412355046064
268,2153.4900000000002,0.017400821539317612
269,2163.4300000000003,0.016848127200089043
270,2173.42,0.016770592486920696
271,2183.4500000000003,0.01684798747460052
272,2187.7616199999998,0.017101305677883625
273,2193.5299999999997,0.01744028962450164
274,2203.65,0.01696533996791426
275,2213.82,0.016276740609466267
276,2224.04,0.016053851549157668
277,2234.31,0.017082502786988456
278,2244.62,0.016389174263330763
279,2254.98,0.015869816037812456
280,2265.39,0.015869728110433537
281,2275.85,0.01627693048119401
282,2286.35,0.016694663090466
283,2296.91,0.015906726057505254
284,2307.51,0.016126079263056023
285,2312.83,0.015758490985087158
286,2323.5,0.013661534608033073
287,2334.23,0.014977488588746255
288,2345.0,0.01410656280797095
289,2355.83,0.015394177384962912
290,2366.7,0.014202072200466388
291,2377.62,0.014767147314109254
292,2383.1,0.013498479990186442
293,2394.11,0.014263585640480211
294,2405.16,0.013905721529285493
295,2416.26,0.014065417716230162
296,2427.4100000000003,0.015000674201314224
297,2433.0099999999998,0.014557647592925951
298,2444.2400000000002,0.015207604555033036
299,2455.52,0.015032061815279513
300,2466.85,0.014858289373665382
301,2472.54,0.01435386330192801
302,2483.9500000000003,0.014385191337336902
303,2495.42,0.013928009730513061
304,2506.9399999999996,0.015234508421828613
305,2511.88643,0.014003691249893958
306,2512.71,0.013798756015742607
307,2518.5099999999998,0.013639912630758557
308,2524.31,0.013206389245774504
309,2535.96,0.013419822360418608
310,2547.67,0.013449045336597359
311,2553.5400000000004,0.014476921790070398
312,2565.33,0.01408103458162868
313,2577.1699999999996,0.014776247257799168
314,2583.11,0.014640183549729296
315,2595.0299999999997,0.014438066041279314
316,2607.01,0.01391465839436398
317,2613.02,0.013659564524751196
318,2625.0800000000004,0.014401166693215395
319,2637.2000000000003,0.015008508723214239
320,2643.28,0.016454744692058543
321,2655.48,0.017070586537436917
322,2667.7400000000002,0.01560356824434994
323,2673.89,0.016187324051651335
324,2686.23,0.016449045573943884
325,2692.4199999999996,0.015386261288935046
326,2704.85,0.015924632603529568
327,2717.33,0.014894983802736302
328,2723.6,0.01468994933310699
329,2736.17,0.015451270324615693
330,2742.48,0.013457055762676147
331,2755.14,0.013960576546486822
332,2767.85,0.014717267214909704
333,2774.2299999999996,0.015268912491427245
334,2787.04,0.01415035292907454
335,2793.46,0.01095934811328185
336,2806.36,0.011796238343231114
337,2812.83,0.01515822341205063
338,2825.8100000000004,0.015981043457379426
339,2832.33,0.015616358410811146
340,2845.4,0.014877648248441915
341,2851.96,0.0138838231095634
342,2865.12,0.015720252739496142
343,2871.73,0.016122627485229832
344,2884.0315,0.01598318828580494
345,2884.9799999999996,0.015972439051574524
346,2898.2999999999997,0.016118798422487653
347,2911.68,0.017630287790567058
348,2931.86,0.016912346837491005
349,2952.18,0.016600605877802932
350,2972.65,0.016828264911030538
351,2993.25,0.016941613938118417
352,3007.07,0.017096573285417173
353,3027.91,0.01721180230117015
354,3048.9,0.017408271309838814
355,3070.03,0.017484890311895457
356,3091.31,0.017482029306867784
357,3112.74,0.0177219382947558
358,3127.11,0.01735637761607875
359,3148.7900000000004,0.017352566592159578
360,3170.6099999999997,0.017712445561628386
361,3192.59,0.016834924523540594
362,3207.33,0.01750459382738891
363,3229.5600000000004,0.016675242777493934
364,3251.94,0.018154651720514642
365,3266.96,0.01905102101113891
366,3289.6,0.018915989941880144
367,3311.31121,0.018706342425539597
368,3312.3999999999996,0.018695827933492892
369,3320.0400000000004,0.01801855103585908
370,3327.6899999999996,0.01810067412919695
371,3335.36,0.01921541720447819
372,3343.05,0.017849480261702796
373,3350.7599999999998,0.018306643300870767
374,3358.48,0.01826322633101042
375,3366.23,0.017003829334065128
376,3373.9900000000002,0.015831552328091514
377,3381.7599999999998,0.01731753531308959
378,3389.56,0.018384938271002713
379,3397.37,0.01751589121988752
380,3405.2,0.018171534150715693
381,3413.05,0.017838947063487234
382,3420.92,0.01825273995820214
383,3428.81,0.018548352834860414
384,3436.71,0.018718435702490373
385,3444.64,0.016153628543035384
386,3452.58,0.019597771374552077
387,3460.53,0.01812142419704045
388,3468.51,0.01837168699244388
389,3476.5099999999998,0.01824408976979067
390,3484.52,0.018582312538109144
391,3492.5499999999997,0.018325405288370986
392,3500.61,0.017499698011547882
393,3508.6699999999996,0.018535090734724775
394,3516.7599999999998,0.017257933430816722
395,3524.87,0.018069326108852035
396,3533.0,0.01887599876883071
397,3541.14,0.019537291419781073
398,3549.3,0.0200370540526748
399,3557.49,0.01922268665848358
400,3565.69,0.020173049255264044
401,3573.9100000000003,0.016895011833987873
402,3582.15,0.017247394394655072
403,3590.4,0.015693466946293953
404,3598.6800000000003,0.018735299470847882
405,3606.98,0.01822321197734518
406,3615.29,0.01839044447481416
407,3621.47,0.018914708895314557
408,3624.21,0.017888846421555835
409,3626.96,0.015826613938768795
410,3629.7000000000003,0.011240321465010073
411,3632.45,0.02111856898222303
412,3635.1899999999996,0.018482066508464307
413,3637.94,0.014788404025677267
414,3640.68,0.010787811551918545
415,3643.42,0.010412809078159823
416,3646.17,0.010371206595372781
417,3648.9100000000003,0.011180804121614058
418,3651.66,0.014727011638827019
419,3654.4,0.020194749165068294
420,3657.15,0.017324816682281256
421,3659.89,0.021048704208522534
422,3662.64,0.02149640172573549
423,3665.3799999999997,0.02149739925197677
424,3668.13,0.019879136769189728
425,3670.87,0.018454634295431004
426,3673.61,0.022512001821672283
427,3676.36,0.02141801933888524
428,3679.1000000000004,0.019987856865126517
429,3681.85,0.01793977438233948
430,3684.5899999999997,0.019647761908580755
431,3687.34,0.021828909425793717
432,3690.08,0.02168254695203499
433,3692.83,0.022969104469247954
434,3695.57,0.02238347199548923
435,3698.32,0.021565329512702187
436,3701.06,0.022381567038943465
437,3703.81,0.017915164556156427
438,3706.55,0.0176875420823977
439,3709.29,0.01951171960863898
440,3712.04,0.01907333712585194
441,3714.7799999999997,0.020624514652093216
442,3717.53,0.02174576216930618
443,3720.27,0.02978392969554745
444,3723.0200000000004,0.034307807212760416
445,3725.76,0.05333900473900169
446,3728.5099999999998,0.07689575225621464
447,3731.25,0.08097687978245592
448,3734.0,0.0693025672996689
449,3736.7400000000002,0.04171774482591016
450,3739.48,0.03024494235215144
451,3742.2299999999996,0.0204270098693644
452,3744.9700000000003,0.020875777395605675
453,3747.72,0.018266564912818636
454,3750.46,0.01702343243905991
455,3753.21,0.021223329956272872
456,3755.9500000000003,0.022253057482514146
457,3758.7,0.022447594999727108
458,3761.4399999999996,0.024544792525968386
459,3764.19,0.020993750043181346
460,3766.93,0.023961917569422623
461,3769.6800000000003,0.02155108508663558
462,3772.42,0.02131119261287686
463,3775.1600000000003,0.025121060139118138
464,3777.91,0.021977157656331094
465,3780.6499999999996,0.026798755182572374
466,3783.4,0.02788314269978533
467,3786.14,0.02935405022602661
468,3788.89,0.02603254774323957
469,3791.6299999999997,0.026508715269480846
470,3794.38,0.021810852786693806
471,3797.12,0.021916710312935083
472,3799.8700000000003,0.022217037830148043
473,3801.8939600000003,0.020474687138035245
474,3802.61,0.019858275491087703
475,3805.35,0.024122523532766067
476,3808.1,0.026457651567297274
477,3810.8399999999997,0.026656089608975638
478,3813.59,0.027134957643506846
479,3816.33,0.02881084568518521
480,3819.0800000000004,0.026230903719716415
481,3821.82,0.030644411761394777
482,3824.5699999999997,0.02737202979592598
483,3827.31,0.027761297837604348
484,3830.06,0.021709745872135554
485,3832.8,0.022439073913813917
486,3835.54,0.019761951955492282
487,3838.29,0.02008212999002349
488,3841.03,0.02059701803170185
489,3843.78,0.022091406066233058
490,3846.52,0.024799804107911425
491,3849.27,0.03001707214244263
492,3852.01,0.02858976018412099
493,3854.7599999999998,0.029201818218652198
494,3857.5,0.03034208626033056
495,3860.25,0.028388454294861767
496,3862.9900000000002,0.022616652336540134
497,3865.74,0.03084265037107134
498,3868.4800000000005,0.029324658412749702
499,3871.2200000000003,0.03365410645442807
500,3873.97,0.029555134488959273
501,3876.71,0.030209852530637637
502,3879.46,0.02658323056516884
503,3882.2000000000003,0.02845654860684721
504,3884.95,0.021851426641378416
505,3887.6899999999996,0.023587754683056777
506,3890.44,0.023480002717587982
507,3893.18,0.026214840759266347
508,3895.9300000000003,0.025945538793797553
509,3898.67,0.02213578683547592
510,3901.4100000000003,0.02983104487715428
511,3904.16,0.030240942911685487
512,3906.8999999999996,0.03220874095336385
513,3909.65,0.02949275898789506
514,3912.39,0.03103167702957342
515,3915.14,0.032118895064104626
516,3917.88,0.02961467310578299
517,3920.63,0.026547291140314195
518,3923.37,0.026993219181992562
519,3926.1200000000003,0.028525387216523767
520,3928.86,0.02675042525820213
521,3931.6099999999997,0.024429333292733335
522,3934.35,0.0211797613344117
523,3937.0899999999997,0.018910729376090066
524,3939.84,0.02359334741062127
525,3942.58,0.024910255452299638
526,3945.3300000000004,0.027371973486830844
527,3948.07,0.026717381528509207
528,3950.8199999999997,0.02820230956304041
529,3953.56,0.029500337604718777
530,3956.31,0.02882482563924998
531,3959.05,0.02613827368092835
532,3961.7999999999997,0.022909361715459552
533,3964.5399999999995,0.023466759757137915
534,3967.28,0.021232687798816284
535,3970.0299999999997,0.020279475833347486
536,3972.77,0.020620543875025852
537,3975.52,0.021922221909557057
538,3978.26,0.02364154995123542
539,3981.0099999999998,0.02558841798576663
540,3983.75,0.029802606027444993
541,3986.5,0.030293744061976196
542,3989.24,0.03107410210365456
543,3991.9900000000002,0.029199820138185766
544,3994.73,0.03275841817986413
545,3997.48,0.03146603621439534
546,4000.22,0.031045734256073702
547,4002.96,0.03286238229775207
548,4005.71,0.033647300332283275
549,4008.4500000000003,0.031672088373961634
550,4011.2,0.031560536408492844
551,4013.9399999999996,0.0329549244501712
552,4016.69,0.03250612248470241
553,4019.43,0.03424531052638077
554,4022.1800000000003,0.032815008560911976
555,4024.92,0.035952286602590346
556,4027.67,0.033258984637121555
