,lambda (Angstroms),Total Flux (erg/s/cm^2/Angstrom)
0,102.03999999999999,13.285087429384319
1,103.92999999999999,13.247431360804583
2,104.712855,13.231836258256966
3,106.11,13.085592747760746
4,108.08,12.879391314165439
5,110.09,12.669056838382412
6,113.96,12.263987325070312
7,117.97,11.844253499101187
8,120.22644299999999,11.608429440852845
9,120.99000000000001,11.541546043154558
10,124.96000000000001,11.193235298614718
11,126.99000000000001,11.015125381292835
12,127.87,10.937926602787783
13,131.15,10.650136992178039
14,132.06,10.57038665887168
15,133.89,10.409828798991857
16,137.01,10.136190639655759
17,138.038426,10.045966095791487
18,139.88,9.930501135278218
19,143.14000000000001,9.72698996325363
20,147.15,9.476880200477993
21,150.93,9.240039517412677
22,155.15,8.975639484466743
23,158.489319,8.76646389922304
24,159.13,8.736137445982433
25,162.09,8.596026807460342
26,165.87,8.41714340751659
27,170.12,8.215943766331156
28,172.89,8.084869525906766
29,176.91,7.894574362839602
30,180.20000000000002,7.738823028147818
31,181.86999999999998,7.659831889289073
32,181.970086,7.655094351498475
33,186.10999999999999,7.505684698263971
34,190.88,7.333563498273283
35,193.98,7.221738915413507
36,198.04,7.075235169945543
37,202.19,6.9254919973268105
38,205.0,6.824122067286176
39,208.929613,6.682103611059559
40,209.78,6.659006483975872
41,216.14999999999998,6.486638068133111
42,220.17,6.377733206618527
43,223.23,6.29472638248056
44,226.86,6.1964583886502265
45,230.02,6.1162832722855285
46,233.76000000000002,6.025835055005791
47,239.75,5.871806642624609
48,239.88329199999998,5.868142203626262
49,245.9,5.740275795862904
50,252.21,5.609958360036621
51,256.90000000000003,5.504059631490619
52,259.87,5.448186319810102
53,264.1,5.3615991513560335
54,269.01,5.258497519722587
55,274.01,5.153509070462458
56,275.42287,5.123722190975529
57,279.1,5.064123678716402
58,284.29,4.980715132295304
59,290.24,4.883208647592888
60,296.32,4.7853949713423525
61,301.14,4.705831838558212
62,308.15,4.593691860463434
63,316.227766,4.464129230616728
64,318.24,4.440047445319911
65,327.92,4.323087647902403
66,337.88,4.202391810022405
67,348.15,4.077999546987509
68,357.08,3.970325786880241
69,363.078055,3.8983524144064985
70,366.23999999999995,3.8699511711442
71,374.77000000000004,3.79231112264998
72,385.27,3.695794725922044
73,395.15000000000003,3.6074362074199464
74,405.29,3.51598302869411
75,413.77,3.438865759089072
76,416.86938299999997,3.410624664016198
77,422.43999999999994,3.3717131222355397
78,430.28999999999996,3.3169445517293115
79,441.33,3.2407056933230995
80,450.57,3.176420808026596
81,460.0,3.1105650566796235
82,469.64,3.0436393218031856
83,478.630092,2.981506920302316
84,479.46999999999997,2.977034883318608
85,489.51,2.922793409089016
86,499.76,2.868569373436296
87,505.55,2.8372507527700277
88,512.5799999999999,2.801448455605284
89,519.71,2.76302780823905
90,530.59,2.704561778316943
91,540.4599999999999,2.6510051114298845
92,549.5408739999999,2.6023531721802
93,550.51,2.598375626496814
94,559.45,2.5628306433366284
95,569.85,2.5207634067073297
96,580.45,2.477310443027468
97,589.88,2.4389428095934025
98,599.46,2.3991903858714143
99,610.61,2.3522139878025032
100,620.53,2.314039784094557
101,630.61,2.27265522274616
102,630.957344,2.27125483240981
103,639.38,2.2443352019230876
104,649.77,2.2105620673938686
105,657.3,2.185841743697525
106,664.91,2.1616976101876735
107,675.71,2.126965815364231
108,685.11,2.0959606122771612
109,694.64,2.0657022932431426
110,704.31,2.0337245170354863
111,715.75,1.9976379437039886
112,724.43596,1.9696250322036404
113,725.7099999999999,1.9665655337159753
114,735.8000000000001,1.9423764429626
115,744.3199999999999,1.9217345411966187
116,754.68,1.8967995367957307
117,765.1800000000001,1.8707158382813165
118,775.8199999999999,1.8461012156533776
119,784.8,1.8242218232286693
120,795.72,1.7983145323736789
121,804.9399999999999,1.7763073900400703
122,814.26,1.7539867419110857
123,825.58,1.7269505578745936
124,831.763771,1.7116193543346983
125,835.1400000000001,1.7052715088252806
126,844.8100000000001,1.6886458952528958
127,854.5999999999999,1.6709959894438318
128,864.49,1.6533868684375352
129,874.5,1.6354489651945596
130,884.63,1.617301817714905
131,894.87,1.5989628915182945
132,905.2399999999999,1.580331178565282
133,915.72,1.5616169848953134
134,924.19,1.5529107856897186
135,934.89,1.5403781895858388
136,945.72,1.5274006677255565
137,954.47,1.5152623779677108
138,954.992586,1.5144501828796753
139,965.52,1.4984919002202333
140,974.45,1.4667999183522324
141,985.7399999999999,1.4593530576366975
142,994.86,1.4421774970055479
143,1004.06,1.4304661226846513
144,1015.69,1.409833236287692
145,1025.09,1.3819688227424283
146,1034.57,1.3730175755074174
147,1044.1499999999999,1.3642506936602232
148,1053.81,1.3463382381232818
149,1066.01,1.3210645854368754
150,1075.8700000000001,1.3060246706755663
151,1085.83,1.2837533713020746
152,1095.88,1.2713818377776165
153,1096.4782,1.270251536065049
154,1106.02,1.255222912857544
155,1116.25,1.2399712351353323
156,1123.99,1.2262596507589962
157,1134.3899999999999,1.2147767858605607
158,1144.88,1.1981832395158878
159,1155.48,1.1831941202924818
160,1166.17,1.1678038596228393
161,1174.25,1.1495925308940544
162,1185.1200000000001,1.139484377331939
163,1196.0800000000002,1.1200492323235873
164,1204.3700000000001,1.104935973553584
165,1215.52,1.0831653299365107
166,1223.94,1.079216336855277
167,1235.27,1.066850050345731
168,1243.83,1.0553769272370181
169,1255.3400000000001,1.038339607834999
170,1258.92541,1.0326752810378226
171,1264.04,1.026681201297567
172,1275.74,1.0170330094856008
173,1284.58,1.0082092050054487
174,1296.47,0.9929196098392709
175,1305.45,0.9837139670981205
176,1314.5,0.9769038752264717
177,1323.6100000000001,0.9666493512429661
178,1335.8600000000001,0.9525281034056511
179,1345.12,0.9448660941425052
180,1354.45,0.9347756657488604
181,1363.8300000000002,0.9236549122620018
182,1376.4499999999998,0.9108747947349068
183,1385.99,0.901105698949765
184,1395.6,0.8877584540341245
185,1405.28,0.8777291799879847
186,1415.02,0.870247993829989
187,1424.82,0.8598249655601369
188,1434.6999999999998,0.8500671811411433
189,1441.3200000000002,0.8436644047996714
190,1445.43977,0.8394298043044497
191,1447.98,0.8375956336984782
192,1454.66,0.8323272296054606
193,1464.74,0.8241962007944402
194,1474.9,0.8168744317547608
195,1485.1200000000001,0.8096502300435873
196,1495.41,0.8021458168823373
197,1505.78,0.7940499334924284
198,1512.73,0.787816652377687
199,1516.22,0.7858496786524428
200,1526.73,0.7782103823623808
201,1533.7700000000002,0.7714111422403981
202,1544.4099999999999,0.7634090318287656
203,1555.1100000000001,0.7554493287456385
204,1565.89,0.7485940554338528
205,1576.74,0.7415326806719906
206,1584.02,0.7365811198640314
207,1595.0,0.7288979709805984
208,1606.06,0.7205378418685066
209,1613.4699999999998,0.7151108269389767
210,1624.66,0.7067550137053139
211,1635.9199999999998,0.6992412590215749
212,1643.47,0.6937917711918917
213,1654.86,0.6852253723865821
214,1659.58691,0.6821116496067949
215,1666.33,0.679097953363694
216,1670.17,0.6761104722408572
217,1677.8799999999999,0.6736062274082866
218,1685.6299999999999,0.6698071691265197
219,1693.4099999999999,0.6652475782578556
220,1705.14,0.659008926781065
221,1716.9599999999998,0.6526340375435833
222,1724.89,0.6485714537404332
223,1736.8500000000001,0.6433096124307646
224,1744.8600000000001,0.6390279417292223
225,1756.9599999999998,0.6336036283473669
226,1765.07,0.6286448990228339
227,1773.22,0.6247121062491049
228,1785.5099999999998,0.6188679264835675
229,1793.75,0.6155340259491467
230,1806.18,0.6092355141114226
231,1814.52,0.6041968649540115
232,1827.1000000000001,0.5982081301818014
233,1835.53,0.5936936832636989
234,1844.0,0.5881505928964
235,1856.7800000000002,0.5823540508782088
236,1865.3500000000001,0.5788295618879196
237,1873.96,0.5749740794484339
238,1886.95,0.5677721193219627
239,1895.66,0.5635579782594866
240,1904.41,0.5595584637478143
241,1905.46072,0.5590183066504032
242,1913.1999999999998,0.5560634175526356
243,1926.47,0.5504095614050661
244,1935.3600000000001,0.5462764223129869
245,1944.29,0.545394450919031
246,1953.27,0.5416256091477295
247,1966.81,0.538226544962493
248,1975.88,0.5345343505119688
249,1985.0,0.531443225684099
250,1994.17,0.5281161404788834
251,2003.37,0.5245608310472605
252,2017.26,0.5197026742206035
253,2026.57,0.5153362259588198
254,2035.9199999999998,0.5132641653951594
255,2045.32,0.5109301744541532
256,2054.7599999999998,0.5063544812112704
257,2064.25,0.5028375275910417
258,2073.77,0.5012554497444057
259,2078.56,0.5051019715946803
260,2083.35,0.5063500834449548
261,2092.96,0.5010411829190963
262,2102.62,0.4967546520158922
263,2117.2,0.49382659798186346
264,2126.97,0.48792023824849856
265,2136.79,0.48323109813778775
266,2146.65,0.48393816572520043
267,2156.56,0.4802808529352674
268,2166.51,0.4737412478434576
269,2176.51,0.4703913023743021
270,2186.56,0.4711907765278009
271,2187.7616199999998,0.4707944195926916
272,2196.65,0.4689056252231391
273,2206.79,0.4654306819156758
274,2216.98,0.45798906576152887
275,2227.21,0.45824420133003485
276,2237.4900000000002,0.4622791840518571
277,2242.65,0.4594800462740947
278,2253.0,0.4506330570105598
279,2263.4,0.44680910490034104
280,2273.85,0.4458575299434386
281,2284.34,0.45004289670918907
282,2294.89,0.4426701360589192
283,2305.48,0.44493714713130217
284,2316.1200000000003,0.4384167053570014
285,2326.81,0.4308358507360171
286,2337.5499999999997,0.42628016326834894
287,2342.94,0.4196247903958413
288,2353.76,0.42751175637347905
289,2364.62,0.4153941540737699
290,2375.5299999999997,0.416826888927377
291,2386.5,0.4069798863649636
292,2397.5099999999998,0.4069858455252032
293,2403.04,0.4055545586819811
294,2414.13,0.40530693128752665
295,2425.2799999999997,0.4138845564770519
296,2436.47,0.41093607338923
297,2447.72,0.4134235128853876
298,2453.36,0.41370237577946123
299,2464.68,0.4066159832902616
300,2476.06,0.39982133338504156
301,2487.49,0.38710799063313767
302,2493.23,0.38901660783384384
303,2504.73,0.3971870030965828
304,2510.51,0.3787582220199419
305,2511.88643,0.3776876640385025
306,2516.29,0.37453819537074734
307,2522.09,0.3748534651759817
308,2533.74,0.3807619804744269
309,2545.4300000000003,0.37984210032325283
310,2557.18,0.3942205969976503
311,2563.08,0.3834752581788371
312,2574.9100000000003,0.38909840395399625
313,2586.79,0.38262490541713173
314,2592.75,0.3781347434238898
315,2604.72,0.37171365512538235
316,2616.7400000000002,0.36693818251485094
317,2622.78,0.37424171962237096
318,2634.88,0.39430802611260146
319,2647.05,0.41106256056599855
320,2653.15,0.43692378449909003
321,2665.3900000000003,0.4005135669156537
322,2677.7000000000003,0.40651688729538404
323,2683.87,0.4170104791916422
324,2696.2599999999998,0.3910564586721344
325,2702.4700000000003,0.40428003511877336
326,2714.95,0.3804955948376227
327,2727.48,0.36747556024444816
328,2733.77,0.37822745579184897
329,2746.38,0.3514826402994362
330,2752.7200000000003,0.3624698615348132
331,2765.42,0.37405027628075765
332,2778.1899999999996,0.3755877089898687
333,2784.59,0.34891168705081704
334,2797.44,0.3264988288606899
335,2803.89,0.32861235260961447
336,2816.8399999999997,0.3606992657954397
337,2823.33,0.3843075640947451
338,2836.36,0.37651180638133214
339,2842.9,0.3543651803686138
340,2856.0200000000004,0.3290833228935578
341,2862.6099999999997,0.37073649256881575
342,2875.82,0.39406620533211695
343,2882.45,0.3842259095577557
344,2884.0315,0.386271451742126
345,2895.7500000000005,0.40205795452313775
346,2909.12,0.4384651636622161
347,2929.28,0.4174896654007215
348,2949.59,0.40492439289620996
349,2970.03,0.40679252938108357
350,2990.62,0.40647319162294016
351,3011.35,0.4038403712379807
352,3032.22,0.40988706822620535
353,3053.24,0.41454559097141297
354,3067.34,0.4236185121278081
355,3088.6000000000004,0.4164173360841884
356,3110.01,0.4368907857975516
357,3131.57,0.4205048612678977
358,3153.2700000000004,0.4166729541114279
359,3167.83,0.4319815609225708
360,3189.7799999999997,0.4074217633610725
361,3211.8999999999996,0.4212781083241549
362,3226.7200000000003,0.39454013311406816
363,3249.09,0.4489662876721221
364,3271.6099999999997,0.479799267987159
365,3286.71,0.4736094275234404
366,3309.49,0.4553171258172476
367,3311.31121,0.4530414250482634
368,3324.7700000000004,0.43673098563111123
369,3332.4300000000003,0.44735059211995
370,3340.11,0.4251249688607178
371,3347.82,0.4620629009793793
372,3355.5299999999997,0.4542116330980408
373,3363.27,0.3781998205945959
374,3371.02,0.4081884932171155
375,3378.79,0.4442441360915642
376,3386.58,0.43827564921794204
377,3394.39,0.4458101325962489
378,3402.21,0.49083960110052033
379,3410.06,0.4410074249826854
380,3417.92,0.418689233990815
381,3425.8,0.4615756132508736
382,3433.6899999999996,0.4923308776368969
383,3441.61,0.4441449974008137
384,3449.54,0.4225522022906951
385,3457.49,0.45454937743250556
386,3465.46,0.4266418228262451
387,3473.4500000000003,0.4740803384719137
388,3481.46,0.4304032243695114
389,3489.4900000000002,0.4597873805190382
390,3497.5299999999997,0.4333193217945296
391,3505.59,0.48183253332195
392,3513.67,0.44962821510129947
393,3521.77,0.4871003671325781
394,3529.89,0.40068988941578576
395,3538.0299999999997,0.47133188195092257
396,3546.19,0.48436694473798836
397,3554.3599999999997,0.48121939265101876
398,3562.5499999999997,0.45780271081597823
399,3570.77,0.40783438435883124
400,3579.0,0.43008834302764887
401,3587.25,0.3773596719483956
402,3595.52,0.4494225711210714
403,3603.81,0.4991024405456763
404,3612.11,0.41512629509624566
405,3620.4399999999996,0.4418633050247087
406,3628.79,0.5029479852051009
407,3637.15,0.42898775051145754
408,3645.54,0.4928605711957078
409,3653.94,0.4565933770059226
410,3662.36,0.5434570530680665
411,3670.81,0.5096055845081041
412,3679.27,0.5067892010741062
413,3687.75,0.4885481878920373
414,3696.25,0.5239128449618976
415,3704.77,0.5359639722836869
416,3713.3100000000004,0.45722176985740526
417,3721.87,0.46663183768305283
418,3730.4500000000003,0.46651157576062935
419,3739.0499999999997,0.3470885840901351
420,3747.67,0.4157712626715698
421,3756.31,0.4493906115049336
422,3764.9700000000003,0.4423484305902265
423,3773.65,0.45136721992744855
424,3782.35,0.5056274795165996
425,3791.07,0.45759090935767976
426,3799.81,0.416749009450689
427,3801.8939600000003,0.43518512565206613
428,3808.57,0.49442302232406965
429,3817.35,0.4563100320762633
430,3826.14,0.40852539229514506
431,3834.96,0.3741758039140912
432,3843.81,0.36305026693310194
433,3852.67,0.4464116804188007
434,3861.55,0.40685219483787577
435,3870.45,0.45248121019032717
436,3879.37,0.4611930264761548
437,3882.9700000000003,0.407101494483888
438,3885.98,0.45800608495702044
439,3888.98,0.4883444249634647
440,3891.98,0.28616547496990896
441,3894.98,0.32412680497635327
442,3897.9799999999996,0.33049464498279757
443,3900.98,0.34585938498924185
444,3903.98,0.4727816249956861
445,3906.98,0.4304809650021304
446,3909.98,0.3855511050085747
447,3912.98,0.33534014501501896
448,3915.98,0.47768128502146323
449,3918.98,0.47789152502790755
450,3921.98,0.44830316503435186
451,3924.99,0.35275345550748427
452,3927.9900000000002,0.3907250955139286
453,3930.99,0.4028527355203729
454,3933.99,0.32960987552681714
455,3936.9900000000002,0.27583081553326144
456,3939.99,0.35945245553970573
457,3942.9900000000002,0.48787859554615
458,3945.99,0.46073923555259433
459,3948.99,0.5402167755590386
460,3951.9900000000002,0.5145015155654828
461,3954.99,0.5093179555719272
462,3957.9900000000002,0.5591883955783714
463,3961.0,0.5105645860515038
464,3963.9999999999995,0.5873822260579482
465,3967.0,0.5783951660643925
466,3970.0,0.6548544060708368
467,3973.0,0.5749886460772811
468,3976.0,0.5428577860837254
469,3978.9999999999995,0.5848868260901696
470,3982.0,0.5952435660966139
471,3985.0,0.6340411061030582
472,3988.0,0.6026942461095024
473,3991.0,0.6179934861159467
474,3994.0,0.586123826122391
475,3997.0,0.6413405661288354
476,4000.0099999999998,0.5930748566019678
477,4003.01,0.5777670966084121
478,4006.0099999999998,0.5715839366148563
479,4009.01,0.5099887766213006
480,4012.0099999999998,0.5293034166277449
481,4015.0099999999998,0.6286216566341892
482,4018.01,0.5877464966406335
483,4021.0099999999998,0.6121701366470778
484,4024.01,0.559318976653522
485,4027.0099999999998,0.5284475166599664
486,4030.0099999999998,0.5960459566664107
487,4033.01,0.5945674966728549
488,4036.0099999999998,0.5933979366792992
489,4039.02,0.5979067271524316
490,4042.02,0.594337167158876
491,4045.0199999999995,0.5659132071653202
492,4048.02,0.5907881471717644
493,4051.02,0.6002400871782088
494,4054.02,0.613398727184653
495,4057.02,0.5918674671910973
496,4060.0199999999995,0.6379834071975417
497,4063.02,0.601171447203986
498,4066.02,0.5542151872104302
499,4069.02,0.5314701272168745
500,4072.02,0.5719784672233188
501,4075.0199999999995,0.5603081072297631
502,4078.03,0.5453781977028955
503,4081.0299999999997,0.6518720377093399
504,4084.03,0.5919422777157841
505,4087.0299999999997,0.5370478177222284
506,4090.03,0.5695246577286727
507,4093.0299999999997,0.5926175977351169
508,4096.03,0.5314500377415612
509,4099.03,0.5711503777480056
510,4102.03,0.5334136177544498
511,4105.03,0.5970420577608941
512,4108.03,0.5868666977673385
513,4111.03,0.5596801377737828
514,4114.04,0.5263586282469152
515,4117.04,0.5449587682533594
516,4120.04,0.6152659082598037
517,4123.04,0.572964948266248
518,4126.04,0.5533089882726923
519,4129.04,0.5652083282791366
520,4132.04,0.5857587682855809
521,4135.04,0.5920266082920251
522,4138.04,0.5273898482984695
523,4141.04,0.5528350883049137
524,4144.04,0.5961948283113581
525,4147.04,0.5897026683178023
526,4150.04,0.5616131083242466
527,4153.05,0.565882398797379
528,4156.05,0.5997135388038233
529,4159.05,0.5787764788102676
530,4162.05,0.5653697188167119
531,4165.05,0.5532223588231561
532,4168.05,0.5883147988296005
533,4171.05,0.5738863388360447
534,4174.05,0.596359478842489
535,4177.05,0.6454715188489333
536,4180.05,0.6154077588553776
537,4183.05,0.6089392988618219
538,4186.05,0.6043026388682662
539,4189.06,0.5478847293413985
540,4192.06,0.5642274693478428
541,4195.0599999999995,0.5305063093542872
542,4198.06,0.6169694493607314
543,4201.0599999999995,0.5918720893671758
544,4204.06,0.63661182937362
545,4207.06,0.6235376693800643
546,4210.0599999999995,0.6338449093865086
547,4213.06,0.6477186493929529
548,4216.0599999999995,0.6224546893993972
549,4219.06,0.5819121294058414
550,4222.06,0.6020111694122857
551,4225.0599999999995,0.59974850941873
552,4228.07,0.6191300998918625
553,4231.07,0.6571930398983068
554,4234.07,0.5816970799047511
555,4237.07,0.5573600199111953
556,4240.070000000001,0.5600417599176396
557,4243.07,0.6030687999240839
558,4246.07,0.6210985399305282
559,4249.07,0.6406749799369725
560,4252.07,0.6022233199434168
561,4255.070000000001,0.555383959949861
562,4258.07,0.6087234999563054
563,4261.07,0.7475121399627496
564,4264.07,0.6241125799691939
565,4267.08,0.47911177044232633
566,4270.08,0.47575781044877063
567,4273.08,0.48658795045521497
568,4276.08,0.46472219046165925
569,4279.08,0.5596223304681035
570,4282.08,0.6487228704745478
571,4285.08,0.6603370104809921
572,4288.08,0.6165651504874363
573,4291.08,0.6400125904938807
574,4294.08,0.663055930500325
575,4297.08,0.6731040705067692
576,4300.08,0.6729799105132135
577,4303.08,0.6283740505196578
578,4306.09,0.6233781409927902
579,4309.09,0.6501045809992345
580,4312.09,0.6569901210056788
581,4315.09,0.6596959610121231
582,4318.09,0.6345747010185674
583,4321.09,0.6690474410250116
584,4324.09,0.661012881031456
585,4327.09,0.6788763210379003
586,4330.09,0.7025612610443446
587,4333.09,0.6983525010507888
588,4336.09,0.6742765410572331
589,4339.09,0.6581371810636774
590,4342.099999999999,0.6614339715368098
591,4345.1,0.6392354115432541
592,4348.099999999999,0.6217178515496984
593,4351.1,0.6150612915561426
594,4354.1,0.580625531562587
595,4357.099999999999,0.6570374715690314
596,4360.1,0.6513316115754755
597,4363.099999999999,0.6481421515819199
598,4365.15832,0.6616048268226045
599,4366.1,0.6677820606613651
