,lambda (Angstroms),Total Flux (erg/s/cm^2/Angstrom)
0,100.05999999999999,4.288718407308716
1,101.92,4.276788386760487
2,104.05,4.263126412393756
3,104.712855,4.258874890206115
4,105.99000000000001,4.21584387242041
5,107.96,4.149468650720368
6,109.97,4.081746690235625
7,114.09,3.942932190749385
8,118.1,3.807824330533575
9,120.22644299999999,3.736200411334236
10,121.13000000000001,3.7106862535548224
11,125.10000000000001,3.598550419969153
12,127.13000000000001,3.5412104983540384
13,128.01,3.516355172248324
14,131.0,3.431898776277883
15,131.9,3.406487739032265
16,134.05,3.3457584829277347
17,136.85,3.266685647401369
18,138.038426,3.233117911999965
19,140.04000000000002,3.1927089007776965
20,142.97,3.1337660669596943
21,146.98,3.0533083228084337
22,151.1,2.9701716076926745
23,154.97,2.892097112523503
24,158.489319,2.821102051417263
25,158.95,2.814078237746716
26,161.9,2.7691001087028986
27,166.06,2.705686178993652
28,169.92,2.6468330777634366
29,173.08,2.598657328984296
30,177.11999999999998,2.5370608312666625
31,179.99,2.4933055032172526
32,181.970086,2.4631175615086343
33,182.07999999999998,2.4618396497750803
34,185.89000000000001,2.4175463329038136
35,191.1,2.356971829499799
36,194.2,2.3209441051058555
37,197.81,2.278976272453553
38,201.95999999999998,2.2307357214100483
39,204.76999999999998,2.1980733256336022
40,208.929613,2.1496417382558812
41,210.02,2.1400976317228797
42,215.9,2.088826501046599
43,219.92000000000002,2.053727206318938
44,222.98,2.0269672050486283
45,227.12,1.9908287193887984
46,229.75,1.9690508782087612
47,234.01999999999998,1.9342210242890816
48,239.88329199999998,1.8841858650478271
49,240.01999999999998,1.8832938197461917
50,246.18,1.8412916065615248
51,251.92,1.8029163015712677
52,257.19,1.7661874193223728
53,260.16999999999996,1.746965963323947
54,263.79,1.7228284691245155
55,268.69,1.6897162045230767
56,273.69,1.6558956628277306
57,275.42287,1.644175197462737
58,278.78,1.6267361984877273
59,283.96000000000004,1.599863680216664
60,289.90999999999997,1.5686348695944965
61,295.98,1.5372510830085202
62,300.79,1.512219722542533
63,307.79,1.4759577459870414
64,316.227766,1.432253295696132
65,317.87,1.4258993959668707
66,328.28999999999996,1.3854475093084364
67,338.26,1.3466960606410086
68,347.74,1.309830457030456
69,356.66,1.2751924963420458
70,363.078055,1.2502841239164788
71,365.81,1.2423346409215321
72,375.18999999999994,1.2149934778458653
73,384.82000000000005,1.186770151897179
74,394.69,1.158170591750395
75,404.81000000000006,1.128737417730592
76,414.24,1.101258694280321
77,416.86938299999997,1.0935880776608868
78,421.95000000000005,1.0822443421640402
79,429.79,1.0647698980028208
80,440.81,1.0402545661333518
81,451.08000000000004,1.0173507151007346
82,460.53,0.9963075671564078
83,470.17,0.9748487723867453
84,478.630092,0.9560387545489979
85,480.02000000000004,0.9536583303666439
86,490.07,0.9363796956953773
87,500.33,0.918838034293666
88,506.11999999999995,0.9088940400114138
89,511.98,0.8989768578190134
90,520.3,0.8847300416414077
91,529.98,0.8681151047809236
92,539.83,0.8511862687100801
93,549.5408739999999,0.8345577525019507
94,549.87,0.8341269463441926
95,560.09,0.8208349659686922
96,570.5,0.8072752550177181
97,579.77,0.7951113755195882
98,590.5500000000001,0.7810676413426905
99,600.15,0.7684642413187371
100,609.9,0.7554786984194097
101,619.8100000000001,0.7428565407196827
102,629.88,0.7296909852195569
103,630.957344,0.7282879252383633
104,640.11,0.7188298066402558
105,650.51,0.708055435710507
106,658.0500000000001,0.700214475936439
107,665.67,0.6923699494167579
108,674.93,0.6827893576120007
109,684.32,0.6730089283456216
110,695.43,0.6615900030485535
111,705.11,0.651507232829326
112,716.5699999999999,0.639742170520199
113,724.43596,0.6316082917930689
114,726.53,0.6299980839295781
115,734.95,0.6235303374400081
116,745.17,0.6156797747246392
117,755.54,0.607715753740454
118,764.29,0.6008668700594875
119,774.9200000000001,0.5928421114093533
120,785.7,0.5845467254904025
121,794.8,0.5775853171821976
122,805.85,0.569122668379377
123,815.1899999999999,0.5619581018410655
124,824.6199999999999,0.554741210341464
125,831.763771,0.5491673266932202
126,834.1700000000001,0.5477538838134687
127,845.78,0.5412120946962957
128,855.5699999999999,0.5355902504941318
129,865.48,0.5299226087481209
130,875.5,0.5241960323369174
131,885.64,0.518397248381867
132,895.89,0.5125321427616238
133,904.18,0.5077610413575442
134,914.6500000000001,0.5021724714069153
135,925.2399999999999,0.5000438969124398
136,935.96,0.4992081299954634
137,944.62,0.5026021070811897
138,954.992586,0.503522082218539
139,955.5600000000001,0.5035794037556182
140,964.4,0.5014866116634524
141,975.57,0.47188704454246905
142,984.59,0.48519049694163924
143,995.9899999999999,0.48009625139291867
144,1005.21,0.48625175511579544
145,1014.51,0.47955363216815494
146,1023.9,0.45448512796618246
147,1035.75,0.45701683614580174
148,1045.34,0.473225500267536
149,1055.01,0.4666632677187527
150,1064.77,0.45140399391563746
151,1074.6200000000001,0.4523993888581902
152,1084.57,0.43759848796259637
153,1094.6,0.44281599039648517
154,1096.4782,0.4413859323643156
155,1104.73,0.43593827204874974
156,1114.95,0.4293065531403793
157,1125.27,0.42028787036793475
158,1135.68,0.42495988611782354
159,1146.19,0.41585001800363824
160,1154.13,0.4145128131961567
161,1164.81,0.4107242245130455
162,1175.59,0.39203313196586015
163,1183.74,0.40009820704382304
164,1194.69,0.3818838839277118
165,1205.75,0.36871514456111903
166,1214.1100000000001,0.35823164952452635
167,1225.3400000000001,0.3670913295890077
168,1233.8300000000002,0.37729278352911866
169,1245.25,0.37611074825185936
170,1253.8799999999999,0.36979679878226673
171,1258.92541,0.3646694190364644
172,1265.48,0.35886883253261626
173,1274.2600000000002,0.36691316291068776
174,1286.05,0.36521593026347415
175,1294.96,0.3513667861255034
176,1303.94,0.34763559494043306
177,1316.0,0.3535298536829778
178,1325.12,0.34817543840370824
179,1334.31,0.3395454460773389
180,1343.56,0.34432438628202694
181,1355.99,0.3384311906327592
182,1365.3899999999999,0.330066777165091
183,1374.85,0.3290062062284801
184,1384.38,0.32609835824476957
185,1393.98,0.31706907321395944
186,1403.6399999999999,0.3152266207142067
187,1416.63,0.31170751868814167
188,1426.45,0.30941885293787547
189,1436.3400000000001,0.3057369001405095
190,1442.97,0.3057296198223563
191,1445.43977,0.30535815008697825
192,1446.29,0.3053139626143409
193,1456.3200000000002,0.3016871229027175
194,1466.4099999999999,0.2958681318468572
195,1476.5800000000002,0.29329579899868063
196,1483.3899999999999,0.29235179142777795
197,1493.68,0.2905372858911273
198,1504.0300000000002,0.28586967901023974
199,1510.97,0.2801479635268234
200,1517.95,0.280842177147249
201,1524.9499999999998,0.27801234031959565
202,1535.52,0.271090458509839
203,1546.17,0.27155664490776626
204,1553.3,0.2679772601675994
205,1564.07,0.26593643387705257
206,1574.9099999999999,0.26538043101822933
207,1585.83,0.26438897636708997
208,1596.82,0.26242836514767415
209,1604.19,0.25998350503055906
210,1615.3100000000002,0.25737759589862963
211,1626.51,0.25284767497438415
212,1634.02,0.25304477172071604
213,1645.3400000000001,0.2509262281079965
214,1656.75,0.24547197747892147
215,1659.58691,0.24588788884599572
216,1664.39,0.2469194794031284
217,1672.08,0.2418035237251489
218,1675.9299999999998,0.24515738412043875
219,1683.6699999999998,0.24533437078525527
220,1695.34,0.24108081959383518
221,1703.1599999999999,0.23837885800712524
222,1714.97,0.2348349273755338
223,1726.8600000000001,0.23267157849241596
224,1734.83,0.23326050393409395
225,1746.8500000000001,0.23050428914224563
226,1754.92,0.23121539926951554
227,1763.0199999999998,0.22697660880246312
228,1775.2399999999998,0.22577453338179865
229,1783.43,0.22488366113177888
230,1795.79,0.2250740062709432
231,1804.0800000000002,0.22323462870651534
232,1816.59,0.21870860087406763
233,1824.97,0.21784991152667252
234,1833.4,0.2151645245220734
235,1846.1,0.21063846959225038
236,1854.6299999999999,0.20939897727324325
237,1863.19,0.20888848435991364
238,1876.1,0.20889002526983366
239,1884.76,0.20520435704209603
240,1893.4599999999998,0.20279455468859522
241,1905.46072,0.20210080999090932
242,1906.59,0.20208360866289168
243,1915.3899999999999,0.20001940393123674
244,1924.23,0.19833909813261974
245,1933.1100000000001,0.19765342126704066
246,1946.51,0.19760887383474793
247,1955.49,0.19480440930176368
248,1969.05,0.19567335760162272
249,1978.1399999999999,0.19513016763449278
250,1982.7,0.19319556600081708
251,1996.4399999999998,0.19073463449934674
252,2005.6599999999999,0.19026591356459013
253,2014.91,0.1882195993296119
254,2024.2099999999998,0.18797734626093116
255,2033.5600000000002,0.18580603435854778
256,2042.94,0.18578996915594287
257,2057.1,0.18288022145137087
258,2066.6,0.18171353304787974
259,2076.14,0.1824710735774266
260,2085.7200000000003,0.18390489304001129
261,2095.35,0.18092452366889347
262,2105.02,0.1796668332308136
263,2114.74,0.1792424539590311
264,2124.5,0.17784292362028653
265,2134.3,0.17463593221457988
266,2144.16,0.1752887342084302
267,2154.05,0.1748507129020589
268,2163.9900000000002,0.172149592761985
269,2173.98,0.1707345937882086
270,2184.02,0.17057001598072957
271,2187.7616199999998,0.17044730759499682
272,2194.1,0.17047884773403985
273,2204.23,0.16883171613211279
274,2214.4,0.1654017243264269
275,2224.62,0.1647098922660425
276,2234.89,0.1672561299509595
277,2245.21,0.16502175738117797
278,2255.57,0.16157364460763757
279,2265.98,0.1606386015793986
280,2276.44,0.16090996829646112
281,2286.9500000000003,0.16274913475882505
282,2297.5,0.15925480101743017
283,2302.8,0.16036212401938343
284,2313.43,0.1572581098704709
285,2324.11,0.15116222546685973
286,2334.84,0.15222310080855
287,2345.61,0.1493037859464815
288,2356.44,0.1527308207787747
289,2367.32,0.14778832535636935
290,2372.77,0.148918227594227
291,2383.73,0.14502152176430394
292,2394.73,0.14587547573062204
293,2405.7799999999997,0.14429161944224164
294,2416.89,0.14442309284822294
295,2422.46,0.148142924474804
296,2433.64,0.14671584752420735
297,2444.87,0.14838835031891212
298,2456.16,0.14787743280797863
299,2467.5,0.14514839504234658
300,2473.1800000000003,0.1430381061085908
301,2484.6,0.13946779793544112
302,2496.07,0.13876421950759282
303,2507.59,0.14290633082504597
304,2511.88643,0.13739372165143945
305,2513.37,0.1355200798824296
306,2519.16,0.13475250864956245
307,2524.9700000000003,0.13403500010673713
308,2536.62,0.1359531570561495
309,2542.47,0.13575863389340806
310,2554.21,0.14224524294800897
311,2566.0,0.13749411872771466
312,2577.84,0.14049889123252515
313,2583.7900000000004,0.13842405151999324
314,2595.71,0.13633910478497135
315,2607.6899999999996,0.13374096612007524
316,2613.7,0.13237085447766905
317,2625.77,0.1351192079179615
318,2637.89,0.1434394480833587
319,2643.97,0.15116176585609922
320,2656.17,0.16203698678166406
321,2662.3,0.14534453127950936
322,2674.58,0.14874308296524186
323,2686.9300000000003,0.152482974066121
324,2693.12,0.14264249663409204
325,2705.5600000000004,0.14804705984015976
326,2718.04,0.13845460842631135
327,2724.31,0.13351287175445004
328,2736.8799999999997,0.13800640244579024
329,2743.1899999999996,0.1268725811540127
330,2755.8500000000004,0.13050426395054143
331,2762.21,0.13561021938386872
332,2774.96,0.13679400428558608
333,2787.77,0.12647947725742914
334,2794.1899999999996,0.11679530076088215
335,2807.0899999999997,0.11800452583791383
336,2813.56,0.13167104606647156
337,2826.5499999999997,0.14096357324869188
338,2833.06,0.1385718688573334
339,2846.14,0.1295005081447423
340,2852.7000000000003,0.12048902047848863
341,2865.87,0.13726857187108613
342,2872.48,0.1477459209299372
343,2884.0315,0.14336727660259124
344,2885.73,0.14275282408017476
345,2892.3900000000003,0.15102969668377528
346,2912.44,0.1672583843717919
347,2932.6200000000003,0.157864427546065
348,2952.95,0.15272789474294174
349,2973.42,0.1546562716942485
350,2987.15,0.1548618518965661
351,3007.8500000000004,0.15450692701586505
352,3028.7,0.15739206615776763
353,3049.69,0.15883619505410024
354,3070.83,0.1638092079730365
355,3092.12,0.16159333491457636
356,3113.5499999999997,0.17137231161054622
357,3127.92,0.1648905449759726
358,3149.61,0.16425254264445543
359,3171.4399999999996,0.17059290006736832
360,3193.42,0.1582500515128848
361,3208.16,0.16544614280073344
362,3230.4,0.15189751521876285
363,3252.79,0.1775981116593959
364,3267.81,0.1923751224561046
365,3290.46,0.18921698986925056
366,3311.31121,0.18253117937502877
367,3313.27,0.18192685821377674
368,3320.9,0.1772423775854868
369,3328.56,0.185742113547125
370,3336.23,0.1870742550387392
371,3343.92,0.17996400759030545
372,3351.63,0.17881897120182377
373,3359.36,0.18961294587329414
374,3367.1,0.18329272607474056
375,3374.86,0.153524747336139
376,3382.64,0.16640642965748953
377,3390.44,0.18548743303879212
378,3398.26,0.18177805748004672
379,3406.09,0.18510348745127742
380,3413.9399999999996,0.18238602848246013
381,3421.81,0.1891478805735949
382,3429.7,0.18274834372468174
383,3437.6099999999997,0.18458521793572064
384,3445.53,0.14627143767673556
385,3453.4700000000003,0.18971468847770254
386,3461.44,0.16828984586859763
387,3469.4199999999996,0.17612480878946873
388,3477.4100000000003,0.16252928724031582
389,3485.43,0.17524966228109107
390,3493.4700000000003,0.16359076838181832
391,3501.52,0.17677276001252162
392,3509.59,0.187009622703177
393,3517.6800000000003,0.16753616645378439
394,3525.79,0.1691287712643439
395,3533.9199999999996,0.18857247713485542
396,3542.0600000000004,0.19858897853534296
397,3550.2299999999996,0.19547019652575864
398,3558.4100000000003,0.18582072004615027
399,3566.62,0.18942396015647006
400,3574.84,0.15736891579676587
401,3583.08,0.15455792249701372
402,3591.34,0.15049339025721362
403,3599.62,0.19515940907736556
404,3607.92,0.1729201989574696
405,3616.2300000000005,0.18123989436754967
406,3624.5699999999997,0.1794808063675578
407,3632.92,0.20469332389754197
408,3641.3,0.2051300580174542
409,3649.69,0.18094239766734252
410,3658.11,0.21528985390715888
411,3666.54,0.2154276156769513
412,3674.9900000000002,0.21388008850669576
413,3683.46,0.18997697239639227
414,3691.95,0.18501346734604085
415,3700.46,0.21328697335564145
416,3709.0,0.17089179595517018
417,3717.55,0.22641632408467494
418,3726.12,0.15984367327413174
419,3734.7000000000003,0.18425120799356456
420,3743.32,0.19742417483290153
421,3751.94,0.1426337016722385
422,3760.5899999999997,0.18557142510150354
423,3769.2599999999998,0.18286241959072064
424,3777.95,0.20713622513988977
425,3786.66,0.23054844174901098
426,3795.3900000000003,0.18989296941808423
427,3801.8939600000003,0.18043014522608736
428,3804.14,0.1771814904694653
429,3812.91,0.21285334051269444
430,3821.7000000000003,0.17903557242603357
431,3830.5099999999998,0.1500518362094827
432,3839.34,0.1408604518630418
433,3848.19,0.1893186593867109
434,3857.06,0.19458971878049
435,3865.9500000000003,0.19445486004437906
436,3874.86,0.17062538317837814
437,3883.8,0.17886507911754215
438,3892.75,0.1688307659917612
439,3901.7200000000003,0.2101973347360902
440,3910.72,0.21250697628558424
441,3919.73,0.2259094087701332
442,3928.77,0.1981992140598472
443,3937.82,0.11279451028461614
444,3946.8999999999996,0.1857490793145501
445,3956.0,0.22503723021459404
446,3965.12,0.18488686298474794
447,3976.5499999999997,0.20048280175260533
448,3979.29,0.1549087179576735
449,3982.0299999999997,0.18559413416274168
450,3984.7700000000004,0.19123135036780983
451,3987.51,0.266377066572878
452,3990.25,0.21451318277794618
453,3992.9900000000002,0.24219349898301434
454,3995.73,0.24717541518808253
455,3998.4599999999996,0.2395244404580957
456,4001.2,0.2544137566631639
457,4003.94,0.24773247286823208
458,4006.6800000000003,0.3373266890733002
459,4009.42,0.22760320527836841
460,4012.1600000000003,0.2971827214834366
461,4014.9,0.24207823768850473
462,4017.6400000000003,0.1917974538935729
463,4020.38,0.22319087009864108
464,4023.12,0.27366948630370924
465,4025.8500000000004,0.3047916115737224
466,4028.59,0.2367816277787906
467,4031.3300000000004,0.3112007439838588
468,4034.07,0.325005060188927
469,4036.81,0.3156541763939951
470,4039.55,0.3223491925990633
471,4042.29,0.3286873088041315
472,4045.03,0.24800072500919967
473,4047.77,0.25623754121426784
474,4050.5,0.240378066484281
475,4053.2400000000002,0.2291570826893492
476,4055.98,0.25432489889441734
477,4058.7200000000003,0.2564802150994855
478,4061.46,0.2377359313045537
479,4064.2,0.28426024750962187
480,4066.94,0.29373906371469005
481,4069.68,0.25122567991975825
482,4072.42,0.3509126961248264
483,4075.16,0.3364367123298946
484,4077.8900000000003,0.26634403759990777
485,4080.63,0.25232495380497594
486,4083.37,0.2833886700100441
487,4086.11,0.25587908621511224
488,4088.85,0.31389530242018043
489,4091.59,0.2403750186252486
490,4094.33,0.2655143348303168
491,4097.07,0.24878295103538495
492,4099.8099999999995,0.25910396724045315
493,4102.55,0.2125220834455213
494,4105.28,0.2551788087155345
495,4108.02,0.24297272492060265
496,4110.76,0.2608028411256708
497,4113.5,0.272651457330739
498,4116.24,0.3058849735358071
499,4118.98,0.26822538974087534
500,4121.72,0.2643992059459435
501,4124.46,0.2858410221510117
502,4127.2,0.24101503835607985
503,4129.9400000000005,0.23737445456114803
504,4132.67,0.2478964798311612
505,4135.41,0.2351336960362294
506,4138.15,0.28312851224129754
507,4140.889999999999,0.2820574284463657
508,4143.63,0.2529204446514339
509,4146.37,0.3034847608565021
510,4149.11,0.2862108770615702
511,4151.85,0.2851683932666384
512,4154.59,0.2887942094717066
513,4157.32,0.32741113474171973
514,4160.0599999999995,0.29666085094678796
515,4162.8,0.22177006715185613
516,4165.54,0.2371446833569243
517,4168.28,0.2775590995619925
518,4171.0199999999995,0.30185601576706067
519,4173.76,0.2660094319721288
520,4176.5,0.319600148177197
521,4179.24,0.32493886438226516
522,4181.9800000000005,0.3048384805873333
523,4184.71,0.2869092058573465
524,4187.45,0.3370595220624147
525,4190.19,0.3337901382674829
526,4192.93,0.28709385447255104
527,4195.67,0.2490345706776192
528,4198.41,0.31063398688268734
529,4201.150000000001,0.3407840030877555
530,4203.89,0.2760718192928237
531,4206.63,0.20330833549789187
532,4209.37,0.24006795170296008
533,4212.099999999999,0.2946164769729733
534,4214.84,0.2888915931780414
535,4217.58,0.2789554093831096
536,4220.320000000001,0.29525802558817776
537,4223.06,0.31929804179324595
538,4225.8,0.31117485799831407
539,4228.54,0.25185887420338227
540,4231.28,0.23215819040845045
541,4234.02,0.26423540661351863
542,4236.76,0.2607661228185868
543,4239.49,0.2573836480886
544,4242.2300000000005,0.27003166429366815
545,4244.97,0.3036221804987363
546,4247.71,0.28769019670380447
547,4250.45,0.27556981290887267
548,4253.19,0.2848487291139408
549,4255.93,0.223991145319009
550,4258.67,0.28629006152407716
551,4261.41,0.30874537772914534
552,4264.15,0.28968709393421355
553,4266.88,0.2752267192042267
554,4269.62,0.2817790354092949
555,4272.36,0.2936847516143631
556,4275.1,0.2720138678194312
557,4277.84,0.26972948402449937
558,4280.58,0.2842333002295676
559,4283.32,0.26044971643463577
560,4286.0599999999995,0.26398973263970393
561,4288.8,0.2515981488447721
562,4291.53,0.21993547411478526
563,4294.27,0.25029969031985344
564,4297.01,0.28714510652492164
565,4299.75,0.2339248227299898
566,4302.49,0.22862823893505796
567,4305.23,0.23468095514012616
568,4307.97,0.2485280713451943
569,4310.71,0.2621896875502625
570,4313.45,0.28859940375533066
571,4316.19,0.2867433199603988
572,4318.92,0.297651045230412
573,4321.66,0.3083860614354802
574,4324.4,0.3411914776405484
575,4327.14,0.3140814938456165
576,4329.88,0.29549421005068466
577,4332.62,0.3164506262557529
578,4335.36,0.32451614246082106
579,4338.099999999999,0.32067565866588926
580,4340.84,0.27313727487095735
581,4343.58,0.2645143910760256
582,4346.3099999999995,0.23109581634603876
583,4349.05,0.27279503255110693
584,4351.79,0.27126724875617514
585,4354.53,0.27436476496124323
586,4357.2699999999995,0.28120258116631147
587,4360.01,0.3376770973713796
588,4362.75,0.3113951135764478
589,4365.15832,0.2950452718665918
