,lambda (Angstroms),Total Flux (erg/s/cm^2/Angstrom)
0,100.00999999999999,0.0022118315846167674
1,102.11,0.0027193252081135736
2,104.0,0.003176069478417698
3,104.712855,0.0033483406157803156
4,105.94,0.003100899947369831
5,107.91,0.0027036705408794797
6,109.91000000000001,0.0023003920462064146
7,114.03999999999999,0.0014676219801152165
8,118.05,0.0006590488614562554
9,120.22644299999999,0.0002201961081448671
10,121.07,0.0002123270400124717
11,125.03999999999999,0.00017529005757042508
12,127.07,0.0001563519694145726
13,127.95,0.00014814290405213394
14,130.93,0.00012034312346433069
15,132.15,0.00010896478849140454
16,133.98,9.189449984701547e-05
17,137.1,6.279680227018792e-05
18,138.038426,5.404435371461435e-05
19,139.98,5.34112417232392e-05
20,142.91,5.255612244357025e-05
21,146.91,5.155346042252049e-05
22,151.03,5.031874323383923e-05
23,154.9,4.920353257772359e-05
24,158.489319,4.819815959810108e-05
25,158.86999999999998,4.8024233887146703e-05
26,161.82999999999998,4.669498121841283e-05
27,165.98000000000002,4.487502188893795e-05
28,169.84,4.322842423308907e-05
29,173.0,4.190484278944074e-05
30,177.03,4.026655532491456e-05
31,179.91,3.915000356614647e-05
32,181.970086,3.836125045737441e-05
33,181.99,3.83669528689533e-05
34,185.79999999999998,3.9534749327780175e-05
35,191.01,4.1187559435519825e-05
36,194.11,4.2279192800969525e-05
37,198.17999999999998,4.372400225173734e-05
38,201.85999999999999,4.526049921459375e-05
39,205.14000000000001,4.655464642061795e-05
40,208.929613,4.7964535899590326e-05
41,209.92000000000002,4.9151550071332245e-05
42,215.79999999999998,5.726863700201695e-05
43,219.81,6.273709961120842e-05
44,222.87,6.678867122819743e-05
45,227.01,7.270569871000606e-05
46,230.17,8.507951253670057e-05
47,233.91,0.00010879820117968712
48,239.88329199999998,0.00013176990186014364
49,239.91,0.0001318244200154009
50,246.07,0.00012984525373052865
51,251.8,0.00013645186742982767
52,257.07,0.00012517669250754248
53,260.05,0.00013761286401258802
54,264.27,0.00014374542788886063
55,269.19,0.0001466264892327613
56,274.19,0.0001492188568586767
57,275.42287,0.00014999707896617113
58,279.28999999999996,0.00015895509286155328
59,283.83,0.0001702241902995215
60,289.77,0.00017850683364347108
61,295.84,0.0001955026998215475
62,301.34000000000003,0.00020637926588076014
63,307.65000000000003,0.00022524987421414767
64,316.227766,0.0002502673972311274
65,317.73,0.0002523840437522231
66,328.13,0.00026323059427926196
67,338.11,0.0002731311443042473
68,348.38,0.00028265155419969815
69,357.32,0.00029201447917197955
70,363.078055,0.00030070415958156796
71,365.64,0.00030747784799977783
72,375.02,0.0003256092179585638
73,384.64,0.0003373826756348453
74,395.41,0.0003697336994574599
75,404.62,0.0003939681031163531
76,414.04999999999995,0.00041168344551628395
77,416.86938299999997,0.00041597467676966066
78,421.75,0.00042243203054893527
79,429.59,0.0004353261847841344
80,440.61,0.0004580651531096311
81,450.87,0.0004717087891368177
82,460.31,0.0004826434850526696
83,469.95000000000005,0.0004975293736786033
84,478.630092,0.0005144969081913771
85,479.79,0.0005159641575090308
86,489.84,0.0005139981871262965
87,500.09,0.0005310885506662938
88,505.89000000000004,0.0005247189344255118
89,511.73999999999995,0.0005552252516654126
90,520.06,0.0005596896828510495
91,529.73,0.0005592687180151249
92,539.58,0.0005498329137096588
93,549.5408739999999,0.0005514880834662357
94,549.61,0.0005515178165177153
95,559.8199999999999,0.0005755037772954154
96,570.23,0.0005970995642391822
97,579.5,0.0005971330520363693
98,590.27,0.0006082493860790559
99,599.86,0.0005896238157419496
100,609.61,0.0005394006663376966
101,619.52,0.0006238206378662969
102,629.58,0.0006199257040194469
103,630.957344,0.000622066068778525
104,639.81,0.0006384703504251726
105,650.2099999999999,0.0006389021853765427
106,657.74,0.0006308914813557558
107,665.35,0.0006536897122192101
108,674.6099999999999,0.0006677116250701415
109,685.57,0.0006436300042112007
110,695.11,0.0006782422891569766
111,704.78,0.0006442808932896446
112,716.23,0.0006947255985966818
113,724.43596,0.0006985220028501713
114,726.19,0.0006992036891523964
115,734.6,0.000704374911730217
116,744.82,0.0007010117423776991
117,755.1800000000001,0.0007034624487874757
118,765.6899999999999,0.0006516854077997104
119,774.55,0.0007111855881849052
120,785.33,0.0006949035218815646
121,794.42,0.0007131199695905288
122,805.4699999999999,0.0007230740779716128
123,814.8,0.0007254540698445099
124,824.24,0.0007338515069592098
125,831.763771,0.0006923381214755989
126,835.7,0.0006693967167091344
127,845.38,0.0007286876054896521
128,855.17,0.0007221164691426758
129,865.07,0.0007305169076682054
130,875.09,0.0007359958915091959
131,885.22,0.0007384369502226924
132,895.47,0.0007408895542516498
133,905.84,0.0007309874035960682
134,914.22,0.0008565612347924256
135,924.81,0.002072346733881856
136,935.52,0.003660395978286747
137,944.17,0.006089762911442891
138,954.992586,0.008491457246459238
139,955.11,0.008517534227918108
140,963.9399999999999,0.008754407014367999
141,975.11,0.002145530037544135
142,984.13,0.006443586428685473
143,995.52,0.007560985046767495
144,1004.7399999999999,0.012117491706005092
145,1014.03,0.012398489009076384
146,1025.77,0.006154891846326861
147,1035.27,0.008456485080899225
148,1044.85,0.01713235162271009
149,1054.51,0.01701492647175946
150,1064.27,0.012568347954856963
151,1074.12,0.01570071640859778
152,1084.06,0.011652011832981916
153,1094.0900000000001,0.017131044228009366
154,1096.4782,0.0170031007470899
155,1104.21,0.01658832931113443
156,1114.43,0.015590372652530923
157,1124.74,0.013771916512589423
158,1135.15,0.019123169837827927
159,1145.65,0.017283903681728437
160,1156.25,0.01898964699080895
161,1164.27,0.01951958209824534
162,1175.04,0.012558817498131862
163,1185.91,0.01920581236319839
164,1194.13,0.012160186400994788
165,1205.18,0.008251640303385323
166,1216.3300000000002,0.007011903670955864
167,1224.76,0.013920329585630272
168,1236.1,0.022243314937042825
169,1244.6599999999999,0.024611113156451238
170,1256.18,0.023074849545187796
171,1258.92541,0.021936665100692462
172,1264.8899999999999,0.019464555015938526
173,1273.66,0.02691813073260609
174,1285.4399999999998,0.02884169900425306
175,1294.35,0.020902885769989433
176,1306.33,0.02075893554030613
177,1315.3799999999999,0.02831581335511131
178,1324.5000000000002,0.026981111694450898
179,1333.6799999999998,0.022811590483391403
180,1346.02,0.02958072295131361
181,1355.35,0.028709662864256413
182,1364.7500000000002,0.02489475330173362
183,1374.2099999999998,0.026857204188811743
184,1383.73,0.027230595525490786
185,1396.54,0.023288661515286854
186,1406.22,0.02421722405090168
187,1415.96,0.025240907036117425
188,1425.7800000000002,0.026611790620801063
189,1435.66,0.026550964655085614
190,1442.29,0.02851296433598709
191,1445.43977,0.029270118645691363
192,1445.61,0.029311039008903726
193,1455.6299999999999,0.028252082025591544
194,1465.72,0.025710275482515706
195,1475.8799999999999,0.026067459379676205
196,1486.11,0.027168983717073047
197,1496.4099999999999,0.027993418494706237
198,1503.32,0.026247691952322284
199,1510.26,0.022812985598611054
200,1517.23,0.02506774943357254
201,1524.23,0.024107123457206742
202,1534.8,0.02033590993289439
203,1545.4399999999998,0.02302352684881838
204,1556.15,0.021888084204978713
205,1563.33,0.022604389360649225
206,1574.17,0.024554967534391334
207,1585.0800000000002,0.026429816148369787
208,1596.07,0.027169445265475486
209,1603.4399999999998,0.02698276161607321
210,1614.55,0.027421031487869785
211,1625.74,0.025889021862793606
212,1633.25,0.028252849093864017
213,1644.57,0.028976810286369614
214,1655.97,0.02679745198200246
215,1659.58691,0.028213135196747268
216,1663.6100000000001,0.029787959501760542
217,1671.29,0.025830362229193556
218,1675.1399999999999,0.030481359052190574
219,1686.76,0.032434762736145206
220,1694.54,0.03048234005638334
221,1706.29,0.02938170971098463
222,1714.16,0.027676971164747367
223,1726.04,0.02780533678999531
224,1734.01,0.030344082836563164
225,1746.03,0.02999796489173827
226,1754.0900000000001,0.03258773507183073
227,1766.25,0.029929963556933004
228,1774.3999999999999,0.030697217870550065
229,1786.7,0.0318480427855795
230,1794.9499999999998,0.03467711169200168
231,1803.23,0.0349179119762654
232,1815.73,0.03199641607690507
233,1824.11,0.03319595095397391
234,1836.76,0.032144821943821254
235,1845.24,0.029659411413695203
236,1853.7500000000002,0.03000305226141069
237,1866.6,0.03148779243686828
238,1875.22,0.03484064833666939
239,1883.87,0.032073275614312044
240,1896.93,0.031200685434660366
241,1905.46072,0.03367176266834303
242,1905.6899999999998,0.03373815366022349
243,1914.49,0.03251917268465665
244,1923.32,0.032146799933036735
245,1936.65,0.03397028077345651
246,1945.5900000000001,0.035814701509642013
247,1954.57,0.033503589877756756
248,1968.12,0.03775868769378736
249,1977.21,0.03935408954970752
250,1981.76,0.037498330181658754
251,1995.5,0.03698345674935325
252,2004.71,0.03881343150106114
253,2013.97,0.03792989329268057
254,2023.26,0.04017519330824694
255,2037.29,0.03827923270742844
256,2046.6899999999998,0.04035997621080022
257,2056.14,0.037321706754083556
258,2065.63,0.03845391492929613
259,2075.16,0.043141050736437946
260,2079.9500000000003,0.04139255715996463
261,2084.74,0.043841953583491314
262,2094.36,0.041867394062473924
263,2104.03,0.04274265158136809
264,2113.7400000000002,0.044141476732191494
265,2123.5,0.044858128922926455
266,2133.2999999999997,0.04284025874559065
267,2143.15,0.044242565608166404
268,2153.04,0.04643401010267139
269,2162.98,0.04547831163708794
270,2172.96,0.04600498080343373
271,2182.99,0.04590098700969106
272,2187.7616199999998,0.04708089940259621
273,2193.07,0.048394105082867504
274,2203.19,0.0479506827582779
275,2213.36,0.04611202279374466
276,2223.58,0.04579538518926781
277,2233.84,0.04895479947283605
278,2244.15,0.04806381611646067
279,2254.51,0.046328115120141664
280,2264.92,0.04784255648387903
281,2275.37,0.049559539735661504
282,2285.8700000000003,0.05147425534750034
283,2296.42,0.04854188331939556
284,2307.02,0.05041733365134716
285,2312.34,0.04873685476134551
286,2323.01,0.04077453839737603
287,2333.74,0.047080874865474194
288,2344.5099999999998,0.04670490322161747
289,2355.33,0.05021323393781712
290,2366.2,0.04746301701407314
291,2377.12,0.04884720245038554
292,2382.6,0.046465091112564284
293,2393.6,0.04949772032496689
294,2404.65,0.04899081189742586
295,2415.75,0.05065196582994121
296,2426.9,0.054212092122512934
297,2432.49,0.05337614597681571
298,2443.7200000000003,0.05647204604547764
299,2455.0,0.057063378474195944
300,2466.33,0.056608253262970615
301,2477.72,0.05576818088381295
302,2483.4300000000003,0.05516603040225102
303,2494.89,0.04811140132717228
304,2506.41,0.05884108508416118
305,2511.88643,0.05362131093463123
306,2512.19,0.053331948032191136
307,2517.98,0.055361202260013356
308,2523.7799999999997,0.05514353630515479
309,2535.4300000000003,0.057676053482033696
310,2547.13,0.057346799745508645
311,2553.01,0.06335105232920374
312,2564.79,0.06141695713123237
313,2576.6299999999997,0.06543173083717627
314,2582.57,0.06487265232478662
315,2594.49,0.06435745456928417
316,2606.4700000000003,0.06355235571769698
317,2612.4700000000003,0.0630056161092226
318,2624.5299999999997,0.06666747579618909
319,2636.6499999999996,0.07335403438707083
320,2642.73,0.07992140331715013
321,2654.92,0.08998955062926632
322,2667.1800000000003,0.075989216662617
323,2673.33,0.07998810431393076
324,2685.67,0.08424478888583511
325,2698.06,0.07728895254433552
326,2704.28,0.08286531891688373
327,2716.7599999999998,0.076904260931257
328,2723.03,0.07433932639040128
329,2735.6000000000004,0.07884156676064744
330,2741.9,0.07096990167174935
331,2754.56,0.07457631039786838
332,2767.27,0.07927717821058348
333,2773.6499999999996,0.08268193166023906
334,2786.45,0.07655807782882704
335,2792.8799999999997,0.06642255036507866
336,2805.77,0.07028298488953952
337,2812.24,0.08357687669506798
338,2825.22,0.09091731957540172
339,2838.26,0.08815048135965073
340,2844.8,0.08308484188641366
341,2857.9300000000003,0.07764251202653553
342,2864.52,0.09148328163989451
343,2877.74,0.10136880013588928
344,2884.0315,0.09924605248916746
345,2884.38,0.09912847507197953
346,2897.69,0.1066002800958982
347,2911.07,0.12339777509364663
348,2931.24,0.11781396755288329
349,2951.56,0.11483325995604089
350,2972.0200000000004,0.11883635230685802
351,2992.62,0.12045324460533471
352,3013.3700000000003,0.12042103684773235
353,3027.2799999999997,0.12684983164733482
354,3048.2599999999998,0.12947462380374458
355,3069.3900000000003,0.13838081590407528
356,3090.6699999999996,0.13866980794832692
357,3112.09,0.15201179994023814
358,3126.4500000000003,0.14672049457160344
359,3148.12,0.15010948647004954
360,3169.9500000000003,0.157877178308678
361,3191.9199999999996,0.146300070094966
362,3206.6499999999996,0.155190164588003
363,3228.88,0.1434819562770873
364,3251.26,0.17326874791009256
365,3266.27,0.19069204229844863
366,3288.91,0.1902280338342502
367,3311.31121,0.184698758375247
368,3311.71,0.18460032260926557
369,3319.34,0.18730396807941194
370,3326.9900000000002,0.19357771340662291
371,3334.66,0.20238135859089848
372,3342.35,0.19120320363223867
373,3350.05,0.20455304860211115
374,3357.78,0.20329579335758055
375,3365.52,0.16961323804158224
376,3373.28,0.16285058258264856
377,3381.0499999999997,0.18884132705224713
378,3388.85,0.20389427130744264
379,3396.6600000000003,0.18695391549117046
380,3404.4900000000002,0.21332805953196288
381,3412.3399999999997,0.1951538034298199
382,3420.2,0.20309434725620923
383,3428.0899999999997,0.20559819086819542
384,3435.99,0.20246303440871394
385,3443.91,0.1712733778062971
386,3451.8500000000004,0.20370362106094483
387,3459.81,0.20574096417265716
388,3467.7799999999997,0.2026057072129018
389,3475.78,0.20463095003874335
390,3483.79,0.2047854927931172
391,3491.8199999999997,0.20874893540455566
392,3499.87,0.1918518778730587
393,3507.94,0.22765502019862635
394,3516.03,0.19752336238125864
395,3524.1299999999997,0.20509080449242317
396,3532.25,0.22195964646065236
397,3540.4,0.23205858821447845
398,3548.56,0.2415035298968368
399,3556.74,0.2209371714362598
400,3564.9399999999996,0.23098851283274738
401,3573.1600000000003,0.18575525408629956
402,3581.39,0.19600579526838405
403,3589.6499999999996,0.16696393623606545
404,3597.92,0.21924867713227916
405,3606.22,0.21590671781408974
406,3614.53,0.21262025842443266
407,3619.51,0.14532612283351903
408,3622.22,0.19041650346577285
409,3624.9300000000003,0.18330998409802665
410,3627.64,0.2114915647302805
411,3630.36,0.22912484529106664
412,3633.0699999999997,0.22202632592332044
413,3635.78,0.19422570655557425
414,3638.5,0.23920398711636037
415,3641.2099999999996,0.23428936774861422
416,3643.92,0.23440464838086802
417,3646.63,0.24004122901312186
418,3649.35,0.20941740957390798
419,3652.06,0.2219069902061618
420,3654.77,0.22287447083841563
421,3657.48,0.26505565147066945
422,3660.2000000000003,0.16650733203145557
423,3662.91,0.19029721266370941
424,3665.62,0.22124139329596323
425,3668.3300000000004,0.21860587392821704
426,3671.05,0.22497845448900317
427,3673.7599999999998,0.248859535121257
428,3676.47,0.21715881575351081
429,3679.1800000000003,0.24367179638576464
430,3681.9,0.19418907694655077
431,3684.6099999999997,0.1796270575788046
432,3687.32,0.21405523821105843
433,3690.03,0.22025071884331224
434,3692.75,0.21101059940409836
435,3695.46,0.2031430800363522
436,3698.17,0.260489060668606
437,3700.8799999999997,0.20495504130085984
438,3703.6000000000004,0.23321472186164596
439,3706.31,0.2138805024938998
440,3709.02,0.23480078312615363
441,3711.7400000000002,0.23777656368693975
442,3714.4500000000003,0.2713328443191936
443,3717.16,0.2429061249514474
444,3719.8700000000003,0.2948973055837012
445,3722.59,0.32785738614448734
446,3725.2999999999997,0.38250426677674115
447,3728.0099999999998,0.42925564740899497
448,3730.7200000000003,0.3867067280412488
449,3733.44,0.29224840860203494
450,3736.1499999999996,0.23938998923428875
451,3738.86,0.20122456986654258
452,3741.57,0.2572943504987964
453,3744.29,0.24604063105958252
454,3747.0,0.23654801169183634
455,3749.71,0.2306266923240902
456,3752.42,0.247298072956344
457,3755.1400000000003,0.24208885351713014
458,3757.85,0.23292923414938393
459,3760.56,0.28212601478163774
460,3763.2700000000004,0.25456329541389155
461,3765.9900000000002,0.2583118759746777
462,3768.7,0.24558105660693152
463,3771.41,0.26442843723918535
464,3774.1200000000003,0.3106129178714392
465,3776.84,0.30126549843222533
466,3779.5499999999997,0.28395677906447914
467,3782.26,0.3349927596967329
468,3784.98,0.2706739402575191
469,3787.69,0.30365162088977293
470,3790.4,0.32635960152202675
471,3793.11,0.24838358215428058
472,3795.83,0.2317275627150667
473,3798.5400000000004,0.2420570433473205
474,3801.25,0.28388942397957434
475,3801.8939600000003,0.2879846723042798
476,3803.96,0.30112360768839846
477,3806.6800000000003,0.33070679229957634
478,3809.3900000000003,0.32669997696733066
479,3812.1,0.343870861635085
480,3814.81,0.3063595463028394
481,3817.53,0.30832823091401723
482,3820.24,0.2988080155817716
483,3822.95,0.27608100024952603
484,3825.6600000000003,0.27208208491728036
485,3828.38,0.2612207695284582
486,3831.0899999999997,0.26009145419621255
487,3833.8,0.2368134388639669
488,3836.51,0.21433202353172132
489,3839.23,0.2562503081428991
490,3841.9399999999996,0.2807021928106535
491,3844.65,0.2833383774784079
492,3847.36,0.31071946214616225
493,3850.0800000000004,0.3550711467573401
494,3852.79,0.33628803142509445
495,3855.5,0.3425351160928488
496,3858.22,0.33423000070402664
497,3860.9300000000003,0.330932785371781
498,3863.64,0.3807994700395354
499,3866.35,0.3757621547072898
500,3869.07,0.33944213931846756
501,3871.78,0.331380623986222
502,3874.49,0.33090940865397633
503,3877.2000000000003,0.3230300933217307
504,3879.92,0.30837147793290853
505,3882.63,0.2675505626006629
506,3885.3399999999997,0.2526793472684173
507,3888.05,0.24593763193617166
508,3890.77,0.2719062165473495
509,3893.4800000000005,0.26193020121510385
510,3896.19,0.29472548588285824
511,3898.9,0.3192448705506126
512,3901.62,0.3345748551617905
513,3904.33,0.3317016398295448
514,3907.04,0.34694222449729917
515,3909.75,0.35243630916505353
516,3912.4700000000003,0.3417053937762314
517,3915.18,0.3581905784439857
518,3917.89,0.3614411631117401
519,3920.6000000000004,0.3593805477794945
520,3923.32,0.35643413239067234
521,3926.0299999999997,0.3223634170584267
522,3928.7400000000002,0.26657180172618106
523,3931.46,0.2539268863373589
524,3934.17,0.24999927100511327
525,3936.8799999999997,0.2603248556728676
526,3939.59,0.28126494034062205
527,3942.31,0.33984602495179983
528,3945.02,0.3445672096195542
529,3947.73,0.3281422942873086
530,3950.44,0.34746147895506296
531,3953.16,0.3399808635662408
532,3955.8700000000003,0.35353674823399517
533,3958.58,0.3409805329017495
534,3961.29,0.2835837175695039
535,3964.01,0.24635640218068172
536,3966.7200000000003,0.2143940868484361
537,3969.43,0.19455247151619046
538,3972.1400000000003,0.23454965618394485
539,3974.86,0.2669235407951227
540,3977.57,0.31967962546287704
541,3980.2799999999997,0.3383566101306314
542,3982.9900000000002,0.36024019479838576
543,3985.71,0.36093647940956364
544,3988.4199999999996,0.39625276407731796
545,3991.13,0.4066221487450724
546,3993.84,0.36270563341282674
547,3996.56,0.4070967180240046
548,3999.27,0.38966120269175897
549,4001.98,0.4125278873595133
550,4004.7,0.41676737197069114
551,4007.4100000000003,0.4294911566384455
552,4010.12,0.40785034130619985
553,4012.83,0.4176013259739543
554,4015.5499999999997,0.43674401058513207
555,4018.26,0.41438979525288644
556,4020.97,0.45366977992064084
557,4023.68,0.4482798645883952
558,4026.4,0.438052049199573
559,4029.11,0.4439187338673274
560,4031.8199999999997,0.42243641853508174
561,4034.53,0.42834280320283613
562,4037.25,0.43924118781401394
563,4039.96,0.43583297248176833
564,4042.67,0.43702265714952276
565,4045.38,0.4266385418172771
566,4048.1,0.43519822642845496
567,4050.8100000000004,0.4325432110962093
