,lambda (Angstroms),Total Flux (erg/s/cm^2/Angstrom)
0,102.05000000000001,1.8442289638012819
1,103.95,1.8389730081898088
2,104.712855,1.83686278183359
3,105.88,1.8199020795262635
4,108.10000000000001,1.7876416344758264
5,110.11,1.7584337620949575
6,113.98,1.7021965959049112
7,117.99000000000001,1.6439250500984863
8,120.22644299999999,1.6114429736929679
9,121.01,1.6019027483936932
10,124.98,1.553540572516808
11,127.01,1.5288103505675443
12,127.89,1.5180909141003758
13,130.87,1.4817875534015554
14,132.07999999999998,1.467053607501699
15,133.92,1.4446383291303468
16,137.04,1.4066394591867495
17,138.038426,1.3944768110627273
18,139.9,1.378268356449739
19,143.16,1.350004670754301
20,146.84,1.3182481625881626
21,150.95000000000002,1.2824803036613068
22,154.82,1.2488112902148516
23,158.489319,1.2168900421450464
24,159.16,1.212480481821454
25,162.12,1.1930186887411287
26,165.89,1.1682434545736198
27,170.14999999999998,1.140227493111395
28,172.91,1.1220872241513618
29,176.94000000000003,1.0955867593274724
30,179.82000000000002,1.0766500608952643
31,181.9,1.062973943444225
32,181.970086,1.062513068013664
33,186.14,1.0416016048074044
34,190.91,1.017684139106194
35,194.01000000000002,1.0021463136792017
36,198.07999999999998,0.9817330414905378
37,202.22,0.9609761107706193
38,205.04000000000002,0.9468390353686456
39,208.929613,0.9272982191616289
40,209.81,0.9239727886825138
41,216.19,0.8999745875243363
42,220.20999999999998,0.8848325504873659
43,222.76000000000002,0.8752136313818246
44,226.89999999999998,0.859623024881064
45,230.05999999999997,0.8483274956679229
46,233.79,0.8353261885017785
47,239.79,0.8132906023122699
48,239.88329199999998,0.8129344923218494
49,245.94000000000003,0.795061694278243
50,252.25,0.7768542335528535
51,256.94,0.7626339536983249
52,259.92,0.7543719097630378
53,264.14,0.742222410827833
54,269.05,0.7278872395217059
55,274.05,0.7132758981671975
56,275.42287,0.7092645529925686
57,279.15,0.7008965665080987
58,283.68,0.6907427854543561
59,290.29,0.6757871862964667
60,295.69,0.6637203337953165
61,301.18,0.6513710603858136
62,308.2,0.6356663065343184
63,316.227766,0.6177113421804598
64,318.29999999999995,0.6142478959746861
65,327.96999999999997,0.5980271536464771
66,337.92999999999995,0.5813070774356227
67,348.2,0.5640680659019406
68,357.13,0.5491028238604817
69,363.078055,0.5391551719291211
70,366.3,0.535116276742469
71,374.83000000000004,0.524377735986843
72,385.33,0.511093592273587
73,395.21,0.49875645621197084
74,405.35,0.48603936978031226
75,413.84,0.47535601038930825
76,416.86938299999997,0.47153864307475457
77,421.53000000000003,0.46704171395084143
78,430.35999999999996,0.4585506761631864
79,441.4,0.44796654024407956
80,450.64,0.4390762351922184
81,460.08,0.42999409237733
82,469.71,0.4207453795375655
83,478.630092,0.41219838367409734
84,479.54999999999995,0.41151958986323156
85,489.59000000000003,0.4040668205867809
86,499.84000000000003,0.3965221566850261
87,505.63,0.3922331845873519
88,511.48,0.3880854238824479
89,519.8,0.3819409123465845
90,529.46,0.3747970325825892
91,540.55,0.3665664031796175
92,549.5408739999999,0.3599963043703844
93,550.6,0.3594066297319559
94,559.54,0.3544466991348049
95,569.94,0.34864996335959564
96,580.54,0.3426426741079402
97,589.97,0.33742192379349567
98,599.5600000000001,0.33200714389789393
99,609.3,0.3265002433949577
100,620.63,0.320321109054273
101,630.71,0.31467937344137786
102,630.957344,0.31454053550694466
103,639.49,0.3107408333285051
104,649.88,0.30618482342807524
105,657.4000000000001,0.3028629536887843
106,665.0200000000001,0.2995194344316836
107,674.27,0.2953889910342846
108,685.22,0.2904721248341202
109,694.76,0.28647007183507306
110,704.4200000000001,0.28207999641465403
111,715.87,0.27719216362544125
112,724.43596,0.273406456546728
113,725.8299999999999,0.27294976315595737
114,734.23,0.2702008486120362
115,744.4399999999999,0.2669796226497225
116,754.8000000000001,0.263629895945553
117,765.3,0.26019134001565153
118,774.16,0.2574312937300395
119,784.93,0.2539758098647978
120,795.85,0.2504348072577002
121,805.0699999999999,0.24745507039163442
122,814.39,0.2444260143643314
123,825.72,0.2408698165961615
124,831.763771,0.23859392752348965
125,835.2800000000001,0.23756227275168926
126,844.95,0.23568358527057257
127,854.7399999999999,0.23331182195515038
128,864.63,0.23102953244447358
129,874.65,0.22872348627996586
130,884.77,0.2264473639202036
131,895.02,0.22405695490661034
132,905.3799999999999,0.22146684587823712
133,915.87,0.22064292119603293
134,924.34,0.248497029057971
135,935.0400000000001,0.2888273521657322
136,945.87,0.35893391161966254
137,954.62,0.4204904195348878
138,954.992586,0.42128086536947895
139,965.6800000000001,0.4440111799343389
140,974.61,0.23796586243749746
141,985.9,0.39863790537822086
142,995.02,0.40781402367931885
143,1004.23,0.5034060642004936
144,1015.86,0.4853188133059508
145,1025.26,0.310119389625065
146,1034.74,0.3850427968064696
147,1044.32,0.5711906175657371
148,1053.98,0.5583280691872948
149,1066.18,0.47184652568657076
150,1076.05,0.5246710958216407
151,1086.01,0.4444019881767872
152,1096.06,0.5320729027520104
153,1096.4782,0.5312384591689525
154,1106.2,0.5122647571452796
155,1113.87,0.4938285722152933
156,1124.17,0.4564123303927562
157,1134.57,0.5328589677758255
158,1145.07,0.4929698843645014
159,1155.67,0.5104855801587835
160,1163.68,0.5187182445278591
161,1174.44,0.40218048705111165
162,1185.31,0.4982404367005313
163,1196.28,0.38304316555555734
164,1204.57,0.3124587117003309
165,1215.72,0.2540555431254485
166,1224.1399999999999,0.3691988522375105
167,1235.47,0.4859832862327196
168,1244.03,0.5172534862326306
169,1255.55,0.4948424507184921
170,1258.92541,0.4731695603381988
171,1264.25,0.4392828288557968
172,1275.9499999999998,0.5268735696082549
173,1284.7900000000002,0.5430637870656678
174,1293.7,0.4507374634848475
175,1305.6699999999998,0.44329364594697784
176,1314.72,0.5214264402896912
177,1323.83,0.5000578994567761
178,1336.0800000000002,0.45214221776597385
179,1345.34,0.5126615889939878
180,1354.67,0.4965739191837686
181,1364.06,0.45270731419792093
182,1373.51,0.46682627403644483
183,1386.22,0.46741602266582466
184,1395.8300000000002,0.41940038870267277
185,1405.5,0.4285493195638925
186,1415.2500000000002,0.4314852035242743
187,1425.06,0.43740975230902773
188,1434.94,0.43161706005554795
189,1441.5600000000002,0.44790317901121235
190,1445.43977,0.45007165035601593
191,1448.21,0.45173759157620885
192,1454.9,0.4395788960578276
193,1464.9799999999998,0.41120333689111865
194,1475.14,0.4074513272548325
195,1485.3600000000001,0.4105774297663637
196,1495.66,0.41375958180831773
197,1506.03,0.3943388646893919
198,1512.9799999999998,0.36070835514488525
199,1516.46,0.3779065597182833
200,1523.46,0.36800394363029093
201,1534.0300000000002,0.3310356003374224
202,1544.6599999999999,0.35239576919237114
203,1555.3700000000001,0.33582218757774285
204,1566.15,0.3380072368022346
205,1573.38,0.3524551506142082
206,1584.2800000000002,0.36264222413433433
207,1595.26,0.3658316471848835
208,1606.32,0.35806901976585553
209,1613.74,0.3573375887125836
210,1624.92,0.3405529855891901
211,1636.18,0.3545412319962195
212,1643.74,0.35680416262118775
213,1655.1299999999999,0.3342279520151545
214,1659.58691,0.3421297538274911
215,1666.6000000000001,0.35476968657639685
216,1670.45,0.3253821786518924
217,1678.1599999999999,0.3545797755095731
218,1685.8999999999999,0.36455721048732254
219,1693.6799999999998,0.3457395962918304
220,1705.42,0.33343651394541934
221,1713.3000000000002,0.31976112681682317
222,1725.17,0.31683550965737695
223,1733.1399999999999,0.33096183688898717
224,1745.15,0.3229598976231953
225,1753.2,0.3381501265083223
226,1765.36,0.3145937778428745
227,1773.51,0.3193770337948975
228,1785.8,0.3217981503164144
229,1794.0400000000002,0.3370819206286437
230,1806.48,0.3327486277505047
231,1814.82,0.3122603251296301
232,1823.19,0.31543096062882425
233,1835.83,0.3045345218844771
234,1844.3000000000002,0.2842313844505673
235,1857.0900000000001,0.28429003630656413
236,1865.66,0.2899403259395503
237,1874.2700000000002,0.30553146639929485
238,1882.9199999999998,0.2863335576857978
239,1895.9699999999998,0.2769470399157242
240,1904.73,0.28725397097581273
241,1905.46072,0.28652906757186786
242,1913.52,0.27868193526957563
243,1926.78,0.27292698192368947
244,1935.6799999999998,0.27569922439892425
245,1944.61,0.2862138558937385
246,1953.5900000000001,0.2720221690878518
247,1967.1299999999999,0.28952751325804044
248,1976.2099999999998,0.2936153898507519
249,1985.33,0.2812404518029026
250,1994.4899999999998,0.27413489911449257
251,2003.6999999999998,0.2783953281253816
252,2012.95,0.27042124249570987
253,2026.9,0.27722843660015095
254,2036.26,0.2669533107089372
255,2045.66,0.2739027701771627
256,2055.1,0.2628363150048275
257,2064.58,0.2628076451919315
258,2074.11,0.2762911570783346
259,2078.89,0.2689459075313259
260,2083.69,0.27628755066403676
261,2093.2999999999997,0.2636229332693184
262,2102.9700000000003,0.2631347939137589
263,2112.67,0.26447104357777884
264,2127.32,0.26511798147240684
265,2137.14,0.24993618721474462
266,2147.0,0.25509347831652157
267,2156.91,0.26087765111759764
268,2166.87,0.25276940561797273
269,2176.87,0.2505276454777871
270,2186.92,0.24785666703690057
271,2187.7616199999998,0.24847271009882227
272,2197.01,0.2553929389287286
273,2207.15,0.2488808178641292
274,2217.3399999999997,0.23800609304674578
275,2222.45,0.23259566951221886
276,2232.71,0.24500215944093778
277,2243.02,0.2359029456168727
278,2253.37,0.2268374687905804
279,2263.77,0.22921258821150406
280,2274.2200000000003,0.2336354038796437
281,2284.7200000000003,0.23818461579499933
282,2295.26,0.22658306470812778
283,2305.86,0.2278540691179154
284,2316.5,0.2191290105254758
285,2327.19,0.18546354818025212
286,2332.56,0.2050880651312483
287,2343.32,0.198086817532127
288,2354.1400000000003,0.2114782254296649
289,2365.0099999999998,0.19615212957441883
290,2375.92,0.20112567071694548
291,2386.8900000000003,0.1879411673561313
292,2392.39,0.19665985454988902
293,2403.44,0.19056602518462046
294,2414.53,0.19374013281712463
295,2425.67,0.2037925366968448
296,2436.87,0.19769349607322415
297,2442.49,0.2057573942603002
298,2453.76,0.20333726838278193
299,2465.09,0.20093389800192282
300,2476.4700000000003,0.19423142386827968
301,2482.17,0.1953828960509013
302,2493.63,0.18605369591280377
303,2505.1400000000003,0.2036132920219222
304,2510.9199999999996,0.1830851382000894
305,2511.88643,0.183365453880125
306,2516.7099999999996,0.18480644235405513
307,2522.51,0.18011568727081936
308,2534.15,0.18259336155204964
309,2545.85,0.18053611250483267
310,2557.6,0.19096819401724296
311,2563.5,0.18572020005326173
312,2575.33,0.1932489504610757
313,2587.2099999999996,0.1906976314285169
314,2593.18,0.1876546602480139
315,2605.15,0.1820599562227842
316,2617.1699999999996,0.1787581827571818
317,2623.21,0.18608153436015695
318,2635.31,0.1923670297899582
319,2647.48,0.20613784800323764
320,2653.58,0.21123007627776552
321,2665.83,0.1927546633864486
322,2671.98,0.19988312222060378
323,2684.31,0.1999974782246905
324,2696.7000000000003,0.19045591090032996
325,2702.9199999999996,0.19542789251796333
326,2715.39,0.1854800940890064
327,2727.9300000000003,0.1842653184435277
328,2734.21,0.19103947673271382
329,2746.83,0.16870366998263875
330,2753.1699999999996,0.17264880494337756
331,2765.8700000000003,0.17843886708870613
332,2772.25,0.18465478649714678
333,2785.05,0.1728734097617299
334,2797.8999999999996,0.14619906358594034
335,2804.35,0.15318420577785918
336,2817.2999999999997,0.17988422072132415
337,2823.79,0.18991694736094478
338,2836.8199999999997,0.18431733119981342
339,2843.3599999999997,0.17967158839906136
340,2856.49,0.17079373335718454
341,2863.0699999999997,0.1874374750041343
342,2876.2900000000004,0.18817863496958653
343,2882.92,0.18635720717616358
344,2884.0315,0.18630666565717385
345,2896.23,0.18584296112725662
346,2909.59,0.19969550834923722
347,2929.76,0.19156804820457773
348,2950.07,0.18786477777631622
349,2970.52,0.19070929706445272
350,2991.11,0.19010480606898722
351,3011.84,0.1915895047899197
352,3032.72,0.19062891392127865
353,3046.72,0.1908037855610787
354,3067.84,0.19124669134911992
355,3089.1000000000004,0.1916870868535591
356,3110.52,0.1914196134624532
357,3132.08,0.18798252978774527
358,3146.53,0.1881512326588246
359,3168.35,0.18856878702885582
360,3190.31,0.179077431115285
361,3212.42,0.18419568561214067
362,3227.25,0.17500187485630028
363,3249.62,0.1854486673978951
364,3272.14,0.19157277034991632
365,3287.25,0.18921113902687192
366,3310.0299999999997,0.1882158800236323
367,3311.31121,0.18825997783595802
368,3325.3100000000004,0.18881501481318314
369,3332.98,0.1927602015849683
370,3340.66,0.18100486135124072
371,3348.36,0.19637366710648788
372,3356.0800000000004,0.18967291885070967
373,3363.82,0.17252841658390616
374,3371.5699999999997,0.17377468731158996
375,3379.34,0.18950520402824844
376,3387.1299999999997,0.18872356673388158
377,3394.94,0.18300297542848937
378,3402.77,0.19712203011207186
379,3410.61,0.17979575779014167
380,3418.48,0.18144500445167347
381,3426.36,0.18522742410769263
382,3434.25,0.19426941675819911
383,3442.17,0.1802380283921676
384,3450.11,0.18470148601511074
385,3458.06,0.18288391663254125
386,3466.0299999999997,0.1800625932389464
387,3474.02,0.18701161583432618
388,3482.0299999999997,0.18062708441868072
389,3490.06,0.18654099899200985
390,3498.1,0.17409828655982634
391,3506.17,0.18570679311110483
392,3514.25,0.17697557265687067
393,3522.3500000000004,0.18594979819161117
394,3530.47,0.17584126971532635
395,3538.6099999999997,0.18618028722801616
396,3546.77,0.18939385072968065
397,3554.9399999999996,0.18969608722583248
398,3563.1400000000003,0.1852931427054463
399,3571.35,0.1735300711795475
400,3579.58,0.17247684564262333
401,3587.8300000000004,0.16136386609467382
402,3596.11,0.17500780553018633
403,3604.3999999999996,0.18249701796018616
404,3612.7,0.17026430338467333
405,3621.03,0.17821160779262252
406,3628.1400000000003,0.18767870687311694
407,3630.89,0.1948856803571338
408,3633.63,0.17916058084666328
409,3636.37,0.1638833813361928
410,3639.1099999999997,0.16061678182572228
411,3641.86,0.17167455530973913
412,3644.6,0.16900525579926862
413,3647.34,0.17250135628879812
414,3650.08,0.18149075677832763
415,3652.8300000000004,0.16656463026234444
416,3655.57,0.18821523075187396
417,3658.3100000000004,0.20252733124140346
418,3661.05,0.18315413173093295
419,3663.7999999999997,0.1766120052149498
420,3666.54,0.17895600570447928
421,3669.2799999999997,0.19195610619400882
422,3672.0199999999995,0.18764420668353832
423,3674.77,0.18804598016755514
424,3677.5099999999998,0.18015008065708465
425,3680.25,0.18988608114661415
426,3683.0,0.182031954630631
427,3685.7400000000002,0.17498935512016045
428,3688.48,0.18016015560968998
429,3691.2200000000003,0.1878695560992195
430,3693.97,0.17397802958323633
431,3696.7100000000005,0.17618343007276582
432,3699.4500000000003,0.1931408305622953
433,3702.19,0.1892875310518248
434,3704.94,0.17584410453584165
435,3707.68,0.16831090502537113
436,3710.4199999999996,0.18494820551490065
437,3713.16,0.19856690600443014
438,3715.91,0.19474467948844698
439,3718.65,0.20179277997797648
440,3721.39,0.21311818046750597
441,3724.13,0.24408088095703548
442,3726.88,0.31989545444105233
443,3729.6200000000003,0.4638177549305818
444,3732.36,0.5843805554201114
445,3735.1099999999997,0.5923860289041282
446,3737.85,0.48310462939365767
447,3740.5899999999997,0.3081057298831872
448,3743.3300000000004,0.23493023037271665
449,3746.08,0.21611060385673347
450,3748.8199999999997,0.191670804346263
451,3751.56,0.1871989048357925
452,3754.2999999999997,0.180252405325322
453,3757.05,0.1876834788093388
454,3759.79,0.1928221792988683
455,3762.53,0.19911297978839781
456,3765.27,0.21452368027792734
457,3768.0200000000004,0.21421075376194415
458,3770.76,0.21550945425147366
459,3773.5,0.19831235474100317
460,3776.2400000000002,0.19896045523053266
461,3778.99,0.2095594287145495
462,3781.73,0.21967952920407902
463,3784.47,0.2249250296936085
464,3787.2099999999996,0.230543830183138
465,3789.96,0.23732400366715484
466,3792.7,0.25067610415668434
467,3795.44,0.22701500464621382
468,3798.19,0.21768877813023066
469,3800.9300000000003,0.20389427861976017
470,3801.8939600000003,0.19717991040073996
471,3803.67,0.18481562122048503
472,3806.41,0.19064711460469896
473,3809.16,0.21239221781878223
474,3811.8999999999996,0.24080501120299616
475,3814.6400000000003,0.23114860458721007
476,3817.38,0.25401479797142396
477,3820.13,0.26579710118550726
478,3822.87,0.23847679456972118
479,3825.6099999999997,0.2221750879539351
480,3828.35,0.224603981338149
481,3831.1,0.2121944845522323
482,3833.84,0.2074553779364462
483,3836.58,0.18786837132066014
484,3839.32,0.16764116470487403
485,3842.07,0.1808957679189573
486,3844.81,0.19184726130317123
487,3847.55,0.20390805468738513
488,3850.29,0.21090224807159907
489,3853.04,0.22653535128568236
490,3855.7799999999997,0.24542284466989628
491,3858.5199999999995,0.24982513805411016
492,3861.27,0.2418101412681935
493,3864.0099999999998,0.2534976346524074
494,3866.75,0.2574306280366213
495,3869.49,0.2763608214208352
496,3872.2400000000002,0.2601645246349185
497,3874.98,0.2619748180191324
498,3877.7200000000003,0.2583024114033463
499,3880.46,0.25403270478756024
500,3883.2100000000005,0.24463110800164353
501,3885.9500000000003,0.22552410138585743
502,3888.69,0.21469439477007135
503,3891.4300000000003,0.22243518815428526
504,3894.18,0.22035099136836855
505,3896.9199999999996,0.21613458475258246
506,3899.66,0.2179554781367964
507,3902.3999999999996,0.2214616715210103
508,3905.15,0.22755877473509356
509,3907.89,0.2376462681193075
510,3910.63,0.2455365615035214
511,3913.38,0.24195896471760472
512,3916.1200000000003,0.2429691581018186
513,3918.86,0.2580060514860325
514,3921.6,0.25546424487024644
515,3924.35,0.25391334808432975
516,3927.0899999999997,0.24690224146854364
517,3929.8300000000004,0.24521383485275755
518,3932.57,0.23534412823697146
519,3935.3199999999997,0.20971873145105474
520,3938.06,0.21182762483526868
521,3940.7999999999997,0.20303511821948259
522,3943.54,0.2137306116036965
523,3946.29,0.23331041481777978
524,3949.03,0.23738190820199367
525,3951.77,0.2526001015862076
526,3954.5099999999998,0.2435730949704215
527,3957.26,0.23660349818450482
528,3960.0,0.23210979156871872
529,3962.7400000000002,0.22578138495293265
530,3965.48,0.21769287833714654
531,3968.23,0.20629678155122985
532,3970.97,0.18092837493544375
533,3973.7099999999996,0.1715599683196577
534,3976.46,0.18526247153374098
535,3979.2,0.1894726649179549
536,3981.94,0.2075174583021688
537,3984.68,0.23088495168638268
538,3987.4300000000003,0.237003354900466
539,3990.17,0.2458428482846799
540,3992.91,0.26406904166889383
541,3995.65,0.26547403505310774
542,3998.3999999999996,0.26404033826719103
543,4001.1400000000003,0.2639199316514049
544,4003.88,0.2746582250356189
545,4006.6200000000003,0.27901771841983275
546,4009.37,0.275930721633916
547,4012.1099999999997,0.26558101501813
548,4014.85,0.26843660840234385
549,4017.5899999999997,0.2671749017865578
550,4020.34,0.2690159050006411
551,4023.08,0.275999498384855
552,4025.82,0.2750683917690689
553,4028.57,0.2743386949831522
554,4031.31,0.26742368836736613
555,4034.05,0.26383668175158004
556,4036.79,0.2734548751357939
557,4039.54,0.27187187834987725
558,4042.2799999999997,0.27255147173409117
559,4045.0199999999995,0.27944976511830505
560,4047.76,0.27395335850251895
561,4050.5099999999998,0.2659383617166023
562,4053.25,0.26802595510081617
563,4055.99,0.27766554848503006
564,4058.73,0.28646254186924397
565,4061.48,0.2821167450833273
566,4064.2200000000003,0.2676497384675412
567,4066.96,0.2619720318517551
568,4069.7,0.25959032523596903
569,4072.4500000000003,0.2716286284500523
570,4075.19,0.2764362218342662
571,4077.9300000000003,0.2683692152184801
572,4080.67,0.26275550860269403
573,4083.4199999999996,0.26446851181677733
574,4086.16,0.26336680520099126
575,4088.8999999999996,0.25904369858520515
576,4091.65,0.2564048017992885
577,4094.39,0.24724969518350237
578,4097.13,0.23900138856771627
