,lambda (Angstroms),Total Flux (erg/s/cm^2/Angstrom)
0,101.98,0.09612061979620086
1,104.11,0.11452803869570709
2,104.712855,0.11973789997609208
3,106.05,0.11009615157156744
4,108.02000000000001,0.09589107707324213
5,110.03,0.08139757470351415
6,113.89,0.05356428161992821
7,117.9,0.024649383978008064
8,120.22644299999999,0.007874108402062456
9,120.92,0.0076427033542382635
10,124.88000000000001,0.00632144951035464
11,126.91,0.00564414019289083
12,128.09,0.005250433412032102
13,131.07,0.004256157120489189
14,131.98,0.003952537234242893
15,134.12,0.003238527184949862
16,136.93,0.0023009751147223634
17,138.038426,0.0019311499191615926
18,140.12,0.0019066240938944614
19,143.05,0.0018721465586612445
20,147.06,0.00182504088993732
21,150.82999999999998,0.0017806738085257747
22,155.06,0.0017309029919913357
23,158.489319,0.0016905733232219977
24,159.04000000000002,0.0016806159403438966
25,162.0,0.001627103776486429
26,166.15,0.0015521016939497763
27,170.02,0.0014821797261023435
28,173.18,0.0014250985782382898
29,176.80999999999997,0.0013595705344387604
30,180.10000000000002,0.0013001681938904254
31,181.970086,0.0012664190791597861
32,182.18,0.0012676544098895201
33,185.99999999999997,0.0012901780421595585
34,191.20999999999998,0.0013209260869152914
35,193.87,0.0013367044407368363
36,197.93,0.001360746490306563
37,202.07,0.0013853253599761851
38,204.88,0.0014020635767350354
39,208.929613,0.0014260359461416958
40,210.14000000000001,0.0014689749637033594
41,216.02,0.0016781565602205552
42,220.04,0.0018211349037782294
43,223.1,0.001929917161292281
44,227.25,0.0020776403891266965
45,229.88000000000002,0.0021752584157253754
46,234.14999999999998,0.0023359470618152427
47,239.88329199999998,0.0025464112350899034
48,240.16,0.002538713402518008
49,245.75,0.002377317491988157
50,252.06,0.002198745438635141
51,256.74,0.0020594497502845685
52,259.71999999999997,0.0019793608924886918
53,263.94,0.0018609632320529185
54,268.84999999999997,0.0017211678897449463
55,273.84,0.0015790554282344
56,275.42287,0.0015340269133385161
57,278.93,0.0016456125079363684
58,284.12,0.0018107772445112918
59,290.07,0.0019975716126848543
60,296.14,0.0021921269274266237
61,300.96000000000004,0.002345220916249579
62,307.97,0.002569851057442298
63,316.227766,0.002834860030823767
64,318.05,0.002795101342371941
65,327.72,0.0025831469102825856
66,337.68,0.002364005666424263
67,347.94,0.00213793393142563
68,356.86,0.0019421905321870513
69,363.078055,0.0018063410296952867
70,366.02000000000004,0.0018614563223795795
71,375.40999999999997,0.0020353301088340842
72,385.03999999999996,0.0022103617444631453
73,394.90999999999997,0.0023980606292667637
74,405.03999999999996,0.0025874231423428174
75,413.53000000000003,0.002745115869392739
76,416.86938299999997,0.0028063001450287684
77,422.18,0.002865812208002906
78,430.03,0.0029547266732919187
79,441.06,0.0030819188113986465
80,451.34000000000003,0.0031976454738408197
81,459.73,0.003292504649608313
82,470.44,0.0034136591740981624
83,478.630092,0.003508570284225568
84,480.29,0.003486860746312715
85,490.35,0.003350485697701525
86,499.46,0.003234178663223599
87,506.40999999999997,0.0031771131282486717
88,512.27,0.003463417684226646
89,520.6,0.0033969414634581353
90,530.28,0.0033223828805002517
91,540.13,0.00318113689711852
92,549.5408739999999,0.003408802693896134
93,550.18,0.003430297224527243
94,560.4,0.00365271348665253
95,569.51,0.0038589805422260485
96,580.1,0.003769651539868592
97,589.52,0.004236522617091704
98,600.48,0.004353344350251503
99,610.24,0.00486576980605804
100,620.16,0.0053164294988450106
101,630.2299999999999,0.00569446997630114
102,630.957344,0.00569800293377175
103,640.47,0.005845940587185139
104,649.38,0.006647841040955489
105,658.42,0.007181768637148974
106,664.51,0.007582349539894366
107,675.31,0.007762327756585699
108,684.7,0.007858702197764553
109,694.23,0.009991214176937553
110,705.51,0.00978296038103739
111,715.3199999999999,0.011650186436198685
112,724.43596,0.012225767777857107
113,725.27,0.012276221875649359
114,735.36,0.012866562432676488
115,745.59,0.01465121804004889
116,754.23,0.015784459432785697
117,764.72,0.016893663276513607
118,775.3599999999999,0.018522221102754304
119,784.34,0.020201310189186777
120,795.25,0.021190441183950498
121,804.46,0.022314733710235915
122,815.65,0.023274122805690182
123,825.09,0.02580201877182855
124,831.763771,0.022589969894682087
125,834.65,0.02116878198378005
126,844.3100000000001,0.027370347459494564
127,854.09,0.0282770690901869
128,865.9699999999999,0.030589178432991082
129,876.0,0.03299909621988721
130,884.1,0.03626289168089006
131,894.34,0.03851613023899737
132,904.6899999999999,0.03860478110583435
133,915.17,0.0597406519738973
134,925.7700000000001,0.44433479899693806
135,934.33,0.9474748113853558
136,945.15,1.6524446130258559
137,954.992586,2.0843872741365645
138,956.1,2.13299332507202
139,964.9399999999999,2.259276684568174
140,976.12,0.3483314274603683
141,985.1500000000001,1.59264035825791
142,994.26,1.799131392761299
143,1005.78,2.7283165264033453
144,1015.08,2.7983793322081225
145,1024.48,1.5671290176452093
146,1033.96,2.1476676067881435
147,1045.93,3.705145198775582
148,1055.6100000000001,3.5062005471831355
149,1065.3700000000001,2.7408417992965357
150,1075.23,3.264674931042246
151,1085.18,2.6845839544570342
152,1095.22,3.530186869540901
153,1096.4782,3.4972267192166298
154,1105.36,3.264533894751135
155,1115.5800000000002,3.1466813930390947
156,1125.9099999999999,2.623532476925066
157,1133.71,3.5219380920567773
158,1144.2,3.249521573176219
159,1154.79,3.3945586775665806
160,1165.47,3.3945694429007696
161,1176.26,1.9811417938329698
162,1184.41,3.355769090412899
163,1195.3700000000001,2.817218800905662
164,1203.65,1.9629456077377858
165,1214.79,1.7137136401182038
166,1226.03,2.8628982957695412
167,1234.53,3.637101273797688
168,1245.95,3.7388102513366803
169,1254.59,3.5871047019441136
170,1258.92541,3.547553238881217
171,1266.2,3.4812173185289077
172,1274.98,3.9420636712610273
173,1283.81,4.015308037391394
174,1295.6899999999998,3.1314832208148085
175,1304.67,3.317114627139915
176,1313.7199999999998,4.024658052222566
177,1325.8700000000001,3.773531307996514
178,1335.0600000000002,3.5055617705942557
179,1344.32,3.905999251949544
180,1353.64,3.825767749382728
181,1366.1599999999999,3.4652961043037003
182,1375.6299999999999,3.4812506419316245
183,1385.17,3.4574691983170935
184,1394.77,2.557409770780459
185,1404.44,2.7529913620013695
186,1414.1699999999998,3.1897919693001766
187,1423.97,3.2044695953565285
188,1433.8400000000001,3.3247052401704265
189,1440.46,3.449402014098289
190,1445.43977,3.43159299516669
191,1447.1100000000001,3.42561972413712
192,1453.7900000000002,3.33230122647058
193,1463.87,3.0533634934647833
194,1474.02,3.1531977762020027
195,1484.23,3.1678960724332343
196,1494.52,3.167868386656484
197,1504.88,2.902554716622749
198,1511.8300000000002,2.551561279679268
199,1515.31,2.696575062332029
200,1525.82,2.7655544260333262
201,1536.3899999999999,2.321831803228637
202,1543.48,2.3271543977711873
203,1554.18,2.2899808042035263
204,1564.95,2.487812226378881
205,1575.8,2.6965886665462526
206,1586.73,2.791207124705642
207,1594.05,2.7977567709752424
208,1605.1000000000001,2.849500256122658
209,1616.2299999999998,2.842946759262091
210,1623.69,2.753034437017722
211,1634.94,2.9838649671451813
212,1646.27,3.018380515264658
213,1653.8700000000001,2.91591522450632
214,1659.58691,3.002021049921535
215,1665.34,3.088679959139746
216,1673.02,2.88274157280392
217,1676.88,3.2045359124840904
218,1684.6200000000001,3.211865624692516
219,1696.3,3.025497807973447
220,1704.13,2.956495667998249
221,1715.94,2.784764064791725
222,1723.8600000000001,2.7719920726329046
223,1735.8100000000002,2.9565476993629662
224,1743.8200000000002,2.882867855020523
225,1755.91,3.004681711687172
226,1764.01,2.8894350151611055
227,1776.24,2.79140510176434
228,1784.4399999999998,2.889459569478693
229,1796.8100000000002,3.0395298860185145
230,1805.1000000000001,3.074845501549244
231,1813.43,2.7342281827761408
232,1826.0000000000002,2.8762188277968006
233,1834.4299999999998,2.7787046732641167
234,1842.9,2.5285075844276
235,1855.68,2.5518895743531393
236,1864.24,2.623478633333
237,1872.8500000000001,2.83676977443307
238,1885.83,2.534389092839447
239,1894.5300000000002,2.3708413817558944
240,1903.28,2.6235247527925507
241,1905.46072,2.5945822937126506
242,1916.47,2.448426026919729
243,1925.3200000000002,2.365327290785859
244,1934.2,2.528548491139671
245,1943.13,2.623463585639619
246,1956.6,2.3761990686087455
247,1965.6299999999999,2.6474799514009666
248,1974.7,2.759591749510096
249,1983.82,2.5754264417653627
250,1992.97,2.5284190705083103
251,2006.79,2.653643812500391
252,2016.05,2.599183208364839
253,2025.36,2.721587498375423
254,2034.71,2.4936567037029165
255,2044.1000000000001,2.5931328243473186
256,2053.53,2.4821768603086305
257,2063.01,2.510888790416078
258,2072.54,2.715184614669662
259,2077.31,2.4480975162110674
260,2086.9,2.6050252134400154
261,2096.53,2.453703825985872
262,2106.21,2.539865332677865
263,2115.93,2.5692247546867675
264,2125.7000000000003,2.604934070841806
265,2135.5099999999998,2.516501302313753
266,2145.37,2.4535804279318367
267,2155.27,2.57507546886683
268,2165.22,2.557323403947959
269,2175.21,2.539724254345997
270,2185.25,2.4648479988901717
271,2187.7616199999998,2.4863908378819786
272,2195.34,2.551421473370537
273,2205.47,2.5280525721001452
274,2215.65,2.4592037552262473
275,2225.88,2.3922090227488426
276,2236.1600000000003,2.4423173746679323
277,2246.48,2.4311047941042156
278,2256.85,2.348628297936994
279,2267.26,2.403328869286966
280,2272.4900000000002,2.4144376971601993
281,2282.98,2.4427934035445618
282,2293.52,2.2804601943254177
283,2304.1,2.361219052623469
284,2314.7400000000002,2.271261012197312
285,2325.42,1.88554903928835
286,2336.16,2.1553591676551807
287,2346.94,2.1609413635392056
288,2352.35,2.221758495239816
289,2363.21,2.1519248261582313
290,2374.1200000000003,2.1525382414731404
291,2385.07,2.094526724305244
292,2396.08,2.1438903084131398
293,2407.1400000000003,2.08610397691753
294,2412.69,2.105696344928322
295,2423.83,2.155345148467102
296,2435.02,2.082831036402374
297,2446.26,2.146698008734141
298,2457.55,2.1423820654624017
299,2463.21,2.11334361914548
300,2474.58,2.07065081090813
301,2486.0099999999998,2.0712561039465727
302,2497.48,1.8340274645022099
303,2503.24,2.0721761869782753
304,2511.88643,1.9758328695215193
305,2514.79,1.9434728847210052
306,2520.5899999999997,2.025941095735861
307,2526.3999999999996,1.975591300217984
308,2532.22,1.9758894981673736
309,2543.91,1.9315178614024884
310,2555.65,2.004517191973938
311,2567.45,1.9776324833489898
312,2573.37,2.0285996159710495
313,2585.25,2.0106028550842368
314,2597.18,1.9928020615337594
315,2603.17,1.956747148426688
316,2615.18,1.9349453026143466
317,2627.25,1.9624434176056071
318,2633.31,1.9808494587694048
319,2645.46,2.041637521498801
320,2657.6699999999996,2.0611195450317994
321,2663.8,1.937271540466466
322,2676.1000000000004,1.9875195052048673
323,2682.27,1.9878234745086019
324,2694.65,1.912166386985139
325,2707.0899999999997,1.9127602602652782
326,2713.33,1.8824791838398818
327,2725.8500000000004,1.887425004858157
328,2732.1299999999997,1.9183779023018284
329,2744.7500000000005,1.7950766579927733
330,2757.4100000000003,1.8080963875527865
331,2763.77,1.8335182327345938
332,2776.5299999999997,1.876768896967277
333,2782.9300000000003,1.8259517160181522
334,2795.77,1.6583133279889712
335,2802.2200000000003,1.7168031143761815
336,2815.15,1.8443136675524034
337,2828.1499999999996,1.870543174999494
338,2834.67,1.7949439156575735
339,2847.75,1.7955413708428003
340,2854.32,1.7590090788372144
341,2867.49,1.834000475227844
342,2874.1,1.8258681570913264
343,2884.0315,1.8169218222725745
344,2887.3700000000003,1.8139166244738474
345,2894.02,1.801736535567435
346,2907.38,1.8485293569524472
347,2927.5299999999997,1.8115670875593333
348,2947.8300000000004,1.7753338161608114
349,2968.2599999999998,1.7844275430242693
350,2988.8399999999997,1.7730512678823194
351,3009.5499999999997,1.7536979910023496
352,3030.41,1.7586297121169718
353,3051.42,1.7514684312261866
354,3072.57,1.7443571484636873
355,3086.7499999999995,1.7210429588858034
356,3108.15,1.7219546727809576
357,3129.69,1.6953753848043978
358,3151.39,1.6923630946887367
359,3173.23,1.6739368027013615
360,3187.88,1.6251816068398663
361,3209.98,1.6486813113764511
362,3232.23,1.6009730139076277
363,3247.1499999999996,1.638844814436399
364,3269.66,1.6473195134915355
365,3292.32,1.6331552105412641
366,3307.52,1.6225340073266075
367,3311.31121,1.6378048809569732
368,3322.78,1.6839980255486569
369,3330.44,1.6882050678736789
370,3338.12,1.6237571050872779
371,3345.8199999999997,1.6240431371894537
372,3353.53,1.6020831667359183
373,3361.2599999999998,1.6209271911709597
374,3369.01,1.5880142104945787
375,3376.77,1.5557892272624858
376,3384.56,1.5996152363632588
377,3392.3599999999997,1.6409492429083201
378,3400.18,1.6756082443419587
379,3408.02,1.5858902406641744
380,3415.88,1.6045512318749668
381,3423.75,1.6804322205300481
382,3431.6400000000003,1.6730402040737065
383,3439.55,1.6695071825059415
384,3447.48,1.5874221558267543
385,3455.43,1.5768041240361437
386,3463.39,1.5412580896898218
387,3471.38,1.5956780476763655
388,3479.38,1.5560960031071978
389,3487.4,1.538611953426607
390,3495.44,1.6002978986345933
391,3503.5,1.5750408387311567
392,3511.57,1.568116776272009
393,3519.6699999999996,1.5865657061457266
394,3527.7799999999997,1.5508086334637325
395,3535.92,1.6129635531146043
396,3544.07,1.6281974702097646
397,3552.24,1.643596382193502
398,3560.43,1.6288462890658166
399,3568.6299999999997,1.5666961933824197
400,3576.86,1.5000040900318883
401,3585.11,1.483136981569934
402,3593.3700000000003,1.5109778705522683
403,3601.65,1.5897657544231796
404,3609.96,1.5503386306269566
405,3618.2799999999997,1.572218504275022
406,3626.62,1.6390253728116648
407,3634.98,1.5837392362368843
408,3643.36,1.651050094550681
409,3649.6099999999997,1.5616274972310187
410,3652.34,1.3428507995217904
411,3655.06,1.5840481043682733
412,3657.7799999999997,1.5791614092147561
413,3660.5,1.6006487140612393
414,3663.22,1.553623018907722
415,3665.9399999999996,1.465975323754205
416,3668.67,1.4540476260449766
417,3671.39,1.5310059308914594
418,3674.1099999999997,1.6356722357379425
419,3676.83,1.6394365405844256
420,3679.5499999999997,1.4922938454309083
421,3682.2700000000004,1.5053381502773913
422,3685.0,1.5863134525681628
423,3687.72,1.5164147574146458
424,3690.44,1.5517050622611288
425,3693.16,1.5677563671076116
426,3695.88,1.5622416719540946
427,3698.6000000000004,1.5249129768005776
428,3701.33,1.574807279091349
429,3704.0499999999997,1.499105583937832
430,3706.77,1.5164638887843152
431,3709.49,1.781737193630798
432,3712.21,1.961766498477281
433,3714.9300000000003,2.513512803323764
434,3717.66,3.9706651056145357
435,3720.3799999999997,6.371131410461018
436,3723.1,8.703115715307502
437,3725.82,8.815264020153984
438,3728.54,6.716722325000466
439,3731.26,3.9521196298469503
440,3733.99,2.4920619321377218
441,3736.7099999999996,1.9582782369842047
442,3739.4300000000003,1.6484905418306874
443,3742.15,1.6337218466771706
444,3744.8700000000003,1.6224301515236534
445,3747.59,1.5178164563701364
446,3750.3199999999997,1.633819758660908
447,3753.0400000000004,1.7073790635073909
448,3755.76,1.766901368353874
449,3758.48,1.6630206732003567
450,3761.2000000000003,1.7250529780468398
451,3763.92,1.7477962828933227
452,3766.65,1.6691315851840942
453,3769.3700000000003,1.645108890030577
454,3772.09,1.73764619487706
455,3774.81,1.934719499723543
456,3777.53,1.879590804570026
457,3780.25,1.8428901094165089
458,3782.98,1.8827974117072805
459,3785.7000000000003,1.7900527165537634
460,3788.42,1.7841720214002463
461,3791.14,1.6881333262467295
462,3793.86,1.6227046310932123
463,3796.58,1.6665949359396952
464,3799.3100000000004,1.7352052382304666
465,3801.8939600000003,1.8266159627860292
466,3802.03,1.8314285503212555
467,3804.75,1.8784560000112518
468,3807.47,1.9158904497012479
469,3810.19,1.845495899391244
470,3812.91,1.8833483490812404
471,3815.6400000000003,1.851709796748038
472,3818.36,1.7951692464380344
473,3821.08,1.7743096961280307
474,3823.8,1.818802145818027
475,3826.52,1.6303305955080232
476,3829.24,1.5322270451980196
477,3831.9700000000003,1.6093854928648172
478,3834.69,1.7492369425548135
479,3837.41,1.6858743922448096
480,3840.13,1.764766841934806
481,3842.85,1.8053112916248022
482,3845.5699999999997,1.9473587413147986
483,3848.3,1.9475331889815963
484,3851.02,1.9344116386715924
485,3853.74,2.0270020883615887
486,3856.46,2.0465305380515852
487,3859.18,2.1185739877415815
488,3861.8999999999996,2.1547794374315776
489,3864.63,2.3001098850983754
490,3867.35,2.1793693347883716
491,3870.0699999999997,2.053269784478368
492,3872.79,1.9713732341683639
493,3875.5099999999998,1.8771646838583602
494,3878.2299999999996,1.8547631335483565
495,3880.96,1.9525975812151544
496,3883.68,1.9965140309051506
497,3886.3999999999996,2.0012214805951465
498,3889.12,1.899378930285143
499,3891.8399999999997,1.8128293799751392
500,3894.5600000000004,1.8303708296651355
501,3897.29,1.7887472773319333
502,3900.0099999999998,1.8696257270219294
503,3902.73,1.9984991767119258
504,3905.45,2.019752626401922
505,3908.17,1.9791840760919182
506,3910.8900000000003,1.9419605257819146
507,3913.62,1.9439119734487122
508,3916.3399999999997,1.9322814231387084
509,3919.06,1.8927838728287047
510,3921.78,1.775676322518701
511,3924.5,1.698484772208697
512,3927.2200000000003,1.6966562218986936
513,3929.95,1.6440016695654913
514,3932.6699999999996,1.6095231192554875
515,3935.3900000000003,1.7336385689454836
516,3938.11,1.85328401863548
517,3940.8300000000004,1.832424468325476
518,3943.55,1.8881049180154725
519,3946.2799999999997,1.9414753656822703
520,3948.9999999999995,1.9287718153722664
521,3951.7200000000003,1.8161862650622627
522,3954.44,1.8197687147522588
523,3957.1600000000003,1.723599164442255
524,3959.88,1.6991326141322516
525,3962.6099999999997,1.7653640617990491
526,3965.3300000000004,1.7862255114890455
527,3968.05,1.7745679611790417
528,3970.77,1.7236994108690378
529,3973.4900000000002,1.730888860559034
530,3976.21,1.8521033102490305
531,3978.94,1.8653217579158283
532,3981.6600000000003,1.8965342076058245
533,3984.38,1.9217866572958207
534,3987.1,1.9660431069858169
535,3989.82,1.9785395566758133
536,3992.54,1.9503350063658096
537,3995.2700000000004,2.0061094540326074
538,3997.9900000000002,2.0420019037226034
539,4000.71,2.0205153534125997
540,4003.43,2.067725803102596
541,4006.15,2.057349252792592
542,4008.87,2.0499527024825883
543,4011.6000000000004,2.140363150149386
544,4014.32,2.119138599839382
545,4017.04,2.081576049529379
546,4019.76,2.145568499219375
547,4022.48,2.0977329489093712
548,4025.2,1.9786913985993675
549,4027.9300000000003,2.069963846266165
550,4030.65,2.0635082959561615
551,4033.37,2.0121957456461574
552,4036.09,2.049133195336154
553,4038.81,2.11919064502615
554,4041.5299999999997,2.081942094716146
555,4044.26,2.023509542382944
556,4046.98,2.01535499207294
557,4049.7,2.0358494417629367
558,4052.42,2.085857891452933
559,4055.14,2.0213183411429294
560,4057.8599999999997,2.0998447908329254
561,4060.59,2.070218238499723
562,4063.31,2.1589916881897193
563,4066.0299999999997,2.0513471378797155
564,4068.75,2.0793715875697116
565,4071.47,2.047586037259708
566,4074.1899999999996,2.0142834869497044
567,4076.92,2.016705934616502
568,4079.64,2.0349273843064988
569,4082.3599999999997,2.025830833996495
570,4085.08,1.955671283686491
571,4087.7999999999997,1.9594107333764872
572,4090.5200000000004,1.9920871830664835
573,4093.25,2.066499630733281
574,4095.97,2.1977520804232773
575,4098.69,2.373860530113274
576,4101.41,2.28192597980327
577,4104.13,2.020523429493266
578,4106.85,1.9073628791832624
579,4109.58,1.9345923268500602
580,4112.3,1.8584997765400564
581,4115.0199999999995,1.8928232262300526
582,4117.74,1.9713226759200488
583,4120.46,1.9279831256100453
584,4123.18,1.9477465753000414
585,4125.91,1.9423010229668392
586,4128.63,1.9131294726568353
