,lambda (Angstroms),Total Flux (erg/s/cm^2/Angstrom)
0,102.06,0.0031835866072624994
1,103.96000000000001,0.003723537756381756
2,104.712855,0.003937487716412958
3,105.89,0.003658365233546135
4,108.11,0.0031319628712496205
5,110.11999999999999,0.0026553553393176134
6,113.99,0.0017377080095273194
7,118.0,0.0007868641654864115
8,120.22644299999999,0.00025893451330555106
9,121.02,0.0002502279071092441
10,124.99,0.00020667024525041435
11,127.02,0.0001843977300676341
12,127.89999999999999,0.00017474272685669002
13,130.88,0.00014204727311969737
14,132.09,0.00012877197316477407
15,133.93,0.0001085843991154363
16,137.05,7.435409624490708e-05
17,138.038426,6.350978597954865e-05
18,139.92,6.278169517011582e-05
19,142.85,6.166162442675063e-05
20,146.85,6.0157412547207686e-05
21,150.96,5.8585053494777315e-05
22,154.84,5.710834880202067e-05
23,158.489319,5.572308993185431e-05
24,159.17000000000002,5.532320509742839e-05
25,162.13000000000002,5.359069408354877e-05
26,165.91000000000003,5.139180076177007e-05
27,170.17000000000002,4.891259011341629e-05
28,172.93,4.732126233560962e-05
29,176.96,4.500016071873974e-05
30,179.82999999999998,4.336009899109295e-05
31,181.92,4.2166386144130644e-05
32,181.970086,4.213790632743653e-05
33,186.15,4.305062848862626e-05
34,190.92999999999998,4.413310849615266e-05
35,194.03,4.485032143659867e-05
36,198.09,4.580042981537633e-05
37,201.78,4.671092643771367e-05
38,205.06,4.751026443534687e-05
39,208.929613,4.844328845785494e-05
40,209.83,4.95354887628255e-05
41,216.21,5.7486517103228934e-05
42,220.23000000000002,6.252109898542673e-05
43,222.78,6.573317389577604e-05
44,226.92000000000002,7.099565332669616e-05
45,230.08,7.67734171097173e-05
46,233.81,8.551821924916944e-05
47,239.81,9.638548568528553e-05
48,239.88329199999998,9.648243961268617e-05
49,245.96,9.16263974125244e-05
50,252.26999999999998,8.83839529415145e-05
51,256.96,8.268513644879875e-05
52,259.94,8.325520893317122e-05
53,264.15999999999997,8.171622654526921e-05
54,269.07,7.89852398332789e-05
55,274.08,7.615068756707293e-05
56,275.42287,7.540871133962073e-05
57,279.17,8.076414755806459e-05
58,283.71,8.763639056492335e-05
59,290.32,9.568659311455699e-05
60,295.71,0.00010458846820419768
61,301.21,0.00011220976462219842
62,308.23,0.00012335095394117398
63,316.227766,0.00013644522591026783
64,318.32,0.00013616157836714203
65,328.0,0.00013454311725120846
66,337.96,0.0001324550282930785
67,348.23,0.00013008426565251679
68,357.16999999999996,0.0001287192752623881
69,363.078055,0.00012824400800081422
70,366.33,0.00013232214216515726
71,374.85999999999996,0.0001424977869699511
72,385.36,0.00015184583438499632
73,395.25,0.0001663141664740246
74,405.39,0.00017906186254912533
75,413.88,0.0001889284183161476
76,416.86938299999997,0.00019219433479760955
77,421.57,0.0001962298524329991
78,430.40000000000003,0.00020336979534907348
79,441.44000000000005,0.00021441660144119816
80,450.67999999999995,0.0002224140456704764
81,460.11999999999995,0.00022977998566229313
82,469.75000000000006,0.00023856831162852147
83,478.630092,0.00024705929633202917
84,479.59000000000003,0.0002471984997872999
85,489.63,0.00024581753480426783
86,499.89,0.00024779962895507367
87,505.67,0.0002493237552895433
88,511.53,0.0002789067667635903
89,519.84,0.0002816036231371962
90,529.51,0.0002838993268836185
91,540.59,0.00027926526871509304
92,549.38,0.0003031557359261636
93,549.5408739999999,0.00030348185326145984
94,559.59,0.00032697234559543305
95,569.99,0.00034851983326917045
96,580.59,0.00034756146493663355
97,590.03,0.00038417554144048744
98,599.61,0.00039379754873994935
99,609.36,0.0004155913934340781
100,620.68,0.0004749092834789538
101,629.32,0.0005049419840079047
102,630.957344,0.0005073474615236085
103,639.54,0.0005229748341248829
104,649.9399999999999,0.00057972033754393
105,657.46,0.0006140866846315487
106,665.0699999999999,0.0006519443022295245
107,674.33,0.0006756006458507146
108,685.2800000000001,0.0006820271912774997
109,694.82,0.0008394139653753564
110,704.48,0.000824016966820356
111,715.9300000000001,0.000979178559526903
112,724.43596,0.0010301116414985262
113,725.89,0.001038691794643836
114,734.3,0.0010939561657723517
115,744.51,0.0012289060059890156
116,754.87,0.0013261240769630253
117,765.3699999999999,0.0014038052299772245
118,774.23,0.0015688989933777772
119,785.0,0.0016981111617551984
120,794.0899999999999,0.001814218345650348
121,805.14,0.0019302086781081479
122,814.46,0.002040271282497894
123,825.79,0.0022641077790360726
124,831.763771,0.002060308565698164
125,835.35,0.001936651912490637
126,845.03,0.002481811791818965
127,854.8100000000001,0.002597825628578371
128,864.71,0.00284368341425507
129,874.7199999999999,0.0030933376531059546
130,884.8499999999999,0.003403922840874133
131,895.1,0.0036554739775596042
132,905.46,0.003736198567419261
133,915.9499999999999,0.005574873601939319
134,924.42,0.03683920049635161
135,935.13,0.08219044843722002
136,945.96,0.15944807632700575
137,954.71,0.22991538510222506
138,954.992586,0.23073983634994685
139,965.76,0.2621562881398792
140,974.7,0.04227766427698916
141,985.99,0.22623708739644913
142,995.11,0.24409342640880297
143,1004.3199999999999,0.36434316185877874
144,1015.95,0.3552414015203659
145,1025.35,0.1547458294497657
146,1034.8300000000002,0.25325495421260713
147,1044.41,0.4971797750172508
148,1054.07,0.49259769265533615
149,1063.8300000000002,0.39129810633522355
150,1076.14,0.4737189190810652
151,1086.1,0.3762709248445569
152,1096.15,0.5087550270456705
153,1096.4782,0.5080567987838126
154,1103.75,0.4925858131920835
155,1113.96,0.4780912483320765
156,1124.27,0.43200987108362665
157,1134.67,0.5590900826855784
158,1145.1699999999998,0.5122747818990873
159,1155.77,0.5514307687241534
160,1163.78,0.5734500764098874
161,1174.55,0.39671684217460085
162,1185.4199999999998,0.5668781955508715
163,1193.6299999999999,0.3930826784597199
164,1204.68,0.28347510953679356
165,1215.82,0.19344142946426873
166,1224.25,0.398551585118543
167,1235.58,0.6116129815079769
168,1244.1399999999999,0.6783737210572756
169,1255.66,0.6523165939086683
170,1258.92541,0.6197558103955635
171,1264.36,0.5655659372638394
172,1276.06,0.7386934403621147
173,1284.8999999999999,0.7806847182585894
174,1293.81,0.6187002967718915
175,1305.78,0.6172611022493578
176,1314.83,0.7824775819963146
177,1323.95,0.7524198623600984
178,1336.1999999999998,0.670596270304874
179,1345.46,0.8062531519023125
180,1354.79,0.7860712341165782
181,1364.18,0.705452016859553
182,1373.63,0.7472687001312371
183,1386.3400000000001,0.7611335121294491
184,1395.95,0.659880996811024
185,1405.6299999999999,0.6909945821094262
186,1415.37,0.7185891679365375
187,1425.18,0.7421257543804762
188,1435.06,0.7438117414412421
189,1441.6899999999998,0.7879046998635981
190,1445.43977,0.7961675907478455
191,1448.34,0.8025584543550308
192,1455.03,0.7842723038320547
193,1465.1100000000001,0.7269151783803957
194,1475.27,0.7319147535203903
195,1485.4899999999998,0.7489995291041247
196,1495.79,0.7664263052795128
197,1506.16,0.7285662819725978
198,1513.11,0.6508476333724956
199,1516.6,0.7005936591833795
200,1523.6,0.6830911109530606
201,1534.1599999999999,0.5963020890513226
202,1544.79,0.6538498676672815
203,1555.5,0.6229723468748938
204,1566.28,0.6419203266002029
205,1573.51,0.6894129800708879
206,1584.42,0.7269179607576339
207,1595.3999999999999,0.7455464419620768
208,1606.46,0.7353136237581731
209,1613.88,0.7421155786340352
210,1625.0600000000002,0.7070872613176118
211,1636.33,0.7559138446667986
212,1643.88,0.7717555005040976
213,1655.28,0.7185815848147213
214,1659.58691,0.7446151415726064
215,1666.75,0.7879135035398482
216,1670.5900000000001,0.7070873109351156
217,1678.3000000000002,0.7988538273459257
218,1686.05,0.8326519459171033
219,1693.8300000000002,0.7860878661085563
220,1705.57,0.7594159001763788
221,1713.45,0.7235585257687503
222,1725.32,0.7219083668577667
223,1733.2900000000002,0.7735216973109647
224,1745.3,0.759416045961267
225,1753.36,0.8118399812752916
226,1765.5100000000002,0.7507025374868797
227,1773.6599999999999,0.7699607776617308
228,1785.96,0.7879146419746964
229,1794.2,0.8423299870103742
230,1806.6399999999999,0.8384423588846256
231,1814.97,0.7770979087811299
232,1823.35,0.7988675613780936
233,1835.99,0.7717632440541817
234,1844.47,0.7119963020520639
235,1852.98,0.7185935616702214
236,1865.82,0.7438263551481464
237,1874.44,0.8044034207073142
238,1883.0900000000001,0.7438231878867575
239,1896.14,0.7169431927066113
240,1904.8899999999999,0.762920465286973
241,1905.46072,0.7612402445474578
242,1913.69,0.7370119232014642
243,1926.95,0.7252288000609585
244,1935.8500000000001,0.7506970804568484
245,1944.7800000000002,0.7860946587641852
246,1953.76,0.7370121335905999
247,1967.3,0.8099726909569313
248,1976.38,0.8346002588215021
249,1985.5,0.7915574239013353
250,1994.67,0.7735285855002465
251,2003.8700000000001,0.7988608450106047
252,2013.12,0.7752921010400408
253,2027.08,0.8137082291666277
254,2036.4299999999998,0.7735284782342199
255,2045.83,0.80439822382089
256,2055.2799999999997,0.7629045659266382
257,2064.7599999999998,0.7735292059438335
258,2074.3,0.8345907417839221
259,2079.08,0.797018109007782
260,2083.87,0.8269388755354576
261,2093.4900000000002,0.7860790058060713
262,2103.15,0.7951849332919472
263,2112.86,0.8062584572969013
264,2122.61,0.8193504785171177
265,2137.33,0.7699516537336906
266,2147.19,0.7879114672958788
267,2157.1,0.8193481773771448
268,2167.06,0.7970154839774891
269,2177.06,0.7933462877930957
270,2187.1099999999997,0.7824721881277804
271,2187.7616199999998,0.784853668556274
272,2197.2,0.8193493666521955
273,2207.35,0.8006781300407434
274,2217.54,0.7664196956495417
275,2222.65,0.7472618792865348
276,2232.91,0.7951802487807714
277,2243.21,0.7664248204952584
278,2253.57,0.7386918955401209
279,2263.97,0.7559141728052341
280,2274.42,0.7752815528456602
281,2284.92,0.7951846356613995
282,2295.46,0.7524620206973891
283,2306.06,0.7594092090637544
284,2316.7,0.7285758996503702
285,2327.4,0.5922087935673616
286,2332.76,0.6862380910809198
287,2343.53,0.6690872888833495
288,2354.35,0.7185886894610921
289,2365.21,0.6675430922590851
290,2376.13,0.686237598387454
291,2387.1,0.6434059072911358
292,2392.6,0.6815131125755707
293,2403.65,0.6583980259197533
294,2414.74,0.6737153414841864
295,2425.89,0.7103722603789951
296,2437.08,0.6862440814940542
297,2442.7,0.7219103934392405
298,2453.98,0.7136527195498631
299,2465.3,0.7103811478807363
300,2476.68,0.6878337795419851
301,2482.39,0.7006424964827346
302,2493.85,0.6523743325844842
303,2505.3599999999997,0.7319722714615469
304,2511.14,0.6599228922877347
305,2511.88643,0.6623063788187554
306,2516.93,0.678411025371364
307,2522.7300000000005,0.6553725007735348
308,2534.3700000000003,0.6645110507185812
309,2546.07,0.6553733993746844
310,2557.82,0.6990166469566684
311,2563.72,0.6831045202106009
312,2575.5499999999997,0.7185971660739942
313,2587.4399999999996,0.7120340106484444
314,2593.41,0.7038832823986099
315,2605.38,0.6831011252544695
316,2617.3999999999996,0.6753072670362097
317,2623.44,0.7022615372826084
318,2635.5499999999997,0.7236044771309341
319,2647.7099999999996,0.7771295159051406
320,2653.81,0.7933928848625961
321,2666.06,0.728617821703388
322,2672.21,0.7576881895867242
323,2684.5400000000004,0.7594539247089255
324,2696.94,0.7252617583273596
325,2703.15,0.745587324921753
326,2715.63,0.7120296568215965
327,2721.8900000000003,0.7104095223418705
328,2734.45,0.7404696525231232
329,2747.08,0.658399381200609
330,2753.41,0.6721966452171163
331,2766.1200000000003,0.6958344721760114
332,2772.4900000000002,0.7236030353332231
333,2785.2900000000004,0.6878614603587037
334,2798.1499999999996,0.577428784095241
335,2804.6,0.6130644455338622
336,2817.54,0.7186298675518088
337,2824.04,0.7507676279163106
338,2837.0699999999997,0.7252613480008426
339,2843.6099999999997,0.7087857075060491
340,2856.74,0.6831327254423428
341,2863.3199999999997,0.745582084088254
342,2876.5400000000004,0.747312000091133
343,2883.17,0.7438903576629248
344,2884.0315,0.7438900673076163
345,2896.48,0.7438861336829693
346,2909.85,0.798925827804958
347,2930.02,0.7717946189373821
348,2950.33,0.7612094100082565
349,2970.78,0.7735969010175809
350,2991.37,0.7735943919653555
351,3012.11,0.7807532828471837
352,3032.99,0.7825537736674621
353,3046.99,0.7843549675124766
354,3068.11,0.7879884582272408
355,3089.3700000000003,0.7916261488804556
356,3110.79,0.7934233394633273
357,3132.35,0.7825584299846494
358,3146.81,0.7861562236274284
359,3168.62,0.78979061403884
360,3190.5899999999997,0.7542568043799088
361,3212.7,0.7789574946594278
362,3227.53,0.7473466881395393
363,3249.9,0.7897927783047515
364,3272.43,0.8156858683996209
365,3287.54,0.8100762617566327
366,3310.3300000000004,0.8063358517371954
367,3311.31121,0.8069369082946155
368,3325.6000000000004,0.8156896312191318
369,3333.27,0.8289500667584704
370,3340.95,0.7898268022137664
371,3348.66,0.8443312374169346
372,3356.3700000000003,0.8119467726201028
373,3364.11,0.7439227075711434
374,3371.8700000000003,0.7508015423540987
375,3379.64,0.8156834770530114
376,3387.4300000000003,0.821331911583839
377,3395.24,0.8045011459465814
378,3403.07,0.8347006801412387
379,3410.91,0.7843922142518532
380,3418.78,0.7934532481103402
381,3426.6600000000003,0.8156836818847845
382,3434.55,0.8482515155751862
383,3442.4700000000003,0.7916577490134602
384,3450.41,0.810072582283649
385,3458.3599999999997,0.7989613154697952
386,3466.34,0.7898212484038137
387,3474.33,0.8194553812537897
388,3482.33,0.7916602140197229
389,3490.36,0.8232348465335285
390,3498.4100000000003,0.7753904788792488
391,3506.47,0.8175890111409267
392,3514.56,0.7843861431504767
393,3522.6600000000003,0.8232328750759843
394,3530.78,0.7843893068334066
395,3538.9199999999996,0.8289468384227436
396,3547.0800000000004,0.8404851698439957
397,3555.25,0.8385461011812051
398,3563.4500000000003,0.8270454322662868
399,3571.66,0.7843908632673258
400,3579.8999999999996,0.7718622940162372
401,3588.15,0.7137190246811058
402,3596.42,0.7825894551778895
403,3604.71,0.8175893855065878
404,3613.02,0.7683013156672011
405,3621.35,0.7771884456597291
406,3629.7000000000003,0.888255075484172
407,3635.76,0.9237522245543666
408,3638.48,0.8899512016947838
409,3641.2,0.8886093788352012
410,3643.92,0.8332162559756185
411,3646.63,0.8281391332000784
412,3649.35,0.8280321103404957
413,3652.07,0.8322648874809131
414,3654.79,0.8328283646213304
415,3657.5099999999998,0.9189495417617477
416,3660.2200000000003,0.9032883189862075
417,3662.94,0.856962396126625
418,3665.66,0.8824699732670422
419,3668.38,0.9032143504074596
420,3671.09,0.8541412276319196
421,3673.81,0.8518821047723368
422,3676.53,0.8340990819127542
423,3679.25,0.8235135590531715
424,3681.96,0.8342074362776314
425,3684.6800000000003,0.7871053134180488
426,3687.4,0.792749390558466
427,3690.12,0.8094011676988834
428,3692.84,0.8584415448393008
429,3695.55,0.8788732220637606
430,3698.27,0.839674199204178
431,3700.9900000000002,0.8652522763445953
432,3703.71,0.8708257534850126
433,3706.42,0.8262685307094725
434,3709.1400000000003,0.8162828078498898
435,3711.86,0.8250314849903072
436,3714.58,0.8948526621307245
437,3717.29,0.9148964393551844
438,3720.01,1.0123785164956018
439,3722.73,1.2670404936360191
440,3725.4500000000003,1.6388004707764365
441,3728.17,1.7673294479168538
442,3730.8799999999997,1.6250104251413138
443,3733.6000000000004,1.245483402281731
444,3736.32,1.0021443794221483
445,3739.04,0.9012382565625656
446,3741.75,0.8850828337870256
447,3744.47,0.8985946109274429
448,3747.19,0.8557617880678602
449,3749.9100000000003,0.8421419652082776
450,3752.63,0.8588996423486949
451,3755.3399999999997,0.8606671195731548
452,3758.06,0.928230496713572
453,3760.78,0.9734955738539894
454,3763.5,1.0128681509944066
455,3766.21,0.9559280282188666
456,3768.93,0.9426610053592839
457,3771.6499999999996,0.8979227824997013
458,3774.3700000000003,0.9802685596401186
459,3777.08,1.0585270368645785
460,3779.7999999999997,1.0706980140049958
461,3782.52,1.1446469911454131
462,3785.2400000000002,1.1986619682858304
463,3787.96,1.2252279454262478
464,3790.67,1.0595149226507077
465,3793.39,0.9843633997911251
466,3796.1099999999997,0.9047315769315424
467,3798.8300000000004,0.9137976540719598
468,3801.54,1.0161538312964198
469,3801.8939600000003,1.0234262748657743
470,3804.2599999999998,1.0720388125800742
471,3806.98,1.1114817944835578
472,3809.7,1.2160557763870414
473,3812.41,1.2077337583570562
474,3815.13,1.2007117402605398
475,3817.85,1.1465527221640235
476,3820.5699999999997,1.139247704067507
477,3823.29,1.1532526859709906
478,3826.0,1.1233036679410056
479,3828.72,1.040425649844489
480,3831.44,0.9528908317479727
481,3834.16,0.9343669136514564
482,3836.87,0.9042046956214713
483,3839.59,0.9350397775249549
484,3842.31,1.0103295594284385
485,3845.0299999999997,1.115255541331922
486,3847.7400000000002,1.123445523301937
487,3850.46,1.1958425052054207
488,3853.18,1.2486574871089042
489,3855.9,1.1904414690123877
490,3858.62,1.2522884509158714
491,3861.33,1.2620664328858864
492,3864.05,1.2815054147893699
493,3866.77,1.2536663966928534
494,3869.49,1.267954378596337
495,3872.2000000000003,1.2781903605663518
496,3874.92,1.1877273424698354
497,3877.64,1.164404324373319
498,3880.36,1.1332843062768025
499,3883.08,1.0930622881802863
500,3885.79,1.0612422701503013
501,3888.51,1.0247252520537848
502,3891.23,1.0047192339572686
503,3893.95,1.032061215860752
504,3896.6600000000003,1.037322197830767
505,3899.38,1.1228791797342503
506,3902.1,1.191112161637734
507,3904.82,1.1751281435412175
508,3907.53,1.2555401255112326
509,3910.25,1.280341107414716
510,3912.9700000000003,1.2836910893181999
511,3915.69,1.2997780712216833
512,3918.41,1.283477053125167
513,3921.1200000000003,1.244072035095182
514,3923.84,1.2328510169986655
515,3926.56,1.1973559989021492
516,3929.28,1.0687179808056326
517,3931.9900000000002,0.9933255627756475
518,3934.71,0.9564198446791311
519,3937.4300000000003,1.0355909265826149
520,3940.15,1.1378709084860983
521,3942.86,1.2274548904561131
522,3945.5800000000004,1.2511988723595968
523,3948.3,1.2160208542630804
524,3951.02,1.258745836166564
525,3953.7400000000002,1.2419858180700476
526,3956.4500000000003,1.1762258000400625
527,3959.17,1.133427781943546
528,3961.8900000000003,1.0676607638470297
529,3964.61,0.9762099457505132
530,3967.3199999999997,0.8889268277205282
531,3970.0400000000004,0.8831044096240118
532,3972.76,0.9220895915274954
533,3975.48,0.947314773430979
534,3978.2000000000003,1.0556636553344625
535,3980.91,1.1677576373044776
536,3983.63,1.231615619207961
537,3986.3500000000004,1.2493256011114446
538,3989.07,1.2883455830149282
539,3991.7799999999997,1.3136125649849433
540,3994.5000000000005,1.3806105468884267
541,3997.2200000000003,1.4145855287919105
542,3999.94,1.3683295106953939
543,4002.6499999999996,1.3634654926654088
544,4005.37,1.3717904745688922
545,4008.09,1.381914456472376
546,4010.8100000000004,1.4158894383758596
547,4013.53,1.4397024202793431
548,4016.24,1.4281004022493582
549,4018.9599999999996,1.4333203841528417
550,4021.6800000000003,1.4589683660563253
551,4024.4,1.3797953479598088
552,4027.1099999999997,1.4682513299298239
553,4029.83,1.4500443118333073
554,4032.5499999999997,1.385301293736791
555,4035.2700000000004,1.4569912756402745
556,4037.98,1.4714272576102894
557,4040.7,1.4560082395137732
558,4043.4199999999996,1.4423172214172566
559,4046.14,1.46281420332074
560,4048.86,1.4350101852242239
561,4051.5699999999997,1.4041441671942387
562,4054.29,1.4418941490977224
563,4057.0099999999998,1.421429131001206
564,4059.7299999999996,1.4229091129046896
565,4062.44,1.3763780948747044
566,4065.16,1.4067890767781879
567,4067.8799999999997,1.3479380586816716
568,4070.6,1.438822040585155
569,4073.31,1.34780002255517
570,4076.0299999999997,1.3756710044586538
571,4078.75,1.3558769863621374
572,4081.47,1.347371968265621
573,4084.1899999999996,1.3256379501691045
574,4086.9,1.3362979321391195
575,4089.62,1.305706914042603
576,4092.3399999999997,1.2554998959460866
577,4095.06,1.22536787784957
578,4097.77,1.2678868598195852
579,4100.49,1.2070598417230687
580,4103.21,1.2514778236265522
