,lambda (Angstroms),Total Flux (erg/s/cm^2/Angstrom)
0,102.07000000000001,7.416403934802262
1,103.97,7.395265246782732
2,104.712855,7.387000520473567
3,105.9,7.317622243177843
4,108.12,7.18788259426181
5,109.88,7.08502593682482
6,114.0,6.844247850745365
7,118.01,6.609898306335261
8,120.22644299999999,6.480366544618441
9,121.04,6.4405047936163085
10,125.0,6.246477155401239
11,127.03,6.147013493189531
12,127.91,6.103896241538466
13,130.89,5.957885547249817
14,132.1,5.898599329332547
15,133.94,5.808445077711668
16,137.06,5.655574831097073
17,138.038426,5.607635015973391
18,139.93,5.541388004571023
19,142.86,5.43877311802839
20,146.85999999999999,5.298684539718915
21,150.98,5.154393276635323
22,154.85,5.018857572546454
23,158.489319,4.891400827517517
24,158.82,4.882645262886965
25,162.15,4.7944756104038815
26,165.92,4.694655952388877
27,170.17999999999998,4.581862389241765
28,172.95000000000002,4.50852013267359
29,176.97,4.402081197727753
30,179.85000000000002,4.325826468385048
31,181.93,4.270753608616929
32,181.970086,4.269692238327589
33,186.17000000000002,4.184855408488529
34,190.95000000000002,4.088301126314084
35,194.04999999999998,4.025682256692546
36,198.10999999999999,3.9436717814967737
37,201.8,3.869135249161195
38,205.07000000000002,3.8030825251585934
39,208.929613,3.7251198791856353
40,209.85,3.711142589242947
41,216.23,3.6142541472717404
42,220.25,3.5532053714329304
43,222.8,3.514480489006782
44,226.94,3.4516094714619174
45,230.1,3.4036274538818274
46,233.83999999999997,3.3468396493908106
47,239.83,3.255880199783779
48,239.88329199999998,3.25507090269234
49,245.98999999999998,3.183607438905553
50,251.72,3.1165544962598832
51,256.99,3.0548777267929927
52,259.96,3.0201266507600018
53,264.19,2.9706273533751357
54,269.1,2.913169342921638
55,274.1,2.854658017192293
56,275.42287,2.8391774350920014
57,279.2,2.805255616536546
58,283.72999999999996,2.764572851393291
59,289.67,2.7112248703665727
60,295.74,2.656712423491947
61,301.24,2.6073159659527625
62,308.26,2.544271656795732
63,316.227766,2.4727155791498565
64,318.35,2.4584806427854424
65,328.03,2.393550896347557
66,337.99999999999994,2.326675212193701
67,348.27,2.2577869735547043
68,357.20000000000005,2.1978873838146704
69,363.078055,2.158459345462092
70,366.36,2.141973496736927
71,374.90000000000003,2.0990750283134783
72,385.4,2.04632795995842
73,395.29,1.9966500738978923
74,405.43,1.9457141911527207
75,413.90999999999997,1.9031164993975875
76,416.86938299999997,1.888250539967886
77,421.60999999999996,1.8700653867130872
78,430.44,1.8361925513311772
79,441.48,1.7938437113754262
80,450.72,1.7583990874418083
81,460.16,1.722186649239065
82,469.8,1.685208014867195
83,478.630092,1.651336520900192
84,479.64,1.6483572411880225
85,489.67999999999995,1.618738089750313
86,499.93,1.5885017167279498
87,505.71999999999997,1.5714947324653663
88,511.58000000000004,1.554521536907898
89,519.89,1.530013943429475
90,529.5500000000001,1.5015300478354234
91,539.4,1.4724508401695433
92,549.43,1.4429932230882456
93,549.5408739999999,1.4426674067352996
94,559.64,1.4200566100345073
95,570.05,1.3967117984462183
96,580.65,1.3728340135098238
97,590.0799999999999,1.3517488625801828
98,599.67,1.330182585220558
99,609.41,1.3084077902703237
100,619.31,1.2862999932901067
101,629.38,1.263726078840532
102,630.957344,1.2601853615105947
103,639.6,1.2448167610401737
104,650.0,1.2264079149576637
105,657.5200000000001,1.213069126682618
106,665.14,1.1995941737337021
107,674.39,1.1831825159007003
108,685.35,1.1636261962445165
109,694.88,1.1470056041246783
110,704.5500000000001,1.1296813328614215
111,716.0,1.1096830352032732
112,724.43596,1.0947337806650774
113,725.9599999999999,1.0927338591489337
114,734.36,1.081749210691584
115,744.5799999999999,1.0684786105684758
116,754.94,1.054941763471078
117,765.44,1.0412215853993911
118,774.3,1.0297639590265202
119,785.0699999999999,1.0157976370044186
120,794.17,1.0039426356756234
121,805.2099999999999,0.9895171677031069
122,814.54,0.9773540754165508
123,825.8699999999999,0.9627258634972927
124,831.763771,0.9546525659668187
125,835.4300000000001,0.9508568024811772
126,845.11,0.9420889688412455
127,854.89,0.9326549072091659
128,864.79,0.9232257569865084
129,874.8000000000001,0.9136966314724879
130,884.9300000000001,0.9040879973678899
131,895.18,0.8942857936727143
132,905.55,0.884224188386961
133,916.0300000000001,0.8772013488098448
134,924.5100000000001,0.9222829750756897
135,935.21,0.9827253449158477
136,946.04,1.0975887208662136
137,954.8,1.1672357587540438
138,954.992586,1.1683403478588978
139,965.85,1.2308459188562064
140,974.79,0.9259507373225846
141,986.08,1.2238144412918692
142,995.1999999999999,1.2024164037542149
143,1004.4100000000001,1.2714515882145436
144,1016.04,1.2273770530651003
145,1025.44,0.9687208950767281
146,1034.93,1.1372171590863396
147,1044.51,1.317256245093935
148,1054.17,1.2973949395441822
149,1063.92,1.2229605559924133
150,1073.77,1.2680663079939594
151,1086.2,1.1956393572710373
152,1096.25,1.263180480379214
153,1096.4782,1.2622239981566161
154,1103.85,1.232619915086052
155,1114.0700000000002,1.2232415465226132
156,1124.37,1.1681409316299114
157,1134.78,1.2260313780344716
158,1145.28,1.18237694731861
159,1155.8799999999999,1.191354608691169
160,1163.89,1.1938963449736404
161,1174.66,1.060792682896514
162,1185.53,1.161560412907808
163,1193.74,1.08517523336712
164,1204.79,0.9890347091375709
165,1215.9399999999998,0.8075980769964418
166,1224.3700000000001,1.0105754200502786
167,1235.69,1.1033996644594644
168,1244.26,1.1212615764370897
169,1255.77,1.103370435814274
170,1258.92541,1.0929395346303623
171,1264.48,1.075842431385349
172,1276.18,1.11392326845632
173,1285.02,1.1128275720210539
174,1293.93,1.0497586994827932
175,1305.9,1.0488616858707869
176,1314.96,1.0919923073975388
177,1324.07,1.0677680602792952
178,1336.32,1.0364166422553118
179,1345.5800000000002,1.0593739892020801
180,1354.91,1.0515898600458546
181,1364.3,1.0205976085156343
182,1373.76,1.0176448808824192
183,1386.47,1.0140737913244742
184,1396.0800000000002,0.9462772577562718
185,1405.76,0.9548321480850752
186,1415.5,0.9775344160398836
187,1425.32,0.9650623541626988
188,1435.2,0.9652287699115187
189,1441.82,0.9720163013140682
190,1445.43977,0.968048422754388
191,1448.48,0.9652348943287479
192,1455.16,0.9556087194392723
193,1465.2499999999998,0.933426832517894
194,1475.4,0.9294261673789452
195,1485.63,0.9231641312832364
196,1495.93,0.9168740706003624
197,1506.3,0.8954111853303235
198,1513.2499999999998,0.8637585584617823
199,1516.74,0.8755751754731191
200,1523.74,0.8728127167566029
201,1534.3000000000002,0.8311702504642582
202,1544.9399999999998,0.8336300132151535
203,1555.65,0.8152564513788836
204,1566.43,0.8251473649554485
205,1573.66,0.8399179397382467
206,1584.57,0.8386181505100764
207,1595.55,0.8393547366947407
208,1606.61,0.823924851922645
209,1614.03,0.8180271456831378
210,1625.22,0.8077363581063066
211,1636.4799999999998,0.8151277459423105
212,1644.04,0.810139090528473
213,1655.43,0.7958164755597414
214,1659.58691,0.7995472905906849
215,1666.91,0.8069856209331683
216,1670.75,0.786249254252645
217,1678.46,0.8078399289644067
218,1686.21,0.8067211477732463
219,1693.99,0.7905393746548944
220,1705.73,0.7775508671472529
221,1713.6100000000001,0.7639742542715955
222,1725.48,0.7578868150794571
223,1733.45,0.7679677264222251
224,1745.46,0.757040991569859
225,1753.52,0.7643412271310525
226,1765.68,0.7421433326427285
227,1773.8300000000002,0.7426640924223471
228,1786.12,0.7420528662495263
229,1794.3700000000001,0.7492098862718394
230,1806.8000000000002,0.7457793644387913
231,1815.14,0.7239077086795297
232,1823.5199999999998,0.7261596970173461
233,1836.16,0.7153741316939567
234,1844.6399999999999,0.6893800802744677
235,1853.15,0.6870315369277871
236,1865.9999999999998,0.6911983281140568
237,1874.61,0.7002623450100709
238,1883.26,0.6744974060031629
239,1896.32,0.6568978536990913
240,1905.0700000000002,0.671838074934878
241,1905.46072,0.6712480906389574
242,1913.86,0.6591855167276878
243,1927.1299999999999,0.648373694052813
244,1936.03,0.653869909666499
245,1944.96,0.6654253488159616
246,1953.94,0.6421367605250516
247,1967.48,0.6583270496721652
248,1976.56,0.6650235065005101
249,1985.69,0.6470989358884824
250,1994.85,0.6378802888122314
251,2004.06,0.6409140142956077
252,2013.3100000000002,0.6374017378266859
253,2027.27,0.6403391564746699
254,2036.6200000000001,0.626196025125003
255,2046.02,0.6283235663349638
256,2055.4700000000003,0.6136434801045516
257,2064.96,0.6156671919218417
258,2074.49,0.6307758017868338
259,2079.27,0.6167497184872179
260,2084.06,0.6214364096995277
261,2093.68,0.6067003901718491
262,2103.35,0.6094778432037979
263,2113.06,0.6090990942834487
264,2122.81,0.6095427434108014
265,2132.61,0.5972370650977816
266,2147.3900000000003,0.5934753937236559
267,2157.3,0.5969640350418164
268,2167.26,0.5886684489196045
269,2177.26,0.5843127608450944
270,2187.31,0.581507045330212
271,2187.7616199999998,0.5816939425457117
272,2197.41,0.5863189130741137
273,2202.48,0.5793961501377611
274,2212.64,0.5696395835828616
275,2222.85,0.5637571653224753
276,2233.11,0.5713762953566023
277,2243.42,0.5639194736852425
278,2253.7799999999997,0.5543737003083962
279,2264.1800000000003,0.5536829455671604
280,2274.63,0.5551838391204378
281,2285.13,0.5574686809682285
282,2295.68,0.5436394711105327
283,2306.27,0.5465864798884473
284,2316.92,0.538700966619778
285,2327.61,0.5017189719867192
286,2332.98,0.5247125988174466
287,2343.75,0.5145046414556091
288,2354.57,0.5260156323882849
289,2365.44,0.5109815716154741
290,2376.35,0.5142406294782738
291,2387.32,0.49829856529448946
292,2392.83,0.505384907349854
293,2403.87,0.49869375077838834
294,2414.97,0.4985262721603386
295,2426.11,0.5070052121778994
296,2437.31,0.49886283014887634
297,2442.9300000000003,0.5041262984521699
298,2454.21,0.5012956536943681
299,2465.5299999999997,0.4964732275721768
300,2476.91,0.48841807940340154
301,2482.62,0.48702461463681923
302,2494.08,0.4728735037392652
303,2505.6,0.49118857079512696
304,2511.37,0.47058888398196064
305,2511.88643,0.47057583252972757
306,2517.16,0.47062677321263024
307,2522.96,0.4657594813927751
308,2534.61,0.4664623926511695
309,2546.31,0.4634838988076686
310,2552.18,0.47412295984516006
311,2563.96,0.46793609783862666
312,2575.79,0.473740130730198
313,2587.68,0.47068083749949496
314,2593.65,0.4669317883331957
315,2605.6200000000003,0.45955482693946015
316,2617.65,0.45412383942345025
317,2623.68,0.4608988641348768
318,2635.79,0.4666495084558343
319,2647.9599999999996,0.4805262266545176
320,2654.06,0.48606060422329067
321,2666.31,0.4681851542589414
322,2672.46,0.47348232672581914
323,2684.7900000000004,0.4749475085984374
324,2697.19,0.46004894332840224
325,2703.4,0.4652420896730056
326,2715.88,0.45193735623993797
327,2722.1400000000003,0.448231597482646
328,2734.71,0.4544963748661669
329,2747.33,0.4302335471477924
330,2753.66,0.43548754124784705
331,2766.3700000000003,0.442092024346061
332,2772.75,0.44765641334422035
333,2785.55,0.4329750072590227
334,2791.97,0.3969246121756659
335,2804.86,0.40509831690705667
336,2817.81,0.4395498955161733
337,2824.3,0.44643615329016295
338,2837.3399999999997,0.4395102427158679
339,2843.8799999999997,0.4315025953879623
340,2857.0099999999998,0.4178008956302557
341,2863.5899999999997,0.43757566422083394
342,2876.8100000000004,0.44069527527971564
343,2883.44,0.43752723876839855
344,2884.0315,0.43755427275707925
345,2896.75,0.4385170326099809
346,2910.12,0.45257494107591156
347,2930.29,0.44266971128966043
348,2950.6,0.43553888630409976
349,2971.06,0.4367128450335644
350,2991.65,0.4346913296493844
351,3012.39,0.43330419798022984
352,3033.27,0.4325437711117656
353,3047.2700000000004,0.432889951180803
354,3068.39,0.4314787182563794
355,3089.6600000000003,0.42875986904698127
356,3111.08,0.42926670355260854
357,3132.64,0.42268104285892616
358,3147.1,0.4204407529873747
359,3168.92,0.422164144066403
360,3190.8799999999997,0.4100039399461217
361,3212.9999999999995,0.41538329845520083
362,3227.83,0.4038335284140454
363,3250.21,0.41864743869583526
364,3272.7400000000002,0.42632963269265045
365,3287.84,0.42332359333854075
366,3310.63,0.4185041391080667
367,3311.31121,0.41799383975428794
368,3318.26,0.4129346034296192
369,3325.9100000000003,0.41322877400704944
370,3333.58,0.42139812306964947
371,3341.27,0.4023784506174192
372,3348.97,0.4226989674077739
373,3356.69,0.41116646268329826
374,3364.43,0.3803578364439924
375,3372.1800000000003,0.3828939994472714
376,3379.96,0.4081693301783051
377,3387.75,0.4097385501519236
378,3395.5600000000004,0.40489284861071184
379,3403.39,0.4162066255546699
380,3411.23,0.39543419174121275
381,3419.09,0.40508533641292543
382,3426.98,0.4118264488123927
383,3434.88,0.4221333504544449
384,3442.79,0.40399714133908193
385,3450.73,0.4087814999514736
386,3458.6899999999996,0.40262103704903507
387,3466.66,0.4016159633891814
388,3474.65,0.41293366821449734
389,3482.6600000000003,0.40343795152498313
390,3490.69,0.4168771133206387
391,3498.73,0.39635226435887916
392,3506.7999999999997,0.4107908831248742
393,3514.88,0.39812809113345415
394,3522.99,0.4127111668697887
395,3531.11,0.40248913184870816
396,3539.25,0.4146416753127973
397,3547.41,0.42386189726205625
398,3555.58,0.4214174084539001
399,3563.7799999999997,0.41352388737349854
400,3572.0,0.3948552447782667
401,3580.23,0.3925923914256198
402,3588.48,0.3687815165581426
403,3596.7599999999998,0.3969010094184201
404,3605.05,0.4102915915212824
405,3613.36,0.3916808521093145
406,3621.69,0.38878829118251634
407,3630.04,0.4285821087408879
408,3638.4,0.40875961554184437
409,3646.79,0.4076958900705555
410,3648.0099999999998,0.39854667766591034
411,3650.7400000000002,0.28387804089158153
412,3653.47,0.34640800411725275
413,3656.2,0.407032567342924
414,3658.9300000000003,0.4761946305685951
415,3661.66,0.5218817937942664
416,3664.3900000000003,0.49732695701993745
417,3667.12,0.4237822202456087
418,3669.85,0.4277222834712799
419,3672.59,0.384258335939536
420,3675.32,0.4479482991652072
421,3678.0499999999997,0.3644008623908783
422,3680.78,0.35027662561654954
423,3683.5099999999998,0.4094475888422207
424,3686.2400000000002,0.4076349520678919
425,3688.97,0.4281370152935631
426,3691.7,0.39084317851923434
427,3694.4300000000003,0.37223644174490544
428,3697.16,0.4036943049705767
429,3699.8900000000003,0.2983326681962478
430,3702.62,0.27287393142191907
431,3705.35,0.38005769464759026
432,3708.0800000000004,0.42388825787326145
433,3710.81,0.3772140210989326
434,3713.54,0.3829128843246038
435,3716.27,0.42422744755027497
436,3719.0,0.3080441107759462
437,3721.7299999999996,0.3839238740016174
438,3724.46,0.5640125372272886
439,3727.2,0.8726477896955447
440,3729.9300000000003,1.005749152921216
441,3732.66,0.976968616146887
442,3735.39,0.6591842793725583
443,3738.12,0.47065884259822943
444,3740.85,0.43527040582390064
445,3743.5800000000004,0.3819764690495717
446,3746.31,0.415107532275243
447,3749.04,0.3503203955009142
448,3751.77,0.34284045872658536
449,3754.5,0.49869642195225655
450,3757.2299999999996,0.3871178851779278
451,3759.96,0.40049924840359896
452,3762.69,0.3978682116292701
453,3765.42,0.47518927485494133
454,3768.15,0.4097789380806125
455,3770.8799999999997,0.36719640130628367
456,3773.61,0.3942695645319549
457,3776.34,0.4059043277576261
458,3779.0800000000004,0.4152896802258821
459,3781.81,0.5190044434515533
460,3784.54,0.5670120066772245
461,3787.27,0.4598184699028957
462,3790.0,0.4709036331285669
463,3792.7300000000005,0.455008496354238
464,3795.46,0.43399575957990927
465,3798.19,0.39044842280558045
466,3800.92,0.3779363860312517
467,3801.8939600000003,0.3894382340163369
468,3803.65,0.41020196233182954
469,3806.3799999999997,0.48814956637575957
470,3809.11,0.4529846704196896
471,3811.84,0.4906631744636196
472,3814.5699999999997,0.4706801785075497
473,3817.3,0.5190580825514797
474,3820.0299999999997,0.39906788659540976
475,3822.76,0.4181813906393398
476,3825.49,0.3693368946832698
477,3828.22,0.47956589872719985
478,3830.9500000000003,0.3746353027711299
479,3833.69,0.4371548441925102
480,3836.4199999999996,0.36692424823644026
481,3839.15,0.4108805522803703
482,3841.8799999999997,0.36927905632430036
483,3844.61,0.42123546036823034
484,3847.34,0.46918576441216037
485,3850.0699999999997,0.40588026845609043
486,3852.8,0.4242608725000204
487,3855.5299999999997,0.5094512765439505
488,3858.26,0.5382624805878805
489,3860.9900000000002,0.4759462846318106
490,3863.72,0.4444699886757406
491,3866.4500000000003,0.5325429927196706
492,3869.18,0.49058719676360074
493,3871.91,0.5565164008075307
494,3874.64,0.5288142048514608
495,3877.37,0.4811789088953908
496,3880.1000000000004,0.4992176129393208
497,3882.83,0.48695371698325085
498,3885.56,0.4700119210271809
499,3888.3,0.34961686244856116
500,3891.0299999999997,0.3732615664924913
501,3893.76,0.4958260705364213
502,3896.4900000000002,0.4995989745803513
503,3899.22,0.40375587862428136
504,3901.9500000000003,0.4791750826682114
505,3904.68,0.4807250867121414
506,3907.41,0.47533759075607146
507,3910.14,0.4262489948000015
508,3912.87,0.4761412988439315
509,3915.6000000000004,0.4985037028878616
510,3918.33,0.4359187069317916
511,3921.06,0.5044006109757216
512,3923.79,0.47744341501965165
513,3926.52,0.4881660190635817
514,3929.2500000000005,0.48277852310751174
515,3931.98,0.4020925271514418
516,3934.71,0.3815231311953718
517,3937.44,0.3723126352393018
518,3940.18,0.4071801766606822
519,3942.91,0.43277918070461224
520,3945.6400000000003,0.4674040847485422
521,3948.37,0.4447706887924723
522,3951.1000000000004,0.44687019283640234
523,3953.83,0.4837791968803324
524,3956.56,0.4919736009242624
525,3959.29,0.4605340049681924
526,3962.02,0.47742450901212247
527,3964.75,0.42854351305605254
528,3967.48,0.3525966170999825
529,3970.21,0.3530229211439126
530,3972.9399999999996,0.3655775251878426
531,3975.67,0.3709381292317726
532,3978.4,0.3766286332757027
533,3981.13,0.4197179373196327
534,3983.86,0.5017694413635627
535,3986.5899999999997,0.49875144540749283
536,3989.32,0.5101458494514228
537,3992.0499999999997,0.5168256534953529
538,3994.7899999999995,0.4948248949167332
539,3997.52,0.5182498989606632
540,4000.25,0.46278570300459326
541,4002.98,0.5101131070485233
542,4005.71,0.5072538110924534
543,4008.4399999999996,0.5101351151363833
544,4011.17,0.5257310191803134
545,4013.9,0.5199771232242435
546,4016.63,0.5569839272681735
547,4019.36,0.5884333313121035
548,4022.0899999999997,0.5550884353560336
549,4024.82,0.5095173393999636
550,4027.5499999999997,0.5279957434438936
551,4030.28,0.5400741474878237
552,4033.01,0.5292758515317537
553,4035.74,0.5420625555756837
554,4038.4700000000003,0.5329620596196137
555,4041.2,0.5429274636635438
556,4043.93,0.5066876677074739
557,4046.6600000000003,0.5218805717514039
558,4049.4,0.5036417131727842
559,4052.13,0.5834212172167142
560,4054.86,0.5737222212606442
561,4057.5899999999997,0.5234490253045743
562,4060.32,0.5333898293485043
563,4063.05,0.5844669333924344
564,4065.7799999999997,0.5051613374363644
565,4068.51,0.5142472414802944
566,4071.24,0.5343133455242245
567,4073.9700000000003,0.5647491495681545
568,4076.7,0.5321858536120846
569,4079.43,0.5428473576560146
570,4082.1600000000003,0.5243543616999446
571,4084.89,0.49067956574387467
572,4087.6200000000003,0.5064220697878047
573,4090.35,0.5774445738317348
574,4093.08,0.5547743778756647
575,4095.81,0.5136368819195948
576,4098.54,0.5210983859635249
577,4101.27,0.5344347900074549
578,4104.01,0.5416495314288352
579,4106.74,0.4809944354727652
580,4109.47,0.4818604395166952
581,4112.2,0.4922776435606253
582,4114.93,0.5169484476045554
583,4117.66,0.5031089516484853
584,4120.39,0.4610554556924154
585,4123.12,0.5072959597363454
586,4125.849999999999,0.4936396637802755
587,4128.58,0.49339426782420553
588,4131.31,0.4969350718681355
589,4134.04,0.5107110759120657
590,4136.77,0.5108686799559956
591,4139.5,0.5120888839999256
592,4142.2300000000005,0.5295656880438557
593,4144.96,0.5178392920877857
594,4147.69,0.5055264961317157
595,4150.42,0.5192170001756458
596,4153.15,0.48005820421957585
597,4155.889999999999,0.5318413456409562
