,lambda (Angstroms),Total Flux (erg/s/cm^2/Angstrom)
0,100.00999999999999,0.052455979421075
1,102.11,0.06449173937349154
2,104.01,0.0753812364760338
3,104.712855,0.07940951936535896
4,105.94,0.07354119511357235
5,107.91,0.06412046751753758
6,109.92,0.054508456137213356
7,114.03999999999999,0.03480622387174879
8,118.05,0.015630022161423174
9,120.22644299999999,0.005222065588761175
10,121.08000000000001,0.005033195123091686
11,125.03999999999999,0.004156947015960796
12,127.08000000000001,0.00370554657991721
13,127.96,0.003510825019649904
14,130.94,0.002851426780842377
15,132.15,0.0025836855032230744
16,133.98999999999998,0.002176540840608614
17,137.10999999999999,0.0014861672514166057
18,138.038426,0.0012807310097996494
19,139.98,0.001265560519364102
20,142.91,0.0012427049498864077
21,146.91,0.0012115761675387023
22,151.03,0.0011794363300285657
23,154.9,0.001149268410615161
24,158.489319,0.0011213056109037932
25,158.88,0.0011166240541756528
26,161.82999999999998,0.001081288121576101
27,165.98000000000002,0.0010316028597767309
28,169.85,0.000985298457557319
29,173.01,0.0009475037595977989
30,177.04000000000002,0.0008993376559184106
31,179.91,0.0008650706822988467
32,181.970086,0.0008404788104564163
33,182.0,0.0008405964954271732
34,185.81,0.0008556430043848582
35,191.01,0.0008762182951801234
36,194.11999999999998,0.0008885854057807531
37,198.17999999999998,0.0009047687736516719
38,201.87,0.0009196143590910045
39,205.14999999999998,0.0009327737305926333
40,208.929613,0.0009479160407916624
41,209.93,0.000971532717913448
42,215.81,0.0011110244248587271
43,219.82000000000002,0.0012061532042907976
44,222.88,0.0012786721832215037
45,227.02,0.001377087953774813
46,230.18,0.0014572547963372419
47,233.92,0.001557746615363661
48,239.88329199999998,0.0017088160014400743
49,239.92,0.0017081750171252402
50,246.07,0.0015920459128846594
51,251.80999999999997,0.0014893039695934509
52,257.08000000000004,0.0013838970098295697
53,260.05,0.0013364388022207043
54,264.28,0.0012618183404747444
55,269.19,0.0011724986161786054
56,274.2,0.0010813854009192058
57,275.42287,0.0010591884619369858
58,279.3,0.0011437694319189726
59,283.83,0.0012437614360485357
60,289.78000000000003,0.0013701079540332838
61,295.85,0.00150517171093537
62,301.34999999999997,0.0016244965779800928
63,307.66,0.0017661799427168595
64,316.227766,0.001958124002156649
65,317.73,0.0019380687842585579
66,328.14000000000004,0.0017968686517934001
67,338.12,0.001661369064281175
68,348.39000000000004,0.0015213495929634834
69,357.33,0.001401487302546721
70,363.078055,0.0013264241454095855
71,365.65,0.0013620579523404158
72,375.03000000000003,0.001487489653547379
73,384.65,0.0016094966637404471
74,395.43,0.00176127051736636
75,404.64,0.001889289737208164
76,414.06,0.0020142943399128117
77,416.86938299999997,0.002051242519937945
78,421.76,0.0020924829172004585
79,429.59999999999997,0.002159489565447128
80,440.61999999999995,0.0022576027819877272
81,450.88000000000005,0.0023426706249738034
82,460.33,0.0024208522750925558
83,469.96000000000004,0.002503294134737381
84,478.630092,0.002579250570275377
85,479.81,0.00257028507651547
86,489.85,0.0024841438053563062
87,500.11,0.002407444752956603
88,505.90000000000003,0.002362732183035133
89,511.76,0.002386906555446219
90,520.0699999999999,0.002326258109496752
91,529.74,0.0022545486431512214
92,539.59,0.0021627788285179775
93,549.5408739999999,0.002139584102251585
94,549.62,0.0021398950043312057
95,559.84,0.002171978073160877
96,570.25,0.0021997548094149747
97,579.52,0.002169662341122514
98,590.29,0.0022330260261807875
99,599.88,0.00223253913460315
100,609.63,0.0022572693313829247
101,619.53,0.002380664323497772
102,629.6,0.00242526489699237
103,630.957344,0.002425618796491026
104,639.8299999999999,0.0024908607475563507
105,650.23,0.0026657906421958186
106,657.76,0.0027831956986030483
107,665.37,0.002893110492661351
108,674.63,0.0029676386257730305
109,685.5899999999999,0.003021001683970007
110,695.1300000000001,0.003441976898860443
111,704.8,0.0034368044374338703
112,716.2499999999999,0.003829722638743668
113,724.43596,0.003955486712687537
114,726.21,0.003979628467937383
115,734.62,0.004118324765364655
116,744.8399999999999,0.004467462257600887
117,755.21,0.004706051252169354
118,765.71,0.004910452415425758
119,774.58,0.005281207386671881
120,785.3499999999999,0.005613291054126306
121,794.45,0.005848044862281856
122,805.5,0.006106841200756452
123,814.83,0.006336129845821428
124,824.26,0.0068530641591078925
125,831.763771,0.006321083002378105
126,835.7299999999999,0.006010676671093487
127,845.4000000000001,0.00716891457680491
128,855.1899999999999,0.007340029425503446
129,865.1,0.007791363217189093
130,875.11,0.008272406961364
131,885.2500000000001,0.008898514143774945
132,895.5,0.009321949773924077
133,905.87,0.009332691347060319
134,914.2500000000001,0.01404376236566029
135,924.8399999999999,0.0945605578342729
136,935.55,0.21152810724587262
137,944.2,0.4136985206361936
138,954.992586,0.5995140474242832
139,955.14,0.6020526952727978
140,963.9699999999999,0.6718385465316523
141,975.13,0.10009121781690905
142,984.1600000000001,0.5501957294213775
143,995.5500000000001,0.6078052371040903
144,1004.77,0.9356433770368919
145,1014.06,0.9199559610906586
146,1025.8,0.39703108937819565
147,1035.3,0.6308339057948569
148,1044.8799999999999,1.2796342583497637
149,1054.54,1.2608885470429159
150,1064.3,0.9780452559088753
151,1074.1499999999999,1.1961868929303607
152,1084.0900000000001,0.9256608581073726
153,1094.12,1.2817839514399108
154,1096.4782,1.2713148766823168
155,1104.24,1.2368436765120194
156,1114.46,1.1852051423874974
157,1124.77,1.059983383402779
158,1135.1799999999998,1.401577374573398
159,1145.68,1.2678701408838207
160,1156.28,1.3722656573495806
161,1164.3,1.4230136198076366
162,1175.07,0.9587837115374702
163,1185.95,1.3961075284381748
164,1194.1699999999998,0.9285583912069055
165,1205.22,0.6431396833716836
166,1216.37,0.452726725691799
167,1224.8,0.9573908637867383
168,1236.13,1.503814156386461
169,1244.7,1.6666727446988725
170,1256.22,1.5851619625937363
171,1258.92541,1.5115584223722798
172,1264.9299999999998,1.3482132703642087
173,1273.69,1.796152827129005
174,1285.48,1.8988369223638168
175,1294.3899999999999,1.4559945057855448
176,1306.3700000000001,1.443109634785803
177,1315.4199999999998,1.8655422430873336
178,1324.54,1.7840538638287655
179,1333.7199999999998,1.5559064952329702
180,1346.06,1.905476688209864
181,1355.3899999999999,1.8471843462709998
182,1364.79,1.6332550167720372
183,1374.25,1.7358836979358472
184,1383.77,1.7580883897624295
185,1396.5800000000002,1.5240516662643753
186,1406.26,1.5938083865250179
187,1416.01,1.625040119225562
188,1425.82,1.6877078625888786
189,1435.7,1.6736426183920965
190,1442.33,1.7807837966284665
191,1445.43977,1.8134098521935555
192,1445.66,1.8157203821225134
193,1455.68,1.7595818766314957
194,1465.7700000000002,1.6136133815811595
195,1475.93,1.6148668969715048
196,1486.16,1.6536974228025314
197,1496.46,1.6895219590742396
198,1503.37,1.5908479897186574
199,1510.31,1.401240024837653
200,1517.28,1.5147410644312265
201,1524.28,1.4628171084993777
202,1534.8500000000001,1.2573896850422863
203,1545.48,1.4082352705343502
204,1556.2,1.3270728694501475
205,1563.38,1.3511039403657654
206,1574.22,1.448265557179874
207,1585.1299999999999,1.527572184434664
208,1596.1200000000001,1.5636308236216614
209,1603.48,1.5377739213847461
210,1614.6,1.5488375799615806
211,1625.79,1.4558302489790966
212,1633.3,1.5624503691150704
213,1644.62,1.5880470575224235
214,1656.02,1.455217757861984
215,1659.58691,1.5253444874727176
216,1663.66,1.6054267264217799
217,1671.3400000000001,1.4167490917347656
218,1675.19,1.6091472852835929
219,1686.8,1.6849529312840827
220,1694.59,1.5784794164127491
221,1706.3400000000001,1.5073002149059238
222,1714.2099999999998,1.4218227871732667
223,1726.1000000000001,1.4117477381591261
224,1734.06,1.5147464084574809
225,1746.0800000000002,1.4764785010436898
226,1754.1399999999999,1.584110280265391
227,1766.3000000000002,1.4409715253442847
228,1774.4499999999998,1.4797874025969973
229,1786.75,1.5065928001685756
230,1795.0,1.6162187863446345
231,1803.29,1.6069848160900315
232,1815.79,1.4648254315083022
233,1824.1699999999998,1.5040615592847109
234,1836.8100000000002,1.4354593271956662
235,1845.29,1.3106375638954213
236,1853.81,1.3119778441645145
237,1866.66,1.3538278408144968
238,1875.27,1.4789702191146017
239,1883.93,1.3501846518763796
240,1896.99,1.2912038772653889
241,1905.46072,1.3723666627611673
242,1905.75,1.3751376976980871
243,1914.5400000000002,1.3174313562387794
244,1923.38,1.2914429445777693
245,1936.71,1.3291152288038708
246,1945.6499999999999,1.3863216767394555
247,1954.6299999999999,1.2917790685136783
248,1968.1799999999998,1.4209880438522886
249,1977.2600000000002,1.4616922952231062
250,1981.82,1.377214892827834
251,1995.5600000000002,1.3316156013999745
252,2004.77,1.3727776702463654
253,2014.02,1.3177526829313944
254,2023.3200000000002,1.386816625414721
255,2032.66,1.3038485117366854
256,2046.75,1.353541728896908
257,2056.2,1.2931104607751267
258,2065.69,1.2935221364919838
259,2075.2200000000003,1.3863717560474784
260,2080.0099999999998,1.3120510307243745
261,2084.8,1.3645673054012708
262,2094.42,1.2855937985937007
263,2104.09,1.2917582215844285
264,2113.8,1.3038995884137943
265,2123.56,1.3221668850414572
266,2133.36,1.2199631255077583
267,2143.21,1.2512772957723566
268,2153.1,1.2981914098755931
269,2163.04,1.2541114537771272
270,2173.0299999999997,1.2396644274769584
271,2183.06,1.2141133450154278
272,2187.7616199999998,1.2393652284263337
273,2193.13,1.268211753284173
274,2203.25,1.230610081873728
275,2213.4300000000003,1.166924477628834
276,2223.64,1.1244629069667151
277,2233.91,1.198959403470147
278,2244.2200000000003,1.1423349447506126
279,2254.58,1.0924565420023704
280,2264.98,1.1245571840311621
281,2275.44,1.1576068932255048
282,2285.94,1.1916316471968809
283,2296.49,1.1291654571395497
284,2307.09,1.1333123230535105
285,2312.41,1.0806062783990078
286,2323.08,0.8479385226727777
287,2333.81,1.0113172341120986
288,2344.58,0.982902190328453
289,2355.4,1.0668114025160997
290,2366.27,0.9833867706750389
291,2377.19,1.0170057948052702
292,2382.67,0.9476855292589029
293,2393.67,1.0144912429432018
294,2404.72,0.9747342125987931
295,2415.8199999999997,1.0011450382256766
296,2426.97,1.0643795198238526
297,2432.57,1.0219337886085864
298,2443.7999999999997,1.08649935976083
299,2455.07,1.0731519756901071
300,2466.41,1.0673306699791936
301,2477.79,1.0302654090453136
302,2483.5,1.0623178009668908
303,2494.97,1.002123640781337
304,2506.48,1.115620525372817
305,2511.88643,1.0072219502223703
306,2512.26,0.9997313156221059
307,2518.05,1.0308459071203862
308,2523.86,0.987485389953721
309,2535.51,1.0026793426229723
310,2547.2099999999996,0.9881371736298601
311,2553.08,1.0595177304683585
312,2564.8700000000003,1.0369666224829912
313,2576.71,1.0999924928352605
314,2582.65,1.0882349193464498
315,2594.5699999999997,1.077413755038937
316,2606.54,1.0424535690690604
317,2612.55,1.0312999652529404
318,2624.61,1.0790257402908092
319,2636.73,1.1160284893338415
320,2642.8,1.2077658595228848
321,2655.0,1.2349375739061352
322,2667.26,1.122920262294549
323,2673.4,1.1767156021562835
324,2685.74,1.1785532558849154
325,2691.94,1.1264055697518132
326,2704.36,1.159757188820663
327,2716.8399999999997,1.1067917818946766
328,2723.11,1.1051290654342651
329,2735.68,1.1616626195160238
330,2741.98,1.0173678900581942
331,2754.64,1.0426824051476984
332,2767.35,1.0835208985748386
333,2773.73,1.132838134457227
334,2786.54,1.0786565845596399
335,2792.96,0.8837154031121371
336,2805.85,0.948380818554768
337,2812.3199999999997,1.1304984154449016
338,2825.3,1.1856567918952778
339,2831.81,1.1411109714555203
340,2844.89,1.1143983045811694
341,2858.02,1.0783756160444542
342,2864.61,1.1832837609449152
343,2877.83,1.1879830334159454
344,2884.0315,1.1838011155620818
345,2884.4599999999996,1.1835123428336753
346,2897.7799999999997,1.1827502247318542
347,2911.15,1.2811451061867076
348,2931.33,1.237950927260675
349,2951.65,1.2240847470933316
350,2972.11,1.2471365656846782
351,2992.71,1.2532363830347142
352,3013.46,1.2710161990547748
353,3027.37,1.2761520757217164
354,3048.3500000000004,1.2794848897024813
355,3069.48,1.2887767023532708
356,3090.76,1.3011205136740847
357,3112.18,1.304591323753588
358,3126.55,1.2919641963419384
359,3148.22,1.3014080042048162
360,3170.04,1.3079348107377182
361,3192.01,1.2496386159406452
362,3206.75,1.2958754852483891
363,3228.97,1.2438582882346902
364,3251.3599999999997,1.3241920897136858
365,3266.37,1.3700669566274741
366,3289.0099999999998,1.3644527558898436
367,3311.31121,1.3651127913468855
368,3311.81,1.365127473614491
369,3319.44,1.3727161803799706
370,3327.0899999999997,1.3835268837555825
371,3334.7599999999998,1.426887583741327
372,3342.4500000000003,1.3514972803372036
373,3350.15,1.4164859752381465
374,3357.8799999999997,1.3728746650542878
375,3365.62,1.2914053531754952
376,3373.38,1.269067037906835
377,3381.15,1.345480720943241
378,3388.95,1.4167023988948453
379,3396.7599999999998,1.3605280751515159
380,3404.59,1.4064177480183186
381,3412.44,1.3475434174952539
382,3420.3,1.3994290852772553
383,3428.19,1.394342747974455
384,3436.09,1.402142408976721
385,3444.01,1.2830340665891191
386,3451.95,1.42437872081165
387,3459.91,1.3710663716443128
388,3467.8900000000003,1.3657150190871081
389,3475.88,1.3915376648349698
390,3483.89,1.3728853071929632
391,3491.92,1.4020699461610895
392,3499.97,1.3089595817393478
393,3508.04,1.3741952139277385
394,3516.13,1.3188598427262614
395,3524.23,1.3687594698298506
396,3532.36,1.4075230918486383
397,3540.4999999999995,1.437449712172492
398,3548.6600000000003,1.4713833291064784
399,3556.84,1.4284739426505966
400,3565.04,1.4454745528048476
401,3573.2599999999998,1.3309881595692306
402,3581.5000000000005,1.322259762943746
403,3589.54,1.1374914002169383
404,3592.22,1.338404945974669
405,3594.8999999999996,1.2906564917323997
406,3597.5699999999997,1.2398010391850642
407,3600.25,1.284462584942795
408,3602.92,1.3129341323954595
409,3605.6,1.4430496781531903
410,3608.27,1.3715762256058548
411,3610.95,1.2905067713635858
412,3613.6200000000003,1.2056513188162503
413,3616.3,1.264803864573981
414,3618.9700000000003,1.2992204120266455
415,3621.65,1.4658699577843763
416,3624.33,1.489299503542107
417,3627.0,1.5120750509947718
418,3629.6800000000003,1.5471465967525024
419,3632.35,1.511611144205167
420,3635.03,1.4481946899628977
421,3637.7,1.5174572374155622
422,3640.3799999999997,1.5422617831732932
423,3643.0499999999997,1.0282613306259576
424,3645.73,1.1458078763836883
425,3648.4,1.334424423836353
426,3651.08,1.2423749695940836
427,3653.7599999999998,1.4362995153518143
428,3656.43,1.545755062804479
429,3659.1099999999997,1.3780876085622098
430,3661.78,1.5684101560148744
431,3664.46,1.447097701772605
432,3667.13,1.4423812492252697
433,3669.81,1.5951847949830003
434,3672.48,1.454569342435665
435,3675.1600000000003,1.2718988881933957
436,3677.8300000000004,1.3162854356460603
437,3680.51,1.453703981403791
438,3683.19,1.2369675271615217
439,3685.86,1.3542220746141864
440,3688.54,1.4464956203719173
441,3691.2099999999996,1.5140191678245816
442,3693.8900000000003,1.3458217135823125
443,3696.56,1.389579261034977
444,3699.24,1.3843428067927077
445,3701.91,1.5449543542453723
446,3704.5899999999997,1.413572900003103
447,3707.26,1.3135474474557676
448,3709.94,1.3665889932134985
449,3712.62,1.6610715389712292
450,3715.29,2.1050750864238936
451,3717.97,3.0137676321816245
452,3720.64,4.85072017963429
453,3723.32,7.503273725392019
454,3725.9900000000002,10.148256272844685
455,3728.67,10.940665818602415
456,3731.34,9.07675936605508
457,3734.02,5.9814939118128105
458,3736.6899999999996,3.345992459265475
459,3739.3700000000003,2.1829070050232056
460,3742.05,1.6195975507809366
461,3744.7200000000003,1.4088800982336012
462,3747.4,1.3832566439913319
463,3750.0699999999997,1.2958841914439965
464,3752.7500000000005,1.3501677372017271
465,3755.42,1.4561942846543916
466,3758.1,1.5568808304121224
467,3760.77,1.605259377864787
468,3763.45,1.4917799236225178
469,3766.12,1.6123474710751824
470,3768.7999999999997,1.599028016832913
471,3771.48,1.557919562590644
472,3774.15,1.6650401100433083
473,3776.83,1.6117266558010392
474,3779.5,1.6638812032537038
475,3782.18,1.7582737490114344
476,3784.8500000000004,1.768380296464099
477,3787.53,1.6955078422218297
478,3790.2000000000003,1.7935533896744944
479,3792.88,1.5973349354322253
480,3795.5499999999997,1.4459704828848896
481,3798.23,1.4413460286426205
482,3800.9100000000003,1.5365345744003511
483,3801.8939600000003,1.5779823406593558
484,3803.58,1.6490041813971452
485,3806.26,1.748663821801662
486,3808.93,1.731279463547953
487,3811.61,1.6812611039524696
488,3814.2799999999997,1.6804377456987607
489,3816.9599999999996,1.6517163861032773
490,3819.63,1.7119030278495684
491,3822.31,1.569838668254085
492,3824.98,1.616247310000376
493,3827.66,1.3979529504048926
494,3830.3399999999997,1.3263395908094096
495,3833.01,1.3260942325557004
496,3835.69,1.3984788729602171
497,3838.36,1.241136514706508
498,3841.04,1.2583901551110248
499,3843.71,1.5572357968573158
500,3846.39,1.6728114372618326
501,3849.0600000000004,1.6754650790081234
502,3851.7400000000002,1.7860877194126403
503,3854.41,1.7759903611589312
504,3857.09,1.877339001563448
505,3859.77,1.9670946419679647
506,3862.4399999999996,2.2335652837142552
507,3865.1200000000003,2.657022924118772
508,3867.79,2.9198525658650634
509,3870.47,2.87446920626958
510,3873.14,2.573894848015871
511,3875.8199999999997,2.2825804884203875
512,3878.49,1.9788581301666788
513,3881.17,1.8740227705711954
514,3883.84,1.7807894123174863
515,3886.52,1.851997052722003
516,3889.2,1.8359276931265198
517,3891.87,1.8357673348728107
518,3894.55,1.7024469752773275
519,3897.2200000000003,1.6956616170236185
520,3899.9,1.8100932574281352
521,3902.57,1.8067858991744261
522,3905.25,1.753951539578943
523,3907.9199999999996,1.7920461813252337
524,3910.6000000000004,1.8849488217297505
525,3913.27,2.067290463476042
526,3915.9500000000003,2.021246103880558
527,3918.63,1.980666744285075
528,3921.2999999999997,1.852489386031366
529,3923.9800000000005,1.8461920264358826
530,3926.6499999999996,1.7935326681821737
531,3929.33,1.5728203085866903
532,3932.0,1.4527569503329814
533,3934.68,1.457026590737498
534,3937.35,1.4636542324837891
535,3940.0299999999997,1.5238168728883057
536,3942.7000000000003,1.6224245146345968
537,3945.38,1.7622281550391135
538,3948.06,1.8019697954436302
539,3950.73,1.769349437189921
540,3953.41,1.8092570775944379
541,3956.08,1.9056467193407287
542,3958.76,1.8610933597452455
543,3961.4300000000003,1.9172400014915365
544,3964.11,1.9112726418960533
545,3966.7799999999997,1.950196283642344
546,3969.46,1.864239924046861
547,3972.1299999999997,1.8589455657931517
548,3974.81,1.7344022061976687
549,3977.4900000000002,1.7241298466021855
550,3980.16,1.8016394883484763
551,3982.84,1.8938791287529932
552,3985.5099999999998,1.948369770499284
553,3988.1899999999996,2.120102410903801
554,3990.86,2.0790360526500913
555,3993.54,2.1156306930546083
556,3996.21,2.1007313348008996
557,3998.89,2.075553975205416
558,4001.56,2.2201366169517067
559,4004.2400000000002,2.1843592573562236
560,4006.92,2.0937658977607407
561,4009.59,2.1326895395070316
562,4012.27,2.1475891799115483
563,4014.94,2.355434821657839
564,4017.62,2.169946462062356
565,4020.2900000000004,2.215992103808647
566,4022.9700000000003,2.145105744213164
567,4025.64,2.2739553859594546
568,4028.32,2.159348026363971
569,4030.99,2.3141986681102624
570,4033.6699999999996,2.1701133085147792
571,4036.3500000000004,2.1548719489192956
572,4039.02,2.2196305906655867
573,4041.7,2.2981242310701036
574,4044.37,2.3276078728163947
575,4047.0499999999997,2.100552513220911
576,4049.72,2.182369154967202
577,4052.4,2.245791795371719
578,4055.07,2.1576934371180094
579,4057.75,2.0442460775225264
580,4060.42,2.1518977192688173
581,4063.1,2.2338683596733344
582,4065.7799999999997,2.374631000077851
583,4068.4500000000003,2.2727876418241415
