,lambda (Angstroms),Total Flux (erg/s/cm^2/Angstrom)
0,100.03,0.0528351013349904
1,101.89,0.06354898016825421
2,104.02,0.07581809947736089
3,104.712855,0.07980904814365505
4,105.96,0.07381507579752337
5,107.92,0.06439501173298152
6,109.92999999999999,0.05473463991325685
7,114.05999999999999,0.03488521921022875
8,118.07,0.015612537128902738
9,120.22644299999999,0.005248337602436095
10,121.09,0.005056292580797774
11,125.06,0.0041734107648595175
12,127.09,0.0037219623900913166
13,127.97,0.003526260646003687
14,130.95000000000002,0.0028635433627635363
15,131.85999999999999,0.0026611700432618637
16,134.01,0.002183035124149566
17,137.13,0.001489183713120491
18,138.038426,0.0012871604239518514
19,140.0,0.0012717539884594777
20,142.93,0.0012487440431236502
21,146.93,0.001217336075618265
22,151.05,0.001184981393037088
23,154.93,0.0011545134358554943
24,158.489319,0.0011265655248030246
25,158.9,0.0011216103952088514
26,161.85000000000002,0.0010860182245081946
27,166.01000000000002,0.0010358297651999128
28,169.86999999999998,0.0009892639267852575
29,173.03,0.0009511447057890623
30,177.06,0.0009025346260513519
31,179.94,0.0008677998807125414
32,181.970086,0.000843316300336943
33,182.01999999999998,0.0008435105107463128
34,185.82999999999998,0.0008583424105637303
35,191.04,0.0008786295769358419
36,194.14000000000001,0.0008907095438426643
37,198.20999999999998,0.000906573494824525
38,201.89,0.0009209362330597208
39,205.17000000000002,0.0009337353593650042
40,208.929613,0.0009484070995722331
41,209.95,0.0009724905873083183
42,215.83,0.001111353958774316
43,219.85000000000002,0.0012062967001439265
44,222.91,0.0012785633812476592
45,227.04999999999998,0.0013763746623880041
46,230.21,0.001451665122250683
47,233.95,0.0015413273989552455
48,239.88329199999998,0.0016827843272933058
49,239.95,0.0016815056005525866
50,246.11,0.0015623125606839565
51,251.84,0.0014522605125415458
52,257.11,0.0013495063009899746
53,260.09000000000003,0.001293121142771059
54,263.71,0.001223954381773586
55,269.23,0.0011177207436835143
56,274.23,0.0010216256299135226
57,275.42287,0.0009987435158233897
58,278.69,0.0010673060245371042
59,283.87,0.0011760052537149097
60,289.82,0.001300304423851578
61,295.88,0.0014277726026966553
62,300.69,0.0015286054362189034
63,307.7,0.0016763536739093313
64,316.227766,0.0018563319906076971
65,317.78000000000003,0.0018333151326058617
66,328.19,0.0016787140576584258
67,338.15999999999997,0.0015307118325262523
68,347.63,0.001390520179456874
69,357.37,0.0012464145712735857
70,363.078055,0.0011628475425851294
71,365.7,0.0011953830078457526
72,375.08,0.0013104695112527434
73,384.7,0.0014272663591605524
74,394.57,0.0015511514605067145
75,404.69,0.0016769459852912292
76,414.11999999999995,0.0017931557233858899
77,416.86938299999997,0.001826867686317932
78,421.81000000000006,0.0018640149616676433
79,429.65999999999997,0.001923614496623487
80,440.68,0.0020086698995423918
81,450.94,0.002086565432949648
82,460.39,0.0021573608068773844
83,470.03000000000003,0.002231365790683033
84,478.630092,0.0022981819013490673
85,479.87,0.002287429065547096
86,489.92,0.002196956440381026
87,500.17,0.002109238381629561
88,505.97,0.0020617115776531223
89,511.83,0.0020609897226010663
90,520.14,0.0019936407486279275
91,529.8100000000001,0.0019150995502741066
92,539.66,0.0018241147986934314
93,549.5408739999999,0.00178316108331399
94,549.6899999999999,0.001783481238351176
95,559.91,0.0017975100849177423
96,570.32,0.0018075061113128463
97,579.5899999999999,0.0017801438587367287
98,590.37,0.001820469703745299
99,599.96,0.0018154503645646113
100,609.7099999999999,0.0018542570820816399
101,619.61,0.0019210365152527754
102,629.68,0.0019555309461652347
103,630.957344,0.0019553445872457754
104,639.9100000000001,0.002017853879856646
105,650.3100000000001,0.002173769827102811
106,657.8399999999999,0.00227606254179162
107,665.4599999999999,0.002376376655062368
108,674.72,0.0024542347869373187
109,685.6800000000001,0.0025151028698044307
110,695.22,0.002872549519489855
111,704.89,0.0028850951560158563
112,716.34,0.0032368229200512976
113,724.43596,0.0033594424450510097
114,726.3100000000001,0.003384520658480868
115,734.7199999999999,0.0035136349811674774
116,744.94,0.0038258615956570327
117,755.3,0.004053060177468361
118,765.81,0.004265531009981591
119,774.68,0.004590613368154033
120,785.46,0.004914331851930686
121,794.55,0.005141910444465916
122,805.6,0.005395914579505992
123,814.93,0.005627204973164264
124,824.37,0.0061154304840039305
125,831.763771,0.005696993349479559
126,835.84,0.005436125211263216
127,845.52,0.006479607641662503
128,855.31,0.006681458724679965
129,865.21,0.007126729460315598
130,875.23,0.0075942890897165135
131,885.36,0.008201103371735602
132,895.62,0.008666093788667078
133,905.99,0.008744837858216727
134,914.37,0.013044783939492143
135,924.9599999999999,0.08602664031427813
136,935.67,0.19337238758282943
137,944.33,0.3782608304162238
138,954.992586,0.5432389561774291
139,955.26,0.5473776938096948
140,964.0999999999999,0.6282643015817173
141,975.26,0.09951407804503996
142,984.2900000000001,0.5473515033822983
143,995.6800000000001,0.5918149653193274
144,1004.9,0.8868807682218216
145,1014.1999999999999,0.8667209069412571
146,1025.94,0.3729906880774048
147,1035.43,0.6167665743620762
148,1045.01,1.2209382884408064
149,1054.68,1.2153125303135959
150,1064.44,0.9678322999804444
151,1074.29,1.1740867974413518
152,1084.23,0.9349981226963184
153,1094.26,1.2695827757453442
154,1096.4782,1.2613856996436434
155,1104.3899999999999,1.232135129445874
156,1114.6100000000001,1.198570466852894
157,1124.9199999999998,1.0881735782683906
158,1135.33,1.4112044385821945
159,1145.8300000000002,1.2930360729044754
160,1153.78,1.3949931103199165
161,1164.45,1.4573183177693199
162,1175.23,1.0131512490068615
163,1186.1,1.44391295425288
164,1194.32,0.992364513693751
165,1205.3700000000001,0.7125406669567227
166,1213.73,0.47758867485522427
167,1224.96,1.0083833761351493
168,1236.29,1.5684939263133817
169,1244.86,1.751697406898329
170,1256.38,1.6883164799833457
171,1258.92541,1.620737197274538
172,1265.0900000000001,1.4570871894546389
173,1273.86,1.9205447558379718
174,1285.65,2.038930861614425
175,1294.56,1.616084453002737
176,1303.53,1.6086560551074685
177,1315.5900000000001,2.04834120910781
178,1324.71,1.9789748380035903
179,1333.89,1.7597424776157906
180,1346.24,2.12533068341216
181,1355.5700000000002,2.0768863498154095
182,1364.97,1.8639490287211482
183,1374.43,1.9834657183433066
184,1383.9499999999998,2.020406418681884
185,1393.55,1.771930133309022
186,1406.4399999999998,1.859685435553168
187,1416.19,1.9161761769713546
188,1426.01,1.9879569308920304
189,1435.8899999999999,1.987982695529126
190,1442.52,2.115587879693493
191,1445.43977,2.1542942050527025
192,1445.85,2.159732462679549
193,1455.87,2.110693964707773
194,1465.96,1.9563104772292084
195,1476.12,1.965302000243855
196,1486.35,2.0204365337517127
197,1496.6499999999999,2.0722160777527816
198,1503.56,1.974319113582625
199,1510.5,1.7597601539095589
200,1517.48,1.8942422002326134
201,1524.48,1.846896249553728
202,1535.05,1.6123918340286114
203,1545.69,1.7965984289967059
204,1556.4,1.7039690344580116
205,1563.59,1.7476621122606995
206,1574.42,1.881240735710367
207,1585.3400000000001,1.987997372651306
208,1596.33,2.0483710200854564
209,1603.7,2.0157371248706872
210,1614.8100000000002,2.0390167902931995
211,1626.0,1.9339264677079528
212,1633.51,2.076916593479606
213,1644.83,2.1253922903817517
214,1656.23,1.9698519992761387
215,1659.58691,2.057574484745895
216,1663.88,2.1697652021913525
217,1671.56,1.9384016095922845
218,1675.4099999999999,2.2000838242398872
219,1683.1499999999999,2.3036432973236387
220,1694.81,2.1748940616849493
221,1706.56,2.0961429245704895
222,1714.44,2.0019395509141535
223,1726.3200000000002,2.00196255611247
224,1734.29,2.149917280980364
225,1746.3100000000002,2.1108424394385934
226,1754.3700000000001,2.266999262830717
227,1766.53,2.081948574548859
228,1774.6899999999998,2.1499335074123493
229,1786.99,2.200197972390404
230,1795.2399999999998,2.3627880037781237
231,1803.5200000000002,2.3520760680072534
232,1816.0200000000002,2.1849797519280405
233,1824.4099999999999,2.2410719365756733
234,1837.0500000000002,2.1600027737563736
235,1845.53,1.9929050569282356
236,1854.05,2.015982383888644
237,1866.8999999999999,2.0867494509592137
238,1875.52,2.2671218873909886
239,1884.18,2.10120636761131
240,1892.8700000000001,2.0252088806730417
241,1905.46072,2.1499514032233265
242,1905.99,2.155193917040255
243,1914.7900000000002,2.0867674993770504
244,1923.63,2.058227025269922
245,1936.97,2.120719201221383
246,1945.9099999999999,2.230734586004446
247,1954.8899999999999,2.101167914343585
248,1968.4399999999998,2.3090897939644464
249,1977.5200000000002,2.3792499811937766
250,1982.08,2.2565145465864798
251,1995.8200000000002,2.2052781580987038
252,2005.03,2.277382161885282
253,2014.29,2.210334095116955
254,2023.5900000000001,2.319759971904705
255,2032.93,2.2102957922485316
256,2047.02,2.303698909876424
257,2056.47,2.2000915749994596
258,2065.96,2.2254881836785723
259,2075.5,2.39550172180278
260,2080.2799999999997,2.282544976753903
261,2085.07,2.3681472175940455
262,2094.7,2.251259628719425
263,2104.3700000000003,2.277228983400881
264,2114.08,2.3036092816384137
265,2123.8399999999997,2.3518745093210414
266,2133.64,2.1949306805597457
267,2143.4900000000002,2.2562627812435454
268,2153.38,2.3463628254834212
269,2163.32,2.2824347991683926
270,2173.31,2.2718587022984598
271,2183.34,2.2407795489846025
272,2187.7616199999998,2.2894598201033896
273,2193.42,2.3517706756504744
274,2203.54,2.298257061236949
275,2213.71,2.19996450307632
276,2223.9300000000003,2.1399740011685897
277,2234.2000000000003,2.287335555513757
278,2244.51,2.1941161548612422
279,2254.87,2.119087810461625
280,2265.28,2.1730435223149054
281,2275.74,2.2334252904210827
282,2286.24,2.290130103529579
283,2296.79,2.1717049728909728
284,2307.39,2.181107898505264
285,2312.71,2.0972678838135685
286,2323.39,1.685003899432496
287,2334.11,1.9745679600537416
288,2344.89,1.920371088178464
289,2355.71,2.0715082613055045
290,2366.58,1.923940490685443
291,2377.5099999999998,1.9820277875688581
292,2382.9900000000002,1.8494949528864353
293,2393.99,1.9720713285239073
294,2405.04,1.9004397604142769
295,2416.14,1.944245248557544
296,2427.29,2.054204792953709
297,2432.89,1.97974809327824
298,2444.12,2.086850727679041
299,2455.4,2.0624404183327396
300,2466.73,2.052489165239336
301,2472.42,1.9872135668190827
302,2483.83,2.047028403730315
303,2495.29,1.914490296894445
304,2506.81,2.132659257562052
305,2511.88643,1.9559946655389568
306,2512.59,1.931508662486583
307,2518.38,1.9853121413639745
308,2524.19,1.9089216115328251
309,2535.8399999999997,1.9305535388077144
310,2547.54,1.9036134443112516
311,2553.42,2.0206588840002087
312,2565.2000000000003,1.988027754669582
313,2577.04,2.0906175992133322
314,2582.9800000000005,2.0759690127766666
315,2594.9100000000003,2.056408818131983
316,2606.8799999999997,1.9999406060702165
317,2612.89,1.9768689891536575
318,2624.95,2.059920737903457
319,2637.07,2.102514460527634
320,2643.15,2.252412813131182
321,2655.3500000000004,2.2830805009211947
322,2667.61,2.1107071625855847
323,2673.76,2.1998224847092387
324,2686.1000000000004,2.1941481115394654
325,2692.29,2.1097164162460373
326,2704.72,2.1581730038878293
327,2717.2000000000003,2.0749205697582687
328,2723.4599999999996,2.0794228439849474
329,2736.04,2.1716483663126827
330,2742.3399999999997,1.9353756231222794
331,2755.0,1.9662471106158503
332,2767.7200000000003,2.0301445719837985
333,2774.1,2.1157447939592315
334,2786.9,2.0293642204930156
335,2793.33,1.6878114206970962
336,2806.22,1.799653808042446
337,2812.69,2.113964990829445
338,2825.67,2.1876503389863604
339,2832.19,2.1082835000020066
340,2845.26,2.073889808970488
341,2851.8199999999997,2.026392952569052
342,2864.9799999999996,2.165735222349099
343,2878.21,2.1502904616492526
344,2884.0315,2.1587023211545833
345,2884.84,2.1598709196060573
346,2898.1600000000003,2.1393468009100367
347,2911.5299999999997,2.28123968176846
348,2931.71,2.213025501942207
349,2952.0400000000004,2.191708320779286
350,2972.5,2.2212261384579213
351,2993.1000000000004,2.2255419548890005
352,3006.92,2.2452678317374235
353,3027.7599999999998,2.2442956460298356
354,3048.75,2.2433154589855806
355,3069.8799999999997,2.24762127069377
356,3091.16,2.2620810810652925
357,3112.59,2.250736890100148
358,3126.9599999999996,2.2294257620474593
359,3148.63,2.243701568943648
360,3170.46,2.2427253744140585
361,3192.43,2.1555711786369134
362,3207.1699999999996,2.2102800472871125
363,3229.4,2.144025849193078
364,3251.78,2.228469649762377
365,3266.79,2.2743875160065756
366,3289.44,2.2628493141698733
367,3311.31121,2.2619109594756885
368,3312.2400000000002,2.261870961057259
369,3319.88,2.287669659612697
370,3327.53,2.2978333564646727
371,3335.2,2.361740049909726
372,3342.89,2.229234739947856
373,3350.59,2.3339854282825243
374,3358.32,2.2491651115068088
375,3366.06,2.2128117930276314
376,3373.82,2.132485471141531
377,3381.6000000000004,2.217298145848508
378,3389.39,2.3107228188520232
379,3397.21,2.2577544867451538
380,3405.0399999999995,2.246998152934824
381,3412.89,2.2055718157175703
382,3420.75,2.282577476796855
383,3428.64,2.277096132765756
384,3436.54,2.2870657870311955
385,3444.4700000000003,2.14399843618625
386,3452.4100000000003,2.3503770836378433
387,3460.36,2.208309729385975
388,3468.3399999999997,2.2182653700237225
389,3476.34,2.192466007254547
390,3484.35,2.21239964278191
391,3492.38,2.2272622749023503
392,3500.43,2.1612029036158673
393,3508.5,2.2010675289224615
394,3516.59,2.145559150822133
395,3524.7000000000003,2.2206007693148813
396,3532.8199999999997,2.261452386104168
397,3540.97,2.2925189977830707
398,3549.1299999999997,2.3347256077585112
399,3557.3100000000004,2.28118021432703
400,3563.81,2.4832561070770742
401,3566.47,2.5391536539563235
402,3569.1299999999997,2.370890200835573
403,3571.8,2.5485297460113605
404,3574.46,2.5297722928906095
405,3577.12,2.3960998397698585
406,3579.79,2.1312793849456466
407,3582.45,2.0775399318248953
408,3585.11,2.3517364787041446
409,3587.7799999999997,2.088088023879932
410,3590.4399999999996,2.2090655707591815
411,3593.1000000000004,2.410561117638431
412,3595.77,2.4152426628142183
413,3598.4300000000003,2.1611832096934678
414,3601.1,2.358170754869255
415,3603.7599999999998,2.5962133017485045
416,3606.42,2.0417728486277533
417,3609.0899999999997,2.2293803938035412
418,3611.7500000000005,2.3419539406827905
419,3614.4100000000003,2.0980564875620393
420,3617.08,2.3048170327378275
421,3619.7400000000002,2.388856579617076
422,3622.4,2.1738841264963256
423,3625.07,2.145537671672113
424,3627.73,2.2885992185513624
425,3630.39,2.3595457654306116
426,3633.0600000000004,2.3036423106063992
427,3635.7200000000003,2.282148857485648
428,3638.38,2.283325404364897
429,3641.05,2.091596949540685
430,3643.71,2.303255496419934
431,3646.37,2.232512043299183
432,3649.04,2.270417588474971
433,3651.7,2.36950613535422
434,3654.37,2.321420680530008
435,3657.03,2.147880227409257
436,3659.69,2.457645774288506
437,3662.36,2.2227263194642934
438,3665.02,2.297972866343543
439,3667.68,2.2561534132227923
440,3670.35,2.4955499583985796
441,3673.0099999999998,2.287809505277829
442,3675.6699999999996,2.397256052157078
443,3678.34,2.287999597332866
444,3681.0,2.371649144212115
445,3683.6600000000003,2.222732691091364
446,3686.33,2.198686236267152
447,3688.99,2.351323783146401
448,3691.65,2.2065113300256503
449,3694.3199999999997,2.3724258752014373
450,3696.9800000000005,2.283898422080687
451,3699.65,2.1687799672564743
452,3702.31,2.397831514135724
453,3704.9700000000003,2.261618061014973
454,3707.64,2.3606946061907603
455,3710.3,2.14396315307001
456,3712.96,2.4242186999492588
457,3715.6299999999997,2.4244052451250466
458,3718.2900000000004,2.8492807920042957
459,3720.9500000000003,3.868862338883545
460,3723.6200000000003,5.640642884059333
461,3726.28,7.538115430938582
462,3728.94,7.88326497781783
463,3731.61,6.2853765229936185
464,3734.27,4.531570069872868
465,3736.93,3.1995016167521166
466,3739.6000000000004,2.9020411619279045
467,3742.26,2.773450708807154
468,3744.92,2.9153402556864023
469,3747.59,2.63644680086219
470,3750.25,2.559059347741439
471,3752.92,2.5412658929172274
472,3755.58,2.8488824397964767
473,3758.24,2.8348159866757254
474,3760.9100000000003,2.8928485318515134
475,3763.57,2.868816078730762
476,3766.23,2.7300626256100116
477,3768.9,2.810767170785799
478,3771.56,2.626086717665048
479,3774.22,2.6333222645442977
480,3776.89,2.792004809720085
481,3779.5499999999997,3.029265356599334
482,3782.2099999999996,3.395317903478583
483,3784.88,3.398823448654371
484,3787.54,3.2362289955336205
485,3790.2000000000003,3.0632755424128693
486,3792.87,2.912781087588657
487,3795.5299999999997,2.698590634467906
488,3798.2,2.457418179643694
489,3800.8599999999997,2.5477117265229428
490,3801.8939600000003,2.667208173384364
491,3803.5200000000004,2.855132331116284
492,3806.19,3.0280809710601124
493,3808.85,3.1322516123524657
494,3811.51,3.4017602536448193
495,3814.18,3.4621368935886476
496,3816.84,3.427941534881001
497,3819.5,3.2086711761733544
498,3822.1699999999996,3.234652816117183
499,3824.8300000000004,3.2764804574095368
500,3827.4900000000002,2.99662609870189
501,3830.1600000000003,2.6931077386457183
502,3832.82,2.5432153799380717
503,3835.48,2.333324021230425
504,3838.15,2.3397646611742533
505,3840.81,2.5938323024666072
506,3843.47,2.9135659437589605
507,3846.1400000000003,3.095308583702789
508,3848.8,3.4166062249951423
509,3851.4700000000003,3.380047864938971
510,3854.13,3.3104805062313245
511,3856.79,3.422664147523678
512,3859.46,3.4040867874675063
513,3862.12,3.5688424287598597
514,3864.7799999999997,3.6163390700522133
515,3867.4500000000003,3.7687647099960415
516,3870.11,3.938211351288395
517,3872.77,3.5903459925807484
518,3875.44,3.478350632524577
519,3878.1,3.46878027381693
520,3880.7599999999998,3.335109915109284
521,3883.43,3.0536755550531125
522,3886.0899999999997,2.9766791963454655
523,3888.7500000000005,2.938770837637819
524,3891.42,2.9815604775816476
525,3894.08,3.154914118874001
526,3896.7400000000002,3.2133547601663546
527,3899.41,3.3755524001101826
528,3902.07,3.5373770414025363
529,3904.74,3.6882396813463645
530,3907.3999999999996,3.7066163226387183
531,3910.0600000000004,3.920035963931072
532,3912.73,3.9075146038749002
533,3915.3900000000003,3.9421132451672536
534,3918.05,3.988046886459607
535,3920.72,3.9970225264034354
536,3923.38,3.928433167695789
537,3926.04,3.8768448089881424
538,3928.71,3.4498104489319705
539,3931.3700000000003,3.137319090224324
540,3934.03,3.055828731516678
541,3936.7000000000003,3.2418703714605064
542,3939.36,3.5723530127528593
543,3942.02,3.651314654045213
544,3944.69,3.6468072939890415
545,3947.35,3.691566935281395
546,3950.02,3.6487555752252234
547,3952.6800000000003,3.7238082165175768
548,3955.34,3.6272698578099303
549,3958.01,3.4492184977537583
550,3960.67,3.1097571390461116
551,3963.33,2.9727627803384657
552,3966.0,2.808003420282294
553,3968.66,2.5830640615746474
554,3971.3199999999997,2.6078877028670004
555,3973.9900000000002,2.704422342810829
556,3976.65,2.866831984103183
557,3979.31,2.938170625395536
558,3981.98,3.2776272653393645
559,3984.64,3.526028906631718
560,3987.2999999999997,3.5842735479240715
561,3989.97,3.7007391878679
562,3992.6299999999997,3.7773558291602534
563,3995.2900000000004,3.7464834704526067
564,3997.96,3.6853001103964353
565,4000.62,3.5914977516887885
566,4003.29,3.648552391632617
567,4005.95,3.6591120329249707
568,4008.61,3.822890674217324
569,4011.2799999999997,3.8242463141611522
570,4013.9399999999996,3.7568289554535057
571,4016.6000000000004,3.7230245967458595
572,4019.27,3.790827236689688
573,4021.9300000000003,3.857671877982041
574,4024.59,3.7845855192743945
575,4027.2599999999998,3.817406159218223
576,4029.92,3.8308978005105767
577,4032.58,3.97396144180293
578,4035.25,4.077527081746758
579,4037.9100000000003,4.0988367230391125
580,4040.57,3.943668364331465
581,4043.2400000000002,3.8547340042752936
