,lambda (Angstroms),Total Flux (erg/s/cm^2/Angstrom)
0,102.05000000000001,0.0006201729700581661
1,103.95,0.0007254511767057302
2,104.712855,0.0007677207150008617
3,105.88,0.000713760972449001
4,108.10000000000001,0.00061112540976595
5,110.11,0.0005181998192857562
6,113.98,0.0003392820295729789
7,117.97999999999999,0.00015435424373700586
8,120.22644299999999,5.050658786852459e-05
9,121.01,4.8834214934781704e-05
10,124.97,4.0370618202812056e-05
11,127.0,3.6032371171272045e-05
12,127.88000000000001,3.4152452037500985e-05
13,130.86,2.77852094104127e-05
14,132.07,2.5202693223977567e-05
15,133.91,2.127266192154721e-05
16,137.03,1.4612834550904432e-05
17,138.038426,1.246016328438527e-05
18,139.9,1.2328016773817025e-05
19,143.16,1.2130657611038726e-05
20,147.17,1.1894638236854371e-05
21,150.94,1.1653102263119954e-05
22,155.17,1.1386025655189826e-05
23,158.489319,1.1185605362346924e-05
24,159.14999999999998,1.1118934437489784e-05
25,162.10999999999999,1.082755380586729e-05
26,165.89,1.0466257000619641e-05
27,170.14000000000001,1.0058437059269773e-05
28,172.91,9.809844733731158e-06
29,176.93,9.44948403132493e-06
30,179.81,9.203207565421961e-06
31,181.89000000000001,9.02817795671426e-06
32,181.970086,9.021421919072199e-06
33,186.13000000000002,9.30879890937177e-06
34,190.9,9.675039926373117e-06
35,194.0,9.918955759225146e-06
36,198.07000000000002,1.0250692297840555e-05
37,202.21,1.0601220784294553e-05
38,205.03,1.0865063825792206e-05
39,208.929613,1.1203521634578722e-05
40,209.79999999999998,1.144400444817203e-05
41,216.17999999999998,1.3321824566432556e-05
42,220.20000000000002,1.4513164145650012e-05
43,222.75,1.5301686677243168e-05
44,226.89000000000001,1.6566124199123825e-05
45,230.04,1.953176444403301e-05
46,233.78,2.4198251823702978e-05
47,239.78,2.9090884956863345e-05
48,239.88329199999998,2.9124605777585356e-05
49,245.93,2.8596890194245007e-05
50,252.24,2.907470975404182e-05
51,256.93,2.610980917328858e-05
52,259.9,2.8622296097630347e-05
53,264.13,2.939525868684437e-05
54,269.04,2.9401735285671994e-05
55,274.04,2.939570300341907e-05
56,275.42287,2.9337366764688434e-05
57,279.13,3.061339131305111e-05
58,284.32,3.270906272130017e-05
59,290.28000000000003,3.41444619492702e-05
60,295.67,3.655800668731692e-05
61,301.17,3.7183668256752336e-05
62,308.18,4.041959996616004e-05
63,316.227766,4.3997515738196906e-05
64,318.28000000000003,4.420053884033534e-05
65,327.95,4.444473054879169e-05
66,337.92,4.432989011790335e-05
67,348.19000000000005,4.409295754767032e-05
68,357.12,4.4254063199843566e-05
69,363.078055,4.453713803256556e-05
70,366.28000000000003,4.5522403405825694e-05
71,374.81,4.753920665938693e-05
72,385.31,4.873781152015985e-05
73,395.19,5.213678125582047e-05
74,405.33,5.479686572136689e-05
75,413.82,5.658497670879186e-05
76,416.86938299999997,5.709611126551195e-05
77,422.48,5.778057865953203e-05
78,430.34000000000003,5.859866948656415e-05
79,441.37999999999994,6.0785486220716136e-05
80,450.62,6.210380413951726e-05
81,460.06,6.294717859335737e-05
82,469.68999999999994,6.410365525548451e-05
83,478.630092,6.554660538247528e-05
84,479.52000000000004,6.55494922453769e-05
85,489.56,6.454673842955551e-05
86,499.82,6.476238500820816e-05
87,505.6,6.628047173575323e-05
88,511.46,7.72427504249252e-05
89,519.77,7.649859168892167e-05
90,529.43,7.57674735553724e-05
91,540.52,7.315832798590437e-05
92,549.5408739999999,7.54115528542436e-05
93,550.57,7.573089154529688e-05
94,559.51,8.043646127512179e-05
95,569.92,8.276069169877698e-05
96,580.51,8.151203547269709e-05
97,589.9399999999999,8.491626543379875e-05
98,599.53,8.398110281735814e-05
99,610.68,8.430844256988027e-05
100,620.6,9.253654276225868e-05
101,630.68,9.372682037709482e-05
102,630.957344,9.377843328391197e-05
103,639.46,9.59437656554299e-05
104,649.85,9.94764451592232e-05
105,657.37,0.00010077363789921603
106,664.98,0.00010476788346455453
107,674.23,0.00010746813718063614
108,685.1899999999999,0.00010640635457828527
109,694.72,0.00011704650041766449
110,704.39,0.0001137323373186925
111,715.8299999999999,0.0001261882897848518
112,724.43596,0.00012898036447930606
113,725.7900000000001,0.00012939668788687885
114,734.1899999999999,0.00013275782523186074
115,744.41,0.00013903552566825534
116,754.76,0.00014356873775403663
117,765.26,0.00014586410943526396
118,774.1199999999999,0.00015495874953961388
119,784.89,0.00016169456849264422
120,795.81,0.00016735284704112068
121,805.0300000000001,0.0001724633501745413
122,814.3499999999999,0.00017773009303825927
123,825.6800000000001,0.0001874506544809551
124,831.763771,0.00018017317774693831
125,835.24,0.0001757672801417318
126,844.91,0.00019737252147127512
127,854.69,0.00020320739181284018
128,864.5899999999999,0.0002128315028947925
129,874.5999999999999,0.00022251744298876653
130,884.7299999999999,0.00023374122382312785
131,894.9699999999999,0.00024298293366951089
132,905.34,0.0002483031959846468
133,915.8199999999999,0.00036042088731180446
134,924.29,0.0017602984212374748
135,935.0,0.003949966482317041
136,945.82,0.010731319172408629
137,954.58,0.022874141446456903
138,954.992586,0.02318802494423469
139,965.63,0.03128109920615238
140,974.5600000000001,0.006884835288325054
141,985.85,0.04945573315705176
142,994.97,0.05274881277288769
143,1004.18,0.06429667169414305
144,1015.8000000000001,0.047887322016074346
145,1025.2,0.008161027470992956
146,1034.69,0.03305715623133099
147,1044.26,0.07659151237426409
148,1053.93,0.082445777745441
149,1066.1299999999999,0.07247355359118642
150,1076.0,0.08359319741885096
151,1085.95,0.07197533062911056
152,1096.0,0.08534289306761396
153,1096.4782,0.08520622745695754
154,1106.14,0.08244480600043756
155,1113.81,0.08056848073487465
156,1124.11,0.07819458194278885
157,1134.52,0.08793414049370019
158,1145.01,0.08150071711224581
159,1155.61,0.08475286107378859
160,1166.3,0.08977536286141992
161,1174.38,0.07801318769248272
162,1185.25,0.08632874513229119
163,1196.22,0.05638649015664253
164,1204.51,0.03964716991524532
165,1215.65,0.009131023833319513
166,1224.08,0.0394640372102823
167,1235.41,0.07819069353898792
168,1243.97,0.09102144677585643
169,1255.48,0.09039570875673918
170,1258.92541,0.08457988830133717
171,1264.18,0.07571032456224243
172,1275.88,0.0953110146639994
173,1284.73,0.09934073986917454
174,1293.63,0.08813472516025464
175,1305.6000000000001,0.0857331957258983
176,1314.65,0.09843616127469322
177,1323.76,0.09575149692657407
178,1336.01,0.08854184797328543
179,1345.27,0.09888927388288112
180,1354.6,0.09619254991274372
181,1363.99,0.09039479604569227
182,1373.4399999999998,0.09335627228172674
183,1386.1499999999999,0.09553171411876359
184,1395.76,0.09207606062969388
185,1405.43,0.09443828724371012
186,1415.18,0.09207498399517426
187,1424.9899999999998,0.09292702084972433
188,1434.8600000000001,0.09207650780736033
189,1441.49,0.09487329919835595
190,1445.43977,0.09539467562445139
191,1448.1399999999999,0.09575110987813651
192,1454.82,0.09422074951058135
193,1464.91,0.0910219340601874
194,1475.06,0.08977407869631242
195,1485.29,0.08956675344779606
196,1495.58,0.09018786828579867
197,1505.95,0.08854153323915988
198,1512.9,0.08378182326094008
199,1516.3899999999999,0.0871261082934599
200,1523.39,0.08455660838733922
201,1533.95,0.07946020361467718
202,1544.5800000000002,0.08514249894295393
203,1555.29,0.08093774438658928
204,1566.07,0.07964355993116345
205,1573.3,0.0826317903566988
206,1584.2,0.08455707607431089
207,1595.1799999999998,0.0865266119072816
208,1606.2399999999998,0.08301332785561094
209,1613.65,0.0833978285407032
210,1624.84,0.08001153467649028
211,1636.1000000000001,0.08206470091321617
212,1643.65,0.08225291180018601
213,1655.0500000000002,0.07693997823878948
214,1659.58691,0.07934245068834606
215,1666.52,0.08301385779004858
216,1670.36,0.07783110822728426
217,1678.0700000000002,0.0809377494176715
218,1685.8200000000002,0.08320464102927996
219,1693.6000000000001,0.08019661295680432
220,1705.34,0.07783099658522798
221,1713.21,0.07571072946050003
222,1725.08,0.07519089445789261
223,1733.05,0.07783110838621769
224,1745.06,0.07588578485788447
225,1753.11,0.07909720962865197
226,1765.27,0.07331018767989826
227,1773.41,0.07658890339841347
228,1785.71,0.07676461292393398
229,1793.95,0.0787333496955022
230,1806.3799999999999,0.07819234058999162
231,1814.72,0.07553816841461286
232,1823.1,0.0757120566604553
233,1835.7399999999998,0.07381874976635605
234,1844.21,0.0703353989599462
235,1856.99,0.06968968354012119
236,1865.56,0.07049725378676433
237,1874.18,0.073648354559934
238,1887.1699999999998,0.0701735813515203
239,1895.88,0.06810513307243768
240,1904.6299999999999,0.07082321521457625
241,1905.46072,0.07062591236877808
242,1913.42,0.06873532592346639
243,1926.68,0.06810539593261766
244,1935.5800000000002,0.06873433512428029
245,1944.5100000000002,0.0706593639087238
246,1953.49,0.06763481201446876
247,1967.03,0.07065906822290831
248,1976.1100000000001,0.07147722497125625
249,1985.23,0.06905070117664536
250,1994.39,0.06716885683907566
251,2003.6000000000001,0.06810341182280742
252,2012.84,0.06670703639932007
253,2026.8,0.068574416906692
254,2036.1499999999999,0.0667067099900679
255,2045.55,0.06732352239474527
256,2054.99,0.06503769425646383
257,2064.48,0.06563943543948388
258,2074.01,0.06732232607954508
259,2078.79,0.06609446119596614
260,2083.58,0.06701380617664747
261,2093.2000000000003,0.06473859559505135
262,2102.86,0.06533709447049639
263,2117.44,0.06518646656200662
264,2127.21,0.0657897739443149
265,2137.03,0.06311920064792467
266,2146.89,0.06399664680857563
267,2156.8,0.06458876229052805
268,2166.76,0.06268385709378196
269,2176.76,0.06225216135407703
270,2186.81,0.06182374493567359
271,2187.7616199999998,0.061987055097718
272,2196.9,0.06355554091784513
273,2207.04,0.06182457065723593
274,2217.23,0.060001670937747976
275,2227.46,0.058501531651157034
276,2232.6,0.06139907727842219
277,2242.9,0.05931509874940101
278,2253.25,0.05783227076150108
279,2263.6600000000003,0.05823177342294666
280,2274.1,0.05917917640906499
281,2284.6,0.05986392004452884
282,2295.15,0.057832304221113934
283,2305.7400000000002,0.05758066883059604
284,2316.38,0.0564224539811994
285,2327.07,0.049049029672924016
286,2332.44,0.054414357789346945
287,2343.2,0.05222643423864132
288,2354.02,0.0545829513372812
289,2364.89,0.05190786897704234
290,2375.8,0.05313845704970049
291,2386.77,0.05030178577170414
292,2392.27,0.05244139529504234
293,2403.31,0.05091576477461575
294,2414.41,0.051407204903534676
295,2425.5499999999997,0.05299079546535059
296,2436.75,0.051094846676512026
297,2442.36,0.05290162739031699
298,2453.64,0.052197449467272436
299,2464.96,0.05162161197712488
300,2476.34,0.05046822513632283
301,2487.77,0.05166515883664204
302,2493.5099999999998,0.05026749095736228
303,2505.0099999999998,0.05265906541525125
304,2510.79,0.049838767968868485
305,2511.88643,0.0499280129514113
306,2516.58,0.050309980175584273
307,2522.38,0.04850057588191621
308,2534.02,0.04852186712703756
309,2545.7200000000003,0.04820805812084508
310,2557.47,0.05015407890522444
311,2563.36,0.049362324234585676
312,2575.2000000000003,0.05100111464199432
313,2587.08,0.050788674881860424
314,2593.05,0.05033357987613658
315,2605.0099999999998,0.048984199780917614
316,2617.04,0.0485559093924992
317,2623.07,0.04935548413546155
318,2635.18,0.05006415341195806
319,2647.34,0.05280948247902641
320,2653.45,0.05306521688690367
321,2665.69,0.05070008561888693
322,2678.0,0.051783854057670754
323,2684.17,0.05179526821423421
324,2696.56,0.05017558631793296
325,2702.78,0.05076797026506824
326,2715.25,0.04895397803368191
327,2727.79,0.04852665550909614
328,2734.07,0.049897579204917615
329,2746.69,0.046161376345246766
330,2753.03,0.046599869789754444
331,2765.73,0.047816746594998516
332,2772.1099999999997,0.04894105987196365
333,2784.9,0.04752047630023701
334,2797.76,0.04198460243531093
335,2804.2099999999996,0.043871695419076616
336,2817.15,0.04845994121906546
337,2823.6499999999996,0.04903214399340298
338,2836.68,0.04793857941642111
339,2843.2200000000003,0.04675053202321609
340,2856.34,0.04570889706926351
341,2862.9300000000003,0.048094249466630316
342,2876.14,0.048117414135707026
343,2882.77,0.048018216365531295
344,2884.0315,0.048030863993003346
345,2896.08,0.04815171004886233
346,2909.4500000000003,0.049982308902787334
347,2929.61,0.048544337174674254
348,2949.9199999999996,0.04780276543370318
349,2970.37,0.047948033680731326
350,2990.9599999999996,0.04776339191575869
351,3011.69,0.04790867013878526
352,3032.57,0.047834298348953856
353,3046.56,0.04774785714973252
354,3067.68,0.04756512533932834
355,3088.95,0.04738238351606617
356,3110.3599999999997,0.047309291680803216
357,3131.92,0.046696599832682276
358,3153.63,0.046517707971703355
359,3168.18,0.04664958672447888
360,3190.1400000000003,0.045204844842069984
361,3212.26,0.04597503294594591
362,3227.08,0.04474680167557706
363,3249.45,0.04624831975802301
364,3271.98,0.04714574782675378
365,3287.08,0.04673896653238336
366,3309.86,0.04634843457968415
367,3311.31121,0.0460758425119882
368,3325.14,0.04347825179495854
369,3332.81,0.043791459226634334
370,3340.49,0.04144847664192379
371,3348.1899999999996,0.044322734024440556
372,3355.91,0.042534501374184644
373,3363.65,0.03970743869115605
374,3371.4,0.03999302599174111
375,3379.17,0.04316160325955349
376,3386.96,0.04337311049459318
377,3394.7699999999995,0.04328548769686019
378,3402.6,0.044203014866354515
379,3410.44,0.041170362019462496
380,3418.3,0.0423351091397978
381,3426.18,0.04373382622736042
382,3434.08,0.044252183282150345
383,3441.99,0.04237089032055394
384,3449.93,0.0418975473097985
385,3457.8799999999997,0.04162042428265673
386,3465.85,0.04115598122274227
387,3473.84,0.04310754813005513
388,3481.8500000000004,0.0419445350045953
389,3489.88,0.043330501846362786
390,3497.92,0.04177528867174393
391,3505.99,0.04246581544796606
392,3514.07,0.04151154220780184
393,3522.17,0.04318053893486493
394,3530.29,0.041439445629155344
395,3538.4300000000003,0.04320535229067307
396,3546.58,0.04391919893580446
397,3554.76,0.04444044553177682
398,3562.95,0.04334212211136284
399,3571.17,0.041786658641789834
400,3579.3999999999996,0.04047263515583049
401,3587.65,0.03884142163709845
402,3595.92,0.04105941808559374
403,3604.21,0.04241677450131634
404,3611.71,0.038173822211559946
405,3614.46,0.06416670770531593
406,3617.21,0.05050892319907192
407,3619.96,0.027656538692827914
408,3622.71,0.030185294186583903
409,3625.4599999999996,0.03463395968033989
410,3628.2,0.025734775190482225
411,3630.95,0.038682660684238215
412,3633.7000000000003,0.050273306177994206
413,3636.45,0.050273271671750185
414,3639.2000000000003,0.037355177165506175
415,3641.95,0.062111052659262166
416,3644.7000000000003,0.05698995815301816
417,3647.45,0.020407743646774147
418,3650.1899999999996,0.03928768915691648
419,3652.94,0.035146744650672475
420,3655.6899999999996,0.038830730144428456
421,3658.44,0.046595015638184446
422,3661.19,0.051218741131940436
423,3663.94,0.05330116662569642
424,3666.69,0.056444552119452415
425,3669.44,0.03502634761320841
426,3672.19,0.023930093106964395
427,3674.9300000000003,0.03982627861710672
428,3677.68,0.04348813411086271
429,3680.4300000000003,0.043216849604618704
430,3683.18,0.06325088509837469
431,3685.93,0.05386769059213068
432,3688.68,0.04736726608588667
433,3691.43,0.037932161579642666
434,3694.1800000000003,0.06812068707339865
435,3696.92,0.05925629258354098
436,3699.67,0.047168268077296974
437,3702.42,0.06372126357105297
438,3705.17,0.04211351906480895
439,3707.92,0.03830732455856494
440,3710.6699999999996,0.044773050052320934
441,3713.42,0.05451974554607692
442,3716.1699999999996,0.0324195710398329
443,3718.9100000000003,0.04354198654997524
444,3721.66,0.04865917204373123
445,3724.4100000000003,0.11543398753748721
446,3727.16,0.13581618303124318
447,3729.9100000000003,0.13607577852499922
448,3732.66,0.10204437401875519
449,3735.4100000000003,0.06231864951251117
450,3738.16,0.03158270500626716
451,3740.91,0.033807510500023154
452,3743.65,0.045496466010165486
453,3746.3999999999996,0.053474291503921474
454,3749.15,0.04605814699767746
455,3751.9,0.020488422491433452
456,3754.65,0.034101897985189436
457,3757.4,0.04827132347894543
458,3760.15,0.04740944897270142
459,3762.9,0.04654179446645741
460,3765.64,0.04638714997659974
461,3768.39,0.04788957547035573
462,3771.14,0.04220481096411172
463,3773.89,0.058676046457867705
464,3776.64,0.0519995819516237
465,3779.3900000000003,0.060269797445379684
466,3782.14,0.051298292939135674
467,3784.8900000000003,0.059414598432891666
468,3787.63,0.061896533943034
469,3790.3799999999997,0.05794025943678999
470,3793.13,0.053588664930545975
471,3795.8799999999997,0.05414075042430196
472,3798.63,0.046658225918057954
473,3801.3799999999997,0.04283665141181395
474,3801.8939600000003,0.043774145381695335
475,3804.13,0.047852817669018714
476,3806.88,0.048843524101704304
477,3809.63,0.05538907053438989
478,3812.37,0.05177744698004754
479,3815.1200000000003,0.05408689341273313
480,3817.87,0.05749383984541872
481,3820.6200000000003,0.0665768362781043
482,3823.37,0.0635738027107899
483,3826.12,0.055678649143475485
484,3828.87,0.058260295576161074
485,3831.62,0.043478102008846664
486,3834.36,0.03427788845450431
487,3837.11,0.0388698948871899
488,3839.86,0.044285261319875494
489,3842.61,0.04757005775256108
490,3845.3599999999997,0.05807375418524668
491,3848.11,0.061904880617932256
492,3850.8599999999997,0.05821314705061785
493,3853.61,0.056060423483303444
494,3856.35,0.057869979928961084
495,3859.1,0.059882196361646677
496,3861.85,0.05565468279433227
497,3864.6000000000004,0.05817573922701786
498,3867.35,0.07064744565970345
499,3870.1000000000004,0.07699388209238903
500,3872.85,0.07590401852507463
501,3875.6000000000004,0.07317223495776022
502,3878.35,0.0649269613904458
503,3881.0899999999997,0.06995212783610345
504,3883.84,0.06895461426878903
505,3886.5899999999997,0.06531288070147463
506,3889.34,0.06735106713416021
507,3892.09,0.06333901356684582
508,3894.84,0.07421686999953139
509,3897.59,0.074292806432217
510,3900.34,0.07341264286490258
511,3903.08,0.07742114931056021
512,3905.83,0.08591162574324582
513,3908.58,0.0801114221759314
514,3911.33,0.082042828608617
515,3914.08,0.08227747504130258
516,3916.83,0.06917084147398818
517,3919.58,0.05640087790667376
518,3922.33,0.050770964339359355
519,3925.07,0.046592770785017
520,3927.82,0.05169455721770259
521,3930.5699999999997,0.05306040365038818
522,3933.32,0.04868284008307377
523,3936.0699999999997,0.04630984651575936
524,3938.82,0.060561032948444955
525,3941.5699999999997,0.05662209938113054
526,3944.32,0.05519270581381613
527,3947.0699999999997,0.06278862224650172
528,3949.8100000000004,0.05080864869215936
529,3952.56,0.05182051512484495
530,3955.3100000000004,0.06538974155753055
531,3958.06,0.04471983799021614
532,3960.81,0.05452810442290173
533,3963.56,0.04825083085558731
534,3966.31,0.0350682472882729
535,3969.06,0.044955373720958494
536,3971.7999999999997,0.04114074016661614
537,3974.55,0.05562089659930173
538,3977.2999999999997,0.05741092303198732
539,3980.05,0.05996178946467291
540,3982.8,0.0521560858973585
541,3985.5499999999997,0.06599558233004409
542,3988.3,0.06580412876272967
543,3991.0499999999997,0.07249395519541527
544,3993.79,0.0776663116410729
545,3996.54,0.07142364807375849
546,3999.29,0.0728923945064441
547,4002.04,0.06822818093912968
548,4004.79,0.058617027371815275
549,4007.54,0.06811747380450085
550,4010.2900000000004,0.06300985023718646
551,4013.04,0.06108412666987204
552,4015.7900000000004,0.07990901310255764
553,4018.53,0.07187763954821527
554,4021.2799999999997,0.06467213598090087
555,4024.03,0.06308690241358646
556,4026.7799999999997,0.06469897884627204
557,4029.53,0.04817960527895764
558,4032.2799999999997,0.06373028171164322
559,4035.03,0.06250192814432881
560,4037.78,0.0650354745770144
561,4040.5200000000004,0.06978745102267205
562,4043.27,0.06345340745535764
563,4046.02,0.06766352388804323
564,4048.77,0.060485920320728824
565,4051.52,0.06291271675341441
566,4054.27,0.0615477631861
567,4057.02,0.06523075961878559
568,4059.77,0.07094331605147118
