,lambda (Angstroms),Total Flux (erg/s/cm^2/Angstrom)
0,102.00000000000001,0.03192069098914732
1,103.9,0.037363882987557516
2,104.712855,0.039692621154813666
3,106.08,0.036425346915152895
4,108.05,0.03171765223098579
5,110.06,0.026915236814089392
6,113.91999999999999,0.017691993858213774
7,117.92999999999999,0.008110764143853304
8,120.22644299999999,0.0026472566090397784
9,120.95,0.002575219374439788
10,124.92,0.0021489101934500437
11,126.95,0.0019298479794426927
12,128.12,0.0018046788481182589
13,131.1,0.001483713594403036
14,132.01,0.0013976422522618101
15,133.85,0.001200862624196034
16,136.97,0.0008842115939975437
17,138.038426,0.0007705462588601918
18,140.16,0.0007711920865772636
19,143.09,0.0010205190129712305
20,147.10000000000002,0.0016646209617220181
21,150.87,0.0017442503499490677
22,155.1,0.0018479339791799487
23,158.489319,0.0019532150231012057
24,159.07999999999998,0.0019703253531151
25,162.04,0.002050164006194179
26,165.80999999999997,0.0021966784697442228
27,170.07000000000002,0.0023079922137026272
28,172.82999999999998,0.0024127211604925798
29,176.85,0.0025419042569040317
30,180.14,0.0026359434253601707
31,181.81,0.002708813972874381
32,181.970086,0.002714061001112721
33,186.04,0.0028797433309565995
34,190.82,0.0031011218090337966
35,193.92,0.0032586247508830245
36,197.98,0.0034333587134339487
37,202.12,0.0036332651777100143
38,204.93999999999997,0.003780650363521248
39,208.929613,0.0038474806943942924
40,210.19,0.0038809414882103026
41,216.07999999999998,0.004391107715826801
42,220.1,0.004665679168291712
43,223.16,0.004796642527630674
44,226.79000000000002,0.005086082973513167
45,229.94,0.0075253738728326865
46,234.21999999999997,0.012014575663019209
47,239.88329199999998,0.014679078407981107
48,240.22000000000003,0.014830292991517932
49,245.82,0.014116740038116509
50,252.13,0.01501149760312312
51,256.81,0.012811972992066217
52,259.78999999999996,0.014678802491863319
53,264.01,0.015368482051978672
54,268.92,0.01535641535533564
55,273.92,0.015310249146941513
56,275.42287,0.015306364797799146
57,279.01,0.015368749802857438
58,284.2,0.01542399320637682
59,290.15,0.01481891579808016
60,296.21999999999997,0.01514735615633886
61,301.03000000000003,0.015033209965766266
62,308.05,0.01530615930925491
63,316.227766,0.01561104290921232
64,318.14000000000004,0.015648163280441576
65,327.81,0.015510384013002592
66,337.77000000000004,0.015236983723065438
67,348.03000000000003,0.014931136858130176
68,356.96,0.014702468475686523
69,363.078055,0.014636700696680912
70,366.10999999999996,0.014644893096932152
71,374.64,0.014441090783656838
72,385.14,0.013853644700492617
73,395.02000000000004,0.014128252747953332
74,405.15000000000003,0.01412977493629109
75,413.63,0.013879237794840366
76,416.86938299999997,0.01377724513196579
77,422.29999999999995,0.01359345183953254
78,430.15,0.013363014119234335
79,441.17999999999995,0.013234356825617877
80,451.46,0.01291152612948214
81,459.84999999999997,0.012618398858997817
82,469.47999999999996,0.012391038547345369
83,478.630092,0.012295401098317824
84,480.42,0.012262057578268796
85,490.47,0.011739648873160443
86,499.59000000000003,0.011674714137778538
87,506.53999999999996,0.011328965331758336
88,512.41,0.012018866297033358
89,519.54,0.011810002529130616
90,530.42,0.01144067372200834
91,540.28,0.01087376636555378
92,549.5408739999999,0.010940647292238266
93,550.3199999999999,0.010948711849007078
94,560.55,0.01119695675613099
95,569.6600000000001,0.011404012621614749
96,580.25,0.010980904006408714
97,589.68,0.011329346740932516
98,600.64,0.010978209505554032
99,610.4,0.010389815011275378
100,620.3199999999999,0.01166342695151675
101,630.4,0.011675778326278143
102,630.957344,0.011670944009835187
103,640.64,0.011621282022828538
104,649.56,0.011974315107935627
105,658.59,0.012152302053957714
106,664.69,0.012432866159243952
107,675.49,0.012269875230898276
108,684.8799999999999,0.011848634812642174
109,694.4100000000001,0.013573599308277888
110,705.69,0.012911385227561292
111,715.51,0.01422598990197291
112,724.43596,0.014413649776391877
113,725.47,0.014434482439531925
114,735.56,0.014638165731956544
115,745.7900000000001,0.01570820113151094
116,754.43,0.016278365457234302
117,764.9200000000001,0.016329771912886856
118,775.56,0.017680062054749885
119,784.54,0.018364950069216988
120,795.46,0.01891209442533957
121,804.67,0.019430008758662735
122,815.86,0.019836445749964172
123,825.31,0.0212483979812241
124,831.763771,0.0186423906352312
125,834.87,0.01737666982103581
126,844.53,0.02165760514571436
127,854.3100000000001,0.02192611755517153
128,864.1999999999999,0.023254132292342432
129,874.21,0.02461445411429195
130,884.34,0.02646989302102008
131,894.5699999999999,0.027660359498397055
132,904.9300000000001,0.026967957817617533
133,915.41,0.043238833221616625
134,926.01,0.3223954257103943
135,934.58,0.6997428925150004
136,945.4,1.3546404796592058
137,954.15,2.0036223920909797
138,954.992586,2.004714940687467
139,965.1999999999999,2.0179721925336587
140,974.13,0.27032342958197164
141,985.4100000000001,1.3714201290114199
142,994.53,1.6718554902522504
143,1006.04,2.8396108979147456
144,1015.35,2.8531851833480935
145,1024.75,1.2780254328726337
146,1034.23,1.7561016504782336
147,1043.8,3.886547832175026
148,1055.89,3.807907008425206
149,1065.6599999999999,2.702725110324648
150,1075.52,3.4187101763152827
151,1085.47,2.44338320639711
152,1095.51,3.6564112005701297
153,1096.4782,3.640005744231709
154,1105.6499999999999,3.4845883609281256
155,1115.88,3.215389586151177
156,1126.2,2.794777698986162
157,1134.01,3.9300189461994592
158,1144.5,3.479271846745873
159,1155.09,3.815779622416657
160,1165.78,3.905489273211811
161,1173.8600000000001,2.4309721832609075
162,1184.72,3.7656756217674903
163,1195.6799999999998,2.238591935398443
164,1203.97,1.4096605832087166
165,1215.11,1.2001536720635353
166,1226.36,2.5190696235551613
167,1234.86,4.161865009126612
168,1246.28,4.596148748329667
169,1254.9199999999998,4.241010959075235
170,1258.92541,3.890588289720693
171,1263.6200000000001,3.4798773742828635
172,1275.31,4.871374412626303
173,1284.15,5.184878197823567
174,1296.03,3.6463782530434177
175,1305.02,3.5722640515641637
176,1314.06,4.92052185452607
177,1326.2199999999998,4.635754934616423
178,1335.4199999999998,3.8388727517900456
179,1344.67,5.003722573404828
180,1353.99,4.8015094012372375
181,1366.52,4.087803514192181
182,1375.99,4.4012483553480735
183,1385.5300000000002,4.43263620272159
184,1395.14,3.7822540563127323
185,1404.81,3.9250239152332678
186,1414.55,3.962150780371429
187,1424.3500000000001,4.168929650838983
188,1434.22,4.084230527524162
189,1440.84,4.387080115533878
190,1445.43977,4.4653167323949985
191,1447.4899999999998,4.50018867694166
192,1454.1699999999998,4.308154174925083
193,1464.25,3.8494109263731233
194,1474.3999999999999,3.859066683039553
195,1484.6200000000001,3.9956174449243718
196,1494.92,4.089454212773064
197,1505.28,3.7822849850946607
198,1512.23,3.227279503206157
199,1515.71,3.563367762634647
200,1526.22,3.3803275461385063
201,1533.26,2.81208907095936
202,1543.8899999999999,3.2517968634090293
203,1554.5900000000001,3.035539661077088
204,1565.3700000000001,3.05722146470902
205,1576.22,3.2917222735593414
206,1583.49,3.5276828155263305
207,1594.47,3.5939636340679457
208,1605.52,3.5373264578279504
209,1616.65,3.5627522875518283
210,1624.11,3.2950208436830164
211,1635.37,3.5805356830981885
212,1646.71,3.639524528477234
213,1654.31,3.2819020950452007
214,1659.58691,3.454826415074777
215,1665.78,3.6577768600299962
216,1673.47,3.1138510465669635
217,1677.32,3.6587471425575133
218,1685.07,3.911926361759268
219,1696.75,3.610024720504624
220,1704.58,3.4243679832594296
221,1716.39,3.1674234127784917
222,1724.32,3.1533517299746103
223,1736.27,3.4265832357115102
224,1744.28,3.3260975964606794
225,1756.37,3.6311451784154176
226,1764.48,3.2295465936058996
227,1776.71,3.3208172517784766
228,1784.91,3.39869171596614
229,1793.15,3.718723201930329
230,1805.58,3.6770319689855318
231,1813.9099999999999,3.300567503946902
232,1826.49,3.393867352664074
233,1834.9199999999998,3.2119269420667576
234,1843.39,2.8964535532459665
235,1856.17,2.8772395108457647
236,1864.73,2.9994541710221547
237,1873.34,3.3428878584192017
238,1886.33,3.014742930345757
239,1895.03,2.886172666739985
240,1903.78,3.0860434303548705
241,1905.46072,3.0658787612154508
242,1916.98,2.9276602616533918
243,1925.82,2.8815110581428924
244,1934.71,2.9694858195446643
245,1943.64,3.1172455528762524
246,1957.12,2.889870093224496
247,1966.15,3.2506327563806257
248,1975.23,3.342207384449027
249,1984.34,3.1268999914647906
250,1993.5,3.0214015633928253
251,2002.7,3.128131107250677
252,2016.5900000000001,2.967687359879542
253,2025.8899999999999,3.151361833561935
254,2035.2500000000002,2.9416192651390536
255,2044.64,3.1092126756635343
256,2054.08,2.942713051100286
257,2063.56,2.929744398466855
258,2073.08,3.19094571776324
259,2077.86,3.0266463633763414
260,2082.65,3.1842390019718967
261,2097.09,2.9724738686357415
262,2106.77,2.9662260756513943
263,2116.4900000000002,3.001194254596863
264,2126.26,3.043620398454603
265,2136.08,2.7636845072246143
266,2145.94,2.8811805879244416
267,2155.84,3.010532640554086
268,2165.79,2.8889836580960018
269,2175.79,2.856497640550188
270,2185.83,2.798446594934191
271,2187.7616199999998,2.827692340055206
272,2195.92,2.951224804054623
273,2206.06,2.8516494774219177
274,2216.24,2.6619361731693596
275,2226.4700000000003,2.554446896891985
276,2236.75,2.7883246485897946
277,2247.0699999999997,2.6312344226677515
278,2257.44,2.465535224720892
279,2262.65,2.545403139735054
280,2273.09,2.627029980953452
281,2283.58,2.7175258501470343
282,2294.12,2.5402917473157998
283,2304.71,2.5326396724597497
284,2315.35,2.3619516255788833
285,2326.04,1.7139636066732007
286,2336.77,2.116840610147665
287,2347.56,2.0388276471923508
288,2352.9700000000003,2.2605566741072485
289,2363.83,2.008721750317191
290,2374.74,2.087530854502318
291,2385.71,1.8981039922576652
292,2396.72,2.0558591523931598
293,2402.24,1.9491382408534619
294,2413.33,2.020916445749251
295,2424.47,2.193974678620223
296,2435.66,2.09364693946638
297,2446.9,2.24173522828772
298,2452.54,2.205065383888464
299,2463.86,2.1732447174700984
300,2475.24,2.069164084621954
301,2486.66,2.1206764741539565
302,2492.39,1.987575680110031
303,2503.9,2.2645321199973645
304,2511.88643,2.033739815316677
305,2515.46,1.930467814603991
306,2527.07,1.8894353005437774
307,2532.89,1.9371820402655306
308,2544.5800000000004,1.8872525088819048
309,2556.33,2.0819769645057193
310,2562.2200000000003,1.987576689069487
311,2574.0499999999997,2.1378281273698896
312,2585.9300000000003,2.087577554843159
313,2597.87,2.0384329693238694
314,2603.85,1.945915674398798
315,2615.8700000000003,1.908937071556096
316,2627.95,2.029688455720835
317,2634.0099999999998,2.1392121434723514
318,2646.1600000000003,2.3762345124791047
319,2652.26,2.4700141915689144
320,2664.5099999999998,2.134833538921402
321,2676.81,2.2699598754467574
322,2682.98,2.2585705393785815
323,2695.36,2.1256328585805244
324,2707.8,2.2136321647899075
325,2714.04,2.0555708135637465
326,2726.5699999999997,2.039805100284291
327,2732.8599999999997,2.164625738230997
328,2745.47,1.782512007628129
329,2758.14,1.839465264032702
330,2764.4999999999995,1.9341688868214222
331,2777.2599999999998,2.042297123737156
332,2783.66,1.8833067378641701
333,2796.5099999999998,1.4574609552910653
334,2802.96,1.5790325585909466
335,2815.9,1.990631756529003
336,2822.3900000000003,2.156650351167178
337,2835.41,2.0674165317818223
338,2841.95,1.9964081155928644
339,2855.07,1.8787582745532432
340,2868.25,2.1600774205210627
341,2874.86,2.1789539891741194
342,2884.0315,2.1501651043965726
343,2888.1299999999997,2.1373009849902784
344,2894.79,2.121693955475861
345,2908.15,2.3729098962697623
346,2928.31,2.242306806928823
347,2948.6099999999997,2.1883087169674607
348,2969.04,2.2516706264299904
349,2989.62,2.2485565352277814
350,3010.35,2.2870824433608337
351,3031.2099999999996,2.2733613509177784
352,3052.23,2.264924257765668
353,3073.38,2.2774181640374502
354,3087.57,2.3014321011531287
355,3108.97,2.2928660063170123
356,3130.52,2.247768910816157
357,3152.22,2.2494878146505624
358,3166.77,2.2473027501708667
359,3188.72,2.099065652897374
360,3210.83,2.194556554914826
361,3233.08,2.045087456311854
362,3248.0,2.219372390192469
363,3270.52,2.309712290392967
364,3293.1899999999996,2.274442189928726
365,3308.39,2.2721021225684943
366,3311.31121,2.262728985512857
367,3323.66,2.223105063495008
368,3331.3199999999997,2.2633714145780304
369,3338.9999999999995,2.116074763966753
370,3346.7000000000003,2.2766261116611757
371,3354.42,2.1780104576612977
372,3362.1499999999996,2.0692518028142697
373,3369.9,2.087358146272942
374,3377.6699999999996,2.1201184880373134
375,3385.45,2.163343828954535
376,3393.26,2.274429167330306
377,3401.0800000000004,2.4301515048589275
378,3408.9199999999996,2.1898688406932485
379,3416.7799999999997,2.1836171748332696
380,3424.65,2.32234350812614
381,3432.5499999999997,2.3970708388775606
382,3440.46,2.288006168781831
383,3448.39,2.095152496991801
384,3456.34,2.1377478235074707
385,3464.31,2.0264971483288408
386,3472.2999999999997,2.24119347145591
387,3480.3,2.0570747937358296
388,3488.3199999999997,2.162716114321449
389,3496.36,2.1269814332127677
390,3504.4199999999996,2.2260687504097865
391,3512.5,2.149296065912505
392,3520.6,2.259604379720923
393,3528.7200000000003,2.0221196918350417
394,3536.8500000000004,2.2159140031020095
395,3545.0,2.3137503126746775
396,3553.1800000000003,2.333713619705895
397,3561.37,2.274099925889962
398,3569.58,2.06814323037973
399,3577.81,2.038498533175197
400,3586.05,1.910252835123514
401,3594.3199999999997,2.0835931345303806
402,3602.61,2.288616432242947
403,3610.91,2.0956057291083634
404,3619.2400000000002,2.2032650234323294
405,3627.5800000000004,2.3057753169091453
406,3635.9399999999996,2.063312608691661
407,3643.5099999999998,2.427488967399035
408,3646.19,2.308271740362808
409,3648.8599999999997,2.4767885141737307
410,3651.53,2.5919422879846543
411,3654.21,1.9673420609484271
412,3656.88,2.2425838347593503
413,3659.5499999999997,2.4900516085702735
414,3662.22,2.4315433823811965
415,3664.8999999999996,2.1846931553449696
416,3667.57,2.3383859291558924
417,3670.2400000000002,2.1567697029668156
418,3672.91,2.0361604767777384
419,3675.59,2.4266962497415117
420,3678.2599999999998,2.3274640235524346
421,3680.93,2.079221797363358
422,3683.61,2.1608175703271306
423,3686.28,2.3677163441380538
424,3688.95,2.353833117948977
425,3691.62,2.2079468917599003
426,3694.2999999999997,2.139596664723673
427,3696.97,2.310921438534596
428,3699.6400000000003,2.4477642123455197
429,3702.31,2.150371986156442
430,3704.9900000000002,2.2194847591202156
431,3707.66,2.091698532931139
432,3710.33,2.0853043067420614
433,3713.0,2.2932960805529845
434,3715.6800000000003,2.3014008535167574
435,3718.3500000000004,2.0920106273276806
436,3721.02,3.081249401138604
437,3723.7,3.8576451741023767
438,3726.37,5.0419219479133
439,3729.04,5.883558721724223
440,3731.7099999999996,4.830202495535146
441,3734.3900000000003,3.796793268498919
442,3737.06,3.1681510423098422
443,3739.73,2.4398038161207656
444,3742.4,2.3078045899316884
445,3745.08,2.4781803628954617
446,3747.7500000000005,2.2528751367063844
447,3750.42,2.0768759105173076
448,3753.1,1.9156876834810808
449,3755.77,2.456960457292004
450,3758.44,2.4036012311029267
451,3761.1099999999997,2.38784500491385
452,3763.79,2.6382647778776227
453,3766.4599999999996,2.293908551688546
454,3769.13,2.5251493254994695
455,3771.8,2.2402400993103924
456,3774.48,2.3943888722741655
457,3777.15,2.6413896460850887
458,3779.8199999999997,2.6958474198960114
459,3782.4999999999995,3.0651601928597847
460,3785.17,3.1679889666707077
461,3787.84,2.8117747404816305
462,3790.51,2.7145715142925537
463,3793.19,2.4816072872563266
464,3795.8599999999997,2.46366706106725
465,3798.5299999999997,2.144274834878173
466,3801.2000000000003,2.5025256086890963
467,3801.8939600000003,2.461150774303247
468,3803.88,2.342740416709218
469,3806.55,2.4972142376493287
470,3809.22,2.7329800585894395
471,3811.89,3.0019808795295506
472,3814.5699999999997,2.740773699799025
473,3817.2400000000002,2.8343965207391357
474,3819.9100000000003,2.9189693416792464
475,3822.59,2.5485411619487213
476,3825.2599999999998,2.2527109828888316
477,3827.93,2.2761188038289424
478,3830.6,2.2313406247690533
479,3833.28,2.3700434450385277
480,3835.9500000000003,2.1803132659786386
481,3838.62,2.2620760869187495
482,3841.29,2.31497390785886
483,3843.97,2.5017337281283347
484,3846.64,2.427309549068445
485,3849.3100000000004,2.953605370008556
486,3851.9900000000002,2.7658891902780303
487,3854.66,3.260666011218141
488,3857.33,3.1918608321582522
489,3860.0,3.109480653098363
490,3862.68,3.7699454733678373
491,3865.3500000000004,3.6577642943079485
492,3868.02,3.913192115248059
493,3870.69,4.0512849361881695
494,3873.37,3.746073756457644
495,3876.04,3.370044577397755
496,3878.71,3.2224443983378657
497,3881.3799999999997,2.7874342192779764
498,3884.06,2.786643039547451
499,3886.73,2.284071860487562
500,3889.4,2.6161086814276726
501,3892.08,2.759802501697147
502,3894.75,2.614697322637258
503,3897.4199999999996,2.8454711435773685
504,3900.09,2.795855964517479
505,3902.77,3.0888707847869536
506,3905.44,3.3669216057270646
507,3908.11,3.3430524266671755
508,3910.7799999999997,3.4246622476072863
509,3913.4600000000005,3.7143970678767606
510,3916.13,3.7535658888168717
511,3918.8,3.2837617097569822
512,3921.48,3.324161530026457
513,3924.15,3.1573693509665675
514,3926.8199999999997,3.088876171906678
515,3929.49,2.914436992846789
516,3932.1699999999996,3.0908968131162635
517,3934.84,2.774938634056374
518,3937.51,2.9202064549964852
519,3940.18,2.7738542759365954
520,3942.86,2.9426680962060705
521,3945.5299999999997,3.269556917146181
522,3948.2,3.3850237380862915
523,3950.8700000000003,3.3006145590264024
524,3953.55,3.373781379295877
525,3956.22,3.255202200235988
526,3958.89,3.082012021176099
527,3961.5699999999997,2.742634841445573
528,3964.24,2.781021662385684
529,3966.9100000000003,2.6875624833257947
530,3969.58,2.7849293042659053
531,3972.26,2.5892571245353797
532,3974.93,2.6136009454754907
533,3977.6,2.7207977664156013
534,3980.27,2.705353587355712
535,3982.9500000000003,3.0046114076251866
536,3985.6200000000003,3.2161922285652977
537,3988.29,3.2488070495054084
538,3990.97,3.4859608697748827
539,3993.64,3.4541356907149936
540,3996.31,3.328846511655104
541,3998.9799999999996,3.408271332595215
542,4001.6600000000003,3.4262021528646893
543,4004.33,3.4610009738048
544,4007.0,3.398592794744911
545,4009.67,3.509067615685022
546,4012.35,3.2027664359544965
547,4015.0200000000004,3.3881352568946075
548,4017.69,3.4361970778347177
549,4020.36,3.5966018987748285
550,4023.04,3.739512719044303
551,4025.71,3.667586539984414
552,4028.3799999999997,3.4252753609245246
553,4031.0600000000004,3.418553181193999
554,4033.73,3.48034600213411
555,4036.4,3.535897823074221
556,4039.07,3.393289644014332
557,4041.75,3.2776584642838062
558,4044.42,3.4428992852239166
559,4047.0899999999997,3.4003071061640275
560,4049.76,3.4313619271041382
561,4052.44,3.4597467473736128
562,4055.11,3.7362375683137237
563,4057.78,3.5930063892538344
564,4060.46,3.527460209523309
565,4063.1299999999997,3.7441910304634196
566,4065.8,3.7605788514035305
567,4068.4700000000003,3.764484672343641
568,4071.15,3.5259014926131154
569,4073.82,3.6304453135532264
570,4076.49,3.6285781344933374
571,4079.16,3.659944955433448
572,4081.8399999999997,3.7310807757029223
573,4084.51,3.5805165966430335
574,4087.1800000000003,3.6448054175831444
575,4089.85,3.7735362385232545
576,4092.5299999999997,3.6340310587927296
577,4095.2,3.36519487973284
578,4097.87,3.405142700672951
579,4100.55,3.166092520942425
580,4103.22,3.1740533418825363
581,4105.889999999999,3.1893481628226468
582,4108.56,3.3277519837627576
583,4111.24,3.3325768040322323
584,4113.91,3.289828624972343
585,4116.58,3.3140174459124534
586,4119.25,3.3856402668525645
587,4121.929999999999,3.800201087122039
588,4124.6,3.6719489080621495
