,lambda (Angstroms),Total Flux (erg/s/cm^2/Angstrom)
0,102.06,68.67647735274231
1,103.96000000000001,68.48073439072375
2,104.712855,68.4031733025031
3,105.89,67.76614631972964
4,108.11,66.56476509510289
5,110.11999999999999,65.47702804073785
6,113.98,63.388139966359425
7,117.99000000000001,61.21807748569763
8,120.22644299999999,60.00779793576669
9,121.02,59.647754683734895
10,124.98,57.85107053029169
11,127.01,56.93004304826744
12,127.89,56.53077990522421
13,130.87,55.1787297132044
14,132.07999999999998,54.6297428998574
15,133.92,53.794919966930316
16,137.04,52.37935066511508
17,138.038426,51.926356690180846
18,139.91,51.31939937050895
19,142.84,50.36919151564446
20,146.84,49.07198003429881
21,150.96,47.73585146528051
22,154.83,46.48079880001952
23,158.489319,45.29407066306921
24,159.17000000000002,45.12718198950259
25,162.12,44.403904108975816
26,165.9,43.47712791520575
27,170.16,42.432665801884895
28,172.92,41.75597227530796
29,176.95,40.767901633871595
30,179.82000000000002,40.064238583807104
31,181.91,39.551815009574824
32,181.970086,39.537083200355006
33,186.14,38.757109667280716
34,190.92000000000002,37.86302135319292
35,194.01999999999998,37.2831734994054
36,198.07999999999998,36.52375986368059
37,202.23000000000002,35.74751232854664
38,205.04000000000002,35.22190894005518
39,208.929613,34.49436587706271
40,209.82,34.36915522815418
41,216.20000000000002,33.47197081095997
42,220.22,32.90666039206842
43,222.77,32.548068086994746
44,226.91,31.965883477502548
45,230.05999999999997,31.52294079530566
46,233.8,30.997059796765605
47,239.8,30.153353009233435
48,239.88329199999998,30.141640126497823
49,245.95,29.484214759698077
50,252.26,28.800446998348665
51,256.95,28.2921853946194
52,259.92,27.970372591999155
53,264.15000000000003,27.512003891418807
54,269.06,26.979937708213967
55,274.06,26.438118254069114
56,275.42287,26.290432547799426
57,279.16,25.97963966246171
58,283.69,25.60291131807729
59,290.3,25.053183875834
60,295.7,24.60411000090621
61,301.19,24.147539142294622
62,308.21000000000004,23.563737392158487
63,316.227766,22.896961573883168
64,318.31,22.767628039285498
65,327.98,22.166990238549925
66,337.95,21.547714343055752
67,348.21999999999997,20.909801895302977
68,357.15,20.355125321505284
69,363.078055,19.986912787593194
70,366.30999999999995,19.836577463606783
71,374.84000000000003,19.439796242276316
72,385.34,18.95135369304515
73,395.23,18.49133154830608
74,405.36999999999995,18.019662146594843
75,413.84999999999997,17.625202197958814
76,416.86938299999997,17.48474853179181
77,421.54999999999995,17.318478896059585
78,430.38,17.00481248619208
79,441.42,16.61264995987676
80,450.66,16.28441762743568
81,460.1,15.949076398519686
82,469.73,15.60699007715252
83,478.630092,15.29083830186722
84,479.57,15.26516072784651
85,489.60999999999996,14.990853030979252
86,499.86,14.710833052091765
87,505.65,14.552637793033954
88,511.5,14.392860589970363
89,519.81,14.165830849669774
90,529.48,13.901633157238166
91,540.56,13.598896251170716
92,549.5408739999999,13.353542030314667
93,550.61,13.331261268549103
94,559.56,13.144766231829177
95,569.96,12.928043066042896
96,580.5600000000001,12.707107892799192
97,589.99,12.51060627798144
98,599.5799999999999,12.310716464797748
99,609.32,12.10763197602098
100,620.65,11.871655394357658
101,629.29,11.69158993259675
102,630.957344,11.656842599327161
103,639.51,11.515551845839585
104,649.9000000000001,11.343917783269893
105,657.43,11.219513769242004
106,665.04,11.093821360282872
107,674.2900000000001,10.941005406733336
108,685.25,10.759891192153562
109,694.78,10.60258065984469
110,704.4499999999999,10.442753506656151
111,715.89,10.253886945488942
112,724.43596,10.112721163817614
113,725.85,10.095384522750864
114,734.2600000000001,9.992282799178868
115,744.47,9.867157660385763
116,754.8299999999999,9.740165981490895
117,765.33,9.611358603367716
118,774.19,9.502905549490446
119,784.9599999999999,9.370879478784104
120,795.8800000000001,9.237058468975997
121,805.1,9.124076057654504
122,814.42,9.009853947598504
123,825.75,8.871074454978924
124,831.763771,8.797093900269683
125,835.31,8.7644519728104
126,844.98,8.676309221659778
127,854.77,8.586645023521767
128,864.66,8.496180734727595
129,874.6800000000001,8.404530861780414
130,884.8100000000001,8.311911358011457
131,895.0500000000001,8.218239804420728
132,905.42,8.12319791367699
133,915.9000000000001,8.028780488111474
134,924.37,7.97755709983477
135,935.0799999999999,7.916967996460089
136,945.91,7.882162539098018
137,954.66,7.864331094184064
138,954.992586,7.861748707974363
139,965.71,7.78065497926807
140,974.65,7.521775817552469
141,985.93,7.551125098609296
142,995.06,7.493919755067522
143,1004.26,7.524365940326635
144,1015.89,7.420051925387883
145,1025.29,7.169598892935237
146,1034.78,7.1511220975123
147,1044.35,7.284235935004659
148,1054.02,7.193615313641139
149,1066.22,6.982084833223876
150,1076.09,6.969640694148598
151,1086.04,6.785333187988615
152,1096.09,6.823050322972757
153,1096.4782,6.819054042099158
154,1106.24,6.734432295744791
155,1113.9,6.65883099644213
156,1124.21,6.540593957171838
157,1134.6100000000001,6.587958970129059
158,1145.1100000000001,6.465360396672408
159,1155.71,6.427617736801886
160,1163.72,6.38520768505067
161,1174.49,6.1414156682765615
162,1185.35,6.2186041037299695
163,1196.32,5.968876914128117
164,1204.61,5.812641680418056
165,1215.76,5.682437995271232
166,1224.19,5.791435720581749
167,1235.51,5.905818878531342
168,1244.0800000000002,5.902225062862435
169,1255.5900000000001,5.785949986625669
170,1258.92541,5.728729756016645
171,1264.2900000000002,5.648009651481561
172,1275.99,5.757828925063762
173,1284.84,5.752835856363118
174,1293.7399999999998,5.5359283217376145
175,1305.71,5.468554059325557
176,1314.76,5.586784326925463
177,1323.88,5.510081022230563
178,1336.13,5.357265370639276
179,1345.3899999999999,5.451799121354761
180,1354.71,5.3823027529604115
181,1364.1000000000001,5.250795412271254
182,1373.56,5.242573199287291
183,1386.27,5.1864240011872695
184,1395.8799999999999,5.045733690428718
185,1405.5500000000002,5.01880296056033
186,1415.3,4.988273405212166
187,1425.11,4.963913930754164
188,1434.9899999999998,4.910757284001355
189,1441.6100000000001,4.919558775549573
190,1445.43977,4.908554568977843
191,1448.26,4.904909903505009
192,1454.95,4.85857944201206
193,1465.03,4.765905855637028
194,1475.19,4.7329915241320375
195,1485.41,4.715793533779576
196,1495.71,4.695959398297155
197,1506.08,4.6201090608260165
198,1513.03,4.519024377660693
199,1516.52,4.554274221366163
200,1523.52,4.507419022494614
201,1534.08,4.3856550653398205
202,1544.71,4.40573960619631
203,1555.42,4.33865960192284
204,1566.2,4.313654695660655
205,1573.43,4.327673804540469
206,1584.34,4.327075737442098
207,1595.3200000000002,4.301112368355011
208,1606.38,4.253580454137964
209,1613.79,4.232191186475367
210,1624.98,4.1565740114221335
211,1636.24,4.161711834380185
212,1643.79,4.1488468627401565
213,1655.19,4.055703381720776
214,1659.58691,4.063988976039337
215,1666.66,4.085061850627161
216,1670.51,3.9914210657906546
217,1678.22,4.064621401871311
218,1685.96,4.082813555212983
219,1693.74,4.0172616315693395
220,1705.48,3.9618358863795744
221,1713.36,3.904756420272645
222,1725.23,3.874383249880609
223,1733.2,3.9027011355567223
224,1745.21,3.858714045716085
225,1753.2700000000002,3.889706883175241
226,1765.42,3.796822173886004
227,1773.57,3.793468263128203
228,1785.86,3.779977934390366
229,1794.1,3.8125867754156073
230,1806.5400000000002,3.7774658329828403
231,1814.88,3.696625531544796
232,1823.26,3.694947053121438
233,1835.89,3.635441020008428
234,1844.37,3.559882499121784
235,1852.88,3.542173995496153
236,1865.7299999999998,3.532962088963915
237,1874.34,3.570425542874999
238,1882.99,3.491612919800768
239,1896.04,3.4372032283419576
240,1904.7900000000002,3.4546511628044407
241,1905.46072,3.4510658414855993
242,1913.59,3.413170012677584
243,1926.85,3.3785097948855998
244,1935.74,3.381606903545423
245,1944.68,3.398761732726393
246,1953.65,3.33947009422005
247,1967.2,3.3828060554507147
248,1976.28,3.386561602090895
249,1985.3999999999999,3.3330813251479916
250,1994.56,3.297681724622006
251,2003.77,3.303263544617166
252,2013.02,3.2630561410292422
253,2026.9699999999998,3.270706866429079
254,2036.3300000000002,3.2178659479876774
255,2045.73,3.2323528059631936
256,2055.17,3.175112640355627
257,2064.6600000000003,3.163221995269206
258,2074.19,3.2045442265997037
259,2078.97,3.170011908421297
260,2083.76,3.194768334347118
261,2093.38,3.1383119626156786
262,2103.04,3.1233205673011564
263,2112.75,3.11772389250778
264,2127.3900000000003,3.098286761099435
265,2137.21,3.0301255714525803
266,2147.08,3.036051302326873
267,2156.9900000000002,3.0460062096180818
268,2166.94,3.0034756933262083
269,2176.95,2.9815738416597113
270,2186.9900000000002,2.9580776223059
271,2187.7616199999998,2.9591732879655477
272,2197.0899999999997,2.978078342145716
273,2207.23,2.946004217493253
274,2217.42,2.894700046466764
275,2222.53,2.872027927041312
276,2232.79,2.9119860310911867
277,2243.1,2.869609388767036
278,2253.45,2.821269589343664
279,2263.85,2.8239640435462667
280,2274.2999999999997,2.833071651374843
281,2284.7999999999997,2.8460633128293935
282,2295.3399999999997,2.7885623171847227
283,2305.94,2.7855792858912207
284,2316.58,2.737132597498499
285,2327.27,2.5892162627317505
286,2332.64,2.6652791221613636
287,2343.41,2.631239573196174
288,2354.22,2.6755521671317632
289,2365.09,2.6025621254185207
290,2376.01,2.6104345373312534
291,2386.97,2.5492710921447657
292,2392.48,2.5818514017271053
293,2403.52,2.546530542342176
294,2414.61,2.5513242365832194
295,2425.76,2.5851116951754323
296,2436.96,2.55048570739362
297,2442.57,2.582156824227908
298,2453.85,2.5650564222476535
299,2465.17,2.5394750631681786
300,2476.5499999999997,2.5017998684398726
301,2482.26,2.495909192526108
302,2493.7200000000003,2.44114958359936
303,2505.23,2.5144677282985866
304,2511.01,2.4167970274611865
305,2511.88643,2.4175981571373244
306,2516.79,2.423666578772857
307,2522.6,2.3993821641298685
308,2534.24,2.408524425671282
309,2545.94,2.389890859694867
310,2557.69,2.4415166207869294
311,2563.58,2.4071440694535036
312,2575.42,2.4376304392688244
313,2587.3,2.4136756907389265
314,2593.2699999999995,2.395527302715064
315,2605.24,2.3612776629084244
316,2617.27,2.338154595583957
317,2623.3,2.3714240800422663
318,2635.4100000000003,2.412130776027362
319,2647.57,2.4772608990809344
320,2653.68,2.5256719468488074
321,2665.92,2.3956381332119427
322,2672.0699999999997,2.4342905626345974
323,2684.4,2.4359653577209905
324,2696.79,2.368146025289557
325,2703.01,2.401949772608078
326,2715.49,2.330844148899903
327,2728.02,2.305705752260204
328,2734.31,2.342196617474593
329,2746.9300000000003,2.213533229558153
330,2753.26,2.2354131764273233
331,2765.97,2.262745797234142
332,2772.35,2.2894356711717894
333,2785.14,2.2122404552881703
334,2798.0,2.073030757300419
335,2804.45,2.102892849133934
336,2817.4,2.2335117598694407
337,2823.89,2.2982090333577374
338,2836.92,2.2631477074028075
339,2843.46,2.221039507959581
340,2856.59,2.1505577361416046
341,2863.17,2.2713135183531596
342,2876.39,2.2932699552584417
343,2883.02,2.266213364538473
344,2884.0315,2.2667136007333095
345,2896.33,2.2762115674183296
346,2909.7000000000003,2.376296238738791
347,2929.87,2.312333607813863
348,2950.1699999999996,2.2783753731695375
349,2970.62,2.2948814803874455
350,2991.22,2.2851103294675883
351,3011.95,2.2888934748283334
352,3032.8300000000004,2.284931462051312
353,3046.83,2.283679369193157
354,3067.95,2.292056703395711
355,3089.21,2.286262056669683
356,3110.6299999999997,2.2995200745967055
357,3132.19,2.2620368115951455
358,3146.64,2.2566511443236923
359,3168.46,2.265609573883338
360,3190.42,2.1807982225144027
361,3212.53,2.221579413007701
362,3227.36,2.1347833117872406
363,3249.73,2.2425288948417452
364,3272.26,2.3014336425492985
365,3287.3599999999997,2.27723305668086
366,3310.15,2.2527926969496193
367,3311.31121,2.2520255402471534
368,3325.43,2.2454477346073602
369,3333.1,2.287308144871125
370,3340.7799999999997,2.194847325552444
371,3348.4799999999996,2.3327520470688703
372,3356.2,2.2790198094204044
373,3363.94,2.0823369126070457
374,3371.69,2.119753286211241
375,3379.46,2.2731448006505444
376,3387.25,2.254849455924955
377,3395.06,2.199152652034473
378,3402.89,2.3413253889790986
379,3410.73,2.191852396341278
380,3418.6,2.179015814956119
381,3426.48,2.2293603039885137
382,3434.38,2.308350933856016
383,3442.29,2.1611475341410724
384,3450.23,2.20393254567879
385,3458.1800000000003,2.2194555276340613
386,3466.15,2.18473205042444
387,3474.14,2.244029114049927
388,3482.15,2.193884718510521
389,3490.18,2.239072863806223
390,3498.2200000000003,2.1283323795194784
391,3506.2900000000004,2.262030506485395
392,3514.37,2.1623030038688666
393,3522.47,2.2519730420874446
394,3530.59,2.140735621141131
395,3538.73,2.252151741029924
396,3546.89,2.2771704017538257
397,3555.07,2.278688603312834
398,3563.2599999999998,2.233019075289397
399,3571.48,2.1101736585186206
400,3579.71,2.129553912165399
401,3587.96,1.9961559066472838
402,3596.2300000000005,2.160151641964277
403,3604.52,2.2346308181163774
404,3612.8300000000004,2.0772492351035856
405,3617.7799999999997,2.1759803917927174
406,3620.5,2.083562845367351
407,3623.21,2.0571281285244307
408,3625.92,2.1515295116815105
409,3628.63,2.18379979483859
410,3631.34,2.1818030779956707
411,3634.0499999999997,2.1735933611527507
412,3636.76,2.28260564430983
413,3639.48,2.222119197884464
414,3642.19,2.150611481041544
415,3644.8999999999996,2.130803764198624
416,3647.61,2.2627850473557034
417,3650.32,2.2657223305127836
418,3653.0299999999997,2.182954613669864
419,3655.7400000000002,2.2066398968269434
420,3658.45,2.2561561799840235
421,3661.17,2.199208733558657
422,3663.88,2.284121016715737
423,3666.59,2.271920299872817
424,3669.2999999999997,2.292140583029897
425,3672.01,2.175294866186977
426,3674.7200000000003,2.056378649344057
427,3677.43,2.092188432501137
428,3680.1499999999996,2.1576599860757706
429,3682.86,2.1614622692328505
430,3685.57,1.9574448523899304
431,3688.2799999999997,1.9935556355470103
432,3690.9900000000002,2.2836151187040903
433,3693.7,2.2466364018611706
434,3696.41,2.04785278501825
435,3699.1200000000003,2.14545496817533
436,3701.84,2.155911521749964
437,3704.5499999999997,2.2109638049070437
438,3707.26,2.2386770880641236
439,3709.9700000000003,2.2658263712212037
440,3712.68,2.251855654378284
441,3715.39,2.3953229375353633
442,3718.1,2.2370182206924434
443,3720.82,2.4144007742670768
444,3723.5299999999997,2.5569260574241572
445,3726.2400000000002,2.8454033405812367
446,3728.95,3.126124623738317
447,3731.66,2.792948906895397
448,3734.3700000000003,2.6093781900524764
449,3737.08,2.3810724732095565
450,3739.79,2.3455627563666366
451,3742.51,2.1214263099412705
452,3745.2200000000003,2.21680659309835
453,3747.93,2.01199847625543
454,3750.64,2.08478515941251
455,3753.35,2.0522124425695902
456,3756.06,2.31158372572667
457,3758.77,2.23356000888375
458,3761.48,2.29218929204083
459,3764.2,2.206925845615464
460,3766.91,2.3203431287725436
461,3769.6200000000003,2.2995944119296237
462,3772.33,2.2803896950867033
463,3775.04,2.3771639782437832
464,3777.7500000000005,2.4890752614008633
465,3780.46,2.4325165445579433
466,3783.18,2.590167098132577
467,3785.89,2.4471513812896566
468,3788.6,2.4906806644467365
469,3791.31,2.352597947603817
470,3794.02,2.2694912307608965
471,3796.73,2.1904525139179762
472,3799.44,2.1759167970750566
473,3801.8939600000003,2.329594713819038
474,3802.15,2.345664201745887
475,3804.8700000000003,2.3856758631060266
476,3807.58,2.4667428823288136
477,3810.29,2.6170579015516005
478,3812.9999999999995,2.534474920774387
479,3815.71,2.4528699399971736
480,3818.42,2.4693199592199604
481,3821.1299999999997,2.461143978442747
482,3823.85,2.268407639802887
483,3826.56,2.2807526590256737
484,3829.27,2.1683086782484606
485,3831.98,2.116790697471247
486,3834.69,2.034056716694034
487,3837.4,2.0388707359168206
488,3840.11,2.1213307551396072
489,3842.82,2.2596337743623938
490,3845.54,2.3861784357225337
491,3848.2499999999995,2.497406454945321
492,3850.96,2.515476474168107
493,3853.67,2.519726493390894
494,3856.3799999999997,2.5368915126136806
495,3859.09,2.5475435318364674
496,3861.8,2.568662551059254
497,3864.5099999999998,2.6173465702820407
498,3867.23,2.686314231642181
499,3869.94,2.5651342508649675
500,3872.65,2.5397112700877544
501,3875.36,2.427153289310541
502,3878.07,2.3671633085333275
503,3880.7799999999997,2.336318327756114
504,3883.49,2.265821346978901
505,3886.21,2.300525008339041
506,3888.92,2.3128700275618277
507,3891.6299999999997,2.2663600467846146
508,3894.34,2.401387066007401
509,3897.05,2.3793160852301876
510,3899.7599999999998,2.381193104452975
511,3902.4700000000003,2.5420151236757613
512,3905.18,2.502095142898548
513,3907.9,2.597308804258688
514,3910.61,2.6043078234814745
515,3913.32,2.678332842704261
516,3916.0299999999997,2.711614861927048
517,3918.74,2.7415838811498348
518,3921.4500000000003,2.597169900372621
519,3924.16,2.449216919595408
520,3926.8799999999997,2.3371755809555483
521,3929.59,2.299740600178335
522,3932.3,2.1599206194011216
523,3935.0099999999998,2.1290376386239083
524,3937.7200000000003,2.202159657846695
525,3940.43,2.2671846770694817
526,3943.14,2.4182156962922683
527,3945.8500000000004,2.4966467155150545
528,3948.57,2.5167013768751954
529,3951.2799999999997,2.527427396097982
530,3953.99,2.5603704153207687
531,3956.7000000000003,2.530693434543555
532,3959.41,2.523684453766342
533,3962.12,2.4281464729891287
534,3964.83,2.2123374922119154
535,3967.54,2.063743511434702
536,3970.2599999999998,2.024831172794842
537,3972.9700000000003,2.0767521920176284
538,3975.68,2.1873412112404154
539,3978.39,2.4522042304632024
540,3981.1000000000004,2.6349032496859883
541,3983.81,2.6833602689087757
542,3986.52,2.771620288131562
543,3989.24,2.7934429494917024
544,3991.9500000000003,2.853648968714489
545,3994.66,2.7825499879372755
546,3997.37,2.851153007160062
547,4000.08,2.908987026382849
548,4002.79,2.853854045605636
549,4005.5,2.9009940648284225
550,4008.21,2.904755084051209
551,4010.93,2.9630647454113492
552,4013.64,2.963775764634136
553,4016.3500000000004,3.0382147838569225
554,4019.06,3.0403188030797095
555,4021.77,3.0366988223024958
556,4024.4799999999996,2.970533841525283
557,4027.19,2.876050860748069
558,4029.91,2.961059522108209
559,4032.62,2.972689541330996
560,4035.33,3.056580560553783
561,4038.04,2.9508775797765696
562,4040.75,2.9423995989993563
563,4043.46,2.9534276182221424
564,4046.17,2.8670416374449292
565,4048.88,2.9068006566677163
566,4051.6000000000004,2.926400318027856
567,4054.31,2.945185337250643
568,4057.02,2.9416793564734296
569,4059.7299999999996,2.8727643756962165
570,4062.44,2.840865394919003
571,4065.15,2.83449641414179
572,4067.8599999999997,2.8912004333645767
573,4070.58,2.858498094724716
574,4073.29,2.807056113947503
575,4076.0,2.79447413317029
576,4078.71,2.7725911523930766
577,4081.42,2.854712171615863
578,4084.13,2.90475219083865
579,4086.8399999999997,2.9078722100614365
580,4089.55,2.904779229284223
581,4092.27,2.8218818906443635
582,4094.9799999999996,2.71900190986715
583,4097.69,2.599064929089937
584,4100.400000000001,2.546605948312723
585,4103.11,2.58421796753551
586,4105.82,2.6570759867582967
587,4108.530000000001,2.6622300059810833
588,4111.24,2.6694170252038703
589,4113.96,2.70780868656401
590,4116.67,2.704866705786797
591,4119.38,2.7185677250095837
592,4122.09,2.74831074423237
593,4124.8,2.814993763455157
594,4127.51,2.9351097826779435
595,4130.22,2.87421480190073
596,4132.94,2.9214544632608703
597,4135.650000000001,2.915688482483657
598,4138.36,2.940046501706444
599,4141.07,2.8873615209292307
600,4143.780000000001,2.865027540152017
601,4146.49,2.851164559374804
602,4149.2,2.8589545785975905
603,4151.91,2.840686597820377
604,4154.63,2.9029132591805173
605,4157.34,2.886942278403304
606,4160.05,2.9181162976260904
607,4162.76,2.902484316848877
608,4165.47,2.8987133360716637
609,4168.18,2.8834953552944507
610,4170.89,2.9152343745172375
611,4173.61,2.853010035877378
