,lambda (Angstroms),Total Flux (erg/s/cm^2/Angstrom)
0,100.04,0.005026179278715248
1,101.89999999999999,0.006044633661557554
2,104.03,0.007209290781425373
3,104.712855,0.00758312611501043
4,105.97,0.0070131377123512206
5,107.94,0.0061208826660666
6,109.94999999999999,0.005217679211735595
7,114.07000000000001,0.0033536232629575967
8,118.08000000000001,0.0015394014863071724
9,120.22644299999999,0.0006522353164566054
10,121.11,0.0006706689336280285
11,125.08,0.0006211472554317942
12,127.11,0.0005929235910140721
13,127.99,0.0005851322847640253
14,130.97,0.0005435125635990935
15,131.88,0.0005618390071359769
16,134.02,0.0005321523919369987
17,137.14000000000001,0.0005305060697777413
18,138.038426,0.0005208576856498133
19,140.02,0.0005398447948184524
20,142.95000000000002,0.0010087609726553946
21,146.95,0.0018758250062211861
22,151.07,0.001989842863793951
23,154.95,0.0021260042733527687
24,158.489319,0.002260952580526455
25,158.92,0.00227720183269161
26,161.87,0.002391933728398579
27,166.03,0.0025619844898023044
28,169.89000000000001,0.0027097501770663385
29,173.05,0.0028357020246710914
30,177.08,0.002987278387280951
31,179.96,0.0031064382990219916
32,181.970086,0.0031931120290275127
33,182.04000000000002,0.0031962323149640594
34,185.85999999999999,0.0033593764826573016
35,191.06,0.0035719592763758514
36,194.17000000000002,0.003720289274157522
37,197.78,0.003893144194412131
38,201.92000000000002,0.004074346072488052
39,205.2,0.004205962603910522
40,208.929613,0.004259594359921052
41,209.98,0.004276658928138684
42,215.86,0.004714631954585059
43,219.88,0.004918351023686153
44,222.94000000000003,0.005014554598673553
45,227.07999999999998,0.005242935729538858
46,230.23999999999998,0.007804603689329767
47,233.98,0.012957612280981032
48,239.88329199999998,0.01605464956255584
49,239.98,0.016104991380511257
50,246.14000000000001,0.015269856026039502
51,251.87,0.016008761938194838
52,257.15,0.013237395920076195
53,260.12,0.015420340659884457
54,263.74,0.016097299298977356
55,269.26,0.0159775516436715
56,274.27,0.01582238246738847
57,275.42287,0.01577351290492815
58,278.72999999999996,0.0156459082674421
59,283.90999999999997,0.015585345008042838
60,289.85,0.014764994861164145
61,295.92,0.01487846011511134
62,300.73,0.014354619945669165
63,307.74,0.0144663319440497
64,316.227766,0.014538851304859131
65,317.82,0.014547035918830591
66,328.22999999999996,0.014205125601406287
67,338.20000000000005,0.01380833845782124
68,347.68,0.013360946439648098
69,356.59999999999997,0.01307610027908856
70,363.078055,0.012961748705091822
71,365.75000000000006,0.01292142902944195
72,375.13,0.012582713755965733
73,384.75,0.011842928027731061
74,394.61999999999995,0.011880783075789667
75,404.74,0.011678068900141551
76,414.17,0.011348759781923987
77,416.86938299999997,0.01122734290525108
78,421.87,0.011000171139385909
79,429.71000000000004,0.010686004124459797
80,440.74,0.010430486691470639
81,451.0,0.010089738393876007
82,460.45000000000005,0.009759814277670427
83,470.09000000000003,0.009462799192990872
84,478.630092,0.009267907771617864
85,479.93,0.0092362184425363
86,489.98,0.00882058208275354
87,500.24,0.008673993184109649
88,506.03000000000003,0.008437536612652716
89,511.89,0.008683140194908737
90,520.2099999999999,0.008443961321934354
91,529.88,0.008099380699138407
92,539.73,0.007664153043032915
93,549.5408739999999,0.0074062985276546625
94,549.77,0.007400413066802365
95,559.99,0.007397564150394649
96,570.4,0.007278777596597747
97,579.67,0.007001935867135954
98,590.4399999999999,0.006858161789864809
99,600.04,0.0065083641638849585
100,609.79,0.005772918403124172
101,619.6999999999999,0.006314439631930388
102,629.76,0.00607434572595567
103,630.957344,0.00606444031562825
104,640.0,0.005995737532736151
105,650.4,0.00581363078871334
106,657.9300000000001,0.005610800573089131
107,665.5500000000001,0.005613597243333956
108,674.81,0.0055049266116367224
109,685.77,0.0052208009352434515
110,695.31,0.005247911837360988
111,704.98,0.00493318413017824
112,716.4399999999999,0.005015343264168488
113,724.43596,0.004920844586690381
114,726.4,0.004897304821834727
115,734.82,0.004802009803515449
116,745.04,0.004667377764652859
117,755.4,0.004556997601970232
118,764.15,0.004172422363218013
119,774.7800000000001,0.004363711747453891
120,785.5600000000001,0.004205007213311156
121,794.65,0.004170059959567424
122,805.71,0.00410848817778462
123,815.04,0.004029998854635112
124,824.4799999999999,0.00397055979134129
125,831.763771,0.0037704184282311257
126,835.95,0.003652454460116811
127,845.63,0.00378651234998942
128,855.4200000000001,0.0036915813522469454
129,865.3199999999999,0.0036463204668893867
130,875.34,0.003593821885951736
131,885.48,0.003526289609433994
132,895.73,0.0034675994453011684
133,904.02,0.003380561642309839
134,914.49,0.0038289897029468445
135,925.08,0.008184357068003759
136,935.79,0.013641574737480582
137,944.45,0.02153856103978397
138,954.992586,0.027541513446024513
139,955.39,0.027767962000203733
140,964.2299999999999,0.031140680212288958
141,975.39,0.009489095118043607
142,984.4200000000001,0.027892695891248313
143,995.8100000000001,0.02802234031835812
144,1005.03,0.0367314796526823
145,1014.3299999999999,0.034841362907477844
146,1026.07,0.016547380736649856
147,1035.57,0.026276718792623794
148,1045.1499999999999,0.043932720769069095
149,1054.8200000000002,0.042934095906044675
150,1064.58,0.035323164203550535
151,1074.43,0.04044408566158667
152,1084.3700000000001,0.03266830028015309
153,1094.4099999999999,0.041286567299308706
154,1096.4782,0.04094487510102178
155,1104.53,0.039613315025375184
156,1114.75,0.03818236422085498
157,1125.07,0.03451102963155474
158,1135.48,0.04156416363595245
159,1145.98,0.03800092623404814
160,1153.93,0.03960142534403487
161,1164.6,0.04033329750800448
162,1175.38,0.029311013508716052
163,1186.26,0.03842973572464758
164,1194.48,0.028120230615728197
165,1205.53,0.021497152397533654
166,1213.8899999999999,0.013687103989922216
167,1225.12,0.026301812959123597
168,1233.61,0.037202203631298114
169,1245.03,0.04031320740941741
170,1253.66,0.03876679478289987
171,1258.92541,0.03657067895394585
172,1265.26,0.03393023958504484
173,1274.03,0.04182170795554227
174,1285.81,0.04319084724909527
175,1294.73,0.0354454181572865
176,1303.7,0.03479746991137567
177,1315.77,0.041629224111136676
178,1324.8899999999999,0.039850388402919636
179,1334.07,0.03577174370978012
180,1346.41,0.041062192477389965
181,1355.75,0.039668810491123835
182,1365.1399999999999,0.03593761935075564
183,1374.61,0.03711267956382413
184,1384.14,0.037283740791970145
185,1393.73,0.03248176303519367
186,1403.3899999999999,0.033315236462674314
187,1416.3799999999999,0.03432473622695728
188,1426.19,0.03472237219213172
189,1436.0800000000002,0.034402379510742855
190,1442.71,0.03585590167680876
191,1445.43977,0.03612842330481823
192,1446.0300000000002,0.03618734623966129
193,1456.0600000000002,0.03512256865632392
194,1466.1499999999999,0.03263223192493068
195,1476.3100000000002,0.03233464618747228
196,1486.5500000000002,0.032632391585939405
197,1493.41,0.032858458991553124
198,1503.76,0.03116794595191784
199,1510.7,0.02810937449345708
200,1517.67,0.029701133460968393
201,1524.6799999999998,0.028826662996442466
202,1535.25,0.02540771308060238
203,1545.89,0.027157474158697126
204,1556.6,0.025701566230726704
205,1563.79,0.026117928322033208
206,1574.6299999999999,0.027534122239941766
207,1585.54,0.028433217151785158
208,1596.54,0.028959763341544757
209,1603.9,0.028110767846693006
210,1615.02,0.0279812057403409
211,1626.2199999999998,0.026542034769914312
212,1633.7199999999998,0.027851771262932225
213,1645.0500000000002,0.028044872138384618
214,1656.4499999999998,0.025999744007771847
215,1659.58691,0.02683840965831997
216,1664.1000000000001,0.028045406525459716
217,1671.78,0.025236442888796968
218,1675.6299999999999,0.028112972107397022
219,1683.37,0.028963284692322847
220,1695.03,0.027287633754368726
221,1706.78,0.026184292148797465
222,1714.66,0.02501033925076329
223,1726.55,0.024782982162232032
224,1734.52,0.026186838596580716
225,1746.54,0.025477074988158033
226,1754.6000000000001,0.026982460754889578
227,1766.76,0.024674011663506894
228,1774.92,0.025305287799552722
229,1783.11,0.025597867046392837
230,1795.47,0.02717295869363873
231,1803.76,0.026740958309793134
232,1816.26,0.024906344474079026
233,1824.6499999999999,0.025252414459547713
234,1833.07,0.024287777555810693
235,1845.77,0.02221126445872516
236,1854.2900000000002,0.022519797924302424
237,1867.1499999999999,0.02330905141811975
238,1875.77,0.0246850352530113
239,1884.42,0.02299273219869714
240,1893.1200000000001,0.02236956432904012
241,1905.46072,0.023206852508789545
242,1906.2399999999998,0.023259539817258992
243,1915.04,0.02262762359504828
244,1923.88,0.021911612026372977
245,1937.22,0.021660058980430833
246,1946.16,0.02357611404559404
247,1955.1399999999999,0.022313033764292656
248,1968.6899999999998,0.024342692649411392
249,1977.7800000000002,0.02450922766533237
250,1982.34,0.02373411816836864
251,1996.0800000000002,0.023194161657780554
252,2005.3000000000002,0.023406689297691605
253,2014.55,0.022927452927754208
254,2023.8500000000001,0.02297887987473607
255,2033.19,0.022925151475253338
256,2047.29,0.023944086846483904
257,2056.74,0.022816613744223536
258,2066.23,0.022711265295498575
259,2075.77,0.024440170163692876
260,2085.35,0.030393779685422576
261,2094.97,0.028500563860687684
262,2104.6400000000003,0.02804409135287205
263,2114.36,0.029496272161975676
264,2124.12,0.028237127624614704
265,2133.92,0.02647652774078914
266,2143.77,0.029627451173882834
267,2153.67,0.029968017923895786
268,2163.61,0.027716139327444142
269,2173.59,0.0276514953845279
270,2183.63,0.030452353421914772
271,2187.7616199999998,0.030682479200750897
272,2193.71,0.03101522508633782
273,2203.83,0.03003448354848263
274,2214.0,0.026050307338997727
275,2224.2200000000003,0.027463996457883104
276,2234.4900000000002,0.032627440905138756
277,2244.8,0.03102085961509064
278,2255.17,0.02653723471908686
279,2265.58,0.0258764240857793
280,2276.03,0.02740668771516797
281,2286.54,0.03226064773860097
282,2297.09,0.0283647120247302
283,2302.39,0.031594766831979954
284,2313.02,0.028291609643501633
285,2323.69,0.022851866717719535
286,2334.42,0.023059680185981774
287,2345.19,0.01923619791694024
288,2356.02,0.026700572041943038
289,2366.8900000000003,0.01995011042964206
290,2372.35,0.022786572287676714
291,2383.2999999999997,0.01762464920076819
292,2394.3,0.01989843144222994
293,2405.35,0.01944529901206198
294,2416.45,0.021163701910264298
295,2427.61,0.02877554120251095
296,2433.2000000000003,0.02844524691430833
297,2444.43,0.032418443666273375
298,2455.7200000000003,0.03347015681228276
299,2467.05,0.030249944220988367
300,2472.74,0.027532960589526312
301,2484.15,0.021342636523624368
302,2495.62,0.02306930885176676
303,2507.14,0.031222316508279432
304,2511.88643,0.02127888723667832
305,2512.92,0.01911347969404454
306,2518.71,0.01743903088901663
307,2524.52,0.01780001125910088
308,2536.1699999999996,0.02294915076193764
309,2547.88,0.023692717790110895
310,2553.75,0.03572265568553165
311,2565.54,0.02878509941415357
312,2577.38,0.03457967108055591
313,2583.32,0.03161437608886924
314,2595.25,0.029167184043276326
315,2607.2200000000003,0.02606093034790774
316,2613.24,0.024269322056669738
317,2625.2999999999997,0.030313444649305903
318,2637.4199999999996,0.04581961476727856
319,2643.49,0.05953868441382097
320,2655.7,0.07861948081979837
321,2667.95,0.05292904557600013
322,2674.11,0.059234031510547284
323,2686.4500000000003,0.06705026255475378
324,2692.64,0.05088139725196919
325,2705.07,0.06099792458418043
326,2717.56,0.046072729441728154
327,2723.82,0.038597731251836145
328,2736.3900000000003,0.04712859280983255
329,2742.7000000000003,0.029224742557720954
330,2755.36,0.037269850403722105
331,2768.08,0.04677953577505975
332,2774.46,0.04976911263584074
333,2787.27,0.03260422429518313
334,2793.6899999999996,0.01771092950618845
335,2806.59,0.020410067453535588
336,2813.06,0.04464272060232133
337,2826.0400000000004,0.062145935250117135
338,2832.56,0.05880262633668328
339,2845.63,0.044616807272483835
340,2852.19,0.028704366709274315
341,2865.36,0.059311383520635697
342,2871.96,0.07690600130765052
343,2884.0315,0.07073572882341195
344,2885.22,0.07012828242279212
345,2891.8700000000003,0.08351692680968825
346,2911.91,0.1102852398944098
347,2932.1000000000004,0.09692164285251999
348,2952.42,0.09021965570090035
349,2972.8900000000003,0.09443673842266931
350,2986.61,0.09572760684194975
351,3007.3100000000004,0.0965795393695813
352,3028.16,0.10202654177060148
353,3049.15,0.10654752405345107
354,3070.28,0.11438440621813002
355,3091.57,0.11200068824775689
356,3113.0,0.12765347015921313
357,3127.36,0.11883595803828505
358,3149.04,0.11824833973872236
359,3170.87,0.12960092131254827
360,3192.85,0.11310660275976285
361,3207.59,0.125126390318086
362,3229.8199999999997,0.1064757715542816
363,3252.21,0.14621355265542513
364,3267.2200000000003,0.16937443998584778
365,3289.87,0.1658404208675316
366,3311.31121,0.15672581963084142
367,3312.6699999999996,0.15614818084480067
368,3320.3100000000004,0.14706255756975486
369,3327.9599999999996,0.15937603413335424
370,3335.63,0.1680201103742441
371,3343.32,0.15322218629242443
372,3351.0299999999997,0.1511028618878952
373,3358.76,0.16950533716065644
374,3366.5,0.1416363122720629
375,3374.26,0.1153918870607598
376,3382.04,0.13679536152674718
377,3389.83,0.16329413583137975
378,3397.6499999999996,0.14353050965194805
379,3405.48,0.17173108331116155
380,3413.33,0.15805565664766552
381,3421.2,0.16894202966145994
382,3429.09,0.16356320235254482
383,3436.99,0.1654329748822749
384,3444.91,0.11109134708929548
385,3452.8599999999997,0.17080541881225172
386,3460.82,0.1561204903738532
387,3468.79,0.1575442617740999
388,3476.79,0.14803373269028228
389,3484.81,0.16154030328375513
390,3492.8399999999997,0.1503967737158732
391,3500.89,0.1429529438252817
392,3508.96,0.17623311361198069
393,3517.0499999999997,0.14291358307597013
394,3525.16,0.14791385221725
395,3533.2799999999997,0.17656932119717514
396,3541.43,0.19047578969303594
397,3549.59,0.19088725802754197
398,3557.77,0.16855642603933846
399,3565.9800000000005,0.18649249356707062
400,3574.2000000000003,0.13082336093344804
401,3582.44,0.1308043279771159
402,3590.7,0.11158759469807421
403,3598.9700000000003,0.17678086125767775
404,3607.27,0.15574072733321695
405,3611.1,0.14052126553433927
406,3613.83,0.14871332148448652
407,3616.57,0.15719407727327897
408,3619.2999999999997,0.16344433322342622
409,3622.0299999999997,0.16277978917357347
410,3624.76,0.1576137451237207
411,3627.5,0.16389900091251317
412,3630.23,0.17913275686266042
413,3632.96,0.16683401281280766
414,3635.6899999999996,0.17065986876295489
415,3638.42,0.18375322471310213
416,3641.16,0.1880524805018946
417,3643.8900000000003,0.17392233645204183
418,3646.62,0.16630709240218905
419,3649.35,0.1797452483523363
420,3652.09,0.20496270414112877
421,3654.8199999999997,0.221305160091276
422,3657.55,0.21654201604142323
423,3660.28,0.2165835719915705
424,3663.0099999999998,0.22042872794171772
425,3665.75,0.22096568373051018
426,3668.48,0.21191343968065743
427,3671.2099999999996,0.20519469563080467
428,3673.94,0.2139494515809519
429,3676.68,0.1963594073697444
430,3679.4100000000003,0.1891331633198916
431,3682.14,0.17906861927003884
432,3684.87,0.18144907522018608
433,3687.6,0.18509013117033332
434,3690.3399999999997,0.1870144869591258
435,3693.07,0.20735644290927302
436,3695.8,0.23420499885942025
437,3698.5299999999997,0.22990245480956753
438,3701.27,0.21686891059835997
439,3704.0,0.2053895665485072
440,3706.7299999999996,0.18838812249865447
441,3709.46,0.17820227844880168
442,3712.19,0.20301253439894892
443,3714.9300000000003,0.2196049901877414
444,3717.66,0.20847584613788864
445,3720.39,0.19604480208803587
446,3723.12,0.22350845803818312
447,3725.85,0.2645647139883303
448,3728.59,0.27099846977712283
449,3731.32,0.24297812572727004
450,3734.0499999999997,0.20157488167741727
451,3736.78,0.17193813762756455
452,3739.52,0.16277189341635698
453,3742.2499999999995,0.17305184936650422
454,3744.98,0.1637320053166515
455,3747.71,0.1560587612667987
456,3750.44,0.16504521721694596
457,3753.18,0.18786037300573843
458,3755.91,0.19214122895588567
459,3758.64,0.18656708490603288
460,3761.37,0.17704314085618014
461,3764.11,0.18363169664497261
462,3766.84,0.19344825259511983
463,3769.5699999999997,0.21042250854526706
464,3772.3,0.21428696449541432
465,3775.0299999999997,0.22242382044556155
466,3777.7699999999995,0.22769657623435402
467,3780.5,0.24773513218450124
468,3783.23,0.2522698881346485
469,3785.96,0.22859094408479574
470,3788.7,0.21599879987358822
471,3791.4300000000003,0.20851875582373544
472,3794.16,0.1863898117738827
473,3796.89,0.19352826772402992
474,3799.6200000000003,0.19412142367417715
475,3801.8939600000003,0.20218506491997432
476,3802.36,0.20383768102980487
477,3805.0899999999997,0.2349090461582635
478,3807.82,0.22277051128672212
479,3810.5499999999997,0.21729287641518072
480,3813.28,0.22413074154363932
481,3816.02,0.19787990654436335
482,3818.75,0.181297771672822
483,3821.48,0.1777619368012806
484,3824.21,0.16287600192973922
485,3826.9500000000003,0.15420076693046325
486,3829.68,0.14093123205892188
487,3832.41,0.15788329718738048
488,3835.1400000000003,0.1306405623158391
489,3837.87,0.13643022744429772
490,3840.6099999999997,0.16415779244502174
491,3843.34,0.17595205757348037
492,3846.0699999999997,0.198619122701939
493,3848.8,0.18936008783039757
494,3851.54,0.20021275283112164
495,3854.27,0.19642321795958023
496,3857.0,0.18675588308803884
497,3859.73,0.19612014821649748
498,3862.4599999999996,0.1981393133449561
499,3865.2,0.2128948783456801
500,3867.93,0.21530584347413875
501,3870.6600000000003,0.20506750860259734
502,3873.39,0.20647717373105595
503,3876.1299999999997,0.19445053873177998
504,3878.86,0.1897535038602386
505,3881.5899999999997,0.18475306898869723
506,3884.32,0.20008613411715584
507,3887.05,0.19138969924561444
508,3889.7900000000004,0.1940008642463385
509,3892.52,0.20604062937479709
510,3895.25,0.21601449450325572
511,3897.9799999999996,0.22913825963171433
512,3900.72,0.22168462463243838
513,3903.45,0.22524568976089698
514,3906.1800000000003,0.21222995488935562
515,3908.91,0.2401129200178142
516,3911.6400000000003,0.25045648514627283
517,3914.38,0.24623815014699685
518,3917.1099999999997,0.2507259152754555
519,3919.84,0.2183972804039141
520,3922.57,0.19733854553237273
521,3925.2999999999997,0.18343451066083133
522,3928.04,0.15729707566155537
523,3930.77,0.12723834079001398
524,3933.5,0.10857080591847258
525,3936.23,0.1192093710469312
526,3938.97,0.14666393604765524
527,3941.7000000000003,0.16940000117611387
528,3944.43,0.19946736630457249
529,3947.1600000000003,0.21930183143303109
530,3949.89,0.2317470965614897
531,3952.6299999999997,0.25364356156221374
532,3955.36,0.23580912669067233
533,3958.09,0.21618479181913097
534,3960.8199999999997,0.19974055694758958
535,3963.56,0.16227232194831362
536,3966.29,0.13886078707677224
537,3969.02,0.12156425220523084
538,3971.75,0.15009241733368944
539,3974.48,0.17697968246214807
540,3977.2200000000003,0.2208867474628721
541,3979.95,0.24825381259133072
542,3982.6800000000003,0.26874477771978933
543,3985.41,0.28692994284824797
544,3988.1499999999996,0.303422807848972
545,3990.88,0.3077259729774306
546,3993.61,0.30430603810588924
547,3996.3399999999997,0.3056027032343478
548,3999.07,0.31338116836280644
549,4001.81,0.31531063336353043
550,4004.54,0.3124975984919891
551,4007.27,0.3153388636204477
552,4010.0000000000005,0.3234207287489063
553,4012.73,0.32543449387736495
554,4015.47,0.33351475887808896
555,4018.2000000000003,0.3471130240065476
556,4020.93,0.3375975891350062
557,4023.66,0.33117135426346483
558,4026.4,0.32854971926418886
559,4029.13,0.3249919843926475
560,4031.8599999999997,0.3134904495211061
561,4034.59,0.31327011464956467
562,4037.3199999999997,0.3307850797780233
563,4040.06,0.32973564477874734
564,4042.79,0.31409700990720596
565,4045.5200000000004,0.30965657503566457
566,4048.25,0.3222895401641232
