,lambda (Angstroms),Total Flux (erg/s/cm^2/Angstrom)
0,100.00999999999999,1.373724e-11
1,102.11,2.221107e-11
2,104.01,3.261471e-11
3,104.712855,3.841617349686531e-11
4,105.94,4.85452e-11
5,107.91,7.310445e-11
6,109.92,1.229295e-10
7,114.03999999999999,2.416514e-10
8,118.05,4.392355e-10
9,120.22644299999999,1.5745676530757325e-09
10,121.08000000000001,2.019822e-09
11,125.03999999999999,3.310515e-09
12,127.08000000000001,4.079411e-09
13,127.96,4.607549e-09
14,130.94,6.168114e-09
15,132.15,7.762052e-09
16,133.98999999999998,9.284285e-09
17,137.10999999999999,1.400853e-08
18,138.038426,1.5323333257888503e-08
19,139.98,1.807292e-08
20,142.91,6.02108e-08
21,146.91,1.910972e-07
22,151.03,2.487185e-07
23,154.9,3.245286e-07
24,158.489319,4.119596310935929e-07
25,158.88,4.214761e-07
26,161.82999999999998,5.074502e-07
27,165.98000000000002,6.530063e-07
28,169.85,8.173427e-07
29,173.01,9.661109e-07
30,177.04000000000002,1.189934e-06
31,179.91,1.384273e-06
32,181.970086,1.5287313558928235e-06
33,182.0,1.530829e-06
34,185.81,1.855545e-06
35,191.01,2.3381e-06
36,194.11999999999998,2.688209e-06
37,198.17999999999998,3.183787e-06
38,201.87,3.771258e-06
39,205.14999999999998,4.25675e-06
40,208.929613,4.794682234153973e-06
41,209.93,4.937062e-06
42,215.81,6.453297e-06
43,219.82000000000002,7.486559e-06
44,222.88,8.201976e-06
45,227.02,9.471751e-06
46,230.18,1.548851e-05
47,233.92,2.822042e-05
48,239.88329199999998,3.9359869333639994e-05
49,239.92,3.942844e-05
50,246.07,4.217705e-05
51,251.80999999999997,5.038764e-05
52,257.08000000000004,4.684825e-05
53,260.05,5.679928e-05
54,264.28,6.394349e-05
55,269.19,6.953264e-05
56,274.2,7.526127e-05
57,275.42287,7.670205303621568e-05
58,279.3,8.127008e-05
59,283.83,8.777576e-05
60,289.78000000000003,9.133119e-05
61,295.85,0.0001011274
62,301.34999999999997,0.0001069479
63,307.66,0.0001184108
64,316.227766,0.00013354052183664342
65,317.73,0.0001361933
66,328.14000000000004,0.0001523523
67,338.12,0.0001677119
68,348.39000000000004,0.0001829353
69,357.33,0.0001982114
70,363.078055,0.0002100367105057092
71,365.65,0.0002153279
72,375.03000000000003,0.0002300987
73,384.65,0.0002386134
74,395.43,0.0002632098
75,404.64,0.0002825737
76,414.06,0.0002964455
77,416.86938299999997,0.00030024987889341556
78,421.76,0.0003068726
79,429.59999999999997,0.0003183847
80,440.61999999999995,0.0003384941
81,450.88000000000005,0.0003509377
82,460.33,0.0003622286
83,469.96000000000004,0.0003765056
84,478.630092,0.00039109177548735027
85,479.81,0.0003930768
86,489.85,0.000400115
87,500.11,0.0004186372
88,505.90000000000003,0.0004276606
89,511.76,0.0005062206
90,520.0699999999999,0.0005226958
91,529.74,0.0005407319
92,539.59,0.0005403782
93,549.5408739999999,0.0006095357821889326
94,549.62,0.0006100857
95,559.84,0.0006730403
96,570.25,0.0007322625
97,579.52,0.0007301719
98,590.29,0.0008260685
99,599.88,0.0008545501
100,609.63,0.0009087321
101,619.53,0.001062032
102,629.6,0.001137051
103,630.957344,0.00114150502548739
104,639.8299999999999,0.00117062
105,650.23,0.001303204
106,657.76,0.001389949
107,665.37,0.001468878
108,674.63,0.001505702
109,685.5899999999999,0.001514439
110,695.1300000000001,0.00189657
111,704.8,0.001852024
112,716.2499999999999,0.002198321
113,724.43596,0.002290754131666667
114,726.21,0.002310786
115,734.62,0.002429999
116,744.8399999999999,0.00275546
117,755.21,0.002970025
118,765.71,0.003150101
119,774.58,0.003500307
120,785.3499999999999,0.00380744
121,794.45,0.004021112
122,805.5,0.004254309
123,814.83,0.004461983
124,824.26,0.004957071
125,831.763771,0.004407705990449863
126,835.7299999999999,0.004117331
127,845.4000000000001,0.005324407
128,855.1899999999999,0.005544966
129,865.1,0.00604635
130,875.11,0.006577949
131,885.2500000000001,0.007255268
132,895.5,0.007730471
133,905.87,0.007793586
134,914.2500000000001,0.01254698
135,924.8399999999999,0.09311726
136,935.55,0.2101389
137,944.2,0.412353
138,954.992586,0.598223034475027
139,955.14,0.6007618
140,963.9699999999999,0.6705547
141,975.13,0.09881628
142,984.1600000000001,0.548928
143,995.5500000000001,0.6065466
144,1004.77,0.9343921
145,1014.06,0.9187121
146,1025.8,0.3957966
147,1035.3,0.629607
148,1044.8799999999999,1.278415
149,1054.54,1.259677
150,1064.3,0.9768415
151,1074.1499999999999,1.194991
152,1084.0900000000001,0.9244729
153,1094.12,1.280604
154,1096.4782,1.2701368077272723
155,1104.24,1.235685
156,1114.46,1.184072
157,1124.77,1.058876
158,1135.1799999999998,1.400496
159,1145.68,1.266815
160,1156.28,1.371237
161,1164.3,1.422005
162,1175.07,0.957802
163,1185.95,1.395153
164,1194.1699999999998,0.9276244
165,1205.22,0.6422333
166,1216.37,0.4518482
167,1224.8,0.9565334
168,1236.13,1.502985
169,1244.7,1.665865
170,1256.22,1.584383
171,1258.92541,1.510786219101031
172,1264.9299999999998,1.34744
173,1273.69,1.795378
174,1285.48,1.89806
175,1294.3899999999999,1.455216
176,1306.3700000000001,1.442329
177,1315.4199999999998,1.86476
178,1324.54,1.78327
179,1333.7199999999998,1.555121
180,1346.06,1.904689
181,1355.3899999999999,1.846395
182,1364.79,1.632464
183,1374.25,1.735091
184,1383.77,1.757294
185,1396.5800000000002,1.523255
186,1406.26,1.59301
187,1416.01,1.62424
188,1425.82,1.686906
189,1435.7,1.672839
190,1442.33,1.779979
191,1445.43977,1.8126045029189177
192,1445.66,1.814915
193,1455.68,1.758775
194,1465.7700000000002,1.612805
195,1475.93,1.614057
196,1486.16,1.652886
197,1496.46,1.688709
198,1503.37,1.590034
199,1510.31,1.400425
200,1517.28,1.513925
201,1524.28,1.462
202,1534.8500000000001,1.256571
203,1545.48,1.407415
204,1556.2,1.326251
205,1563.38,1.350281
206,1574.22,1.447441
207,1585.1299999999999,1.526746
208,1596.1200000000001,1.562803
209,1603.48,1.536945
210,1614.6,1.548007
211,1625.79,1.454998
212,1633.3,1.561617
213,1644.62,1.587212
214,1656.02,1.454381
215,1659.58691,1.5245071975968578
216,1663.66,1.604585
217,1671.3400000000001,1.415899
218,1675.19,1.608293
219,1686.8,1.684086
220,1694.59,1.577604
221,1706.3400000000001,1.506412
222,1714.2099999999998,1.420926
223,1726.1000000000001,1.410838
224,1734.06,1.513828
225,1746.0800000000002,1.475547
226,1754.1399999999999,1.58317
227,1766.3000000000002,1.440018
228,1774.4499999999998,1.478825
229,1786.75,1.505617
230,1795.0,1.615234
231,1803.29,1.605991
232,1815.79,1.463818
233,1824.1699999999998,1.503045
234,1836.8100000000002,1.434429
235,1845.29,1.309598
236,1853.81,1.310929
237,1866.66,1.352765
238,1875.27,1.477898
239,1883.93,1.349103
240,1896.99,1.290108
241,1905.46072,1.37126155890411
242,1905.75,1.374033
243,1914.5400000000002,1.316339
244,1923.38,1.290363
245,1936.71,1.328054
246,1945.6499999999999,1.385273
247,1954.6299999999999,1.290743
248,1968.1799999999998,1.419971
249,1977.2600000000002,1.460688
250,1981.82,1.376217
251,1995.5600000000002,1.330637
252,2004.77,1.371812
253,2014.02,1.3168
254,2023.3200000000002,1.385877
255,2032.66,1.302922
256,2046.75,1.352635
257,2056.2,1.292217
258,2065.69,1.292642
259,2075.2200000000003,1.385505
260,2080.0099999999998,1.311191
261,2084.8,1.363714
262,2094.42,1.284754
263,2104.09,1.290932
264,2113.8,1.303087
265,2123.56,1.321368
266,2133.36,1.219178
267,2143.21,1.250506
268,2153.1,1.297434
269,2163.04,1.253368
270,2173.0299999999997,1.238935
271,2183.06,1.213398
272,2187.7616199999998,1.2386564846454804
273,2193.13,1.267497
274,2203.25,1.229884
275,2213.4300000000003,1.166187
276,2223.64,1.123714
277,2233.91,1.198199
278,2244.2200000000003,1.141563
279,2254.58,1.091673
280,2264.98,1.123762
281,2275.44,1.1568
282,2285.94,1.190813
283,2296.49,1.128335
284,2307.09,1.13247
285,2312.41,1.079758
286,2323.08,0.8470783
287,2333.81,1.010445
288,2344.58,0.9820179
289,2355.4,1.065915
290,2366.27,0.9824782
291,2377.19,1.016085
292,2382.67,0.9467586
293,2393.67,1.013552
294,2404.72,0.9737826
295,2415.8199999999997,1.000181
296,2426.97,1.063403
297,2432.57,1.020951
298,2443.7999999999997,1.085504
299,2455.07,1.072144
300,2466.41,1.06631
301,2477.79,1.029232
302,2483.5,1.061278
303,2494.97,1.001071
304,2506.48,1.114555
305,2511.88643,1.00615037275208
306,2512.26,0.9986599
307,2518.05,1.029777
308,2523.86,0.986419
309,2535.51,1.001618
310,2547.2099999999996,0.9870809
311,2553.08,1.058464
312,2564.8700000000003,1.035918
313,2576.71,1.098949
314,2582.65,1.087194
315,2594.5699999999997,1.076378
316,2606.54,1.041423
317,2612.55,1.030272
318,2624.61,1.078003
319,2636.73,1.115011
320,2642.8,1.206751
321,2655.0,1.233928
322,2667.26,1.121916
323,2673.4,1.175714
324,2685.74,1.177557
325,2691.94,1.125412
326,2704.36,1.158769
327,2716.8399999999997,1.105809
328,2723.11,1.104149
329,2735.68,1.160688
330,2741.98,1.016396
331,2754.64,1.041716
332,2767.35,1.08256
333,2773.73,1.13188
334,2786.54,1.077704
335,2792.96,0.8827656
336,2805.85,0.9474366
337,2812.3199999999997,1.129557
338,2825.3,1.184721
339,2831.81,1.140178
340,2844.89,1.113471
341,2858.02,1.077454
342,2864.61,1.182365
343,2877.83,1.18707
344,2884.0315,1.1828907689291097
345,2884.4599999999996,1.182602
346,2897.7799999999997,1.18184
347,2911.15,1.280235
348,2931.33,1.237041
349,2951.65,1.223175
350,2972.11,1.246227
351,2992.71,1.252327
352,3013.46,1.270107
353,3027.37,1.275243
354,3048.3500000000004,1.278576
355,3069.48,1.287868
356,3090.76,1.300212
357,3112.18,1.303683
358,3126.55,1.291056
359,3148.22,1.3005
360,3170.04,1.307027
361,3192.01,1.248731
362,3206.75,1.294968
363,3228.97,1.242951
364,3251.3599999999997,1.323285
365,3266.37,1.36916
366,3289.0099999999998,1.363546
367,3311.31121,1.3642062331907894
368,3311.81,1.364221
369,3319.44,1.371811
370,3327.0899999999997,1.382623
371,3334.7599999999998,1.425985
372,3342.4500000000003,1.350596
373,3350.15,1.415586
374,3357.8799999999997,1.371976
375,3365.62,1.290508
376,3373.38,1.268171
377,3381.15,1.344586
378,3388.95,1.415809
379,3396.7599999999998,1.359636
380,3404.59,1.405527
381,3412.44,1.346654
382,3420.3,1.398541
383,3428.19,1.393456
384,3436.09,1.401257
385,3444.01,1.28215
386,3451.95,1.423496
387,3459.91,1.370185
388,3467.8900000000003,1.364835
389,3475.88,1.390659
390,3483.89,1.372008
391,3491.92,1.401194
392,3499.97,1.308085
393,3508.04,1.373322
394,3516.13,1.317988
395,3524.23,1.367889
396,3532.36,1.406654
397,3540.4999999999995,1.436582
398,3548.6600000000003,1.470517
399,3556.84,1.427609
400,3565.04,1.444611
401,3573.2599999999998,1.330126
402,3581.5000000000005,1.321399
403,3589.54,1.136632
404,3592.22,1.337546
405,3594.8999999999996,1.289798
406,3597.5699999999997,1.238943
407,3600.25,1.283605
408,3602.92,1.312077
409,3605.6,1.442193
410,3608.27,1.37072
411,3610.95,1.289651
412,3613.6200000000003,1.204796
413,3616.3,1.263949
414,3618.9700000000003,1.298366
415,3621.65,1.465016
416,3624.33,1.488446
417,3627.0,1.511222
418,3629.6800000000003,1.546294
419,3632.35,1.510759
420,3635.03,1.447343
421,3637.7,1.516606
422,3640.3799999999997,1.541411
423,3643.0499999999997,1.027411
424,3645.73,1.144958
425,3648.4,1.333575
426,3651.08,1.241526
427,3653.7599999999998,1.435451
428,3656.43,1.544907
429,3659.1099999999997,1.37724
430,3661.78,1.567563
431,3664.46,1.446251
432,3667.13,1.441535
433,3669.81,1.594339
434,3672.48,1.453724
435,3675.1600000000003,1.271054
436,3677.8300000000004,1.315441
437,3680.51,1.45286
438,3683.19,1.236124
439,3685.86,1.353379
440,3688.54,1.445653
441,3691.2099999999996,1.513177
442,3693.8900000000003,1.34498
443,3696.56,1.388738
444,3699.24,1.383502
445,3701.91,1.544114
446,3704.5899999999997,1.412733
447,3707.26,1.312708
448,3709.94,1.36575
449,3712.62,1.660233
450,3715.29,2.104237
451,3717.97,3.01293
452,3720.64,4.849883
453,3723.32,7.502437
454,3725.9900000000002,10.14742
455,3728.67,10.93983
456,3731.34,9.075924
457,3734.02,5.980659
458,3736.6899999999996,3.345158
459,3739.3700000000003,2.182073
460,3742.05,1.618764
461,3744.7200000000003,1.408047
462,3747.4,1.382424
463,3750.0699999999997,1.295052
464,3752.7500000000005,1.349336
465,3755.42,1.455363
466,3758.1,1.55605
467,3760.77,1.604429
468,3763.45,1.49095
469,3766.12,1.611518
470,3768.7999999999997,1.598199
471,3771.48,1.557091
472,3774.15,1.664212
473,3776.83,1.610899
474,3779.5,1.663054
475,3782.18,1.757447
476,3784.8500000000004,1.767554
477,3787.53,1.694682
478,3790.2000000000003,1.792728
479,3792.88,1.59651
480,3795.5499999999997,1.445146
481,3798.23,1.440522
482,3800.9100000000003,1.535711
483,3801.8939600000003,1.5771589330337148
484,3803.58,1.648181
485,3806.26,1.747841
486,3808.93,1.730457
487,3811.61,1.680439
488,3814.2799999999997,1.679616
489,3816.9599999999996,1.650895
490,3819.63,1.711082
491,3822.31,1.569018
492,3824.98,1.615427
493,3827.66,1.397133
494,3830.3399999999997,1.32552
495,3833.01,1.325275
496,3835.69,1.39766
497,3838.36,1.240318
498,3841.04,1.257572
499,3843.71,1.556418
500,3846.39,1.671994
501,3849.0600000000004,1.674648
502,3851.7400000000002,1.785271
503,3854.41,1.775174
504,3857.09,1.876523
505,3859.77,1.966279
506,3862.4399999999996,2.23275
507,3865.1200000000003,2.656208
508,3867.79,2.919038
509,3870.47,2.873655
510,3873.14,2.573081
511,3875.8199999999997,2.281767
512,3878.49,1.978045
513,3881.17,1.87321
514,3883.84,1.779977
515,3886.52,1.851185
516,3889.2,1.835116
517,3891.87,1.834956
518,3894.55,1.701636
519,3897.2200000000003,1.694851
520,3899.9,1.809283
521,3902.57,1.805976
522,3905.25,1.753142
523,3907.9199999999996,1.791237
524,3910.6000000000004,1.88414
525,3913.27,2.066482
526,3915.9500000000003,2.020438
527,3918.63,1.979859
528,3921.2999999999997,1.851682
529,3923.9800000000005,1.845385
530,3926.6499999999996,1.792726
531,3929.33,1.572014
532,3932.0,1.451951
533,3934.68,1.456221
534,3937.35,1.462849
535,3940.0299999999997,1.523012
536,3942.7000000000003,1.62162
537,3945.38,1.761424
538,3948.06,1.801166
539,3950.73,1.768546
540,3953.41,1.808454
541,3956.08,1.904844
542,3958.76,1.860291
543,3961.4300000000003,1.916438
544,3964.11,1.910471
545,3966.7799999999997,1.949395
546,3969.46,1.863439
547,3972.1299999999997,1.858145
548,3974.81,1.733602
549,3977.4900000000002,1.72333
550,3980.16,1.80084
551,3982.84,1.89308
552,3985.5099999999998,1.947571
553,3988.1899999999996,2.119304
554,3990.86,2.078238
555,3993.54,2.114833
556,3996.21,2.099934
557,3998.89,2.074757
558,4001.56,2.21934
559,4004.2400000000002,2.183563
560,4006.92,2.09297
561,4009.59,2.131894
562,4012.27,2.146794
563,4014.94,2.35464
564,4017.62,2.169152
565,4020.2900000000004,2.215198
566,4022.9700000000003,2.144312
567,4025.64,2.273162
568,4028.32,2.158555
569,4030.99,2.313406
570,4033.6699999999996,2.169321
571,4036.3500000000004,2.15408
572,4039.02,2.218839
573,4041.7,2.297333
574,4044.37,2.326817
575,4047.0499999999997,2.099762
576,4049.72,2.181579
577,4052.4,2.245002
578,4055.07,2.156904
579,4057.75,2.043457
580,4060.42,2.151109
581,4063.1,2.23308
582,4065.7799999999997,2.373843
583,4068.4500000000003,2.272
584,4071.13,2.380138
585,4073.8,2.348347
586,4076.48,2.197968
587,4079.15,2.140673
588,4081.8300000000004,2.206747
589,4084.5,2.172471
590,4087.1800000000003,2.203601
591,4089.85,2.134713
592,4092.5299999999997,2.180251
593,4095.21,1.998573
594,4097.88,2.177437
595,4100.5599999999995,2.335092
596,4103.23,2.330792
597,4105.91,2.153254
598,4108.58,2.027727
599,4111.26,1.959989
600,4113.93,2.068799
601,4116.61,2.106223
602,4119.28,2.110369
603,4121.96,2.121791
604,4124.64,2.168653
605,4127.31,2.048758
606,4129.99,2.052893
607,4132.66,1.985827
608,4135.34,2.133381
609,4138.009999999999,2.246167
610,4140.6900000000005,2.168491
611,4143.36,2.153923
612,4146.04,2.179919
613,4148.71,2.153096
614,4151.389999999999,2.066477
615,4154.070000000001,2.19068
616,4156.74,2.115829
617,4159.42,2.23821
618,4162.09,2.265376
619,4164.7699999999995,2.257256
620,4167.44,2.229109
621,4170.12,2.15342
622,4172.79,2.077577
623,4175.47,2.073763
624,4178.14,2.055883
625,4180.82,2.036668
626,4183.5,2.155902
627,4186.17,2.290548
628,4188.85,2.155571
629,4191.52,2.20261
630,4194.2,2.130234
631,4196.87,2.070454
632,4199.55,2.171803
633,4202.22,2.037333
634,4204.9,2.103904
635,4207.57,2.226295
636,4210.25,2.270674
637,4212.929999999999,2.286402
638,4215.599999999999,2.119142
639,4218.28,2.20807
640,4220.95,2.292205
641,4223.63,2.218173
642,4226.3,2.252957
643,4228.98,2.110031
644,4231.650000000001,2.05671
645,4234.33,2.131064
646,4237.0,2.134547
647,4239.68,2.282763
648,4242.36,2.274147
649,4245.03,2.291376
650,4247.71,2.306276
651,4250.38,2.278128
652,4253.06,2.243511
653,4255.73,2.327315
654,4258.41,2.312571
655,4261.08,2.151604
656,4263.76,2.245501
657,4266.43,2.269685
658,4269.11,2.257425
659,4271.79,2.19482
660,4274.46,2.148952
661,4277.139999999999,2.189521
662,4279.81,2.211222
663,4282.49,2.187866
664,4285.16,2.174954
665,4287.84,2.176275
666,4290.51,2.075424
667,4293.1900000000005,2.017622
668,4295.860000000001,1.996925
669,4298.54,2.032196
670,4301.22,1.947068
671,4303.89,1.863109
672,4306.57,1.828659
673,4309.24,1.857976
674,4311.92,1.932331
675,4314.59,1.982847
676,4317.27,2.087011
677,4319.94,2.182242
678,4322.62,2.196645
679,4325.29,2.20046
680,4327.97,2.178098
681,4330.65,2.169482
682,4333.32,2.363913
683,4336.0,2.670451
684,4338.67,3.020723
685,4341.35,3.132833
686,4344.02,2.991908
687,4346.7,2.61249
688,4349.37,2.343711
689,4352.05,2.218837
690,4354.72,2.155248
691,4357.400000000001,2.2614
692,4360.08,2.322836
693,4362.75,2.410449
694,4365.15832,2.45166811570148
695,4365.43,2.456318
696,4368.099999999999,2.505014
697,4370.780000000001,2.391235
698,4373.45,2.325659
699,4376.13,2.321514
700,4378.8,2.21288
701,4381.48,2.129077
702,4384.15,2.103413
703,4386.83,2.176773
704,4389.51,2.170144
705,4392.18,2.121957
706,4394.86,2.156897
707,4397.53,2.215031
708,4400.21,2.274977
709,4402.88,2.152762
710,4405.56,2.254442
711,4408.2300000000005,2.281277
712,4410.91,2.206913
713,4413.58,2.21818
714,4416.26,2.271833
715,4418.9400000000005,2.347678
716,4421.610000000001,2.367391
717,4424.29,2.394877
718,4426.96,2.427342
719,4429.64,2.394712
720,4432.3099999999995,2.368883
721,4434.99,2.387261
722,4437.66,2.397038
723,4440.34,2.385771
724,4443.01,2.416581
725,4445.69,2.373683
726,4448.37,2.459629
727,4451.04,2.473546
728,4453.72,2.42982
729,4456.39,2.297339
730,4459.07,2.263716
731,4461.74,2.35729
732,4464.42,2.342215
733,4467.09,2.449205
734,4469.77,2.551216
735,4472.44,2.564802
736,4475.12,2.587816
737,4477.8,2.489605
738,4480.469999999999,2.497891
739,4483.150000000001,2.401171
740,4485.82,2.308435
741,4488.5,2.403987
742,4491.17,2.453344
743,4493.849999999999,2.472881
744,4496.5199999999995,2.441587
745,4499.2,2.452181
746,4501.87,2.555031
747,4504.55,2.581523
748,4507.23,2.529351
749,4509.9,2.61034
750,4512.58,2.547238
751,4515.25,2.469076
752,4517.93,2.528691
753,4520.6,2.558672
754,4523.28,2.466754
755,4525.95,2.414592
756,4528.63,2.429658
757,4531.3,2.322515
758,4533.9800000000005,2.329134
759,4536.66,2.41508
760,4539.33,2.368881
761,4542.01,2.447045
762,4544.679999999999,2.400679
763,4547.36,2.403987
764,4550.03,2.383788
765,4552.71,2.387592
766,4555.38,2.46974
767,4558.0599999999995,2.477022
768,4560.7300000000005,2.500048
769,4563.41,2.548567
770,4566.09,2.555517
771,4568.76,2.462782
772,4571.44,2.491924
773,4574.11,2.519256
774,4576.79,2.516104
775,4579.46,2.461128
776,4582.14,2.473047
777,4584.81,2.426848
778,4587.49,2.432473
779,4590.16,2.415918
780,4592.84,2.366727
781,4595.52,2.436444
782,4598.19,2.431647
783,4600.87,2.387094
784,4603.54,2.486465
785,4606.219999999999,2.369705
786,4608.89,2.467586
787,4611.57,2.509315
788,4614.24,2.573909
789,4616.92,2.485469
790,4619.59,2.491602
791,4622.27,2.505177
792,4624.95,2.573403
793,4627.62,2.572912
794,4630.3,2.586984
795,4632.97,2.524721
796,4635.65,2.532334
797,4638.320000000001,2.472886
798,4641.0,2.573903
799,4643.67,2.553374
800,4646.35,2.527036
801,4649.0199999999995,2.500214
802,4651.7,2.47752
803,4654.38,2.563798
804,4657.05,2.6062
805,4659.7300000000005,2.62938
806,4662.4,2.534823
807,4665.08,2.461619
808,4667.75,2.463115
809,4670.43,2.353973
810,4673.1,2.472059
811,4675.78,2.56728
812,4678.45,2.633364
813,4681.13,2.75442
814,4683.8099999999995,2.805256
815,4686.4800000000005,2.852627
816,4689.16,2.835067
817,4691.83,2.758065
818,4694.51,2.700759
819,4697.18,2.622763
820,4699.860000000001,2.514615
821,4702.53,2.487958
