,lambda (Angstroms),Total Flux (erg/s/cm^2/Angstrom)
0,100.05,26.676483155137095
1,101.91000000000001,26.602291619980658
2,104.04,26.517323441667497
3,104.712855,26.490484549079078
4,105.97,26.227029904104665
5,107.95,25.81209519949009
6,109.94999999999999,25.393000653604677
7,114.08,24.52751629992328
8,118.09,23.687182428367006
9,120.22644299999999,23.23995147575916
10,121.11999999999999,23.083162618215084
11,125.08,22.387559069602116
12,127.11999999999999,22.02919700668029
13,128.0,21.87463442965518
14,130.98,21.351141008092906
15,131.89,21.191477609260126
16,134.03,20.81554264831271
17,137.15,20.267727635314614
18,138.038426,20.11167208259105
19,140.02,19.86290621801421
20,142.96,19.496908165398622
21,146.96,19.00095509401006
22,151.08,18.48419749726984
23,154.95,17.998970020428914
24,158.489319,17.555286964748966
25,158.93,17.513547383919047
26,161.88000000000002,17.234124299043767
27,166.04000000000002,16.840211457321352
28,169.9,16.474548364569298
29,173.05999999999997,16.175267349414767
30,177.09,15.79350106024617
31,179.97,15.52070082213065
32,181.970086,15.331265430991722
33,182.06,15.324773515656748
34,185.87,15.049672913896812
35,191.07,14.674125208502677
36,194.18,14.449712707853488
37,197.79000000000002,14.18906550783948
38,201.92999999999998,13.890171032698767
39,205.21,13.653320816065538
40,208.929613,13.383925272927973
41,209.99,13.326189689692905
42,215.88,13.007868398785583
43,219.89000000000001,12.790529759831696
44,222.95,12.624283400056418
45,227.09,12.399988624478093
46,230.25,12.24310706268401
47,233.99,12.069705795180887
48,239.88329199999998,11.76696241425216
49,240.0,11.76242501237452
50,246.15,11.498427606792852
51,251.89,11.261923570916627
52,257.15999999999997,11.024232437873474
53,260.14,10.911716515868049
54,263.76,10.76398860383461
55,269.28000000000003,10.53126373609301
56,274.28999999999996,10.31974171993624
57,275.42287,10.271882442076041
58,278.74,10.164119517827872
59,283.92,9.996458010368451
60,289.87,9.799851437070465
61,295.94,9.6043518175379
62,300.75,9.446585068468433
63,307.75,9.221129758117863
64,316.227766,8.948073036706324
65,317.84,8.909287850923288
66,328.25,8.656843228413518
67,338.21999999999997,8.41432194181194
68,347.70000000000005,8.183510180880848
69,356.62,7.967256789287463
70,363.078055,7.811317327881388
71,365.77,7.762577373854758
72,375.15,7.591337666499009
73,384.77,7.413442009488102
74,394.64,7.236074887419738
75,404.77,7.052389934891622
76,414.19,6.880674555926677
77,416.86938299999997,6.8316305519416165
78,421.89,6.7611086415324095
79,429.74,6.651231479091756
80,440.76,6.498190510047679
81,451.03,6.354750511682647
82,460.46999999999997,6.222813707002421
83,470.10999999999996,6.088549154807784
84,478.630092,5.97024835416441
85,479.96,5.956007519999751
86,490.01000000000005,5.847258141639143
87,500.27000000000004,5.73816554289488
88,506.06,5.675346002316977
89,511.92,5.614897181611189
90,520.24,5.525512056411165
91,529.9100000000001,5.421288438744788
92,539.76,5.314405740749565
93,549.5408739999999,5.209420169164067
94,549.8,5.207288995784284
95,560.02,5.125062144160045
96,570.4300000000001,5.040682008092693
97,579.7,4.964300628684017
98,590.48,4.876451590806394
99,600.0699999999999,4.796878214967212
100,609.82,4.713822815912777
101,619.73,4.63734405364309
102,629.8,4.554580488158151
103,630.957344,4.545214296769529
104,640.0300000000001,4.486968749427836
105,650.4300000000001,4.419292317159641
106,657.9699999999999,4.3698231420152
107,665.58,4.321262102605492
108,674.84,4.261480664085926
109,684.23,4.199557124788007
110,695.35,4.128648704362783
111,705.02,4.064863678003797
112,716.48,3.99211483400442
113,724.43596,3.9407422116351647
114,726.45,3.9310584816700795
115,734.86,3.8906004249333623
116,745.08,3.841173767186722
117,755.45,3.791276084991745
118,764.19,3.7473641464686884
119,774.8199999999999,3.6981411058965956
120,785.6,3.6458143708761668
121,794.7,3.602543237677103
122,805.76,3.54972804901978
123,815.09,3.504949610333268
124,824.52,3.459797215347865
125,831.763771,3.423964619043182
126,834.0699999999999,3.4153226228311486
127,845.6700000000001,3.3750127294605994
128,855.47,3.339672944716515
129,865.37,3.3042786472709604
130,875.3900000000001,3.2684212805836412
131,885.5300000000001,3.2320630746545578
132,895.7800000000001,3.1953222227538576
133,904.07,3.165434101801974
134,914.54,3.1295867679580396
135,925.13,3.1066342248723395
136,935.84,3.0853926825448763
137,944.5000000000001,3.074873320597552
138,954.992586,3.051977195924157
139,955.44,3.0510351952194767
140,964.28,3.027608863675784
141,975.45,2.932823617799873
142,984.47,2.944395141586739
143,995.87,2.9047961091887635
144,1005.09,2.8944408355651383
145,1014.39,2.8594083609773175
146,1026.1299999999999,2.774038471981508
147,1035.63,2.7650747599831953
148,1045.21,2.773131217020687
149,1054.8799999999999,2.736318146723457
150,1064.64,2.6826416390915067
151,1074.49,2.6605345241248353
152,1084.43,2.605731871823443
153,1094.47,2.593121555816805
154,1096.4782,2.58512383620791
155,1104.6000000000001,2.55789192860017
156,1114.82,2.5250588829031186
157,1125.13,2.4856546631050156
158,1135.54,2.4738038587501916
159,1146.05,2.435550739838644
160,1153.99,2.415994218034868
161,1164.67,2.386571411376892
162,1175.45,2.3268456601621934
163,1186.32,2.3198808448464447
164,1194.55,2.2732132098281737
165,1205.6,2.225763426310324
166,1213.96,2.183931005368313
167,1225.19,2.1828490436483627
168,1233.68,2.1829436567826117
169,1245.1,2.156640526404889
170,1253.73,2.1279378031597274
171,1258.92541,2.108556008795873
172,1265.3300000000002,2.0898931087280967
173,1274.1,2.089664262777304
174,1285.89,2.0684670591444814
175,1294.8000000000002,2.0311615070097533
176,1303.78,2.011732431783058
177,1315.8400000000001,2.0035912505097895
178,1324.96,1.9804129890991589
179,1334.15,1.9517943445965602
180,1346.49,1.939312010955422
181,1355.8200000000002,1.9169361802688885
182,1365.22,1.8885910764903877
183,1374.69,1.871681839619919
184,1384.2099999999998,1.8523816991123312
185,1393.81,1.8192941407853513
186,1403.47,1.8009732240938277
187,1416.46,1.7795215231701333
188,1426.27,1.7602142155672509
189,1436.1599999999999,1.7399686901449771
190,1442.79,1.7294904058629068
191,1445.43977,1.7246015131871166
192,1446.12,1.7237629579777665
193,1456.1399999999999,1.706791114853813
194,1466.23,1.6866412477359793
195,1476.3999999999999,1.6717049746251407
196,1486.6299999999999,1.6577706695195475
197,1493.49,1.6484295081193157
198,1503.84,1.6294988490242144
199,1510.79,1.6122424596318514
200,1517.76,1.605908306241237
201,1524.77,1.5942014648541196
202,1535.33,1.5705408237773788
203,1545.98,1.5581966047085056
204,1556.69,1.5400324836448789
205,1563.8799999999999,1.5315566962734992
206,1574.72,1.519611529221238
207,1585.63,1.506173698175097
208,1596.6299999999999,1.491547639136825
209,1603.9999999999998,1.4792451057811828
210,1615.11,1.4630598247525277
211,1626.31,1.4440721457317414
212,1633.82,1.4365808143883394
213,1645.1399999999999,1.4208676913780445
214,1656.54,1.4004247323747443
215,1659.58691,1.3978292791138012
216,1664.19,1.3958600066704219
217,1671.8700000000001,1.3816778139172257
218,1675.73,1.3847278138615826
219,1683.46,1.3787884019107741
220,1695.1299999999999,1.3632235951881437
221,1706.88,1.3490913937493336
222,1714.76,1.3382029342056894
223,1726.65,1.3258790770135658
224,1734.6100000000001,1.3211811527537427
225,1746.64,1.3077068798083058
226,1754.6999999999998,1.3028499471532586
227,1766.8600000000001,1.2858845502940306
228,1775.02,1.2786141092437595
229,1783.21,1.2714598526749208
230,1795.57,1.2626362290252453
231,1803.86,1.2536872340611829
232,1816.36,1.2365522246581937
233,1824.75,1.2291822312989074
234,1833.17,1.218695292421054
235,1845.88,1.2010775943880945
236,1854.3999999999999,1.1932355971150173
237,1862.9599999999998,1.1864774024838505
238,1875.8700000000001,1.1770337376604432
239,1884.5300000000002,1.1643496846340522
240,1893.23,1.1542652242495715
241,1905.46072,1.1443175439044122
242,1906.35,1.1438297667018245
243,1915.1499999999999,1.1355870509753163
244,1923.9899999999998,1.127378800995506
245,1932.87,1.120578626762393
246,1946.27,1.115339081906119
247,1955.25,1.1056188320397502
248,1968.81,1.1007693201702673
249,1977.8899999999999,1.094433004670643
250,1982.45,1.0895652997941792
251,1996.1999999999998,1.0784422002215104
252,2005.41,1.072382078398653
253,2014.67,1.0645261787591684
254,2023.97,1.0578949048663813
255,2033.3100000000002,1.0508632867202918
256,2042.69,1.0465844143209002
257,2056.85,1.0332721086518823
258,2066.35,1.0263712434925838
259,2075.88,1.0237842776433081
260,2085.4700000000003,1.0363872904140792
261,2095.09,1.0242457924948738
262,2104.7599999999998,1.0162372567590405
263,2114.48,1.0137283932065788
264,2124.2400000000002,1.0025767554008151
265,2134.04,0.9913052133417493
266,2143.89,0.9937765634660554
267,2153.79,0.9871182357737336
268,2163.73,0.9732369338281096
269,2173.7200000000003,0.9661473440658573
270,2183.75,0.9682625700503031
271,2187.7616199999998,0.9654964060994284
272,2193.83,0.9627377393695787
273,2203.96,0.955741111860263
274,2214.13,0.9387074677368927
275,2224.35,0.9391194928459544
276,2234.62,0.9498807471874477
277,2244.93,0.9406609849148867
278,2255.29,0.9214670118747572
279,2265.7,0.9135215780670598
280,2276.1600000000003,0.9128363534917938
281,2286.67,0.9240984581489602
282,2297.2200000000003,0.9065766261920715
283,2302.52,0.9151799248298433
284,2313.15,0.8991784296448455
285,2323.82,0.8794990478457934
286,2334.55,0.8732843211256595
287,2345.33,0.8562514636379575
288,2356.15,0.8740175695362006
289,2367.0299999999997,0.8480811405133621
290,2372.48,0.8539724968484291
291,2383.43,0.8334596287509954
292,2394.44,0.8345903157324794
293,2405.4900000000002,0.8284963760999088
294,2416.59,0.8280937356997703
295,2427.75,0.8474408303785501
296,2433.34,0.844726548564426
297,2444.57,0.8520625841686101
298,2455.86,0.8509853048517124
299,2467.19,0.8332575489207602
300,2472.88,0.8222395355715001
301,2484.3,0.7943088022589249
302,2495.7599999999998,0.7957367223322956
303,2507.28,0.816607787484584
304,2511.88643,0.7832388318909055
305,2513.06,0.7748845089548841
306,2518.86,0.7672751514061582
307,2524.6600000000003,0.7669337838574322
308,2536.31,0.7809409814535258
309,2542.16,0.7812362565983451
310,2553.9,0.8217685010428205
311,2565.6800000000003,0.7915860696421319
312,2577.53,0.8085161680124073
313,2583.47,0.7951984500056087
314,2595.3900000000003,0.7824778781468475
315,2607.37,0.7677552475203413
316,2613.38,0.7594533392845062
317,2625.45,0.7759909655063817
318,2637.57,0.8326610544218023
319,2643.65,0.880626085956931
320,2655.8500000000004,0.9556418031820244
321,2661.9700000000003,0.8499695888719895
322,2674.2599999999998,0.8693742529454651
323,2686.6,0.8978568097124858
324,2692.79,0.8317656651734147
325,2705.22,0.8680642687888173
326,2717.71,0.8052237036364746
327,2723.9799999999996,0.770546667407076
328,2736.5499999999997,0.799239310564406
329,2742.8599999999997,0.7328889684898438
330,2755.52,0.7586970184955555
331,2761.8700000000003,0.7927723905758295
332,2774.62,0.7984291274299233
333,2787.42,0.7292829569775625
334,2793.85,0.6755420073675096
335,2806.75,0.6801658023022394
336,2813.2200000000003,0.7649255868470226
337,2826.2,0.8270068100914256
338,2832.7200000000003,0.8116619373297541
339,2845.7900000000004,0.7492450074225387
340,2852.3500000000004,0.688307168815704
341,2865.5199999999995,0.7996313442955798
342,2872.1200000000003,0.8740885798435811
343,2884.0315,0.8456655510753338
344,2885.38,0.8425928254880821
345,2892.0299999999997,0.9015619211030217
346,2912.0800000000004,1.0095527492352825
347,2932.27,0.9488243751699634
348,2952.59,0.9144458847783196
349,2973.06,0.9257992063178402
350,2986.78,0.9275843909549781
351,3007.48,0.9235777374556169
352,3028.3300000000004,0.9458220958874193
353,3049.3199999999997,0.9585738521216418
354,3070.46,0.9934843202870283
355,3091.7400000000002,0.9762737862548343
356,3113.17,1.0461478641538047
357,3127.54,1.0029272671593206
358,3149.22,0.9980044982768974
359,3171.05,1.0439975413256386
360,3193.03,0.9654647963055435
361,3207.77,1.0130865220745973
362,3230.0,0.9255220302731093
363,3252.39,1.1017701645315294
364,3267.41,1.2031805859054228
365,3290.0600000000004,1.1837668875111937
366,3311.31121,1.135644933189495
367,3312.86,1.132254619159496
368,3320.5,1.0931862636062135
369,3328.15,1.1515672764357148
370,3335.8199999999997,1.1840101260307834
371,3343.51,1.1190012123914193
372,3351.22,1.1090331355176226
373,3358.95,1.189021695409393
374,3366.69,1.0725151236839472
375,3374.45,0.9394930887240687
376,3382.23,1.0351772905297574
377,3390.03,1.1539511291010136
378,3397.8399999999997,1.0666484360550534
379,3405.67,1.1926810797746605
380,3413.53,1.1303313286426186
381,3421.3900000000003,1.1805490775105767
382,3429.28,1.1453660315268859
383,3437.19,1.1554307223087623
384,3445.11,0.8970587814734224
385,3453.0499999999997,1.1930438774036498
386,3461.0099999999998,1.0520106100994446
387,3468.9900000000002,1.1118333795608066
388,3476.99,1.0651157857877362
389,3484.9999999999995,1.128164960397449
390,3493.04,1.0216072401555132
391,3501.09,1.1057911882963607
392,3509.16,1.180344173202776
393,3517.25,1.042461794874758
394,3525.36,1.0581930533123078
395,3533.48,1.1942372801326413
396,3541.63,1.2585483121013255
397,3549.79,1.2556036124527934
398,3557.98,1.1485873179526123
399,3566.18,1.1986302918352152
400,3574.3999999999996,0.974852602483385
401,3582.6400000000003,0.9636677498971222
402,3590.9,0.8934347340764268
403,3599.1800000000003,1.2397217550212987
404,3607.47,1.0893229443489543
405,3615.79,1.121103738824961
406,3624.1299999999997,1.0298253700665347
407,3632.48,1.3078761696908923
408,3640.85,1.245597906080817
409,3649.2400000000002,1.1394055792363094
410,3657.66,1.3726723575401525
411,3666.09,1.4007244042267792
412,3674.54,1.3639898876789736
413,3683.0099999999998,1.200962507896735
414,3691.5,1.1694930648800637
415,3700.01,1.33279525862896
416,3708.54,1.0797430891434232
417,3717.09,1.4364721564234542
418,3725.6600000000003,0.9971347604690521
419,3734.25,1.2126147012802178
420,3742.86,1.1731554788569505
421,3751.48,0.8853473248164668
422,3760.1299999999997,1.2855720759243343
423,3768.7999999999997,1.143389263797769
424,3777.4900000000002,1.321024488436771
425,3786.2000000000003,1.4452248498413405
426,3794.9300000000003,1.191599348011477
427,3801.8939600000003,1.134462101219699
428,3803.67,1.1199845619926712
429,3812.44,1.3214811167517342
430,3821.23,1.100212970723475
431,3830.04,0.8955939239078927
432,3838.87,0.8808147763049883
433,3847.7200000000003,1.1741956279147612
434,3856.5899999999997,1.1900463787372115
435,3865.48,1.1800632287723394
436,3874.39,1.0650515780201446
437,3883.32,1.0867591264806271
438,3886.7000000000003,1.190164393423117
439,3890.75,1.2133138339903011
440,3894.7999999999997,1.2738589745574853
441,3898.85,1.3286469151246696
442,3902.9,1.2724812556918537
443,3906.9500000000003,1.367946896259038
444,3911.0099999999998,1.338413936432561
445,3915.0600000000004,1.317549976999745
446,3919.11,1.3312298175669293
447,3923.16,1.1048244581341136
448,3927.21,1.0441397987012977
449,3931.2599999999998,0.8865960392684821
450,3935.3100000000004,0.9030299798356662
451,3939.37,1.022165620009189
452,3943.42,1.1510448605763732
453,3947.4700000000003,1.2642620011435577
454,3951.52,1.2963433417107417
455,3955.5699999999997,1.201871982277926
456,3959.62,1.1282774228451102
457,3963.67,1.0473649634122943
458,3967.7200000000003,1.0581925039794786
459,3971.7799999999997,1.0817102441530015
460,3975.8300000000004,1.2006886847201856
461,3979.88,1.35754722528737
462,3983.93,1.5428704658545542
463,3987.98,1.5509008064217382
464,3992.0299999999997,1.6248381469889226
465,3996.0800000000004,1.7048614875561068
466,4000.14,1.6143645277296297
467,4004.19,1.637245868296814
468,4008.2400000000002,1.8334382088639982
469,4012.29,1.7714595494311824
470,4016.3399999999997,1.7752938899983668
471,4020.39,1.8198592305655508
472,4024.44,1.628374571132735
473,4028.5,1.705969611306258
474,4032.5499999999997,1.6831689518734423
475,4036.6000000000004,1.7659302924406264
476,4040.65,1.6968026330078105
477,4044.7,1.717262973574995
478,4048.75,1.733418314142179
479,4052.7999999999997,1.6731146547093632
480,4056.8500000000004,1.6796859952765475
481,4060.91,1.6653790354500706
482,4064.96,1.6516723760172547
483,4069.01,1.6023987165844389
484,4073.06,1.723907057151623
485,4077.11,1.6530513977188073
486,4081.16,1.7434597382859915
487,4085.21,1.8029830788531758
488,4089.27,1.7175441190266987
489,4093.3199999999997,1.764100459593883
490,4097.37,1.6934658001610672
491,4101.42,1.7775181407282514
492,4105.47,1.6705644812954354
493,4109.5199999999995,1.68553582186262
494,4113.57,1.682267162429804
495,4117.62,1.796942502996988
496,4121.679999999999,1.684808543170511
497,4125.7300000000005,1.6544218837376952
498,4129.78,1.7258362243048795
499,4133.83,1.5983825648720638
500,4137.88,1.6700129054392479
501,4141.929999999999,1.6269742460064323
502,4145.9800000000005,1.6555055865736161
503,4150.04,1.6718686267471392
504,4154.09,1.6485299673143237
505,4158.14,1.7033713078815076
506,4162.1900000000005,1.682185648448692
507,4166.24,1.6463569890158762
508,4170.29,1.6646653295830602
509,4174.34,1.6984686701502445
510,4178.39,1.672817010717429
511,4182.45,1.5494980508909517
512,4186.5,1.6384473914581361
513,4190.55,1.6189827320253203
514,4194.6,1.6562300725925043
515,4198.65,1.6897654131596886
516,4202.7,1.7553147537268727
517,4206.75,1.750002094294057
518,4210.8099999999995,1.7362261344675802
519,4214.860000000001,1.7850954750347643
520,4218.91,1.6184708156019485
521,4222.96,1.6318281561691328
522,4227.01,1.6469074967363169
523,4231.0599999999995,1.677046837303501
524,4235.110000000001,1.742704177870685
525,4239.16,1.7613345184378695
526,4243.219999999999,1.8492595586113925
527,4247.27,1.8651998991785765
528,4251.32,1.7604452397457608
529,4255.37,1.7236555803129452
530,4259.42,1.7960389208801293
531,4263.469999999999,1.7629612614473136
532,4267.52,1.7433356020144977
533,4271.58,1.8035506421880207
534,4275.63,1.779882982755205
535,4279.68,1.686434323322389
536,4283.7300000000005,1.6693916638895732
537,4287.78,1.6190960044567577
538,4291.83,1.569122345023942
539,4295.88,1.554978685591126
540,4299.93,1.4692780261583103
541,4303.99,1.4747730663318332
542,4308.04,1.4661774068990174
543,4312.09,1.5917207474662014
544,4316.14,1.7378660880333858
545,4320.19,1.8027704286005701
546,4324.24,1.8236607691677542
547,4328.29,1.9744941097349384
548,4332.349999999999,1.7962921499084614
549,4336.400000000001,1.9746744904756452
550,4340.45,1.9369618310428298
551,4344.5,1.937729171610014
552,4348.55,1.9441465121771981
553,4352.599999999999,1.9014918527443825
554,4356.650000000001,1.9986261933115665
555,4360.7,2.127929533878751
556,4364.759999999999,2.065357574052274
557,4365.15832,2.057399862401585
558,4368.81,1.9845861955549666
559,4372.86,1.876713118700255
560,4376.91,1.8787110418455433
561,4380.96,1.8385189649908313
562,4385.009999999999,1.8509558881361199
563,4389.06,1.8479498112814077
564,4393.12,1.9160688181875487
565,4397.17,1.9519657413328368
566,4401.22,1.924424664478125
567,4405.27,2.005726587623413
568,4409.32,1.9798005107687016
569,4413.37,1.95166743391399
570,4417.42,1.9938603570592779
571,4421.47,2.069412280204566
572,4425.53,2.002899287110707
573,4429.58,2.086361210255995
574,4433.63,2.1446411334012834
575,4437.68,2.1111820565465713
576,4441.73,2.06706897969186
577,4445.78,2.139115902837148
578,4449.83,2.126909825982436
579,4453.889999999999,2.009503832888577
580,4457.9400000000005,2.0358227560338653
581,4461.99,2.1242346791791533
582,4466.04,2.0634416023244415
583,4470.09,2.1228445254697297
584,4474.139999999999,2.211148448615018
585,4478.1900000000005,2.1814023717603064
586,4482.25,2.234615378666447
587,4486.3,2.211864301811735
588,4490.35,2.2504962249570233
589,4494.4,2.265086148102312
590,4498.45,2.3112070712475994
591,4502.5,2.350547994392888
592,4506.549999999999,2.348081917538176
593,4510.6,2.3192488406834646
594,4514.66,2.2686608475896053
595,4518.71,2.2218577707348937
596,4522.76,2.1955006938801818
597,4526.81,2.1330936170254695
