,lambda (Angstroms),Total Flux (erg/s/cm^2/Angstrom)
0,100.11000000000001,0.03841514218663374
1,101.97,0.046137595055883565
2,104.10000000000001,0.05498104914809207
3,104.712855,0.05752553509104763
4,106.04,0.05292800377642664
5,108.01,0.046103476925275826
6,110.02,0.039140381006528994
7,113.88000000000001,0.025768465462943743
8,117.88,0.011911558175465459
9,120.22644299999999,0.003782947568407588
10,120.91,0.003673376685069248
11,124.87,0.0030386077031578206
12,126.9,0.002713208474086493
13,128.07,0.0025256631150717287
14,131.06,0.002046380571747312
15,131.96,0.0019021150732026594
16,134.10999999999999,0.0015574805332337627
17,136.92,0.0011070515676253577
18,138.038426,0.0009277734159873322
19,140.10999999999999,0.0009160461227811898
20,143.04000000000002,0.0008994634435155797
21,147.04999999999998,0.0008767743900872675
22,151.17000000000002,0.0008534565516560685
23,155.04,0.0008315561450418842
24,158.489319,0.0008120382188813341
25,159.01999999999998,0.0008074236250581356
26,161.98000000000002,0.0007816864408618493
27,166.13,0.0007456050895040497
28,170.0,0.0007119619655795471
29,173.16000000000003,0.0006844931071566198
30,177.2,0.0006493790648104729
31,180.07999999999998,0.0006243519011508433
32,181.970086,0.0006079281039053082
33,182.16,0.0006084613944422559
34,185.98,0.0006191952152770508
35,191.19,0.0006338400530289571
36,193.85,0.000641331502574652
37,197.89999999999998,0.0006527336489374582
38,202.05,0.0006644277125907042
39,204.86,0.0006723595249720586
40,208.929613,0.0006838262244215981
41,210.10999999999999,0.0007039129698721307
42,216.0,0.0008042388588331275
43,220.02,0.000872715475941312
44,223.08,0.0009248358754550047
45,227.23,0.0009955583944572346
46,229.85999999999999,0.0010410657767598525
47,234.13,0.0011154671974488942
48,239.88329199999998,0.0012147864966050024
49,240.14000000000001,0.0012112597662042534
50,245.73000000000002,0.0011334988536081754
51,252.03,0.0010464600013406816
52,256.72,0.0009803236724971022
53,260.29,0.0009318210820788559
54,263.91,0.0008821936130076927
55,268.82,0.0008143326004912811
56,273.81,0.0007453875627302026
57,275.42287,0.000723105383992422
58,278.90999999999997,0.000775891490441314
59,284.09,0.000854402537849542
60,290.03999999999996,0.0009440029001427769
61,296.10999999999996,0.0010363912491713376
62,300.92,0.001109249687478979
63,307.93,0.0012159590426009245
64,316.227766,0.0013424728642237131
65,318.02,0.0013233792277336316
66,327.68,0.0012203564446371488
67,337.64000000000004,0.0011140958265376695
68,347.90000000000003,0.0010045358934351943
69,356.83,0.0009094518001793367
70,363.078055,0.0008430508533793786
71,365.97999999999996,0.0008687889313075892
72,375.37,0.0009517356941442208
73,385.0,0.0010361018152642166
74,394.87,0.0011247215746675767
75,405.0,0.001214791648877915
76,414.44,0.0012982997580235803
77,416.86938299999997,0.001319814904420834
78,422.14000000000004,0.0013484743547291919
79,429.99,0.0013910975364632946
80,441.02000000000004,0.0014516154447724865
81,451.29,0.0015072176033341723
82,459.68,0.0015531721414678188
83,470.39,0.001611477806725429
84,478.630092,0.0016568514640848946
85,480.23999999999995,0.0016466375235385906
86,490.29,0.0015821316517322921
87,500.56000000000006,0.001517551080702373
88,506.36,0.0014955920566251065
89,512.2199999999999,0.0015767167418504896
90,520.5400000000001,0.0015368777984844783
91,530.22,0.0014913891326451786
92,540.08,0.0014262577947138251
93,549.5408739999999,0.0014661986929567546
94,550.12,0.0014712698841313925
95,560.35,0.0015348067671918345
96,569.45,0.001591195263853616
97,580.04,0.0015631896797490296
98,589.46,0.0016867720389307855
99,600.42,0.0017071132052399198
100,610.1800000000001,0.001851264462099149
101,620.09,0.0019946150826396164
102,630.1700000000001,0.0020995176020188197
103,630.957344,0.0021018090806642167
104,640.41,0.002177886446144182
105,649.32,0.002420796560572638
106,658.35,0.0025824086294041716
107,664.44,0.0027322618153603215
108,675.24,0.002844366711637238
109,684.63,0.0028969636436780013
110,695.76,0.00353285691456338
111,705.43,0.003495754740211322
112,715.25,0.004118440008863112
113,724.43596,0.00433289083273937
114,725.2,0.0043497563443889355
115,735.29,0.004560610805342385
116,745.5100000000001,0.005116491437745186
117,754.15,0.005495016447917418
118,764.64,0.0058790422056381
119,775.28,0.0064231696996464955
120,784.25,0.0069857065296516935
121,795.1600000000001,0.0073819451489779715
122,804.3699999999999,0.007786063757043509
123,815.5600000000001,0.00817108828410685
124,825.0,0.009018198887813546
125,831.763771,0.008182251972654117
126,834.5600000000001,0.007821737721096522
127,844.22,0.009721374205270406
128,855.97,0.010113658120285222
129,865.88,0.010927989943076442
130,875.9,0.011799732314859292
131,884.01,0.012897420699605687
132,894.24,0.013726132755827099
133,904.6,0.013951429188129525
134,915.07,0.02151141316942358
135,925.67,0.14769561152679866
136,934.2399999999999,0.33007625693460096
137,945.0500000000001,0.6440868069764146
138,954.992586,0.892568863443659
139,956.0,0.9177489480101604
140,964.84,1.0682375360057093
141,976.0099999999999,0.18176927660642
142,985.05,0.9631512489457597
143,994.1600000000001,1.015487580805426
144,1005.6700000000001,1.4606879247905808
145,1014.98,1.414355540994038
146,1024.37,0.6094304109350115
147,1033.8500000000001,1.0343176288306908
148,1045.82,1.9565987068065642
149,1055.5,1.938620109046034
150,1065.26,1.5686604650230203
151,1075.12,1.8769877631719019
152,1085.0700000000002,1.5223900092754892
153,1095.11,2.0113332033337823
154,1096.4782,1.9991078895432768
155,1105.24,1.9208075540165301
156,1115.47,1.8641820385862236
157,1125.79,1.6768433602635677
158,1136.2,2.1402385190485638
159,1144.08,1.9654652569184738
160,1154.67,2.101010089918772
161,1165.35,2.1798627600267215
162,1176.1299999999999,1.5257722491431724
163,1184.29,2.1798094802368864
164,1195.24,1.5902866616677898
165,1206.3,1.1601946440080446
166,1214.66,0.7475819131187617
167,1225.9,1.575651169674319
168,1234.3999999999999,2.324843785396938
169,1245.82,2.5198931161677978
170,1254.46,2.4232384785023187
171,1258.92541,2.3218921281022427
172,1266.07,2.1597533162705727
173,1274.84,2.6630144453034514
174,1283.68,2.756593583347995
175,1295.56,2.210031112756273
176,1304.54,2.2562132688241463
177,1313.58,2.756571432616304
178,1325.73,2.626555996783861
179,1334.92,2.3790661798867294
180,1344.18,2.769340372001263
181,1353.49,2.7126155705526998
182,1366.02,2.4681481836407233
183,1375.49,2.5607984027902515
184,1385.0199999999998,2.608432629664064
185,1394.6200000000001,2.225333865549541
186,1404.29,2.3463771104466833
187,1414.02,2.4625983630681096
188,1423.8200000000002,2.514156624701201
189,1433.69,2.5491828953459574
190,1443.6299999999999,2.6691551750023788
191,1445.43977,2.6758760133400283
192,1446.9599999999998,2.68152157224731
193,1453.6399999999999,2.6265782940115656
194,1463.71,2.456869382060376
195,1473.86,2.4796564787530695
196,1484.0800000000002,2.502647583009161
197,1494.3600000000001,2.5373086937481646
198,1504.72,2.395442813131052
199,1511.6699999999998,2.1499125640684134
200,1518.65,2.287657318247231
201,1525.66,2.277225075667505
202,1536.23,2.001743217740586
203,1543.32,2.1253179838047433
204,1554.0200000000002,2.0437691399241347
205,1564.79,2.135020303606924
206,1575.64,2.272038475933596
207,1586.56,2.357170655823666
208,1593.88,2.4010104467389883
209,1604.93,2.3844776406753687
210,1616.06,2.4009848432556327
211,1623.52,2.3142416492977502
212,1634.7700000000002,2.468162864843839
213,1646.1000000000001,2.491177089033811
214,1653.6999999999998,2.368141910202725
215,1659.58691,2.46114750520321
216,1665.16,2.5491989437675007
217,1672.85,2.3844940116255744
218,1676.7,2.566815049499903
219,1684.44,2.6386421568108904
220,1696.1200000000001,2.50843237301145
221,1703.9499999999998,2.4288765513376815
222,1715.76,2.303532870115816
223,1723.6799999999998,2.298325119457292
224,1735.6299999999999,2.440041548703584
225,1743.6399999999999,2.3901048690603033
226,1755.72,2.5142374008841704
227,1763.8300000000002,2.373619800146716
228,1776.0600000000002,2.384563450329323
229,1784.25,2.445840912716531
230,1796.62,2.566896673367295
231,1804.91,2.5846762146603295
232,1813.2400000000002,2.3682757875156946
233,1825.81,2.457013705978112
234,1834.24,2.379234357739304
235,1846.96,2.2052023945604615
236,1855.48,2.1899431173368975
237,1864.04,2.2564248716756636
238,1876.97,2.4514630741990575
239,1885.63,2.240989907443651
240,1894.33,2.1254997722505746
241,1903.0800000000002,2.3090466765104116
242,1905.46072,2.2884649834830024
243,1916.27,2.194997560865714
244,1925.11,2.1501125696585266
245,1933.9999999999998,2.266822527596096
246,1942.9299999999998,2.3357764448494693
247,1956.39,2.164972754617712
248,1965.4199999999998,2.3736755701605974
249,1974.4999999999998,2.462735334848238
250,1983.6100000000001,2.319589069022732
251,1992.7700000000002,2.2721457523419817
252,2006.58,2.3626637061235143
253,2015.8400000000001,2.3089502877322756
254,2025.15,2.4344768184857926
255,2034.49,2.2721203187261634
256,2043.8799999999999,2.3410887681112893
257,2053.3199999999997,2.2460541666411715
258,2062.7999999999997,2.287695524486858
259,2072.32,2.428855841648349
260,2077.09,2.2614829900580458
261,2086.68,2.368156236022195
262,2096.31,2.2512194413021485
263,2105.9900000000002,2.3142425957268578
264,2115.71,2.3356167094673723
265,2125.48,2.373489772352642
266,2135.29,2.282426794553716
267,2145.1400000000003,2.266634776070595
268,2155.04,2.36253270673223
269,2164.99,2.3248025865386204
270,2174.98,2.3088014256608154
271,2185.02,2.261367213927766
272,2187.7616199999998,2.282985726528625
273,2195.11,2.340943384435318
274,2205.24,2.3034015991573957
275,2215.42,2.245939854425979
276,2225.65,2.1796751502410685
277,2235.92,2.2669684784933626
278,2246.24,2.2271198472921623
279,2256.61,2.1628222566374684
280,2267.0299999999997,2.214725706529279
281,2277.4900000000002,2.2470701888582956
282,2282.7400000000002,2.279035446241406
283,2293.28,2.1779299934448315
284,2303.86,2.189612573085461
285,2314.5,2.1215492013818986
286,2325.18,1.7619308621155403
287,2335.91,2.0382345633956875
288,2346.69,2.0256783052223413
289,2357.5299999999997,2.093564095704801
290,2362.96,2.0184954990553328
291,2373.87,2.038620346302901
292,2384.82,1.975424225987674
293,2395.83,2.0557111543282542
294,2406.89,1.99195512321534
295,2412.44,2.0156626238774855
296,2423.5699999999997,2.0641876495296794
297,2434.7599999999998,2.0000647238376805
298,2446.0,2.0719168386921876
299,2457.29,2.0543229940931997
300,2462.95,2.0457125839576578
301,2474.32,2.0006368042330798
302,2485.74,2.0534580650550076
303,2497.22,1.9178563745327422
304,2502.97,2.0746580373809107
305,2511.88643,1.9828082986806215
306,2514.5299999999997,1.9555734382946321
307,2520.3199999999997,2.0297636210955745
308,2526.1299999999997,1.966001797619491
309,2537.79,1.9721021381132713
310,2543.64,1.9367163020831355
311,2555.3900000000003,2.0063926143302986
312,2567.18,1.9893329140234093
313,2573.1,2.0505700560236817
314,2584.97,2.042667330608688
315,2596.91,2.039610583224103
316,2602.89,1.9984867063932976
317,2614.91,1.9862669339006083
318,2626.98,2.0108631457153536
319,2633.03,2.0300822469149566
320,2645.19,2.098318430483084
321,2657.3999999999996,2.104783598358647
322,2663.52,2.0153406775886586
323,2675.8199999999997,2.0640088172176037
324,2681.98,2.0552208838935635
325,2694.36,2.005461998414404
326,2706.7999999999997,2.0208970941041664
327,2713.04,1.9803011356720213
328,2725.5600000000004,1.9817382062536792
329,2738.14,2.0248412580042587
330,2744.46,1.9080892744640094
331,2757.1200000000003,1.9183343011064846
332,2763.48,1.945803305012183
333,2776.24,1.9926713002695278
334,2782.6400000000003,1.9705812916211738
335,2795.48,1.8028322617704142
336,2801.92,1.8755712405680083
337,2814.86,1.988346179332118
338,2827.85,1.9944611024036623
339,2834.37,1.927645056093152
340,2847.4500000000003,1.915961950918079
341,2854.02,1.907874888915003
342,2867.19,1.9675047554933125
343,2873.8,1.9547456809361847
344,2884.0315,1.9560009596986814
345,2887.0600000000004,1.956373450314385
346,2893.7200000000003,1.9481054075369542
347,2907.0800000000004,1.9904893217251707
348,2927.23,1.961213192300961
349,2947.52,1.9367810619775263
350,2967.95,1.9436079307548666
351,2988.52,1.9326607986329811
352,3009.2400000000002,1.9306766655476404
353,3030.1,1.9331885315630741
354,3051.1,1.9224183966792825
355,3072.2500000000005,1.9161322608320355
356,3093.54,1.905363124085563
357,3107.82,1.8983600323645848
358,3129.3700000000003,1.8791288939481228
359,3151.06,1.877337754632435
360,3172.9,1.8667416143532922
361,3187.55,1.8175195202557899
362,3209.6400000000003,1.8410613783708873
363,3231.89,1.8099882354582988
364,3246.81,1.8326091396265765
365,3269.3100000000004,1.8435769951082284
366,3291.9700000000003,1.8333348495621944
367,3307.1699999999996,1.8223737519320216
368,3311.31121,1.833194875316491
369,3322.4300000000003,1.8622473601262761
370,3330.09,1.8631494196028435
371,3337.77,1.8385374766237363
372,3345.46,1.8099845324167914
373,3353.18,1.8191375845263347
374,3360.91,1.7991936354080404
375,3368.65,1.8042356850619086
376,3376.42,1.731738731032265
377,3384.2,1.789302775774784
378,3392.0,1.8234448180616278
379,3399.82,1.8710398578927971
380,3407.6600000000003,1.7754008952682918
381,3415.5200000000004,1.7926669301881115
382,3423.39,1.8437369638800942
383,3431.2799999999997,1.8403219951164018
384,3439.1899999999996,1.8370860238970348
385,3447.1200000000003,1.767379050221993
386,3455.07,1.7520010740912764
387,3463.03,1.7208630967327223
388,3471.0099999999998,1.7577411169184936
389,3479.01,1.73047213464859
390,3487.04,1.7473131486951745
391,3495.07,1.768383162741759
392,3503.1299999999997,1.7490071731048313
393,3511.21,1.7338051810122288
394,3519.3,1.7426431876917887
395,3527.4100000000003,1.7314911919156741
396,3535.55,1.7726651924560473
397,3543.7000000000003,1.7982771917685831
398,3551.86,1.8033151898532815
399,3560.05,1.779363184254468
400,3568.2599999999998,1.7437291761999794
401,3576.48,1.6815031669176537
402,3584.73,1.6554401539518155
403,3585.53,1.7512560557248253
404,3588.2,1.848027727892245
405,3590.87,1.8255784000596647
406,3593.54,1.7238700722270843
407,3596.22,1.8277267431666666
408,3598.8900000000003,1.7518454153340863
409,3601.56,1.6105700875015063
410,3604.23,1.4769817596689259
411,3606.9,1.5522734318363456
412,3609.58,1.7268221027759278
413,3612.25,1.7259977749433477
414,3614.9199999999996,1.7788204471107674
415,3617.59,1.729807119278187
416,3620.26,1.6754247914456069
417,3622.93,1.5467214636130264
418,3625.61,1.7902741345526088
419,3628.2799999999997,1.8020398067200285
420,3630.95,1.8438884788874483
421,3633.6200000000003,1.823056151054868
422,3636.29,1.6583068232222877
423,3638.96,1.6915344953897073
424,3641.64,1.5790591663292897
425,3644.31,1.6263138384967095
426,3646.98,1.6866975106641293
427,3649.6499999999996,1.7556131828315489
428,3652.32,1.7298228549989687
429,3654.9900000000002,1.6354605271663882
430,3657.67,1.5905881981059706
431,3660.34,1.5649238702733903
432,3663.0099999999998,1.66340154244081
433,3665.68,1.6583742146082299
434,3668.3500000000004,1.7326948867756493
435,3671.02,1.7413175589430692
436,3673.7,1.6381632298826514
437,3676.37,1.6507549020500711
438,3679.04,1.763636574217491
439,3681.71,1.6070772463849106
440,3684.3799999999997,1.7486429185523304
441,3687.05,1.62159159071975
442,3689.73,1.5932962616593325
443,3692.4,1.723635933826752
444,3695.0699999999997,1.6597516059941717
445,3697.74,1.6802642781615915
446,3700.4100000000003,1.6625749503290113
447,3703.0800000000004,1.6342336224964311
448,3705.76,1.6372262934360131
449,3708.43,1.701039965603433
450,3711.1,1.6262546377708527
451,3713.77,1.6889553099382724
452,3716.4399999999996,1.9444609821056922
453,3719.1200000000003,2.618322653045275
454,3721.79,4.150342325212694
455,3724.46,6.051628997380114
456,3727.13,6.736283669547533
457,3729.7999999999997,5.697280341714953
458,3732.47,3.928186013882373
459,3735.1499999999996,2.407288684821955
460,3737.82,1.804181356989375
461,3740.4900000000002,1.6361820291567948
462,3743.16,1.6689247013242143
463,3745.83,1.6314783734916343
464,3748.5,1.687875045659054
465,3751.1800000000003,1.7044987165986363
466,3753.8500000000004,1.654121388766056
467,3756.52,1.7676140609334756
468,3759.19,1.7775647331008955
469,3761.86,1.8005914052683152
470,3764.5299999999997,1.6968900774357347
471,3767.2099999999996,1.698911748375317
472,3769.88,1.7694434205427367
473,3772.55,1.8038200927101566
474,3775.2200000000003,1.9140987648775762
475,3777.89,1.962772437044996
476,3780.56,2.027431109212416
477,3783.24,1.927203780151998
478,3785.9100000000003,2.0056914523194176
479,3788.58,1.9647431244868374
480,3791.25,1.7309727966542572
481,3793.92,1.7086844688216767
482,3796.59,1.7605021409890966
483,3799.27,1.808842811928679
484,3801.8939600000003,1.7120665208201964
485,3801.9399999999996,1.710368485273961
486,3804.61,1.7587362257492025
487,3807.28,1.8848199662244443
488,3809.95,2.045386706699686
489,3812.62,2.075562447174928
490,3815.2999999999997,1.9826981866781666
491,3817.97,1.9721029271534083
492,3820.6400000000003,1.92019866762865
493,3823.31,1.8113604081038919
494,3825.98,1.8083081485791335
495,3828.66,1.8600258880823723
496,3831.33,1.759521628557614
497,3834.0,1.6578493690328557
498,3836.6699999999996,1.7465921095080974
499,3839.34,1.8013008499833392
500,3842.01,1.855901590458581
501,3844.69,1.9965233299618197
502,3847.36,2.088482070437061
503,3850.0299999999997,2.113088810912303
504,3852.7,2.112731551387545
505,3855.3700000000003,2.0861512918627865
506,3858.04,2.132491032338028
507,3860.7200000000003,2.1739697718412674
508,3863.39,2.2176155123165087
509,3866.06,2.3251992527917507
510,3868.73,2.2129489932669926
511,3871.3999999999996,2.1130907337422338
512,3874.07,2.0644194742174755
513,3876.75,1.9625752137207146
514,3879.42,1.9153409541959563
515,3882.09,1.925400694671198
516,3884.7599999999998,1.9121114351464397
517,3887.43,1.9185781756216815
518,3890.1000000000004,1.989163916096923
519,3892.78,1.9478466556001621
520,3895.45,1.8821133960754037
521,3898.12,1.9320441365506453
522,3900.79,1.979460877025887
523,3903.46,2.0047876175011288
524,3906.1299999999997,2.1193763579763707
525,3908.81,2.1378660974796095
526,3911.48,2.1780988379548507
527,3914.15,2.074828578430093
528,3916.8199999999997,2.0796793189053346
529,3919.49,2.129611059380576
530,3922.1600000000003,2.0202337998558177
531,3924.84,1.955387539359057
532,3927.51,1.9975962798342985
533,3930.18,1.8411630203095402
534,3932.85,1.8156597607847818
535,3935.52,1.8980995012600237
536,3938.2,1.9376042407632625
537,3940.8700000000003,1.8927049812385044
538,3943.54,2.0778777217137456
539,3946.21,2.1757624621889877
540,3948.88,2.2016272026642296
541,3951.5499999999997,2.0766249431394708
542,3954.23,2.0579366826427097
543,3956.8999999999996,2.058297423117952
544,3959.57,1.9816081635931935
545,3962.2400000000002,1.994181904068435
546,3964.91,1.9539526445436768
547,3967.58,1.9415613850189186
548,3970.2599999999998,1.8756381245221572
549,3972.9300000000003,1.9052748649973992
550,3975.6000000000004,1.8546276054726407
551,3978.27,1.8445713459478825
552,3980.94,1.964009086423124
553,3983.61,2.060636826898366
554,3986.29,2.1409115664016047
555,3988.9599999999996,2.1450433068768464
556,3991.63,2.196412047352088
557,3994.3,2.27436178782733
558,3996.9700000000003,2.3113615283025717
559,3999.64,2.200727268777813
560,4002.3199999999997,2.225862008281052
561,4004.99,2.200180748756294
562,4007.6600000000003,2.1692904892315354
563,4010.33,2.1337302297067775
564,4013.0,2.143789970182019
565,4015.67,2.2355687106572604
566,4018.35,2.2896204501604998
567,4021.02,2.2756131906357413
568,4023.6899999999996,2.205927931110983
569,4026.36,2.108943671586225
570,4029.03,2.1971314120614664
571,4031.71,2.2181351515647054
572,4034.38,2.169284892039947
573,4037.0499999999997,2.204308632515189
574,4039.72,2.1827583729904303
575,4042.3900000000003,2.1714451134656723
576,4045.06,2.126365853940914
577,4047.7400000000002,2.157966593444153
578,4050.41,2.1432413339193945
579,4053.08,2.1267190743946363
580,4055.75,2.180781814869878
