,lambda (Angstroms),Total Flux (erg/s/cm^2/Angstrom)
0,100.04,0.013842418856545387
1,101.89999999999999,0.016646322050489156
2,104.03,0.019857243414489804
3,104.712855,0.02088663026478028
4,105.96,0.019317963336463725
5,107.94,0.01682750716005025
6,109.94,0.014311896267893233
7,114.07000000000001,0.009117159601731685
8,118.08000000000001,0.004073362390330383
9,120.22644299999999,0.0013736019749666097
10,121.11,0.001322199070365379
11,125.07000000000001,0.001091767731251259
12,127.10000000000001,0.0009736438512531121
13,127.99,0.0009218615010317578
14,130.97,0.0007484655652029504
15,131.87,0.0006961347328633777
16,134.02,0.0005710415998466206
17,137.14000000000001,0.0003895800509627687
18,138.038426,0.00033731910291514905
19,140.01,0.00033332813896912037
20,142.94,0.00032842567013591597
21,146.95,0.0003233414428628275
22,151.06,0.0003158651383360461
23,154.94,0.0003090886046927585
24,158.489319,0.0003030880850699354
25,158.91,0.0003019129787808301
26,161.87,0.0002937440637821635
27,166.01999999999998,0.0002826056965205196
28,169.89000000000001,0.0002723449025560466
29,173.05,0.00026412012177368636
30,177.08,0.0002538200387822586
31,179.95000000000002,0.00024678195873625413
32,181.970086,0.00024185879671698526
33,182.04000000000002,0.00024198026957330957
34,185.85,0.0002489448077573673
35,191.06,0.0002585614872426536
36,194.16,0.0002648397165525168
37,198.23,0.00027302086854965983
38,201.91,0.0002814131248271749
39,205.19,0.0002884466221614819
40,208.929613,0.00029558243814728
41,209.96999999999997,0.00030293149014789015
42,215.86,0.0003502994609357317
43,219.87,0.00038169500148908374
44,222.93,0.0004048169877218163
45,227.07000000000002,0.00043823566791904265
46,230.23,0.0005040597561855244
47,233.97,0.0006250711382477531
48,239.88329199999998,0.0007320233940354284
49,239.97,0.0007326156661602063
50,246.13,0.0007067438056772661
51,251.86,0.0007180501434098557
52,257.14,0.0006556391629959071
53,260.11,0.0006962580427630608
54,263.73,0.0007107562042974367
55,269.25,0.0007021753202283085
56,274.26,0.0006951063689264367
57,275.42287,0.0006942184547772741
58,278.72,0.0007263611866656933
59,283.9,0.0007735139016806026
60,289.84,0.0008068549517170045
61,295.90999999999997,0.0008711325511649775
62,300.72,0.0009124794793931082
63,307.72,0.0009823546861700131
64,316.227766,0.0010707959496234997
65,317.80999999999995,0.0010723645297723513
66,328.21999999999997,0.0010679348659009904
67,338.19,0.0010598228041529148
68,347.67,0.0010503267402239523
69,357.41,0.0010393748386766848
70,363.078055,0.0010376825265512792
71,365.73,0.0010556637264110985
72,375.11,0.0011059289241945158
73,384.74,0.0011375650815137386
74,394.6,0.0012142354376059022
75,404.73,0.0012725368139967356
76,414.15,0.0013176249333058817
77,416.86938299999997,0.0013288893218011692
78,421.85,0.0013433381307602552
79,429.7,0.001368061459177992
80,440.72,0.001411225552574611
81,450.99,0.0014366580056765416
82,460.43,0.0014626681755190176
83,470.07,0.00149122630277341
84,478.630092,0.001518504101302983
85,479.90999999999997,0.0015170754115559884
86,489.96,0.0014881740425487459
87,500.21999999999997,0.001480617546427919
88,506.01,0.0014620758845819552
89,511.87000000000006,0.0014812816470314632
90,520.19,0.001465558949007557
91,529.86,0.0014373805909677524
92,539.71,0.0013975136382591614
93,549.5408739999999,0.0013735068611387565
94,549.75,0.0013733405195780937
95,559.97,0.0013855933590158772
96,570.38,0.001395758740282739
97,579.65,0.0013767636705751315
98,590.42,0.0013775346258339308
99,600.02,0.001349205365618933
100,609.76,0.0012463898730674663
101,619.67,0.0013589200126788593
102,629.74,0.0013393122296200019
103,630.957344,0.0013400037350690837
104,639.97,0.001361936234070065
105,650.37,0.0013661022301917063
106,657.9,0.0013626323677682407
107,665.52,0.0013892722918496742
108,674.78,0.001403901392242597
109,685.74,0.001385565226616942
110,695.2800000000001,0.0014281850961362168
111,704.96,0.0013993263002186676
112,716.41,0.0014603045055641283
113,724.43596,0.0014708191433432341
114,726.38,0.0014724685852641134
115,734.7900000000001,0.0014822861644713619
116,745.01,0.001486142655493725
117,755.3700000000001,0.0014948624546122853
118,764.1199999999999,0.0014242599106245825
119,774.75,0.0015162945325000936
120,785.53,0.0015013392559072442
121,794.6300000000001,0.0015332202821600333
122,805.6800000000001,0.0015546085283241347
123,815.01,0.0015676497035921042
124,824.45,0.001590903906649943
125,831.763771,0.001537007198095187
126,835.92,0.0014983253824059715
127,845.5899999999999,0.0015820817805027464
128,855.39,0.001569034486950357
129,865.29,0.0015788183536678412
130,875.31,0.0015863778127091738
131,885.4499999999999,0.0015887158640743543
132,895.6999999999999,0.001591212791736396
133,903.9899999999999,0.0015775163781089154
134,914.46,0.0017556290583646788
135,925.0400000000001,0.003662352614917303
136,935.7600000000001,0.0061361941958477505
137,944.41,0.009713686559191815
138,954.992586,0.012719147109797331
139,955.3499999999999,0.012821052636130021
140,964.19,0.014181496546804097
141,975.35,0.0041746933390125465
142,984.38,0.012008637356364007
143,995.78,0.012669133757007045
144,1004.99,0.01787857998068445
145,1014.2900000000001,0.017715687307524822
146,1026.04,0.009140539220468306
147,1035.53,0.013513447653986065
148,1045.1100000000001,0.023561606190666794
149,1054.78,0.023241115830510493
150,1064.54,0.018735496573517165
151,1074.39,0.02210488841968681
152,1084.33,0.017821281369019424
153,1094.3700000000001,0.02344517332186645
154,1096.4782,0.023291771597870346
155,1104.49,0.02270521570366188
156,1114.71,0.02198840961034712
157,1125.03,0.019801057801833586
158,1135.44,0.025072896849641157
159,1145.94,0.02314728675376983
160,1153.88,0.024553078966987132
161,1164.56,0.025168610583758008
162,1175.34,0.017486956485330114
163,1186.21,0.02464399324322332
164,1194.4299999999998,0.01799835145388405
165,1205.49,0.013798033352899586
166,1213.8400000000001,0.01023871613380191
167,1225.07,0.01830788631697953
168,1236.41,0.0262353142134385
169,1244.98,0.028543112420903516
170,1253.61,0.027450191199249276
171,1258.92541,0.026012252298002064
172,1265.21,0.024316551926282588
173,1273.98,0.03077118186056469
174,1285.77,0.03228649295807735
175,1294.68,0.02598331943635027
176,1303.65,0.025865728719190687
177,1315.72,0.03214043290468498
178,1324.84,0.030985569198944133
179,1334.02,0.027829028297770782
180,1346.3600000000001,0.0328855451038188
181,1355.7,0.031994941681492105
182,1365.09,0.02893327059630498
183,1374.56,0.030287073250541186
184,1384.08,0.030566298241916968
185,1393.6799999999998,0.025928906972716076
186,1406.57,0.026650199487299464
187,1416.3200000000002,0.028803625229517307
188,1426.1399999999999,0.029470374243730564
189,1436.03,0.02967319652993923
190,1442.65,0.03120453596721945
191,1445.43977,0.03174805156996819
192,1445.98,0.03185329756248258
193,1456.0,0.031063230654549447
194,1466.1,0.02880536688507594
195,1476.26,0.02900425546944714
196,1486.49,0.029743286799970507
197,1493.35,0.03036254592288256
198,1503.7,0.02893939196109535
199,1510.65,0.02593368461477447
200,1517.6200000000001,0.027646958053068493
201,1524.62,0.027395952668284873
202,1535.1899999999998,0.023998327337261604
203,1545.83,0.026173714752390505
204,1556.55,0.024891145305979016
205,1563.73,0.02569975698272953
206,1574.5700000000002,0.028288442244007467
207,1585.49,0.02988354064374502
208,1596.48,0.031068501789634738
209,1603.85,0.03029695092022684
210,1614.96,0.03009013677380598
211,1626.16,0.028290156158152186
212,1633.66,0.030507010388741165
213,1644.99,0.03178856487308425
214,1656.39,0.028616152103579495
215,1659.58691,0.030125779022362013
216,1664.04,0.03222969330781284
217,1671.7199999999998,0.027466823587778175
218,1675.5700000000002,0.035159956592708715
219,1683.3000000000002,0.036724331197413404
220,1694.97,0.033670034591579474
221,1706.7199999999998,0.032836930905328514
222,1714.6,0.03261483848425128
223,1726.48,0.03269273204232265
224,1734.4499999999998,0.035744495405776254
225,1746.48,0.0349391519380657
226,1754.54,0.038288951086050155
227,1766.7,0.033767734862661936
228,1774.8500000000001,0.03616721979517723
229,1783.05,0.03658549905243187
230,1795.41,0.04120985012800108
231,1803.69,0.039731412304838704
232,1816.19,0.03787186348967811
233,1824.5800000000002,0.03796008718094232
234,1833.0,0.03618361946705015
235,1845.71,0.03272670081579486
236,1854.23,0.034811291751381396
237,1867.0800000000002,0.03719906320939631
238,1875.6999999999998,0.03867567279446157
239,1884.35,0.03686618097437043
240,1893.05,0.037463453479018666
241,1905.46072,0.03795587983279859
242,1906.17,0.037983557152068435
243,1914.97,0.038067187356348384
244,1923.81,0.036697552788829614
245,1937.15,0.03387301639395399
246,1946.0900000000001,0.0406641148969384
247,1955.07,0.03929019862812407
248,1968.6200000000001,0.04384508468130513
249,1977.71,0.043641457790044316
250,1982.2699999999998,0.04304401380498938
251,1996.01,0.042355079692126485
252,2005.22,0.04186952848546948
253,2014.4799999999998,0.041106998814064065
254,2023.78,0.040542654370859924
255,2033.12,0.04234148515585705
256,2047.2099999999998,0.0452435217897553
257,2056.66,0.04252680195230592
258,2066.15,0.042039687343057824
259,2075.69,0.04735366426906132
260,2085.27,0.05860367642326608
261,2094.9,0.05495479011272244
262,2104.57,0.05272925903038007
263,2114.28,0.05532708317623897
264,2124.04,0.05406871885734946
265,2133.8399999999997,0.048653099766661226
266,2143.69,0.055826812211224576
267,2153.59,0.05724994619103953
268,2163.5299999999997,0.05258659539905574
269,2173.5099999999998,0.05294668983527323
270,2183.5499999999997,0.05776693211379263
271,2187.7616199999998,0.058668117475385355
272,2193.63,0.059927704646730064
273,2203.75,0.05776979434021871
274,2213.92,0.04976908875551313
275,2224.14,0.05151446789261332
276,2234.41,0.06175446175151928
277,2244.7200000000003,0.05831498738786986
278,2255.08,0.05012471774602622
279,2265.49,0.04989890282598835
280,2275.95,0.05394775262775625
281,2286.45,0.062054974206968774
282,2297.0099999999998,0.05496195345234823
283,2307.61,0.0608165244751723
284,2312.93,0.05473550087530665
285,2323.61,0.041303695453019956
286,2334.33,0.04345229180817789
287,2345.11,0.03610986582950274
288,2355.93,0.05139586162827222
289,2366.8,0.03765377214884747
290,2377.73,0.04370884033558966
291,2383.21,0.033069303845502475
292,2394.21,0.03803208264277274
293,2405.2599999999998,0.03718490616184878
294,2416.3599999999997,0.04094955440273059
295,2427.52,0.05567642030977933
296,2433.11,0.05505064620766485
297,2444.35,0.062181795669602836
298,2455.63,0.06408379690898543
299,2466.96,0.0592975928701738
300,2472.65,0.054609988211670873
301,2484.06,0.04621893772774848
302,2495.5299999999997,0.04708869490999302
303,2507.05,0.06447086681404333
304,2511.88643,0.04396003730574663
305,2512.83,0.03995806330963072
306,2518.62,0.03680571351290986
307,2524.43,0.03723299143709842
308,2536.08,0.04533622386683969
309,2547.78,0.04714667059885452
310,2553.66,0.06679518054622609
311,2565.44,0.05549154816187863
312,2577.29,0.06561440780071418
313,2583.2300000000005,0.06098111091081401
314,2595.15,0.05668354257283254
315,2607.1299999999997,0.05137871739757936
316,2613.14,0.0479733125308622
317,2625.2,0.060202518239246716
318,2637.32,0.08417377711035953
319,2643.4,0.10937276426682535
320,2655.6000000000004,0.13671437402157588
321,2667.86,0.09469286693905465
322,2674.01,0.10721047611870349
323,2686.35,0.11728946991981999
324,2692.54,0.09474667454128767
325,2704.97,0.1110455480864966
326,2717.46,0.08767921479443379
327,2723.7200000000003,0.07908211143908447
328,2736.29,0.09268176903065937
329,2742.6,0.05751675997758362
330,2755.2599999999998,0.07055904731325095
331,2767.98,0.08558554781164657
332,2774.36,0.0929725707817538
333,2787.1600000000003,0.06412261216378713
334,2793.59,0.03479343943616794
335,2806.48,0.04047372056229369
336,2812.9500000000003,0.08606600327649334
337,2825.94,0.11819416300716623
338,2832.4500000000003,0.11526252116318474
339,2845.53,0.09772305063795005
340,2852.0899999999997,0.06958008309624211
341,2865.2499999999995,0.12329308345464512
342,2871.86,0.1458409302152108
343,2884.0315,0.1352375696252126
344,2885.11,0.13429814070249
345,2891.7599999999998,0.15033162519399104
346,2911.8100000000004,0.1945790784352836
347,2931.99,0.17352753137340252
348,2952.3100000000004,0.1658099839850267
349,2972.7799999999997,0.17773043624683513
350,2993.38,0.1802905882054699
351,3007.2,0.18667185597577732
352,3028.0499999999997,0.19287170735138578
353,3049.04,0.20020185840049956
354,3070.1699999999996,0.2126376091231186
355,3091.45,0.2142191594959219
356,3112.88,0.23390050951890942
357,3127.2499999999995,0.22345497600655903
358,3148.93,0.22408032544652026
359,3170.75,0.2402131745599868
360,3192.7299999999996,0.2122648233003165
361,3207.4700000000003,0.2354886889250872
362,3229.7,0.20196053708239067
363,3252.09,0.26507408486655726
364,3267.1,0.30232064986165963
365,3289.75,0.2969651970394789
366,3311.31121,0.28946099457607627
367,3312.55,0.2890297915301399
368,3320.19,0.28774805093232375
369,3327.84,0.3062495098886989
370,3335.5099999999998,0.32894766795345676
371,3343.2000000000003,0.2959661251265973
372,3350.9100000000003,0.2939760814081205
373,3358.63,0.325353237243835
374,3366.38,0.28150479174212356
375,3374.14,0.2347606457946035
376,3381.9100000000003,0.26464199940127475
377,3389.71,0.31964385167052
378,3397.52,0.3018330034939566
379,3405.35,0.3249507544257759
380,3413.21,0.3068429040201692
381,3421.07,0.3303490536145625
382,3428.9599999999996,0.3148208018715299
383,3436.8700000000003,0.3105601492368798
384,3444.79,0.23032229615642122
385,3452.73,0.3328773421843452
386,3460.69,0.3022645873206519
387,3468.6699999999996,0.3044145315653413
388,3476.66,0.2934638753642221
389,3484.68,0.3101850178256768
390,3492.71,0.29357595984132284
391,3500.7599999999998,0.2772112009653516
392,3508.83,0.3325378411977631
393,3516.92,0.28639768053855724
394,3525.03,0.305508718987734
395,3533.15,0.3404649569911022
396,3541.3,0.36318869365704437
397,3549.46,0.36661272987717786
398,3557.6400000000003,0.3321426652056941
399,3565.84,0.36171979964259293
400,3574.0699999999997,0.2670226327420658
401,3582.2999999999997,0.2726603658415387
402,3590.56,0.2364607976035856
403,3598.8399999999997,0.3441245284740152
404,3607.14,0.3153671584528274
405,3615.4500000000003,0.3183479879858311
406,3619.9199999999996,0.3293976887093601
407,3622.66,0.3142214665577873
408,3625.3999999999996,0.33762794440621446
409,3628.1400000000003,0.36728322225464166
410,3630.88,0.33601740010306885
411,3633.6099999999997,0.29290927839730463
412,3636.35,0.27569465624573186
413,3639.0899999999997,0.36538563409415903
414,3641.83,0.36292501194258625
415,3644.5699999999997,0.36106878979101337
416,3647.3100000000004,0.3444586676394406
417,3650.04,0.36746644593367644
418,3652.7799999999997,0.3680635237821036
419,3655.52,0.3977680016305308
420,3658.2599999999998,0.434747679478958
421,3661.0,0.43859905732738513
422,3663.74,0.42154603517581235
423,3666.47,0.4277896134700482
424,3669.21,0.4261232913184754
425,3671.95,0.4030602691669026
426,3674.69,0.35362414701532974
427,3677.43,0.35360972486375697
428,3680.1699999999996,0.3818802027121841
429,3682.9,0.35638018100641994
430,3685.64,0.36199605885484715
431,3688.38,0.3816911367032743
432,3691.12,0.3696147145517015
433,3693.86,0.4005773924001287
434,3696.6,0.4108815702485558
435,3699.33,0.38524104854279173
436,3702.07,0.3611659263912189
437,3704.81,0.36692930423964604
438,3707.55,0.3674209820880732
439,3710.29,0.40055565993650044
440,3713.0299999999997,0.42088333778492765
441,3715.77,0.4043012156333548
442,3718.5,0.38277979392759065
443,3721.2400000000002,0.38551367177601786
444,3723.98,0.411288849624445
445,3726.7200000000003,0.4074505274728722
446,3729.46,0.4153789053212994
447,3732.2,0.33364418316972655
448,3734.9300000000003,0.3291610614639624
449,3737.67,0.3273471393123896
450,3740.4100000000003,0.35121051716081675
451,3743.15,0.33684259500924396
452,3745.89,0.31653517285767113
453,3748.63,0.30543585070609836
454,3751.36,0.34551702900033415
455,3754.1000000000004,0.39587320684876137
456,3756.84,0.37557968469718855
457,3759.58,0.37337216254561567
458,3762.32,0.4018816403940429
459,3765.06,0.3728230182424701
460,3767.79,0.3849496965367059
461,3770.53,0.3937918743851331
462,3773.2700000000004,0.4258441522335603
463,3776.01,0.4641593300819875
464,3778.75,0.45246240793041465
465,3781.4900000000002,0.46434808577884185
466,3784.22,0.4523021640730777
467,3786.9599999999996,0.41661484192150483
468,3789.7,0.41359181976993203
469,3792.44,0.39911839761835927
470,3795.1800000000003,0.3575338754667864
471,3797.92,0.3646538533152136
472,3800.6600000000003,0.3783882311636408
473,3801.8939600000003,0.38835251615263716
474,3803.39,0.4004331233545238
475,3806.1299999999997,0.4425722266546858
476,3808.87,0.44361902995484775
477,3811.61,0.4113550332550098
478,3814.3500000000004,0.40355233655517175
479,3817.09,0.3921085398553337
480,3819.8199999999997,0.35534784350841486
481,3822.56,0.34058634680857686
482,3825.2999999999997,0.2909464501087388
483,3828.04,0.2510770534089008
484,3830.7799999999997,0.25833775670906284
485,3833.5200000000004,0.2661468600092248
486,3836.25,0.3132569636623059
487,3838.99,0.2942428669624679
488,3841.73,0.37855667026262985
489,3844.47,0.3805946735627918
490,3847.2099999999996,0.4299595768629538
491,3849.95,0.4110157801631158
492,3852.68,0.3837866838161969
493,3855.42,0.37599098711635887
494,3858.16,0.3820003904165209
495,3860.9,0.37573709371668285
496,3863.64,0.38606239701684486
497,3866.3799999999997,0.4283420003170068
498,3869.11,0.4092877039700879
499,3871.85,0.3653975072702499
500,3874.59,0.40696721057041185
501,3877.33,0.3919456138705739
502,3880.0699999999997,0.38159141717073586
503,3882.81,0.3751452204708978
504,3885.5499999999997,0.3491372237710598
505,3888.28,0.37990512742414095
506,3891.02,0.4601419307243029
507,3893.76,0.44301153402446486
508,3896.5,0.4389342373246269
509,3899.24,0.4701358406247889
510,3901.98,0.48008154392495084
511,3904.71,0.475549747578032
512,3907.4500000000003,0.5015850508781939
513,3910.19,0.519101154178356
514,3912.93,0.5155508574785179
515,3915.67,0.47892886077867985
516,3918.41,0.4430026640788419
517,3921.1400000000003,0.436734567731923
518,3923.88,0.37631187103208497
519,3926.62,0.29372647433224697
520,3929.36,0.25879847763240893
521,3932.1,0.2521205809325709
522,3934.84,0.2623405842327329
523,3937.57,0.297023187885814
524,3940.3100000000004,0.36389079118597595
525,3943.05,0.41924469448613794
526,3945.79,0.45097349778629997
527,3948.53,0.45259680108646194
528,3951.27,0.502587204386624
529,3954.01,0.4650374076867859
530,3956.7400000000002,0.452014311339867
531,3959.48,0.369330514640029
532,3962.2200000000003,0.32875101794019096
533,3964.96,0.271934521240353
534,3967.7000000000003,0.26797682454051497
535,3970.44,0.31069922784067694
536,3973.1699999999996,0.38396493149375804
537,3975.9100000000003,0.46612773479392
538,3978.65,0.536755738094082
539,3981.3900000000003,0.5459984413942439
540,3984.13,0.565440344694406
541,3986.8700000000003,0.5925861479945679
542,3989.6,0.614132751647649
543,3992.3399999999997,0.616051054947811
544,3995.08,0.608107558247973
545,3997.82,0.6302205615481351
546,4000.5600000000004,0.622705864848297
547,4003.3,0.620420868148459
548,4006.0299999999997,0.6441184718015401
549,4008.77,0.6462617751017021
550,4011.5099999999998,0.682917878401864
551,4014.2499999999995,0.678524081702026
552,4016.99,0.699013185002188
553,4019.7300000000005,0.68146798830235
554,4022.46,0.6910443919554311
555,4025.2,0.6954861952555931
556,4027.94,0.6624768985557551
557,4030.68,0.6379587018559171
558,4033.4199999999996,0.628089305156079
559,4036.16,0.666924408456241
560,4038.9,0.6664036117564031
561,4041.63,0.6433859154094841
562,4044.37,0.6549481187096462
563,4047.1099999999997,0.6379230220098081
564,4049.85,0.6449445253099702
565,4052.5899999999997,0.6492668286101321
566,4055.33,0.6239403319102941
567,4058.06,0.6196832355633751
568,4060.8,0.6094060388635372
569,4063.54,0.6013642421636991
570,4066.2799999999997,0.6267105454638611
