,lambda (Angstroms),Total Flux (erg/s/cm^2/Angstrom)
0,100.11000000000001,0.0224986300325589
1,101.98,0.027045762121577742
2,104.11,0.032225115786817575
3,104.712855,0.03369103097093468
4,106.05,0.030978102082405364
5,108.02000000000001,0.026981176033130994
6,110.03,0.02290309463426683
7,113.89,0.015071555497284814
8,117.9,0.00693568310136864
9,120.22644299999999,0.002215593097148014
10,120.92,0.0021504885264035664
11,124.88000000000001,0.0017787434458280526
12,126.91,0.0015881783562017185
13,128.08,0.0014783464956789514
14,131.07,0.001197666871861887
15,131.98,0.0011122604633997365
16,134.12,0.0009113775984085237
17,136.93,0.000647640670280344
18,138.038426,0.0005435996302463181
19,140.12,0.0005367322246202238
20,143.05,0.0005276029274825016
21,147.06,0.0005160254969991339
22,150.82999999999998,0.0005041755206925763
23,155.06,0.0004909819634387996
24,158.489319,0.00048051432505213985
25,159.04000000000002,0.00047785390314710255
26,161.99,0.00046371653161833326
27,166.15,0.0004440204639709838
28,170.02,0.000425878946558666
29,173.18,0.00041121718648039093
30,176.80999999999997,0.00039478539412465114
31,180.09,0.00037983498601808696
32,181.970086,0.00037143327599896273
33,182.18,0.00037190872387689295
34,185.99,0.0003809672003192306
35,191.20000000000002,0.00039353631723906775
36,193.86,0.0004008684661463166
37,197.92000000000002,0.00041142004553106494
38,202.07,0.00042286697837508097
39,204.88,0.0004312628030477762
40,208.929613,0.0004416740894777817
41,210.13,0.00045474286532128154
42,216.02,0.0005247741734148075
43,220.04,0.0005722126190066533
44,223.1,0.0006075171140094021
45,227.25,0.0006577632141601885
46,229.88000000000002,0.0007315476625449041
47,234.14999999999998,0.0008691054615193273
48,239.88329199999998,0.0010058010676559654
49,240.16,0.0010073743880316057
50,245.75,0.0009741686726488611
51,252.06,0.0009763061339967823
52,256.74,0.0009031644327461123
53,259.71000000000004,0.00094979714926011
54,263.93,0.0009591862100981814
55,268.84000000000003,0.0009507818778031407
56,273.84,0.0009403766550994338
57,275.42287,0.0009379134378620696
58,278.93,0.0009919251608781806
59,284.12,0.0010707214203788608
60,290.07,0.0011360563230819523
61,296.14,0.0012415029115538457
62,300.95,0.0013106222994533198
63,307.96,0.001431252359780828
64,316.227766,0.0015776701214491498
65,318.05,0.0015822993897101124
66,327.72,0.0015966841802845155
67,337.66999999999996,0.0016030084411134003
68,347.92999999999995,0.0016055823725811746
69,356.86,0.0016139584203401628
70,363.078055,0.0016289334792487637
71,366.01,0.0016694734054142162
72,375.4,0.0017741954942478975
73,385.03000000000003,0.0018475258633073605
74,394.90999999999997,0.002014789565935345
75,405.03999999999996,0.0021563836021318513
76,414.46999999999997,0.0022545099043364963
77,416.86938299999997,0.0022761526275614247
78,422.18,0.0023134221593774443
79,430.03,0.002376013830161257
80,441.06,0.002494636494969596
81,451.33,0.0025672617712689284
82,459.71999999999997,0.002619434139151246
83,470.43,0.002699156798271582
84,478.630092,0.002786031117307255
85,480.28000000000003,0.002792059217623901
86,490.34000000000003,0.002746748266787653
87,499.46,0.0028064886314370986
88,506.4,0.002751376897957619
89,512.27,0.0028943553640203646
90,520.59,0.0028895587844023143
91,530.27,0.0028647421100390065
92,540.13,0.0027854286731358847
93,549.5408739999999,0.002788192696093421
94,550.1700000000001,0.0027900484197666956
95,560.4,0.002902312757491621
96,569.5,0.0030068892915382306
97,580.09,0.0029915332569836806
98,589.52,0.003061580866440772
99,600.48,0.0029895906437100955
100,610.23,0.0028046761444743204
101,620.15,0.00318069377499546
102,630.2299999999999,0.003184017351170166
103,630.957344,0.003188644901346403
104,640.47,0.003277791369891134
105,649.38,0.003342005452995482
106,658.41,0.0033622798368823804
107,664.5,0.0034887243515968
108,675.3000000000001,0.003552028422026313
109,684.69,0.003473443708260861
110,694.22,0.003790100845408385
111,705.5,0.0036592721189680987
112,715.31,0.003992159957941572
113,724.43596,0.00406933411092611
114,725.2599999999999,0.004075689060128733
115,735.35,0.004153711494906824
116,745.58,0.004306491535321082
117,754.22,0.004421459768867434
118,764.7099999999999,0.004320484362606004
119,775.35,0.004709045390954752
120,784.33,0.004788842809617513
121,795.24,0.004966533220264585
122,804.45,0.005120066705329621
123,815.64,0.00523865932724903
124,825.0799999999999,0.0055081218787163405
125,831.763771,0.005048759714546316
126,834.63,0.004842810692978878
127,844.3000000000001,0.00564645318342989
128,854.0799999999999,0.005712392970049423
129,865.96,0.0059757799562498385
130,875.9799999999999,0.006235222479964331
131,884.09,0.006595449679298115
132,894.33,0.006832666795349651
133,904.6800000000001,0.00674959720756971
134,915.16,0.009828645060716205
135,925.7600000000001,0.06021089578241017
136,934.32,0.131203433738797
137,945.14,0.257990849052828
138,954.992586,0.37514922639690923
139,956.08,0.38808176901697483
140,964.93,0.3995994716780662
141,976.1,0.056993088596076415
142,985.1400000000001,0.28327992690751885
143,994.25,0.34656164151119595
144,1005.76,0.5917655432772029
145,1015.07,0.6009661901444076
146,1024.46,0.26855130991702303
147,1033.94,0.37798369920822594
148,1045.92,0.8487218417935225
149,1055.59,0.8422973667350766
150,1065.3600000000001,0.6070984578083943
151,1075.22,0.7742254184002996
152,1085.17,0.559314048510792
153,1095.21,0.8456879481398719
154,1096.4782,0.8420204551006885
155,1105.34,0.8163867249865702
156,1115.57,0.7596129810384274
157,1125.8899999999999,0.6703353416889815
158,1133.7,0.9483127629758833
159,1144.19,0.8484770434239753
160,1154.77,0.9403329284707642
161,1165.46,0.9725967969159601
162,1176.24,0.6161695699598527
163,1184.4,0.9557091202416862
164,1195.3500000000001,0.571611113083117
165,1203.64,0.3647494255630677
166,1214.78,0.30811331700174704
167,1226.02,0.6592675024389782
168,1234.52,1.1007664923158882
169,1245.94,1.2255023869505126
170,1254.5700000000002,1.14301423902554
171,1258.92541,1.068134909840445
172,1266.18,0.943420369210443
173,1274.96,1.3316538312060908
174,1283.8,1.4291564977256266
175,1295.6799999999998,1.0133223934555005
176,1304.66,1.0010760705307757
177,1313.6999999999998,1.387251752129939
178,1325.8600000000001,1.3174516689712916
179,1335.0500000000002,1.0976953618801757
180,1344.3,1.442586059312948
181,1353.6200000000001,1.3927807620235901
182,1366.14,1.1953217060082721
183,1375.61,1.2947024200286346
184,1385.15,1.3148441393268668
185,1394.7499999999998,1.1338788631489871
186,1404.42,1.1864545922489773
187,1414.15,1.1993373258728557
188,1423.96,1.2694360655285848
189,1433.8300000000002,1.2540088097082025
190,1440.44,1.3523163080898917
191,1445.43977,1.3827468641579737
192,1447.0900000000001,1.3927907894912492
193,1453.77,1.3386372122075474
194,1463.85,1.2059828500788476
195,1474.0,1.2162084923798095
196,1484.21,1.2638011384776244
197,1494.5,1.30120178963791
198,1504.8600000000001,1.2106454452278572
199,1511.8100000000002,1.0394648850299937
200,1515.29,1.1499741052474666
201,1525.8,1.0973547703295463
202,1536.37,0.9183973392084791
203,1543.46,1.0660608878699391
204,1554.16,1.0010305649753868
205,1564.94,1.014129247143305
206,1575.78,1.0958029331080763
207,1586.71,1.1785906247681268
208,1594.03,1.2053760879841902
209,1605.0800000000002,1.1933377872379467
210,1616.2099999999998,1.211708491554174
211,1623.67,1.1276199636295607
212,1634.92,1.226838675539494
213,1646.25,1.251446392511898
214,1653.8500000000001,1.1380988734466082
215,1659.58691,1.2055081790665971
216,1665.3200000000002,1.2728748859072785
217,1673.0,1.0903344350537005
218,1676.8600000000001,1.2776492188694801
219,1684.6,1.3682307957436084
220,1696.28,1.2699221934037919
221,1704.1100000000001,1.20928481186948
222,1715.9199999999998,1.1249962696063602
223,1723.8400000000001,1.124337929663608
224,1735.7900000000002,1.22318445209847
225,1743.8000000000002,1.1946341537472773
226,1755.8899999999999,1.3056327408801214
227,1763.99,1.171047484120488
228,1776.22,1.2055001359513136
229,1784.4199999999998,1.2413419254045244
230,1796.79,1.3597306419333317
231,1805.08,1.352648472978102
232,1813.41,1.2160313225080104
233,1825.98,1.2575441314625055
234,1834.4099999999999,1.1974520272052578
235,1842.88,1.0838959414331475
236,1855.65,1.0778918428133308
237,1864.22,1.1279168032540647
238,1877.1399999999999,1.264253773953514
239,1885.8,1.1417407759858074
240,1894.51,1.094677801124523
241,1903.25,1.1775528401270916
242,1905.46072,1.1680579819697376
243,1916.45,1.1208483155737463
244,1925.29,1.1072700496856271
245,1934.18,1.148009754013073
246,1943.1100000000001,1.2040204345129704
247,1956.58,1.1199414105861643
248,1965.6100000000001,1.2643550315171919
249,1974.68,1.3048646286206715
250,1983.79,1.225369201896603
251,1992.95,1.1856687453880994
252,2006.76,1.2344995189271348
253,2016.03,1.175384996892874
254,2025.33,1.2498464569879524
255,2034.68,1.1736818872985955
256,2044.0700000000002,1.2394412937816905
257,2053.51,1.1773626704803506
258,2062.9900000000002,1.1765010233514626
259,2072.5099999999998,1.2830763523950266
260,2077.29,1.2277205050030346
261,2086.87,1.2964827983052765
262,2096.51,1.2174320558661962
263,2106.19,1.2193102895995678
264,2115.91,1.2381794995053916
265,2125.67,1.2573346855836671
266,2135.48,1.1458548418775079
267,2145.34,1.1989029683869132
268,2155.24,1.2573110710687707
269,2165.19,1.208109143966193
270,2175.19,1.1988451870791805
271,2185.23,1.1814592063646199
272,2187.7616199999998,1.1980679384182995
273,2195.31,1.2475972833207867
274,2205.45,1.2070720991935793
275,2215.63,1.1282139340638977
276,2225.85,1.0890637879317422
277,2236.13,1.195888670295875
278,2246.4500000000003,1.1334905716575339
279,2256.82,1.0631244967661
280,2267.23,1.098500440872192
281,2272.46,1.1426539247986913
282,2282.95,1.191643906899835
283,2293.49,1.1153099127478858
284,2304.07,1.1236709375934624
285,2314.71,1.0492669909353276
286,2325.39,0.7694500632747188
287,2336.1299999999997,0.9449047641103986
288,2346.9100000000003,0.9091463839436043
289,2352.32,1.02031385335897
290,2363.18,0.9057251111872272
291,2374.09,0.9489237927623917
292,2385.04,0.861974593335082
293,2396.05,0.941281722404061
294,2407.11,0.8953141752199474
295,2412.6600000000003,0.9334387111266533
296,2423.8,1.0263848019375914
297,2434.99,0.9852856164954364
298,2446.23,1.0636284548001889
299,2457.52,1.0544768168518488
300,2463.1800000000003,1.0355295050017508
301,2474.55,0.9895110050484619
302,2485.9700000000003,1.0061423288420805
303,2497.45,0.9548123811319879
304,2503.21,1.0990175167757044
305,2511.88643,0.9701291006996366
306,2514.7599999999998,0.9274403093421256
307,2520.56,0.9536830432234403
308,2526.37,0.9089305752666192
309,2532.19,0.9454708054716625
310,2543.88,0.9266049566910708
311,2555.62,1.0449915987198009
312,2567.42,0.9916582297197167
313,2573.34,1.0751473415434034
314,2585.21,1.0512851596763695
315,2597.1499999999996,1.027932964942386
316,2603.13,0.9819701657372589
317,2615.15,0.9645902562981902
318,2627.2200000000003,1.036507437668443
319,2633.28,1.1237783237582306
320,2645.43,1.2732200904233983
321,2657.64,1.358697846059752
322,2663.7699999999995,1.1462747192825897
323,2676.06,1.2317374602138582
324,2682.23,1.243484326084153
325,2694.61,1.1558410504722003
326,2707.0499999999997,1.224990763831434
327,2713.29,1.1201236168347795
328,2725.8199999999997,1.1002973136507916
329,2732.1,1.1820211593015946
330,2744.71,0.9569821414125216
331,2757.3799999999997,1.0026235124946346
332,2763.7400000000002,1.0721283434403521
333,2776.49,1.13889499981738
334,2782.89,1.0294988234105547
335,2795.74,0.786897261406226
336,2802.1800000000003,0.8590625776468579
337,2815.12,1.1200108990993083
338,2828.1099999999997,1.24867451136108
339,2834.63,1.2038583128966267
340,2847.71,1.1503479086151778
341,2854.28,1.054292700960046
342,2867.4500000000003,1.279912280135376
343,2874.07,1.3282910632895661
344,2884.0315,1.3016651326832134
345,2887.3300000000004,1.2928492198224726
346,2893.9900000000002,1.3111931947689777
347,2907.34,1.5096691445491337
348,2927.5,1.4198930687115268
349,2947.79,1.3887489923848875
350,2968.22,1.4521049155315984
351,2988.7999999999997,1.460107838114041
352,3009.52,1.502166760169834
353,3030.3799999999997,1.5138626816989769
354,3051.38,1.5256966027014698
355,3072.53,1.5589485231396945
356,3086.7099999999996,1.588785469797568
357,3108.11,1.6196653892953465
358,3129.6600000000003,1.5878533082288568
359,3151.35,1.600206226635717
360,3173.19,1.6312281444783097
361,3187.84,1.505850089368144
362,3209.94,1.611120006232672
363,3232.1899999999996,1.4740409225329323
364,3247.11,1.681562866407084
365,3269.61,1.8034027817668978
366,3292.28,1.7841996964872078
367,3307.4700000000003,1.7769796393456774
368,3311.31121,1.7700689686339164
369,3322.7400000000002,1.749506803041768
370,3330.4,1.8282322522045926
371,3338.08,1.7066566999292003
372,3345.77,1.7711971469346992
373,3353.4900000000002,1.6920695917828723
374,3361.22,1.727949035911937
375,3368.97,1.7403024786027843
376,3376.73,1.6097979205745232
377,3384.5199999999995,1.6552693603889361
378,3392.3199999999997,1.8492497994842407
379,3400.14,1.9592492371413281
380,3407.98,1.7874756733601984
381,3415.8300000000004,1.8086421088599598
382,3423.71,1.9698965422023955
383,3431.6000000000004,1.934538974825723
384,3439.51,1.917329406010833
385,3447.44,1.624905835757726
386,3455.39,1.7903632640664018
387,3463.35,1.6408076916559688
388,3471.34,1.8500281170882102
389,3479.34,1.6195145418013432
390,3487.36,1.7568549650762588
391,3495.4,1.7421283869129571
392,3503.46,1.9116678073114386
393,3511.5299999999997,1.8610712269908112
394,3519.63,1.8798656445128583
395,3527.74,1.6923250613157967
396,3535.87,1.8915634766805178
397,3544.02,2.047169890607022
398,3552.19,2.044147303095309
399,3560.38,1.9993307141453787
400,3568.5899999999997,1.7957521237572311
401,3576.8100000000004,1.7442325326499752
402,3585.06,1.5883609393853935
403,3585.82,1.766704884733141
404,3588.5,1.9571426920120405
405,3591.19,1.5654924985718315
406,3593.8700000000003,0.8404021058507308
407,3596.56,1.9798701124105218
408,3599.2400000000002,2.5846889196894214
409,3601.92,1.4704787269683208
410,3604.6099999999997,1.8736825335281118
411,3607.2900000000004,1.0762293408070112
412,3609.98,1.5765311473668022
413,3612.66,2.1914689546457016
414,3615.35,1.7368667612054927
415,3618.0299999999997,2.310011568484392
416,3620.7099999999996,1.8154663757632916
417,3623.4,1.6064961823230823
418,3626.08,1.505565989601982
419,3628.77,1.9658077961617728
420,3631.45,2.2736076034406723
421,3634.1400000000003,2.091315410000463
422,3636.82,1.9505652172793628
423,3639.51,2.2324630238391534
424,3642.19,1.924803831118053
425,3644.87,2.623328638396953
426,3647.5600000000004,2.2662414449567434
427,3650.2400000000002,2.017723252235643
428,3652.93,1.905350058795434
429,3655.61,1.6744418660743337
430,3658.2999999999997,1.7799696726341243
431,3660.9799999999996,2.568255479913024
432,3663.6600000000003,1.6903462871919233
433,3666.35,2.4752040937517146
434,3669.0299999999997,2.076731901030614
435,3671.72,1.7410687075904048
436,3674.4,2.6810185148693044
437,3677.09,1.8585593214290952
438,3679.77,1.6729931287079947
439,3682.45,1.7362119359868942
440,3685.14,1.6589287425466852
441,3687.82,2.116945549825585
442,3690.51,2.1006423563853756
443,3693.19,1.609515163664275
444,3695.88,1.815844970224066
445,3698.5600000000004,2.0057567775029654
446,3701.2400000000002,1.930323584781865
447,3703.93,1.8400293913416557
448,3706.61,2.800614198620555
449,3709.2999999999997,2.4875530051803465
450,3711.9799999999996,2.6192458124592455
451,3714.67,2.660110619019037
452,3717.35,3.834391426297936
453,3720.0299999999997,4.383622233576836
454,3722.72,6.039945040136626
455,3725.3999999999996,8.128291847415525
456,3728.09,8.810486653975316
457,3730.77,8.400858461254217
458,3733.46,6.751201267814007
459,3736.14,4.751730075092906
460,3738.8199999999997,3.773154882371806
461,3741.51,2.201705688931597
462,3744.19,2.5352654962104966
463,3746.88,2.0265163027702875
464,3749.56,1.8828731100491871
465,3752.2499999999995,1.617785916608978
466,3754.9300000000003,1.8795867238878776
467,3757.61,2.1267995311667773
468,3760.2999999999997,1.688756337726568
469,3762.98,1.8619771450054676
470,3765.67,1.9345179515652584
471,3768.35,2.683245758844158
472,3771.04,2.322478565403949
473,3773.72,2.0964343726828485
474,3776.3999999999996,2.657490179961748
475,3779.09,2.8606629865215387
476,3781.77,2.9132387938004385
477,3784.46,2.641839600360229
478,3787.14,2.5712714076391285
479,3789.83,2.2699082141989195
480,3792.51,2.311443021477819
481,3795.19,1.8890498287567186
482,3797.88,2.1952626353165097
483,3800.56,2.209592442595409
484,3801.8939600000003,2.176807180319755
485,3803.2500000000005,2.1434792694734033
486,3805.9300000000003,2.6971741169080388
487,3808.62,2.763928963773401
488,3811.3,2.6177908112080366
489,3813.98,2.530399658642672
490,3816.6699999999996,2.3998885055080343
491,3819.3500000000004,2.55024235294267
492,3822.04,2.434582199808032
493,3824.72,2.4486500472426678
494,3827.41,1.8822058941080297
495,3830.0899999999997,1.8496167415426656
496,3832.77,1.9006135889773013
497,3835.46,2.0177064358426633
498,3838.14,1.651037283277299
499,3840.83,2.355989130142661
500,3843.5099999999998,2.357834977577297
501,3846.2000000000003,2.648799824442659
502,3848.88,2.5996526718772945
503,3851.56,2.7739275193119304
504,3854.25,2.7532853661772925
505,3856.9300000000003,2.727532213611928
506,3859.6200000000003,2.5901860604772904
507,3862.3,2.605567907911926
508,3864.99,3.2910667547772876
509,3867.67,3.1800206022119237
510,3870.3500000000004,3.4192194496465595
511,3873.04,3.2477012965119214
512,3875.7200000000003,2.958181143946557
513,3878.41,2.6394689908119187
514,3881.0899999999997,2.213922838246555
515,3883.78,2.002849685111917
516,3886.46,2.206561532546553
517,3889.14,2.1889553799811883
518,3891.83,2.3253662268465503
519,3894.5099999999998,2.2417860742811864
520,3897.2000000000003,2.6330279211465477
521,3899.88,3.218922768581184
522,3902.57,2.8009856154465456
523,3905.25,2.909416462881181
524,3907.93,2.5305263103158175
525,3910.6200000000003,2.862758157181179
526,3913.3,3.140990004615815
527,3915.99,3.033212851481177
528,3918.67,2.9756556989158125
529,3921.3599999999997,3.1199505457811747
530,3924.04,2.99852039321581
531,3926.7200000000003,2.619236240650446
532,3929.41,2.4035620875158084
533,3932.0899999999997,1.947129934950444
534,3934.7799999999997,2.039252781815806
535,3937.46,2.373468629250442
536,3940.15,2.3110354761158036
537,3942.83,2.6477493235504395
538,3945.5099999999998,2.820446170985075
539,3948.2,2.8444890178504374
540,3950.88,3.064498865285073
541,3953.57,2.880101712150435
542,3956.25,2.6601035595850706
543,3958.94,2.3835804064504327
544,3961.6200000000003,2.6544502538850687
545,3964.3,2.1662141013197043
546,3966.9900000000002,1.7566909481850663
547,3969.67,1.977486795619702
548,3972.3599999999997,2.099048642485064
549,3975.0400000000004,2.6334234899197
550,3977.73,2.7833703367850617
551,3980.41,2.7359321842196977
552,3983.09,3.1416450316543334
553,3985.7799999999997,3.3160358785196955
554,3988.4599999999996,3.4638957259543313
555,3991.15,3.335089572819693
556,3993.83,3.2847614202543287
557,3996.52,3.213257267119691
558,3999.2,3.5368301145543266
559,4001.88,3.5832299619889625
560,4004.57,3.8104518088543244
561,4007.25,3.61897465628896
562,4009.94,3.829900503154322
563,4012.62,3.4502233505889577
564,4015.3100000000004,3.6390691974543197
565,4017.9900000000002,3.5056810448889557
566,4020.67,3.522905892323591
567,4023.36,3.708728739188953
568,4026.04,3.791533586623589
569,4028.73,3.876948433488951
570,4031.4100000000003,3.454822280923587
571,4034.1,3.288561127788949
572,4036.7799999999997,3.3491549752235845
573,4039.4600000000005,3.5753428226582202
574,4042.15,3.5591676695235823
575,4044.83,3.4132935169582184
576,4047.52,3.52302336382358
577,4050.2,3.8740642112582155
578,4052.8900000000003,3.533140058123578
579,4055.57,3.4805769055582134
580,4058.25,3.2737227529928496
581,4060.94,3.5264415998582113
582,4063.62,3.272800447292847
583,4066.3100000000004,3.4934512941582088
