,lambda (Angstroms),Total Flux (erg/s/cm^2/Angstrom)
0,102.01,0.07671650398296727
1,103.91,0.08978631552422192
2,104.712855,0.09530903322050073
3,106.08,0.08746220269463409
4,108.06,0.0760978455554902
5,110.06,0.06461869765836303
6,113.93,0.04240654677616827
7,117.94000000000001,0.019390857113237243
8,120.22644299999999,0.006267676924646462
9,120.96000000000001,0.006072869137865365
10,124.92,0.005021202907087012
11,126.95,0.004482092300595154
12,128.13,0.004168719392643879
13,131.10999999999999,0.0033773220989260786
14,132.02,0.0031356769200162732
15,133.86,0.002647037899353603
16,136.98,0.0018185157784342996
17,138.038426,0.0015374436740643004
18,139.85,0.001520492530438745
19,143.1,0.0014907624985288999
20,147.11,0.0014553706630275219
21,150.89,0.0014206974132406865
22,155.11,0.0013821179346955954
23,158.489319,0.0013514548376498652
24,159.09,0.0013429818173036588
25,162.05,0.0013013600189030546
26,165.82,0.0012487439127374207
27,170.07999999999998,0.0011891583394176323
28,172.84,0.0011509954557738255
29,176.87,0.0010952361134243542
30,180.16,0.0010497823556750343
31,181.82,0.0010272690231936145
32,181.970086,0.0010252150607852981
33,186.06,0.0010471532746843288
34,190.82999999999998,0.0010736947470370059
35,193.93,0.001091270497245245
36,197.99,0.0011143003037760353
37,202.14,0.0011384466380870647
38,204.95,0.0011555273521145328
39,208.929613,0.0011776992491496577
40,210.21,0.0012149549142515918
41,216.1,0.0013928547205568332
42,220.10999999999999,0.001513445466666174
43,223.18,0.0016048309576775655
44,226.79999999999998,0.0017158930332675437
45,229.95999999999998,0.0018544227859372492
46,234.23,0.0020765453723928322
47,239.88329199999998,0.0023119222183514993
48,240.24,0.00230845214830855
49,245.84,0.0021895308965078
50,252.14000000000001,0.0020948301882319563
51,256.83,0.0019514018798488292
52,259.81,0.0019483689651405727
53,264.03,0.0018928089275335796
54,268.94,0.0018066170328297074
55,273.94,0.0017188959437218953
56,275.42287,0.0016928625196605844
57,279.03000000000003,0.001802566151353601
58,284.21999999999997,0.001961463319549191
59,290.17,0.0021180096534150444
60,296.24,0.0023150812871235685
61,301.06,0.002457698964137586
62,308.07,0.0026821754132803797
63,316.227766,0.0029469561868550593
64,318.15999999999997,0.002926755862340681
65,327.83,0.002814170132376432
66,337.79,0.002691127009786573
67,348.05999999999995,0.002559826239907273
68,356.98,0.002449534259836837
69,363.078055,0.002378291644556675
70,366.14,0.002441427578101188
71,374.67,0.0026095594862009124
72,385.17,0.0027735889264174545
73,395.05,0.0029991613768307343
74,405.18,0.0032024357424872653
75,413.67,0.003361091264148069
76,416.86938299999997,0.003415355409588505
77,422.33,0.0034770428412957263
78,430.18,0.0035715885611497626
79,441.21,0.0037194803942695105
80,451.49,0.00383307250256244
81,459.88,0.003927681864291786
82,469.51,0.0040435348110681385
83,478.630092,0.004152931086681889
84,480.45,0.004139027726615221
85,490.51,0.004034119918230675
86,499.63,0.003979229813611682
87,506.58000000000004,0.0039018114400259356
88,512.45,0.003945995236724018
89,519.5799999999999,0.003890124834757636
90,530.46,0.003784950008194626
91,540.3199999999999,0.0036551570091219003
92,549.5408739999999,0.0036079890907916197
93,550.36,0.003609953517155954
94,560.59,0.0036565935790788947
95,569.7,0.003697810209002452
96,580.3,0.003645949833282332
97,589.7199999999999,0.0037071145559914327
98,600.6899999999999,0.0036625827426282516
99,610.45,0.0035366427929085934
100,620.37,0.0037853567620459907
101,630.45,0.003794914650040442
102,630.957344,0.0037948939305302147
103,640.69,0.003877345445754489
104,649.6,0.004017693327506498
105,658.6400000000001,0.004117409515052869
106,664.74,0.00422722101771137
107,675.5400000000001,0.0043032722683198675
108,684.93,0.0043143788945433645
109,694.4599999999999,0.004693193696237713
110,705.75,0.004670864560994187
111,715.5699999999999,0.005013593583306728
112,724.43596,0.005133283444615538
113,725.5200000000001,0.0051456344513139485
114,735.61,0.005254335022928141
115,745.85,0.005529283674397848
116,754.48,0.005708752668751711
117,764.98,0.00577140025863764
118,775.62,0.006163400123055381
119,784.6,0.006387833303738776
120,795.52,0.006586495717220142
121,804.73,0.006787456420348657
122,815.92,0.006968240577569947
123,825.37,0.007366861608467283
124,831.763771,0.00688467623089762
125,834.93,0.006617898996888865
126,844.5999999999999,0.007558776454149558
127,854.38,0.007649054125505253
128,864.27,0.00796823201095595
129,874.2800000000001,0.008312967493601196
130,884.4000000000001,0.008762448190341445
131,894.64,0.009069474484276243
132,905.0,0.008990256375405589
133,915.48,0.012997714863729483
134,923.95,0.07964059234904469
135,934.6500000000001,0.1756702122655586
136,945.47,0.34402272477926704
137,954.22,0.5080300849913695
138,954.992586,0.5108216317631373
139,965.27,0.548008954989936
140,974.2,0.08070180912720684
141,985.48,0.4237645917216543
142,994.6,0.4862974538192927
143,1006.1199999999999,0.7787340164689412
144,1015.43,0.7751663965269471
145,1024.82,0.3376590999366866
146,1034.31,0.5114544075360932
147,1043.8799999999999,1.0793063384872335
148,1055.96,1.0669757645990177
149,1065.73,0.8023100039294921
150,1075.6000000000001,0.9980965474496336
151,1085.55,0.750549714321509
152,1095.5900000000001,1.0767917949640846
153,1096.4782,1.0735927232272011
154,1105.73,1.0402512006968503
155,1115.96,0.986630624098465
156,1126.29,0.877432047631083
157,1134.09,1.191343157849323
158,1144.5900000000001,1.071694671604646
159,1155.18,1.1722249154778719
160,1165.87,1.216144859482101
161,1173.95,0.8001905300671496
162,1184.81,1.1911840642940836
163,1195.77,0.755444198652021
164,1204.06,0.507568739512176
165,1215.2,0.3826119341059188
166,1223.63,0.8149028551494782
167,1234.95,1.3179047099790264
168,1246.3799999999999,1.4683724349526783
169,1255.02,1.3830845262713443
170,1258.92541,1.2822656540012283
171,1263.72,1.158507837818947
172,1275.4099999999999,1.5878173312358426
173,1284.25,1.6896372167623914
174,1296.13,1.2585787507053103
175,1305.12,1.241325668226088
176,1314.16,1.6550925964116086
177,1326.32,1.5768751900770877
178,1335.52,1.351615152389786
179,1344.7700000000002,1.7053341253672267
180,1354.1000000000001,1.6512921154082563
181,1363.48,1.441579116114029
182,1376.1000000000001,1.548111807895143
183,1385.6399999999999,1.5697328427280928
184,1395.24,1.3610168903587343
185,1404.91,1.4251169529200158
186,1414.65,1.4482480304119372
187,1424.4599999999998,1.5164651228344992
188,1434.3300000000002,1.5025842280547521
189,1440.95,1.6062766400667152
190,1445.43977,1.634118222631873
191,1447.6,1.6475139844277065
192,1454.28,1.5915291802558251
193,1464.3600000000001,1.4482699847389746
194,1474.51,1.454946801753257
195,1484.74,1.5025846330888342
196,1495.03,1.5411344751653824
197,1505.39,1.4482693297730638
198,1512.3400000000001,1.2615185739355526
199,1515.83,1.3767741987020399
200,1526.33,1.323968078371987
201,1533.38,1.1270193404360944
202,1544.0100000000002,1.2879212433781457
203,1554.71,1.2103461588513302
204,1565.49,1.2271770886458093
205,1576.34,1.3209300309714214
206,1583.6100000000001,1.4088453324190897
207,1594.59,1.444962298016806
208,1605.64,1.4218812761456552
209,1616.77,1.4383312685957992
210,1624.2400000000002,1.3485706058467046
211,1635.5,1.4549506215689527
212,1646.83,1.485425649822334
213,1654.43,1.3579340103453432
214,1659.58691,1.4245400004843143
215,1665.8999999999999,1.506086186755162
216,1673.5900000000001,1.311885240058926
217,1677.45,1.5165352863206332
218,1685.19,1.6063384049904816
219,1696.8700000000001,1.4992116745077724
220,1704.7,1.4317999108365724
221,1716.52,1.345575363378899
222,1724.4399999999998,1.342482717366651
223,1736.3999999999999,1.4517383529340135
224,1744.41,1.415452824580717
225,1756.5,1.5341526300998987
226,1764.6100000000001,1.3864862324787708
227,1776.8400000000001,1.4318922210229885
228,1785.04,1.4652349410608125
229,1793.28,1.591738713391504
230,1805.72,1.5807659764732755
231,1814.0500000000002,1.4385398664629188
232,1826.62,1.4822422994965097
233,1835.06,1.4155643332915382
234,1843.53,1.2881824063062173
235,1856.3,1.2911681008041453
236,1864.8700000000001,1.342664304550993
237,1873.4799999999998,1.482300560590708
238,1886.47,1.3519865426994069
239,1895.1699999999998,1.2971679163980738
240,1903.92,1.386655355462825
241,1905.46072,1.3797353349158565
242,1917.12,1.3273337220181698
243,1925.9699999999998,1.3091398084212142
244,1934.86,1.348849827418171
245,1943.79,1.4188687790090402
246,1952.76,1.324232663193821
247,1966.3,1.4754258462330556
248,1975.37,1.5202085619026164
249,1984.4899999999998,1.431926193314568
250,1993.6499999999999,1.389706757320431
251,2002.85,1.4385002539202063
252,2016.74,1.3801028471561716
253,2026.0500000000002,1.4584441583892052
254,2035.4,1.3737434022161505
255,2044.79,1.4450645786370082
256,2054.23,1.376885670800256
257,2063.71,1.3800306955574155
258,2073.2400000000002,1.4922976360569655
259,2078.02,1.4284555810294575
260,2082.81,1.4957265091504275
261,2097.25,1.4088321755526834
262,2106.93,1.4153148632794037
263,2116.65,1.4349874836000358
264,2126.42,1.454919019663058
265,2136.2400000000002,1.3392444714684704
266,2146.1,1.3926478558677946
267,2156.0,1.4548771728610312
268,2165.9500000000003,1.4022714055966579
269,2175.9500000000003,1.3894005540746746
270,2186.0,1.373484618295081
271,2187.7616199999998,1.3859362507200585
272,2196.09,1.4448288393691795
273,2206.2200000000003,1.3990344496242937
274,2216.41,1.3177971404929623
275,2226.64,1.2760288851040007
276,2236.91,1.3862526834574087
277,2247.2400000000002,1.3209095624243712
278,2252.42,1.2499465220612411
279,2262.82,1.2849754950773504
280,2273.26,1.3270915218358292
281,2283.75,1.3800596157722707
282,2294.29,1.2939947768866737
283,2304.88,1.2999990051790389
284,2315.52,1.2273673006493662
285,2326.21,0.9313234632976554
286,2336.9500000000003,1.1195260931239068
287,2342.34,1.0766083349082174
288,2353.15,1.1913158587836157
289,2364.01,1.071717449836976
290,2374.92,1.1144981080682985
291,2385.88,1.0189038334775828
292,2396.9,1.1018176395004218
293,2402.42,1.0522920559474338
294,2413.51,1.0892709560194196
295,2424.65,1.1806449232693674
296,2435.84,1.1353999576972773
297,2447.09,1.213751072738742
298,2452.73,1.1998776504128628
299,2464.05,1.1834768595034741
300,2475.42,1.1329111357720476
301,2486.85,1.1513394926541756
302,2492.58,1.092024191248628
303,2504.09,1.2393286556154952
304,2511.88643,1.1231864989083427
305,2515.64,1.067263178751697
306,2527.26,1.0454001364353636
307,2533.08,1.0771421100772685
308,2544.77,1.059958031361439
309,2556.52,1.1755459214460413
310,2562.41,1.1227078586884507
311,2574.24,1.208481707173629
312,2586.12,1.1837295296591674
313,2592.09,1.1594824253021527
314,2604.05,1.109917206188267
315,2616.0699999999997,1.0922149558748135
316,2622.1,1.1621948203182306
317,2634.2,1.245247528405353
318,2646.3599999999997,1.3906442052929078
319,2652.46,1.4696100333368287
320,2664.71,1.2625856634250312
321,2677.01,1.3435252675135938
322,2683.18,1.359077059158019
323,2695.5600000000004,1.2655456216471574
324,2708.0,1.331265152936728
325,2714.2500000000005,1.2254599029817292
326,2726.77,1.2059063926718758
327,2733.06,1.289112121917165
328,2745.68,1.0675185596080317
329,2752.0,1.112657273253537
330,2764.71,1.1812456641450515
331,2777.4700000000003,1.2425830290369262
332,2783.87,1.1333677010830074
333,2796.72,0.88205621917553
334,2803.1699999999996,0.9559913652219713
335,2816.11,1.222791936515142
336,2822.6,1.3375765617618711
337,2835.63,1.29222478625569
338,2842.1600000000003,1.2312913907027072
339,2855.28,1.136069568397174
340,2861.8700000000003,1.3500011416446231
341,2875.07,1.3942252777396658
342,2881.7,1.3594028301874033
343,2884.0315,1.3632761150422361
344,2895.0,1.3815035010999381
345,2908.3700000000003,1.5607463588194757
346,2928.5299999999997,1.4768951442813958
347,2948.83,1.4433349282534682
348,2969.27,1.494070710735693
349,2989.85,1.4975614917280697
350,3010.57,1.532442271230599
351,3031.44,1.5395920491368627
352,3052.45,1.5502488255532787
353,3066.54,1.5755126756107416
354,3087.8,1.5901084493667152
355,3109.2,1.6159902216328408
356,3130.76,1.5866089921962832
357,3152.46,1.586612761269878
358,3167.01,1.6161346064321271
359,3188.96,1.5049363728452791
360,3211.0699999999997,1.5940671375557482
361,3233.32,1.4708119007763696
362,3248.2499999999995,1.654021741894746
363,3270.7599999999998,1.7600995023485073
364,3293.44,1.7360402609931675
365,3308.64,1.7240200992382662
366,3311.31121,1.7247386910266642
367,3323.91,1.7281255078444853
368,3331.5699999999997,1.7602429495734035
369,3339.2500000000005,1.631498387233729
370,3346.9500000000003,1.8431718208254613
371,3354.67,1.7005782503486009
372,3362.3999999999996,1.5945076778374438
373,3370.15,1.6316431012576942
374,3377.9199999999996,1.7361825206093515
375,3385.71,1.6850449358924158
376,3393.51,1.7972013491411838
377,3401.3300000000004,1.9256417583213588
378,3409.17,1.7164011634329408
379,3417.0299999999997,1.68900156447593
380,3424.91,1.8605049614503264
381,3432.81,1.9346043543561298
382,3440.72,1.8222997452276368
383,3448.6499999999996,1.6468401320305508
384,3456.6000000000004,1.716535514764872
385,3464.57,1.6094028934306004
386,3472.56,1.8057072680277355
387,3480.56,1.6393766405905745
388,3488.58,1.7445370090848205
389,3496.63,1.7008493714761772
390,3504.6899999999996,1.8267047318332372
391,3512.77,1.7647640881217046
392,3520.86,1.8606394423758754
393,3528.98,1.609543790527157
394,3537.1200000000003,1.8437351346098454
395,3545.27,1.8866524766582378
396,3553.44,1.935047814638037
397,3561.63,1.8694521485492432
398,3569.84,1.6585374783918567
399,3575.27,1.3538973737688835
400,3577.95,1.5736178285774345
401,3580.62,1.0204142854202822
402,3583.29,1.4961487422631294
403,3585.97,1.6280941970716807
404,3588.6400000000003,1.403255653914528
405,3591.31,1.6772511107573755
406,3593.98,1.2490135676002232
407,3596.66,1.206703022408774
408,3599.33,1.9064244792516216
409,3602.0,1.7649039360944692
410,3604.6800000000003,1.82135339090302
411,3607.35,1.6443748477458675
412,3610.02,1.471764304588715
413,3612.69,1.2898847614315625
414,3615.37,1.6501552162401136
415,3618.04,1.580155673082961
416,3620.7099999999996,1.7069211299258087
417,3623.3900000000003,1.6749565847343595
418,3626.06,1.571936041577207
419,3628.73,2.0304444984200547
420,3631.4,1.924532955262902
421,3634.08,1.586389410071453
422,3636.7500000000005,1.9742888669143006
423,3639.42,1.782092323757148
424,3642.1,1.579386778565699
425,3644.77,2.3175942354085466
426,3647.44,1.6262616922513942
427,3650.12,1.926040147059945
428,3652.7900000000004,2.0978496039027923
429,3655.46,2.03774206074564
430,3658.13,1.6355435175884874
431,3660.81,1.4800889723970385
432,3663.48,1.783605429239886
433,3666.15,2.073807886082734
434,3668.83,2.1766693408912845
435,3671.4999999999995,1.784819797734132
436,3674.17,1.8717152545769795
437,3676.84,2.241048711419827
438,3679.52,1.8012521662283778
439,3682.19,1.6309696230712256
440,3684.8599999999997,1.484045079914073
441,3687.5400000000004,1.247862534722624
442,3690.21,1.4306419915654716
443,3692.88,1.604490448408319
444,3695.55,1.7764509052511666
445,3698.23,1.9537283600597175
446,3700.8999999999996,1.991014816902565
447,3703.5699999999997,2.2306942737454123
448,3706.25,2.0232697285539634
449,3708.92,1.734290185396811
450,3711.59,1.8987946422396584
451,3714.2599999999998,2.070148099082506
452,3716.94,1.699287553891057
453,3719.6099999999997,2.1412080107339047
454,3722.28,2.111232467576752
455,3724.96,3.020625922385303
456,3727.63,3.7516833792281505
457,3730.2999999999997,4.014952836070998
458,3732.97,4.073698292913845
459,3735.6499999999996,3.4698497477223964
460,3738.32,3.126545204565244
461,3740.9900000000002,2.3411676614080914
462,3743.67,2.1593081162166423
463,3746.34,1.9184165730594898
464,3749.0099999999998,1.8388300299023375
465,3751.6899999999996,1.9143024847108883
466,3754.36,1.873520941553736
467,3757.03,2.122788398396583
468,3759.7000000000003,2.536253855239431
469,3762.38,2.0436513100479816
470,3765.0499999999997,2.0803277668908295
471,3767.72,2.250768223733677
472,3770.3999999999996,1.971212678542228
473,3773.07,1.9258661353850752
474,3775.7400000000002,2.010478592227923
475,3778.41,1.9430670490707704
476,3781.0899999999997,1.8383625038793214
477,3783.7599999999998,2.4796339607221687
478,3786.4300000000003,2.652052417565016
479,3789.11,2.4972798723735674
480,3791.78,2.254562329216415
481,3794.45,2.0196057860592624
482,3797.12,1.80321324290211
483,3799.7999999999997,2.353625697710661
484,3801.8939600000003,2.2068339702089927
485,3802.47,2.1664521789701094
486,3805.1400000000003,1.9468647489862179
487,3807.82,2.2207733173918993
488,3810.4900000000002,2.2292988874080075
489,3813.16,2.097973457424116
490,3815.83,2.305545027440224
491,3818.5099999999998,2.232034595845906
492,3821.1800000000003,2.274951165862014
493,3823.85,2.2784547358781224
494,3826.53,2.0594643042838037
495,3829.2,1.9002918742999122
496,3831.87,1.8771634443160203
497,3834.54,1.6546840143321286
498,3837.2200000000003,1.5647415827378102
499,3839.8900000000003,1.7933121527539184
500,3842.56,1.930272722770027
501,3845.24,1.7983282911757084
502,3847.91,1.7243728611918168
503,3850.58,1.876703431207925
504,3853.26,2.2562219996136066
505,3855.9300000000003,2.3657915696297147
506,3858.6,2.447970139645823
507,3861.27,2.2696227096619315
508,3863.95,2.340375278067613
509,3866.62,2.504728848083721
510,3869.2900000000004,2.443252418099829
511,3871.9700000000003,2.1425439865055114
512,3874.64,2.272657556521619
513,3877.31,2.3714231265377275
514,3879.98,2.0710296965538357
515,3882.66,2.4516132649595175
516,3885.3300000000004,2.206156834975626
517,3888.0,1.932090404991734
518,3890.6800000000003,2.1913899733974156
519,3893.35,2.3528515434135238
520,3896.02,2.411290113429632
521,3898.69,2.5449046834457403
522,3901.37,2.605156251851422
523,3904.0399999999995,2.5607238218675303
524,3906.71,2.6870333918836384
525,3909.39,2.6304139602893204
526,3912.06,2.9419215303054282
527,3914.73,2.7679881003215367
528,3917.3999999999996,2.813797670337645
529,3920.0800000000004,2.7375462387433265
530,3922.75,2.590547808759435
531,3925.42,2.413722378775543
532,3928.1,2.500453947181225
533,3930.77,2.069190517197333
534,3933.44,2.117433087213441
535,3936.1099999999997,2.0124336572295496
536,3938.79,1.892207225635231
537,3941.46,2.1277777956513395
538,3944.13,2.4510033656674475
539,3946.81,2.575320934073129
540,3949.48,2.598151504089237
541,3952.1499999999996,2.6931120741053456
542,3954.83,2.556752642511027
543,3957.5,2.7246062125271355
544,3960.17,2.780306782543244
545,3962.84,2.319063352559352
546,3965.52,1.9285719209650336
547,3968.1899999999996,1.9498794909811417
548,3970.86,1.8037920609972502
549,3973.54,1.8783516294029317
550,3976.21,1.9631151994190401
551,3978.88,2.039358769435148
552,3981.5499999999997,2.3989533394512566
553,3984.2300000000005,2.4640759078569383
554,3986.9,2.3438604778730463
555,3989.57,2.453582047889155
556,3992.25,2.5815526162948363
557,3994.92,2.8058631863109444
558,3997.5899999999997,3.0332177563270526
559,4000.2599999999998,2.975699326343161
560,4002.94,2.8376648947488423
561,4005.61,2.998062464764951
562,4008.28,3.1923950347810592
563,4010.96,3.131512603186741
564,4013.63,3.207453173202849
565,4016.2999999999997,3.0673027432189572
566,4018.9700000000003,2.9569793132350655
567,4021.65,3.118578881640747
568,4024.32,3.1159954516568553
569,4026.99,3.1230000216729636
570,4029.67,3.0907275900786453
571,4032.3399999999997,3.2505161600947536
572,4035.0099999999998,3.2164327301108617
573,4037.69,2.9187652985165435
574,4040.36,3.0441618685326515
575,4043.03,3.17381943854876
576,4045.7,2.8865160085648682
577,4048.3799999999997,2.9111575769705498
578,4051.0499999999997,3.1476421469866582
579,4053.7200000000003,3.075514717002766
580,4056.4,2.941589285408448
581,4059.07,2.971723855424556
582,4061.74,2.9977494254406643
583,4064.41,3.060145995456773
584,4067.0899999999997,3.185375563862454
585,4069.76,3.116291133878563
586,4072.4300000000003,3.1873617038946707
587,4075.11,3.0858492723003526
588,4077.7799999999997,3.2865728423164606
