,lambda (Angstroms),Total Flux (erg/s/cm^2/Angstrom)
0,101.99,0.026683425591877842
1,103.89,0.03123707441959331
2,104.712855,0.03321079205346751
3,106.07000000000001,0.030524126662158826
4,108.03999999999999,0.026635766587323282
5,110.05,0.0227077115505621
6,113.91,0.015111292324742146
7,117.92,0.007220008791701199
8,120.22644299999999,0.0034623450395827094
9,120.94000000000001,0.0036550996048900016
10,124.89999999999999,0.003594407118839733
11,126.92999999999999,0.00352586942018265
12,128.10999999999999,0.003509918467268681
13,131.09,0.0034031601116045872
14,132.0,0.003685426419103136
15,134.14000000000001,0.003598147318055767
16,136.95000000000002,0.003962324311540297
17,138.038426,0.003940357326333585
18,140.14000000000001,0.00408476126911704
19,143.07999999999998,0.009620802067421901
20,147.09,0.02130953056102819
21,150.86,0.022329331132323875
22,155.09,0.023715474638048215
23,158.489319,0.025032569189223166
24,159.06,0.02525268792895872
25,162.02,0.02628658661602276
26,166.18,0.028109844770815462
27,170.04999999999998,0.029396043054240404
28,172.81,0.030610081830016334
29,176.83999999999997,0.03201404004247177
30,180.12,0.03303492858759678
31,181.79000000000002,0.03378821784685251
32,181.970086,0.03384722651261517
33,186.03,0.035204370314662704
34,190.8,0.036941135921480184
35,193.9,0.038317614261340595
36,197.96,0.03965766737741584
37,202.1,0.04123634922484233
38,204.91,0.042289420913554504
39,208.929613,0.042222045846503305
40,210.17000000000002,0.04221138009501919
41,216.06,0.046195907137216
42,220.07999999999998,0.04783864055141484
43,223.14000000000001,0.04830947285177515
44,226.76000000000002,0.05013677746854128
45,229.92,0.07562100696825977
46,234.19,0.12544280338085406
47,239.88329199999998,0.15644692720691541
48,240.2,0.15816598876442534
49,245.79,0.14660279050150024
50,252.1,0.15484849639791218
51,256.79,0.12622864293581584
52,259.76,0.14852263509308106
53,263.98,0.15617266502697302
54,268.89,0.154713640613563
55,273.89,0.1525469917200701
56,275.42287,0.1515958072249516
57,278.98,0.1494477233561828
58,284.17,0.14915392756603893
59,290.12,0.1408860634135618
60,296.19,0.14029773057229528
61,301.0,0.13498186896331799
62,308.02,0.1356512006691349
63,316.227766,0.13571905594172776
64,318.11,0.13570659157000267
65,327.77,0.132584981295983
66,337.72999999999996,0.1277490825041366
67,347.98999999999995,0.12308699519446353
68,356.92,0.12162918031382215
69,363.078055,0.12271883151104893
70,366.08000000000004,0.12328366365650502
71,374.6,0.11971352272600305
72,385.1,0.11052720960742665
73,394.97999999999996,0.11470155040632811
74,405.10999999999996,0.11554501946431109
75,413.59,0.11245778201235605
76,416.86938299999997,0.11056923869684804
77,422.25,0.10746005453501957
78,430.1,0.10409689449083338
79,441.14,0.1038924378172263
80,451.41,0.10088461136451393
81,459.8,0.09596769311346653
82,470.51000000000005,0.09340436367738576
83,478.630092,0.09342512917680514
84,480.37000000000006,0.09341772512403744
85,490.43,0.08720223361428253
86,499.53999999999996,0.08918338381767545
87,506.49,0.08460011233727817
88,512.36,0.09436406501498579
89,519.48,0.0913785064911831
90,530.36,0.08665905571323743
91,540.22,0.07887447719572417
92,549.5408739999999,0.07605363491412907
93,550.27,0.07583487516994336
94,560.5,0.08064552626719103
95,569.6,0.08249903885614057
96,580.19,0.07934333708877525
97,589.62,0.07824949455182956
98,600.58,0.07140406734027868
99,610.34,0.06282265967743775
100,620.26,0.07369798074143549
101,630.34,0.06991345053227191
102,630.957344,0.07001001172590625
103,640.58,0.07154355061045324
104,649.4900000000001,0.06867990886482436
105,658.53,0.06488010755388327
106,664.6199999999999,0.0676133640711807
107,675.4200000000001,0.06763241710678204
108,684.81,0.06133428927384655
109,694.3399999999999,0.0645020588321133
110,705.62,0.05718283578040804
111,715.4399999999999,0.06279419707759372
112,724.43596,0.06204074404787155
113,725.3900000000001,0.0619601415220574
114,735.48,0.060991796080162405
115,745.71,0.05868901570646708
116,754.35,0.05724354134393262
117,764.8399999999999,0.050877541811179545
118,775.48,0.0550967869943547
119,784.46,0.05135909065459086
120,795.38,0.052549005974165355
121,804.59,0.05243735153215812
122,815.78,0.05174055734040342
123,825.23,0.05116566444388135
124,831.763771,0.04631312753422039
125,834.78,0.04406376416589383
126,844.45,0.048767435740818876
127,854.23,0.04743875595827151
128,864.12,0.04752548481825173
129,874.12,0.04686348232075954
130,884.25,0.046103626400799944
131,894.48,0.04535625015586543
132,904.8399999999999,0.04401661048846352
133,915.32,0.043596958431091695
134,925.92,0.07826142398374998
135,934.49,0.11309475913339916
136,945.3100000000001,0.14286380197111262
137,954.0500000000001,0.16057881956830442
138,954.992586,0.16141886066409275
139,965.1,0.17044457699525953
140,974.0300000000001,0.08222852833206422
141,985.31,0.13895765844171223
142,994.4300000000001,0.1336377266154702
143,1005.94,0.159455500264588
144,1015.25,0.1612920052752993
145,1024.64,0.11123518369104352
146,1034.1200000000001,0.1411894321874498
147,1046.1,0.1838315495911363
148,1055.78,0.17679303160012502
149,1065.55,0.15123798368977584
150,1075.41,0.16313400586008872
151,1085.36,0.13955759811106372
152,1095.4,0.1642555604427008
153,1096.4782,0.1634333988196835
154,1105.54,0.15651707349699578
155,1115.77,0.15189992951035558
156,1126.09,0.1351113918816042
157,1133.89,0.1557723762319665
158,1144.39,0.14740685131899267
159,1154.98,0.14705633276390767
160,1165.66,0.14437302056671145
161,1173.74,0.10373901358606112
162,1184.6,0.1366130141046425
163,1195.56,0.11685901057643364
164,1203.8500000000001,0.10020036509752384
165,1214.99,0.07892881428509256
166,1226.23,0.11261329942587107
167,1234.73,0.1322400554487018
168,1246.16,0.1352982629005789
169,1254.79,0.1310095836625823
170,1258.92541,0.12870717448692887
171,1266.41,0.12454843481927051
172,1275.1799999999998,0.1381124838676954
173,1284.02,0.13938753809666646
174,1295.9,0.12006091730935607
175,1304.8899999999999,0.11951018263949745
176,1313.93,0.13467275167002893
177,1326.0900000000001,0.12862525160490312
178,1335.28,0.11923913173660494
179,1344.54,0.1292187170488529
180,1353.8600000000001,0.12541600680156897
181,1366.38,0.11573463337925197
182,1375.8500000000001,0.11573643423313838
183,1385.3899999999999,0.11441304026757095
184,1395.0000000000002,0.09115765148254966
185,1404.66,0.08909307639791848
186,1414.4,0.10607158723391147
187,1424.2099999999998,0.1036610132504506
188,1434.0800000000002,0.10582424370745788
189,1440.7,0.10729413363910814
190,1445.43977,0.10729398549591067
191,1447.3500000000001,0.10729390307107325
192,1454.03,0.10366391799251796
193,1464.1100000000001,0.09766060410152434
194,1474.26,0.09766187455850994
195,1484.47,0.09810950874233486
196,1494.76,0.09721748789527887
197,1505.13,0.09242931201734197
198,1512.0700000000002,0.08510302308842375
199,1515.56,0.08788433986624442
200,1526.06,0.08648196206312607
201,1536.6399999999999,0.07554052922912681
202,1543.74,0.07166125023844677
203,1554.44,0.07036059485812618
204,1565.21,0.07571956382578478
205,1576.06,0.07945383776256248
206,1583.33,0.08111162933126052
207,1594.31,0.08129427134285677
208,1605.3600000000001,0.07908933770243222
209,1616.4899999999998,0.07783104903112677
210,1623.95,0.07554538240148267
211,1635.21,0.07854741180499576
212,1646.54,0.07837100555648804
213,1654.14,0.0755472076228024
214,1659.58691,0.07688879648966758
215,1665.61,0.07837465806687235
216,1673.3,0.07184192630339752
217,1677.15,0.08001532268969425
218,1684.89,0.08020234360656092
219,1696.57,0.07626435173433906
220,1704.41,0.07385661801188875
221,1716.22,0.07023140510855483
222,1724.14,0.06912172767465097
223,1736.0900000000001,0.07236588827627329
224,1744.1100000000001,0.07072811620305243
225,1756.2,0.072874730309631
226,1764.3,0.06897834452495659
227,1776.53,0.0683544421364914
228,1784.73,0.06930559171250002
229,1792.97,0.07172990943278185
230,1805.4,0.07108429776568272
231,1813.73,0.06606952631057929
232,1826.3,0.0669838581484364
233,1834.73,0.06517514205401598
234,1843.2,0.060304814103868794
235,1855.98,0.060584941199160275
236,1864.5400000000002,0.06199363407362781
237,1873.15,0.06460063962843686
238,1886.13,0.06005053744509441
239,1894.8400000000001,0.058295388360586495
240,1903.59,0.06102605742035179
241,1905.46072,0.060696568609340786
242,1916.78,0.058691157560585766
243,1925.63,0.05632426292796334
244,1934.5200000000002,0.057228564907170855
245,1943.4499999999998,0.06058525349820834
246,1956.92,0.056564197531945734
247,1965.9499999999998,0.061271537652558106
248,1975.0300000000002,0.06182527853795791
249,1984.14,0.06014772188223019
250,1993.3000000000002,0.05891539599128992
251,2007.1200000000001,0.05985956537853941
252,2016.38,0.05890200101717402
253,2025.69,0.05889653742059608
254,2035.04,0.05796035043584809
255,2044.43,0.05997798006293006
256,2053.87,0.054851070454799464
257,2063.35,0.05585666745849883
258,2072.87,0.06106948107402815
259,2077.65,0.07135205618770779
260,2087.24,0.08019521887393952
261,2096.88,0.07520243232495871
262,2106.56,0.07434164238780785
263,2116.28,0.07889786906248696
264,2126.0499999999997,0.0746694165019535
265,2135.86,0.07131773055324998
266,2145.7200000000003,0.07979532536933391
267,2155.62,0.08052180679724782
268,2165.57,0.07396905898994915
269,2175.57,0.07412915194743794
270,2185.61,0.08332256151675667
271,2187.7616199999998,0.08328109439026209
272,2195.7,0.08313644417196668
273,2205.83,0.08144162657866205
274,2216.0099999999998,0.06952582229437368
275,2226.24,0.07516782131910157
276,2236.52,0.09010613365284574
277,2246.84,0.08646382463380292
278,2257.21,0.07264354892377636
279,2262.42,0.06954680772327121
280,2272.8599999999997,0.07382356464586742
281,2283.35,0.08970851487747991
282,2293.89,0.07728678841810864
283,2304.48,0.08848614526775367
284,2315.12,0.07800098542641494
285,2325.8,0.06449856423228922
286,2336.54,0.06304009100898302
287,2347.32,0.052021796432889844
288,2352.73,0.07350049846844976
289,2363.59,0.054214471186782597
290,2374.5,0.06176699721413171
291,2385.46,0.047814656550497076
292,2396.47,0.05360483919587872
293,2407.54,0.053119459812079876
294,2413.09,0.05768020711288533
295,2424.22,0.081306945699906
296,2435.41,0.0816831422577462
297,2446.65,0.09372802212460266
298,2452.3,0.09857695604344066
299,2463.61,0.08571495854291988
300,2474.99,0.07803264367502188
301,2486.41,0.05549830745433689
302,2492.14,0.06123013866760091
303,2503.64,0.08770784974134195
304,2511.88643,0.060952585134779726
305,2515.2000000000003,0.050199676217010956
306,2526.81,0.0471969014936795
307,2532.64,0.06527512962141228
308,2544.3300000000004,0.06739241046415607
309,2556.0699999999997,0.11309428228569687
310,2567.87,0.08628625328179411
311,2573.7900000000004,0.10777038517136152
312,2585.67,0.096531061733534
313,2597.6,0.08786829927450349
314,2603.59,0.07800112853438675
315,2615.6099999999997,0.07182296983719087
316,2627.68,0.09239783211879203
317,2633.74,0.15589526874899112
318,2645.9,0.2053623747924269
319,2652.0,0.2912319742056636
320,2664.24,0.18096786581517463
321,2676.5299999999997,0.20533554840348267
322,2682.7000000000003,0.2400593351870352
323,2695.09,0.17281759973293734
324,2707.53,0.21594825525763642
325,2713.77,0.1558323294115048
326,2726.29,0.12077267050227915
327,2732.58,0.15439213563494456
328,2745.19,0.09191353048755353
329,2757.8599999999997,0.12214367451471894
330,2764.22,0.15868502701770015
331,2776.98,0.16805372480670022
332,2783.3799999999997,0.10376837009271905
333,2796.23,0.05464104164355376
334,2802.67,0.06339797971261021
335,2815.61,0.14808405502527958
336,2822.1000000000004,0.21435728407313304
337,2835.13,0.20098643314763703
338,2848.21,0.14206377320093802
339,2854.78,0.08458309781486673
340,2867.96,0.1995770098257618
341,2874.57,0.2810949172227281
342,2884.0315,0.2613864813688227
343,2887.8399999999997,0.2534539960779107
344,2894.5,0.31970577148639995
345,2907.8500000000004,0.43913142219260576
346,2928.0099999999998,0.3789844477534379
347,2948.31,0.3464363727973315
348,2968.7400000000002,0.36272159736121057
349,2989.3199999999997,0.36773632137122675
350,3010.04,0.3668630448643043
351,3030.91,0.39668116780351903
352,3051.92,0.413415890225795
353,3073.07,0.4595350121311324
354,3087.26,0.4459666597357062
355,3108.66,0.5299235807179388
356,3130.2000000000003,0.4855243011832328
357,3151.9,0.48884742105773965
358,3166.4500000000003,0.5421411673330427
359,3188.4,0.4625257862844448
360,3210.5,0.514119404681984
361,3232.75,0.4286418225256604
362,3247.68,0.6207876673978442
363,3270.19,0.7326268842814917
364,3292.86,0.7175637005743521
365,3308.05,0.665009744486507
366,3311.31121,0.6573693602596851
367,3323.32,0.6292342848063747
368,3330.99,0.6558572434207428
369,3338.66,0.5872720020351109
370,3346.3599999999997,0.6914699585319342
371,3354.07,0.6679639143229092
372,3361.81,0.6092150679963394
373,3369.56,0.6219659209639213
374,3377.3199999999997,0.6022250732256549
375,3385.11,0.6077638233698436
376,3392.9100000000003,0.6802800728081841
377,3400.73,0.758010420834828
378,3408.57,0.6771589674497754
379,3416.43,0.6007683126530262
380,3424.31,0.7631701564445804
381,3432.2000000000003,0.8064755995302864
382,3440.11,0.6896353412042957
383,3448.04,0.5491249814666086
384,3455.99,0.6646723203172248
385,3463.96,0.5528881577561445
386,3471.94,0.7072243944892159
387,3479.95,0.5279891291047425
388,3487.9700000000003,0.6288961630144208
389,3496.0099999999998,0.5855379955124025
390,3504.07,0.7861364265986877
391,3512.15,0.7120077562732762
392,3520.2400000000002,0.7896861852420165
393,3528.3599999999997,0.511160312093212
394,3536.49,0.7352989382385592
395,3538.4700000000003,0.9362182984805996
396,3541.17,0.8275556079015636
397,3543.87,0.7761832173225275
398,3546.58,0.9402523260376433
399,3549.28,0.9479464354586072
400,3551.98,0.7548263448795712
401,3554.6899999999996,0.775318953594687
402,3557.3900000000003,0.800442163015651
403,3560.09,0.758806572436615
404,3562.7999999999997,0.6394881811517308
405,3565.5,0.7299710905726947
406,3568.2000000000003,0.7282508999936588
407,3570.91,0.6216817087087745
408,3573.6099999999997,0.7029658181297385
409,3576.31,0.7696719275507025
410,3579.02,0.6244247362658182
411,3581.72,0.6182932456867822
412,3584.4199999999996,0.5508360551077462
413,3587.13,0.5252170638228619
414,3589.83,0.5940313732438259
415,3592.5299999999997,0.7291100826647899
416,3595.2400000000002,0.8445493913799057
417,3597.94,0.8045279008008697
418,3600.64,0.7576205102218337
419,3603.3500000000004,0.7867739189369495
420,3606.05,0.7017265283579136
421,3608.75,0.7380926377788776
422,3611.46,0.7512155464939932
423,3614.1600000000003,0.7048998559149573
424,3616.86,0.7016732653359213
425,3619.5699999999997,0.787848774051037
426,3622.2700000000004,0.812703083472001
427,3624.9700000000003,0.8463257928929651
428,3627.68,0.9043665016080807
429,3630.38,0.8350272110290448
430,3633.0800000000004,0.8241082204500088
431,3635.79,0.7933348291651245
432,3638.49,0.8521870385860886
433,3641.19,0.8353507480070526
434,3643.9,0.7994668567221682
435,3646.6,0.7500848661431323
436,3649.2999999999997,0.8200726755640962
437,3652.0099999999998,0.822812984279212
438,3654.71,0.943636293700176
439,3657.41,0.90947840312114
440,3660.12,0.9187812118362557
441,3662.82,1.0609607212572199
442,3665.52,0.9427764306781837
443,3668.23,0.9225463393932994
444,3670.93,0.9026978488142635
445,3673.63,0.8746185582352275
446,3676.34,0.8379813669503432
447,3679.04,0.8756386763713072
448,3681.7400000000002,0.8771463857922712
449,3684.4500000000003,0.836636094507387
450,3687.15,0.859661303928351
451,3689.85,0.915555113349315
452,3692.56,1.0199126220644308
453,3695.26,1.0292204314853948
454,3697.96,1.0448222409063588
455,3700.6699999999996,0.9995238496214746
456,3703.3700000000003,0.8967782590424386
457,3706.07,0.8920458684634026
458,3708.7799999999997,0.8494374771785183
459,3711.4799999999996,0.8527202865994823
460,3714.1800000000003,0.9080222960204463
461,3716.89,0.932011104735562
462,3719.5899999999997,0.8393787141565261
463,3722.29,0.70166632357749
464,3725.0,0.7835384322926058
465,3727.7,0.8217336417135698
466,3730.3999999999996,0.7423882511345338
467,3733.11,0.6757880598496495
468,3735.81,0.6897756692706135
469,3738.5099999999998,0.6347987786915775
470,3741.2200000000003,0.7359295874066932
471,3743.92,0.6955311968276573
472,3746.62,0.7121008062486213
473,3749.3300000000004,0.695637114963737
474,3752.03,0.768045424384701
475,3754.73,0.808284833805665
476,3757.44,0.7749831425207807
477,3760.1400000000003,0.7522293519417448
478,3762.84,0.8211948613627087
479,3765.5499999999997,0.8373300700778245
480,3768.25,0.8392679794987886
481,3770.9500000000003,0.8878456889197526
482,3773.66,0.9436807976348683
483,3776.36,0.9813382070558323
484,3779.0600000000004,0.9780046164767964
485,3781.77,0.970254525191912
486,3784.47,0.9862869346128761
487,3787.18,0.9051618433279918
488,3789.88,0.8368982527489558
489,3792.58,0.8275930621699198
490,3795.29,0.7629293708850355
491,3797.99,0.7302773803059995
492,3800.69,0.7939172897269635
493,3801.8939600000003,0.8217103769995345
494,3803.4,0.8564769205916949
495,3806.1,0.9241513697220706
496,3808.8,0.8930061188524462
497,3811.51,0.7841771674240454
498,3814.21,0.778153516554421
499,3816.91,0.8127444656847965
500,3819.6200000000003,0.7155891142563958
501,3822.32,0.6504992633867714
502,3825.02,0.6570094125171471
503,3827.7299999999996,0.5603925610887464
504,3830.4300000000003,0.5140712102191218
505,3833.13,0.5650744593494975
506,3835.8399999999997,0.5875045079210967
507,3838.5399999999995,0.5706677570514723
508,3841.2400000000002,0.542587906181848
509,3843.95,0.6765872547534472
510,3846.6499999999996,0.6570072038838228
511,3849.3500000000004,0.6941799530141983
512,3852.06,0.6967058015857976
513,3854.7599999999998,0.7074656507161732
514,3857.4599999999996,0.6512516998465488
515,3860.17,0.692401848418148
516,3862.87,0.7109618975485237
517,3865.5699999999997,0.6803001466788994
518,3868.28,0.7659380952504985
519,3870.98,0.7429691443808741
520,3873.68,0.7369991935112498
521,3876.3900000000003,0.735866742082849
522,3879.09,0.7131128912132245
523,3881.79,0.6975674403436002
524,3884.5,0.7167155889151994
525,3887.2000000000003,0.764270938045575
526,3889.9,0.8580894871759507
527,3892.61,0.9042955357475498
528,3895.31,0.9442661848779255
529,3898.01,0.9367902340083011
530,3900.72,0.9414668825799003
531,3903.42,0.9577143317102759
532,3906.1200000000003,0.9749298808406516
533,3908.83,1.0311419294122508
534,3911.5299999999997,1.0510467785426265
535,3914.23,1.0699846276730018
536,3916.94,1.0381884762446012
537,3919.64,0.9733139253749769
538,3922.34,0.8831558745053524
539,3925.0499999999997,0.7399526230769516
540,3927.75,0.6870739722073274
541,3930.45,0.5544718213377029
542,3933.16,0.42629436990930214
543,3935.86,0.4712292190396777
544,3938.56,0.5533954681700534
545,3941.27,0.6471030167416525
546,3943.97,0.8048827658720282
547,3946.67,0.9117197150024039
548,3949.38,0.9952050635740031
549,3952.08,1.0090855127043785
550,3954.7799999999997,1.0033313618347541
551,3957.4900000000002,0.9296832104063535
552,3960.19,0.884389859536729
553,3962.89,0.7557150086671047
554,3965.6000000000004,0.6462947572387039
555,3968.3,0.5898117063690795
556,3971.0,0.6317722554994551
557,3973.7099999999996,0.7342480040710544
558,3976.4100000000003,0.88654095320143
559,3979.11,1.0740690023318056
560,3981.8199999999997,1.1643328509034048
561,3984.5199999999995,1.2466397000337806
562,3987.2200000000003,1.3171125491641562
563,3989.93,1.2810113977357551
564,3992.6299999999997,1.3424472468661308
565,3995.3300000000004,1.3471290959965065
566,3998.04,1.3274359445681059
567,4000.74,1.3792417936984813
568,4003.4399999999996,1.444335642828857
569,4006.15,1.4279774914004562
570,4008.85,1.4989873405308318
571,4011.5499999999997,1.5888801896612075
572,4014.26,1.5463780382328065
573,4016.96,1.5276598873631821
574,4019.66,1.5266937364935578
575,4022.37,1.535187585065157
576,4025.07,1.5113594341955325
577,4027.77,1.4793002833259081
578,4030.48,1.4266311318975076
579,4033.1800000000003,1.4426639810278832
580,4035.89,1.4724608295994825
581,4038.59,1.484997678729858
