,lambda (Angstroms),Total Flux (erg/s/cm^2/Angstrom)
0,102.05000000000001,0.004344245400895506
1,103.95,0.005081724421102594
2,104.712855,0.005377832694259746
3,105.88,0.004999920016636503
4,108.10000000000001,0.004281119362852273
5,110.11,0.0036304547512246666
6,113.96999999999998,0.002380807718093541
7,117.97999999999999,0.0010826608780648262
8,120.22644299999999,0.00035808966660908306
9,121.01,0.0003473623899217982
10,124.97,0.00028968368318338893
11,127.0,0.00026006262794122455
12,127.88000000000001,0.0002474441847771334
13,130.86,0.00020407163894873448
14,132.07,0.00018773127922310968
15,133.91,0.0001612179146981922
16,137.03,0.00011814301702550599
17,138.038426,0.00010379041537740869
18,139.9,0.00010420459196316958
19,143.16,0.00013202526744761014
20,147.17,0.00019705376315086372
21,150.94,0.00020942732998409716
22,155.17,0.00022433475881820255
23,158.489319,0.00023877449043480746
24,159.14999999999998,0.0002414610172065218
25,162.10999999999999,0.00025423047406313666
26,165.89,0.0002751355703192192
27,170.14000000000001,0.0002941093989140209
28,172.91,0.00031095394908051523
29,176.93,0.0003334008958925395
30,179.81,0.0003505332025638404
31,181.89000000000001,0.0003640214073820023
32,181.970086,0.00036450110854135964
33,186.13000000000002,0.0003938892821418582
34,190.9,0.0004327003134204741
35,194.0,0.00046112866792020357
36,198.07000000000002,0.0004938458352795258
37,202.21,0.0005324009190307774
38,205.03,0.0005609310079627894
39,208.929613,0.0005821424756671705
40,209.79999999999998,0.0005880321580635248
41,216.17999999999998,0.0006797557373314075
42,220.20000000000002,0.0007308865176851517
43,222.73999999999998,0.0007608722410927414
44,226.89000000000001,0.000817341794691756
45,230.04,0.0012151615233271526
46,233.78,0.002041197476691084
47,239.78,0.0025637406264727913
48,239.88329199999998,0.002563152911847464
49,245.93,0.0025112247679568793
50,252.24,0.002704869133120819
51,256.93,0.0023362980384486914
52,259.9,0.002707089381481481
53,264.12,0.002869580505251976
54,269.03,0.002908640435989685
55,274.04,0.0029410894691864107
56,275.42287,0.0029502124215559106
57,279.13,0.0029847020909130875
58,284.32,0.0030393371864406776
59,290.27,0.0029601913922960078
60,295.67,0.0030618499656773165
61,301.17,0.0030627802904175374
62,308.18,0.0031554478606773467
63,316.227766,0.0032576209330797408
64,318.28000000000003,0.003278706973570211
65,327.95,0.0033202573717426836
66,337.92,0.0033248946778212302
67,348.18,0.0033219671282089832
68,357.11,0.003327581020213138
69,363.078055,0.0033360737631460244
70,366.28000000000003,0.0033464659424307978
71,374.81,0.0033458026394731573
72,385.31,0.003250625188001266
73,395.19,0.0033396504127115255
74,405.33,0.003347730353861528
75,413.82,0.003324766094528542
76,416.86938299999997,0.0033142585951179424
77,422.48,0.003293132648211497
78,430.34000000000003,0.003260454232365112
79,441.37999999999994,0.0032515061062907994
80,450.62,0.0031990511746851254
81,460.04999999999995,0.0031615233169966506
82,469.68999999999994,0.0031245041199535013
83,478.630092,0.003104143698757029
84,479.52000000000004,0.0031011311405680303
85,489.56,0.003020829183576074
86,499.81,0.0030011632454119753
87,505.6,0.0029518783359514748
88,511.46,0.0030270184327669267
89,519.77,0.0029886077492407162
90,529.43,0.002917367615322161
91,540.52,0.002815233752469492
92,549.5408739999999,0.002770750280069507
93,550.5600000000001,0.002766156828673326
94,559.51,0.0027765700473741757
95,569.91,0.002768377659048905
96,580.51,0.0026934313594096874
97,589.9399999999999,0.0026795853909570627
98,599.53,0.0025898186934532794
99,610.6700000000001,0.0023418649332664038
100,620.59,0.0025740707320946075
101,630.68,0.002515454756305956
102,630.957344,0.0025148705641819054
103,639.45,0.0025010607044026237
104,649.84,0.0024708205398306315
105,657.37,0.0024240497872582444
106,664.98,0.0024369130930914635
107,674.23,0.0024126715962395936
108,685.1899999999999,0.0023217385978075407
109,694.72,0.00237608130537529
110,704.38,0.002276561857852148
111,715.8299999999999,0.0023404499671544287
112,724.43596,0.0023207985508730566
113,725.7800000000001,0.002317569744551286
114,734.1899999999999,0.0022986001206681305
115,744.4000000000001,0.0022902128840632525
116,754.76,0.0022718841797315648
117,765.26,0.0021297334388548543
118,774.1199999999999,0.0022502904117912676
119,784.89,0.002222721029006299
120,795.81,0.0022292471784945206
121,805.0200000000001,0.002225921060068377
122,814.34,0.002212880198642573
123,825.67,0.0022291376696775126
124,831.763771,0.002109487362246205
125,835.23,0.0020396991877140425
126,844.91,0.0021872235340528916
127,854.69,0.0021649876794241673
128,864.5899999999999,0.002180494783634354
129,874.5999999999999,0.002196155266780209
130,884.7199999999999,0.0022168281288617335
131,894.9699999999999,0.0022279165296854113
132,905.33,0.0021904513094447584
133,915.8199999999999,0.0027943696279462593
134,924.29,0.010385765805992752
135,934.99,0.02100280630246235
136,945.82,0.038667502337674096
137,954.57,0.05383246975301138
138,954.992586,0.05410980207586434
139,965.62,0.06108736073167693
140,974.5600000000001,0.011817147456448112
141,985.84,0.053091027686360745
142,994.97,0.055460554140181875
143,1004.1700000000001,0.07902982680996877
144,1015.8000000000001,0.07530281811971025
145,1025.2,0.03224492997797078
146,1034.68,0.05321243751162077
147,1044.26,0.10015709963950756
148,1053.92,0.0983306074427838
149,1066.12,0.07830412793967513
150,1075.99,0.09261971439084868
151,1085.95,0.07324944597683537
152,1095.99,0.0965364732382115
153,1096.4782,0.09634787935654585
154,1106.13,0.09261823385342947
155,1113.8,0.08906379616151706
156,1124.11,0.08030223180641709
157,1134.51,0.100841542224163
158,1145.01,0.09155172572284877
159,1155.6,0.09697166399438041
160,1166.29,0.09991360534685192
161,1174.38,0.07010355659488696
162,1185.24,0.09629833918495624
163,1196.21,0.06618077316405936
164,1204.5,0.04784983057397413
165,1215.65,0.030702564098769015
166,1224.07,0.0639328295139056
167,1235.3999999999999,0.09695754258439224
168,1243.96,0.10679482431284465
169,1255.48,0.10222327523711702
170,1258.92541,0.09635849359936856
171,1264.18,0.08741507554205415
172,1275.8700000000001,0.1128564962243882
173,1284.72,0.11817190272897814
174,1293.6200000000001,0.09388003983528893
175,1305.5900000000001,0.09216668388725974
176,1314.6399999999999,0.11495606279873306
177,1323.76,0.1097829725526156
178,1336.0,0.09717885985387897
179,1345.27,0.11521783141292403
180,1354.59,0.11131034357368995
181,1363.98,0.09944096657686503
182,1373.4399999999998,0.10436277042244932
183,1386.1399999999999,0.1053306232595445
184,1395.75,0.09216692891029132
185,1405.43,0.09562420540344733
186,1415.17,0.09717827261866835
187,1424.9800000000002,0.09944188067629856
188,1434.85,0.0985303094559938
189,1441.48,0.1038859892441781
190,1445.43977,0.10489044893319002
191,1448.1299999999999,0.10557286406999981
192,1454.82,0.10246183164142575
193,1464.9,0.09431291345308093
194,1475.05,0.09388231597176151
195,1485.28,0.09540455929847108
196,1495.57,0.09695681323120243
197,1505.94,0.09174492797196278
198,1512.89,0.08158617816948298
199,1516.3799999999999,0.08721783341974852
200,1523.38,0.08445168412228685
201,1533.94,0.07356054078211609
202,1544.5700000000002,0.08102539814897072
203,1555.28,0.07632217632385437
204,1566.06,0.0772046652057634
205,1573.29,0.08215271823138512
206,1584.19,0.08602291832533766
207,1595.1699999999998,0.08782216922731921
208,1606.2299999999998,0.08562694093732977
209,1613.65,0.0858242458820204
210,1624.83,0.08084132880407446
211,1636.0900000000001,0.08582515253415754
212,1643.64,0.08701899879189531
213,1655.0400000000002,0.07991452393602916
214,1659.58691,0.08288989017037908
215,1666.51,0.08742060051590608
216,1670.35,0.07774018375836554
217,1678.0600000000002,0.08782316245611616
218,1685.8100000000002,0.09153935410430906
219,1693.5900000000001,0.08562977796533368
220,1705.33,0.0821571639201446
221,1713.2,0.07828268441966436
222,1725.08,0.0777436207010233
223,1733.0400000000002,0.0827284878390382
224,1745.05,0.08066112370933455
225,1753.11,0.08603007822345518
226,1765.26,0.07828621442029952
227,1773.3999999999999,0.08066380483530473
228,1785.7,0.08178570209630766
229,1793.94,0.08763130988741856
230,1806.3799999999999,0.08643009747496949
231,1814.71,0.08011139190457554
232,1823.09,0.08141176002223445
233,1835.7299999999998,0.07793144236199681
234,1844.2,0.07140829711815086
235,1856.98,0.07206970978446123
236,1865.55,0.074600281916721
237,1874.17,0.08011481773703362
238,1887.1599999999999,0.07409037589316599
239,1895.8700000000001,0.07157700835197375
240,1904.62,0.07512039376122379
241,1905.46072,0.07489288750331255
242,1913.41,0.07274039996543104
243,1926.67,0.07092145922023364
244,1935.5700000000002,0.07140979301870598
245,1944.5000000000002,0.07633769396481363
246,1953.48,0.07190307015698011
247,1967.02,0.07865093278971219
248,1976.1000000000001,0.07992649947399634
249,1985.22,0.07650662235512755
250,1994.38,0.07442411143310583
251,2003.5900000000001,0.07563009575714294
252,2012.83,0.07340251722881536
253,2026.79,0.07545481992844164
254,2036.1399999999999,0.07323267094144348
255,2045.5400000000002,0.07632798720050417
256,2054.98,0.0728922196564119
257,2064.47,0.07272573735837848
258,2074.0,0.07809888125719214
259,2078.78,0.0802852967804166
260,2083.5699999999997,0.08503963135285285
261,2093.19,0.07991517669457238
262,2102.85,0.079367028233139
263,2117.43,0.08139778198389482
264,2127.2,0.08083860306379087
265,2137.02,0.07475422938974574
266,2146.88,0.0799099519125477
267,2156.79,0.08214765968140847
268,2166.75,0.07773259269632808
269,2176.75,0.07737408190809476
270,2186.79,0.0799067473167085
271,2187.7616199999998,0.08017677587822213
272,2196.89,0.08271525691886066
273,2207.03,0.08009218558799518
274,2217.22,0.07305226804741143
275,2227.45,0.07305293353905305
276,2232.59,0.08233762318001472
277,2242.89,0.07827417397805078
278,2253.24,0.07122870856636855
279,2263.64,0.07139223694496806
280,2274.09,0.0745831091138493
281,2284.59,0.08121173507301226
282,2295.13,0.07426590406440059
283,2305.73,0.07815736760412702
284,2316.37,0.07231162417607882
285,2327.06,0.05721399453831236
286,2332.43,0.06303351161456999
287,2343.19,0.057124387283197936
288,2354.01,0.06917644750016397
289,2364.87,0.057709080749355365
290,2375.79,0.06243453854688484
291,2386.76,0.05341990013469605
292,2392.2599999999998,0.058447807065686176
293,2403.2999999999997,0.056493423959891806
294,2414.39,0.05931894464437916
295,2425.54,0.0706861298772046
296,2436.73,0.06895453814225541
297,2442.35,0.07562158416992168
298,2453.62,0.07635969849942326
299,2464.95,0.07229252737726291
300,2476.33,0.06781891004538429
301,2487.7599999999998,0.06188765650378741
302,2493.49,0.06176163087007348
303,2505.0,0.07565952339292735
304,2510.78,0.05637764154949516
305,2511.88643,0.056135120546116524
306,2516.56,0.055110218306298205
307,2522.37,0.054119547848007314
308,2534.0099999999998,0.06046402634465003
309,2545.7000000000003,0.06091523337435392
310,2557.4599999999996,0.07759453835034347
311,2563.35,0.06838938554495047
312,2575.1800000000003,0.07729701846722567
313,2587.07,0.07335007962917428
314,2593.03,0.06990936477006694
315,2605.0,0.06513185358491344
316,2617.03,0.06237849063943335
317,2623.06,0.07146501372661167
318,2635.17,0.09103788843402946
319,2647.33,0.11076199167450845
320,2653.43,0.1338013127079724
321,2665.6800000000003,0.09925781330796152
322,2677.98,0.1088865924410118
323,2684.16,0.11777701112737365
324,2696.5499999999997,0.09757606761993408
325,2702.76,0.11077216542613263
326,2715.24,0.09114037927820316
327,2727.77,0.08279012166333488
328,2734.06,0.09463499712243133
329,2746.6800000000003,0.06720702686707318
330,2753.01,0.07753108115261856
331,2765.72,0.09008520825677052
332,2772.0899999999997,0.09566574136876486
333,2784.89,0.07295920583242696
334,2797.7400000000002,0.048140988829150216
335,2804.1899999999996,0.05352840959404244
336,2817.1400000000003,0.08966290965688808
337,2823.6299999999997,0.11315291924822923
338,2836.66,0.10887343696397275
339,2843.2000000000003,0.09185185508837511
340,2856.3300000000004,0.07069910987024097
341,2862.9100000000003,0.11178776682109227
342,2876.13,0.13231447896246826
343,2882.7599999999998,0.12352148444638074
344,2884.0315,0.12499972363460807
345,2896.06,0.1389843399199184
346,2909.4300000000003,0.17505553189224057
347,2929.6,0.15723931978167496
348,2949.8999999999996,0.14926170759305415
349,2970.35,0.15643119531436964
350,2990.94,0.15838168295162566
351,3011.67,0.16072437050482224
352,3032.55,0.1672857579679551
353,3046.55,0.17286864956200973
354,3067.67,0.18327303688104069
355,3088.93,0.18217602411601222
356,3110.3399999999997,0.20085021126091998
357,3131.9,0.1902288983157641
358,3153.61,0.1904021852805445
359,3168.17,0.2041418765383613
360,3190.13,0.18128186335303553
361,3212.2400000000002,0.19849245007764607
362,3227.07,0.17259964117334822
363,3249.44,0.22511762774184835
364,3271.96,0.2563363142202848
365,3287.06,0.2518182051538722
366,3309.85,0.241272991470194
367,3311.31121,0.2404524451030636
368,3325.12,0.23269793209822426
369,3332.79,0.23764574406344643
370,3340.47,0.21932095591389053
371,3348.1699999999996,0.26742276753477845
372,3355.8900000000003,0.2566485789261103
373,3363.63,0.178863990087886
374,3371.38,0.20120950113488362
375,3379.15,0.25689891195232517
376,3386.94,0.24541952254021046
377,3394.7500000000005,0.23881063289853968
378,3402.58,0.2865226430273128
379,3410.42,0.2367781530413078
380,3418.28,0.22309566282574667
381,3426.16,0.2486699723806294
382,3434.06,0.27717328170595606
383,3441.98,0.2177311908017265
384,3449.91,0.22701989978271891
385,3457.8599999999997,0.25246210853415524
386,3465.84,0.22664701694125725
387,3473.83,0.2688296252335813
388,3481.8300000000004,0.23858123341112722
389,3489.86,0.26047844124433894
390,3497.9100000000003,0.23546354884799453
391,3505.97,0.28253475633687203
392,3514.05,0.24334116359619345
393,3522.15,0.27692387062595875
394,3530.27,0.23254877742616784
395,3538.4100000000003,0.2815986839968208
396,3546.57,0.28891399033791765
397,3554.7400000000002,0.28638509656423644
398,3562.94,0.26797050244622106
399,3571.15,0.22297520821342756
400,3579.3799999999997,0.24569451375107795
401,3587.63,0.19036081905917218
402,3595.9,0.2586378241377103
403,3604.19,0.29094982898669225
404,3612.5,0.2233598336061181
405,3620.8,0.24336463834032201
406,3623.54,0.23273450689113148
407,3626.27,0.24561187555671907
408,3629.0099999999998,0.28137794410752853
409,3631.74,0.2731914127731161
410,3634.48,0.2757402813239256
411,3637.22,0.2921034498747351
412,3639.9500000000003,0.2780232185403226
413,3642.69,0.2908111870911321
414,3645.4199999999996,0.25792485575671964
415,3648.16,0.26348522430752913
416,3650.9,0.27208459285833864
417,3653.63,0.31297866152392617
418,3656.37,0.3181208300747356
419,3659.1099999999997,0.3391317986255451
420,3661.84,0.33803276729113263
421,3664.58,0.33170653584194215
422,3667.31,0.3287649045075297
423,3670.05,0.3291766730583392
424,3672.7900000000004,0.31512234160914865
425,3675.52,0.2992271102747362
426,3678.2599999999998,0.32535357882554566
427,3680.9900000000002,0.28844644749113324
428,3683.73,0.2795901160419427
429,3686.47,0.2777743845927522
430,3689.2000000000003,0.27994795325833977
431,3691.94,0.28968312180914924
432,3694.6800000000003,0.3180371903599587
433,3697.41,0.3284891590255463
434,3700.1499999999996,0.3286259275763558
435,3702.88,0.3114655962419433
436,3705.62,0.2944684647927528
437,3708.36,0.28313693334356227
438,3711.09,0.3088250020091498
439,3713.8300000000004,0.29939107055995934
440,3716.56,0.31713093922554686
441,3719.2999999999997,0.3481529077763564
442,3722.04,0.3847025763271658
443,3724.77,0.4378657449927534
444,3727.5099999999998,0.5024400135435629
445,3730.25,0.46704368209437236
446,3732.98,0.36553425075995993
447,3735.7200000000003,0.3126192193107694
448,3738.45,0.26700218797635694
449,3741.1899999999996,0.29598065652716643
450,3743.93,0.26193232507797587
451,3746.66,0.2579590937435634
452,3749.4,0.25534856229437297
453,3752.13,0.2635231309599605
454,3754.8700000000003,0.29936339951076996
455,3757.61,0.3068708680615794
456,3760.3399999999997,0.300051336727167
457,3763.08,0.2875096052779765
458,3765.8199999999997,0.286188873828786
459,3768.55,0.2960906424943735
460,3771.29,0.29410981104518297
461,3774.02,0.32725107971077055
462,3776.76,0.35172734826158003
463,3779.5,0.36597271681238946
464,3782.2299999999996,0.3815676854779771
465,3784.97,0.35103945402878656
466,3787.7,0.3384170226943741
467,3790.44,0.31619439124518356
468,3793.18,0.29476955979599306
469,3795.9100000000003,0.28616222846158057
470,3798.65,0.2835213970123901
471,3801.39,0.30563256556319957
472,3801.8939600000003,0.3066176631282955
473,3804.12,0.31096893955244576
474,3806.86,0.3374804146560686
475,3809.59,0.3296983898505541
476,3812.33,0.3166890649541769
477,3815.0699999999997,0.3138832400577997
478,3817.8,0.27791121525228524
479,3820.54,0.26151659035590813
480,3823.2699999999995,0.25372316555039365
481,3826.01,0.24681684065401643
482,3828.75,0.23100261575763928
483,3831.48,0.20608899095212482
484,3834.22,0.20743336605574764
485,3836.96,0.2193221411593705
486,3839.69,0.22575831635385601
487,3842.43,0.2659963914574788
488,3845.1600000000003,0.2855018666519643
489,3847.9,0.2970797417555872
490,3850.6400000000003,0.30480721685921003
491,3853.37,0.30359799205369553
492,3856.1099999999997,0.2952091671573184
493,3858.84,0.2889121423518039
494,3861.58,0.3065404174554267
495,3864.32,0.3258462925590495
496,3867.05,0.326424867753535
497,3869.79,0.3213638428571579
498,3872.53,0.3116824179607807
499,3875.2599999999998,0.29960989315526626
500,3878.0,0.29369626825888906
501,3880.73,0.2963374434533746
502,3883.47,0.2888562185569974
503,3886.21,0.2929258936606202
504,3888.94,0.29776716885510573
505,3891.6800000000003,0.3141579439587286
506,3894.41,0.3298352191532141
507,3897.1499999999996,0.335554994256837
508,3899.89,0.3488654693604598
509,3902.62,0.35114914455494534
510,3905.36,0.35854651965856815
511,3908.1,0.3743320947621909
512,3910.83,0.3791461699566765
513,3913.57,0.3894586450602993
514,3916.2999999999997,0.3812917202547848
515,3919.04,0.3627268953584077
516,3921.78,0.33393137046203053
517,3924.5099999999998,0.31220554565651604
518,3927.25,0.27007972076013886
519,3929.98,0.22531509595462437
520,3932.7200000000003,0.20700917105824718
521,3935.46,0.19841974616187003
522,3938.1899999999996,0.22097222135635552
523,3940.9300000000003,0.2578659964599784
524,3943.67,0.30524627156360123
525,3946.4,0.33236444675808674
526,3949.14,0.3655590218617096
527,3951.87,0.37557089705619506
528,3954.61,0.38129057215981793
529,3957.35,0.3523850472634407
530,3960.0800000000004,0.3332170224579262
531,3962.82,0.28118209756154905
532,3965.5499999999997,0.2202818727560346
533,3968.29,0.19927794785965744
534,3971.0299999999997,0.21119972296328027
535,3973.76,0.2506605981577658
536,3976.5,0.3123971732613886
537,3979.24,0.3664108483650114
538,3981.9700000000003,0.397187023559497
539,3984.71,0.4237807986631198
540,3987.44,0.4356905738576053
541,3990.18,0.4511460489612281
542,3992.9199999999996,0.45628802406485097
543,3995.65,0.4674003992593365
544,3998.39,0.47245977436295933
545,4001.1200000000003,0.4792543495574449
546,4003.86,0.4782907246610677
547,4006.6000000000004,0.4860729997646905
548,4009.33,0.489374674959176
549,4012.0699999999997,0.5049675500627989
550,4014.81,0.5185526251664218
551,4017.54,0.5212494003609072
552,4020.2799999999997,0.51888317546453
553,4023.01,0.5129992506590156
554,4025.75,0.5177287257626384
555,4028.4900000000002,0.5088169008662612
556,4031.22,0.48483647606074676
557,4033.9599999999996,0.47702485116436955
558,4036.69,0.4928126263588551
559,4039.43,0.4971295014624779
560,4042.17,0.49567097656610076
561,4044.9,0.4848090517605863
562,4047.6400000000003,0.4846981268642091
563,4050.38,0.48835500196783194
564,4053.1099999999997,0.4937742771623175
565,4055.85,0.4920131522659403
566,4058.58,0.4750457274604258
567,4061.3199999999997,0.4714145025640486
568,4064.06,0.46715077766767144
569,4066.79,0.472900152862157
570,4069.53,0.48373512796577983
