,lambda (Angstroms),Total Flux (erg/s/cm^2/Angstrom)
0,102.00000000000001,0.006778252251873181
1,103.89,0.007927149983723807
2,104.712855,0.00842792374187697
3,106.07000000000001,0.007748172307212854
4,108.03999999999999,0.006764649531983529
5,110.05,0.005776431253297759
6,113.91999999999999,0.0038512628038878537
7,117.92,0.0018608180582445283
8,120.22644299999999,0.0009385344716165943
9,120.95,0.0009974445801295244
10,124.91,0.0009960757325748024
11,126.94,0.0009856439829444778
12,128.10999999999999,0.0009876149779851284
13,131.1,0.0009729914319779012
14,132.01,0.0010518194614539626
15,134.15,0.0010422042549471176
16,136.96,0.0011530149020105597
17,138.038426,0.0011543458455425904
18,140.15,0.0012045168129336593
19,143.07999999999998,0.002528921484548038
20,147.09,0.004990190495870106
21,150.87,0.005334102184847018
22,155.09,0.0057554150122233584
23,158.489319,0.006168817258022223
24,159.07000000000002,0.006239178857335266
25,162.02999999999997,0.006567621215573093
26,166.18,0.007104838714453832
27,170.06,0.007564640332684498
28,172.82,0.007949463112663011
29,176.83999999999997,0.008428874335675197
30,180.13000000000002,0.00879764154804089
31,181.8,0.00905962147650615
32,181.970086,0.009079055636771057
33,186.03,0.009549744410774798
34,190.81,0.010202796481424964
35,193.91,0.010657600523060006
36,197.97,0.011157036009846551
37,202.10999999999999,0.011733484117062383
38,204.92,0.012144149909641246
39,208.929613,0.01227280420716804
40,210.17999999999998,0.01231551107909584
41,216.07000000000002,0.013632515991063077
42,220.09,0.014245930379196909
43,223.15,0.014550067600015202
44,226.76999999999998,0.015204821501767562
45,229.93,0.022841546344181222
46,234.2,0.03764682978630348
47,239.88329199999998,0.047874894422959426
48,240.21,0.04846138642303956
49,245.80999999999997,0.0458538934983811
50,252.11,0.04877297270814034
51,256.8,0.0398438260087389
52,259.77,0.047434567779053964
53,263.99,0.05011225978940063
54,268.90000000000003,0.050101974332244746
55,273.90000000000003,0.049746555292371125
56,275.42287,0.049607883581140155
57,278.99,0.04929810735136314
58,284.18,0.04942005002518531
59,290.13,0.04710589781116641
60,296.2,0.04733906693064629
61,301.02,0.04553500382618056
62,308.03000000000003,0.04618325005806753
63,316.227766,0.046808590753633326
64,318.12,0.04694579455955862
65,327.79,0.04628680932941702
66,337.75,0.04511888150188752
67,348.01,0.04387593512533604
68,356.93999999999994,0.043361830316115305
69,363.078055,0.04348732453089448
70,366.09000000000003,0.04355745886576149
71,374.62,0.04257703837264289
72,385.12,0.039940340450281185
73,394.99,0.040787188203261195
74,405.13,0.040611022095380464
75,413.61,0.03961105935427311
76,416.86938299999997,0.03914438848085418
77,422.27,0.03836845120792779
78,430.12,0.03733454485563428
79,441.15000000000003,0.03691868384088304
80,451.43,0.03584290260501333
81,459.82,0.034480809611925116
82,470.53,0.03363254956949665
83,478.630092,0.03326055739581366
84,480.39,0.033176696410565566
85,490.45,0.03161155386472088
86,499.56,0.031603561728275054
87,506.51,0.030531645048988712
88,512.38,0.032174216098282124
89,519.51,0.03129485313089916
90,530.38,0.030022447288619664
91,540.25,0.028085100824654752
92,549.5408739999999,0.027142129899257166
93,550.29,0.027066592748656776
94,560.52,0.027689361778207393
95,569.63,0.02768621782505061
96,580.22,0.026687552099042895
97,589.65,0.02625933614094537
98,600.61,0.02468200247172492
99,610.37,0.021513391321032253
100,620.28,0.024452052355523616
101,630.3599999999999,0.023407299199890208
102,630.957344,0.023410263346361957
103,640.61,0.02346538630983322
104,649.52,0.02267729473032828
105,658.55,0.02171651471204213
106,664.65,0.022069755740663888
107,675.4499999999999,0.02177334625035487
108,684.84,0.020380940915725083
109,694.37,0.02076133573585055
110,705.65,0.019171042490416686
111,715.47,0.019979171916820894
112,724.43596,0.019617366401287264
113,725.42,0.019577474952974832
114,735.5100000000001,0.019225411682806358
115,745.75,0.018623455083547173
116,754.38,0.018165184883194952
117,764.88,0.016323321846845207
118,775.52,0.017440083036677462
119,784.5000000000001,0.016552028401780248
120,795.41,0.016629985599249227
121,804.62,0.01648182719307959
122,815.8100000000001,0.016187242842912574
123,825.26,0.015970253110197802
124,831.763771,0.014871270350107069
125,834.82,0.014352464251126367
126,844.4799999999999,0.015255815838858537
127,854.26,0.014839763471158812
128,864.1500000000001,0.014733672477646509
129,874.16,0.014562267528702311
130,884.2800000000001,0.014293803953945538
131,894.52,0.014062356423756868
132,904.88,0.013709994938136296
133,915.36,0.014473379497083829
134,925.9599999999999,0.029448940100599463
135,934.53,0.04744365261683804
136,945.3499999999999,0.07139861596872853
137,954.0899999999999,0.08963948788143858
138,954.992586,0.0903999456464933
139,965.14,0.09895402202628112
140,974.0699999999999,0.03285635976922079
141,985.35,0.08580513954977617
142,994.4699999999999,0.08619852128724648
143,1005.98,0.11281084169275998
144,1015.29,0.10848285742476092
145,1024.69,0.05506297557522374
146,1034.1699999999998,0.08289187698654156
147,1046.14,0.13466475864197133
148,1055.82,0.13129964320542667
149,1065.59,0.10798312018734385
150,1075.45,0.12310928958772294
151,1085.3999999999999,0.09940124140656388
152,1095.45,0.12568070480147361
153,1096.4782,0.12513495153310808
154,1105.58,0.12030221846247667
155,1115.81,0.11595242128412624
156,1126.14,0.10431019774039604
157,1133.94,0.125957941240774
158,1144.43,0.1154126755124362
159,1155.02,0.1200135834187186
160,1165.71,0.12167796495962123
161,1173.79,0.08756986463693585
162,1184.65,0.11593577135669288
163,1195.61,0.08577003171107013
164,1203.8999999999999,0.06598861602108724
165,1215.04,0.044232938917780906
166,1226.28,0.08171792544909481
167,1234.78,0.1132813543918144
168,1246.21,0.12193264082890674
169,1254.8500000000001,0.11698326286009465
170,1258.92541,0.11057901659587442
171,1263.55,0.10331307509012308
172,1275.24,0.12621849431879975
173,1284.08,0.13034696009993765
174,1295.9599999999998,0.10645878289178362
175,1304.94,0.10475445129841464
176,1313.9899999999998,0.12563752101779224
177,1326.15,0.11998464906062446
178,1335.3400000000001,0.10744162140549518
179,1344.59,0.12362779487557725
180,1353.91,0.11943416965840589
181,1366.4399999999998,0.1079383046400414
182,1375.9099999999999,0.11121868223589838
183,1385.45,0.11172346114450196
184,1395.05,0.09620601117831687
185,1404.72,0.09844660252487834
186,1414.4599999999998,0.10261100518418638
187,1424.27,0.103792989156241
188,1434.14,0.10308747425350694
189,1440.76,0.10719639840182514
190,1445.43977,0.107894440432568
191,1447.41,0.10818831717470524
192,1454.0900000000001,0.10499412231549278
193,1464.1699999999998,0.0975499509710524
194,1474.3200000000002,0.09687335072838675
195,1484.54,0.09755000158749581
196,1494.8300000000002,0.09821821354837958
197,1505.1899999999998,0.09315996661103808
198,1512.1399999999999,0.08380688600152811
199,1515.6200000000001,0.08856427077547131
200,1526.1299999999999,0.08615172619907564
201,1536.71,0.07556644272445467
202,1543.8,0.08022306431849414
203,1554.5,0.07609064273262986
204,1565.28,0.07768104240593668
205,1576.13,0.0819021031810182
206,1583.4,0.08477774760819265
207,1594.3799999999999,0.08595584042942725
208,1605.4299999999998,0.08361548435243656
209,1616.56,0.08323187953461697
210,1624.02,0.0791257369523228
211,1635.28,0.08323137418065628
212,1646.6100000000001,0.08361651251076446
213,1654.21,0.07786193213201972
214,1659.58691,0.08065008288782873
215,1665.6799999999998,0.08381020712455826
216,1673.3700000000001,0.0752232410411165
217,1677.22,0.0840043635741138
218,1684.97,0.08635618438729016
219,1696.65,0.08115772692895466
220,1704.4799999999998,0.07804655693762189
221,1716.29,0.07419744442195904
222,1724.2099999999998,0.07351959477555346
223,1736.1699999999998,0.07751323950143596
224,1744.1799999999998,0.07540530019995759
225,1756.27,0.07950150986851272
226,1764.38,0.07318602206139793
227,1776.6100000000001,0.07454610782206206
228,1784.81,0.07540902035987446
229,1793.05,0.07950494749543231
230,1805.47,0.07859879509538721
231,1813.81,0.07285556372530862
232,1826.3799999999999,0.07386894856680885
233,1834.81,0.07103934754165747
234,1843.28,0.06524731111425151
235,1856.06,0.06554903009391526
236,1864.62,0.0673838740114365
237,1873.2299999999998,0.07169937367613954
238,1886.21,0.0663108156445304
239,1894.9199999999998,0.063917226803597
240,1903.67,0.06707886256040904
241,1905.46072,0.06675031853838698
242,1916.86,0.06465588943362645
243,1925.7099999999998,0.06289554818554315
244,1934.6,0.06347494101091485
245,1943.53,0.06722778790974153
246,1957.0000000000002,0.06318049214570966
247,1966.03,0.06847294422817382
248,1975.11,0.06942210890245672
249,1984.2299999999998,0.0664532676501946
250,1993.3899999999999,0.06464408047138749
251,2007.2,0.06584227433172303
252,2016.47,0.06390165085491714
253,2025.77,0.06538710293320249
254,2035.12,0.06331445760330658
255,2044.52,0.0656849648652294
256,2053.96,0.062300576200607215
257,2063.44,0.06244202160944002
258,2072.96,0.06690008109172782
259,2077.74,0.06940679286959921
260,2087.33,0.07402203198043325
261,2096.96,0.06956368516472226
262,2106.64,0.06940321094083002
263,2116.37,0.07150679930875652
264,2126.14,0.07020233175013801
265,2135.9500000000003,0.06597492826497449
266,2145.81,0.0706859573716297
267,2155.71,0.0718309805517399
268,2165.6600000000003,0.06781683632366886
269,2175.6600000000003,0.06734791468741655
270,2185.7,0.07084292712461923
271,2187.7616199999998,0.0711793849448106
272,2195.79,0.07249176005804847
273,2205.9300000000003,0.07051824789371347
274,2216.11,0.06373319045456849
275,2226.34,0.06521745892191098
276,2236.61,0.07401334211444349
277,2246.94,0.070856292394761
278,2257.31,0.06331541740026851
279,2262.51,0.0624540116749685
280,2272.96,0.06495506613085601
281,2283.45,0.07288318531193351
282,2293.99,0.06572871039949853
283,2304.58,0.07043580139355102
284,2315.21,0.06470298711279353
285,2325.9,0.05261833991982103
286,2336.6400000000003,0.056255808633336034
287,2347.42,0.04992838207204103
288,2352.83,0.06211844115398854
289,2363.69,0.05075184404307354
290,2374.6,0.05526749283864604
291,2385.56,0.04652590754070605
292,2396.58,0.05101476933055105
293,2407.64,0.049636615845586055
294,2413.19,0.05221481146569856
295,2424.33,0.06467178743111357
296,2435.52,0.06350553930301607
297,2446.76,0.07060255708140607
298,2452.4,0.07208546333319607
299,2463.7200000000003,0.06621976056196609
300,2475.09,0.06139393369722358
301,2486.52,0.05168388392026609
302,2492.25,0.05337872080373359
303,2503.75,0.0674943792958586
304,2511.88643,0.053649593003855654
305,2515.31,0.047823553926996415
306,2526.92,0.045579223125651894
307,2532.74,0.05427809703918978
308,2544.43,0.05491425258029939
309,2556.1800000000003,0.07753598537824959
310,2562.07,0.06481346609143483
311,2573.9,0.07614150523183917
312,2585.7799999999997,0.07075365208627732
313,2597.7099999999996,0.06650670665474932
314,2603.7,0.060809132796002224
315,2615.7200000000003,0.05755486324973512
316,2627.79,0.06823821141750185
317,2633.85,0.09837345435840211
318,2646.0099999999998,0.12354674841142972
319,2652.1099999999997,0.16435276952355707
320,2664.35,0.1114308099190388
321,2676.6499999999996,0.12331604757136114
322,2682.82,0.14029286548313583
323,2695.2,0.10646309947791231
324,2707.64,0.12741393072952936
325,2713.88,0.09757864544095143
326,2726.4100000000003,0.0804516225778294
327,2732.69,0.09760630546047852
328,2745.3100000000004,0.06588374848261737
329,2757.98,0.08085906921879006
330,2764.34,0.09946343844389333
331,2777.1,0.10488665506532689
332,2783.5,0.07260226246165721
333,2796.3500000000004,0.044300994968351694
334,2802.79,0.04981336053590908
335,2815.73,0.09462658892786445
336,2822.22,0.12645549220945568
337,2835.2500000000005,0.11777139648667194
338,2841.7799999999997,0.08794476793949023
339,2854.9,0.06088409810196738
340,2868.08,0.11514829552128514
341,2874.6899999999996,0.15495419331655752
342,2884.0315,0.14676717692279115
343,2887.96,0.14332436255377254
344,2894.62,0.17551425632230186
345,2907.98,0.2346025438219343
346,2928.13,0.20534122496846072
347,2948.4300000000003,0.18863960597463872
348,2968.8700000000003,0.19487298684982485
349,2989.4500000000003,0.1980951675940191
350,3010.1699999999996,0.19589424820722148
351,3031.04,0.2114116286800754
352,3052.05,0.2204291090219375
353,3073.2,0.24287808923280765
354,3087.39,0.2352226759558454
355,3108.79,0.27642975593280156
356,3130.3399999999997,0.2539430357694092
357,3152.04,0.25578311546566845
358,3166.59,0.2824620018518699
359,3188.5400000000004,0.2444110813142151
360,3210.6400000000003,0.26930906063621185
361,3232.89,0.22877853981786012
362,3247.81,0.3231937258578688
363,3270.3300000000004,0.3780793047868899
364,3293.0,0.3721590835755626
365,3308.1899999999996,0.34501306936294407
366,3311.31121,0.3404735148453145
367,3323.4599999999996,0.32280384914756555
368,3331.13,0.3403971119608464
369,3338.81,0.30835137459526585
370,3346.5,0.35162773705082384
371,3354.22,0.3428665989697976
372,3361.9500000000003,0.25895666070990986
373,3369.7,0.3230297220922993
374,3377.4700000000003,0.3078170831169659
375,3385.25,0.314299243962771
376,3393.06,0.3526736042719918
377,3400.88,0.38762766440235114
378,3408.7200000000003,0.3495188241749877
379,3416.5800000000004,0.31371648358990134
380,3424.45,0.3940619428259536
381,3432.35,0.41553740152542146
382,3440.2599999999998,0.357830260046028
383,3448.19,0.2862540182089116
384,3456.14,0.3481544760140724
385,3464.11,0.2970623334615103
386,3472.0899999999997,0.38359529073008675
387,3480.1,0.29988424746207887
388,3488.12,0.3491259040152096
389,3496.16,0.32214176021061747
390,3504.2200000000003,0.4046403160483025
391,3512.2999999999997,0.37079307152826463
392,3520.39,0.40848372682936535
393,3528.51,0.26870438159388166
394,3536.64,0.38219343617953666
395,3544.8,0.4124081902286073
396,3552.97,0.42012004409881654
397,3561.16,0.37969499761130293
398,3569.37,0.28808115076606644
399,3577.6000000000004,0.33538840356310706
400,3585.84,0.23749605618128627
401,3594.1099999999997,0.33087180826288115
402,3602.39,0.4536063601656147
403,3610.7,0.3317196115317638
404,3619.02,0.40812796271905155
405,3627.36,0.4393852135486164
406,3635.73,0.324283063841597
407,3644.1099999999997,0.4919718139557161
408,3652.5099999999998,0.3614296637121124
409,3660.93,0.5333862131107858
410,3669.3700000000003,0.5001492621517363
411,3677.82,0.5165933110138254
412,3686.3,0.46581685933933026
413,3694.7999999999997,0.5191089073071122
414,3703.32,0.5499238549171712
415,3711.86,0.3543272021695075
416,3720.4100000000003,0.4649755492429823
417,3728.99,0.4451299957798727
418,3737.59,0.23966544195904035
419,3746.2000000000003,0.40607738795934656
420,3754.8399999999997,0.34648093342306846
421,3763.49,0.36959777870792887
422,3772.17,0.383504723456205
423,3780.8599999999997,0.48396246802561976
424,3789.5800000000004,0.44757801205845016
425,3798.32,0.3723409557335577
426,3798.9,0.4857517453595946
427,3800.62,0.48870051459542807
428,3801.8939600000003,0.4908492131294289
429,3802.35,0.49161838535196595
430,3804.0800000000004,0.5141696608562863
431,3805.81,0.5729645363606068
432,3807.54,0.5788916118649272
433,3809.27,0.4573398873692477
434,3811.0,0.47736526287356806
435,3812.7299999999996,0.5075637383778885
436,3814.46,0.4534965138822089
437,3816.19,0.3595972893865294
438,3817.92,0.3749064648908498
439,3819.65,0.3847899403951703
440,3821.3799999999997,0.35356381589949065
441,3823.11,0.3729411914038111
442,3824.8399999999997,0.35789086690813154
443,3826.57,0.35989144241245197
444,3828.3,0.3287414179167724
445,3830.0299999999997,0.27022349342109286
446,3831.76,0.26910876892541324
447,3833.49,0.2798613444297337
448,3835.22,0.2767149199340541
449,3836.9399999999996,0.28796479557996807
450,3838.67,0.3955903710842885
451,3840.4,0.40354074658860895
452,3842.13,0.35708032209292934
453,3843.86,0.3549838975972498
454,3845.5899999999997,0.4273309731015702
455,3847.32,0.39675294860589067
456,3849.05,0.3577961241102111
457,3850.7799999999997,0.4388745996145315
458,3852.51,0.36902457511885195
459,3854.24,0.31025845062317237
460,3855.9700000000003,0.3218023261274928
461,3857.7,0.3535906016318132
462,3859.43,0.42001057713613366
463,3861.1600000000003,0.3933100526404541
464,3862.89,0.3771159281447745
465,3864.6200000000003,0.37075870364909497
466,3866.35,0.3794126791534154
467,3868.08,0.39139515465773583
468,3869.8100000000004,0.3596428301620563
469,3871.54,0.34309590566637665
470,3873.26,0.35226648131229066
471,3874.99,0.33169695681661104
472,3876.7200000000003,0.3555164323209315
473,3878.45,0.3362147078252519
474,3880.18,0.3433358833295724
475,3881.9100000000003,0.3896319588338928
476,3883.64,0.4469204343382132
477,3885.3700000000003,0.48440850984253364
478,3887.1,0.3872014853468541
479,3888.83,0.4202668608511745
480,3890.56,0.527312636355495
481,3892.29,0.46049151185981535
482,3894.0200000000004,0.4860287873641358
483,3895.75,0.5304204628684562
484,3897.48,0.45400063837277665
485,3899.21,0.4337268138770971
486,3900.94,0.5195326893814175
487,3902.6699999999996,0.5076567648857379
488,3904.4,0.4865323403900584
489,3906.1299999999997,0.46622051589437885
490,3907.86,0.4903825913986992
491,3909.5800000000004,0.5355394670446132
492,3911.31,0.5708568425489337
493,3913.04,0.4850666180532541
494,3914.77,0.4320882935575745
495,3916.5,0.4534006690618949
496,3918.2299999999996,0.45934954456621535
497,3919.96,0.4093336200705358
498,3921.69,0.3803950955748562
499,3923.42,0.36907937107917665
500,3925.15,0.3252802465834971
501,3926.8799999999997,0.3498831220878175
502,3928.61,0.26799239759213794
503,3930.34,0.21423207309645836
504,3932.0699999999997,0.2408829486007788
505,3933.8,0.2243644241050992
506,3935.5299999999997,0.27025079960941967
507,3937.26,0.34846167511374004
508,3938.99,0.36847785061806054
509,3940.72,0.525137326122381
510,3942.4500000000003,0.5582430016267014
511,3944.18,0.46827817713102177
512,3945.9,0.45583255277693574
513,3947.6299999999997,0.47758332828125616
514,3949.36,0.5102220037855766
515,3951.0899999999997,0.47138697928989703
516,3952.82,0.4766304547942175
517,3954.55,0.4979808302985379
518,3956.2799999999997,0.44495500580285835
519,3958.01,0.4075900813071788
520,3959.74,0.35878485681149924
521,3961.4700000000003,0.27337823231581965
522,3963.2000000000003,0.2641409078201401
523,3964.93,0.2621205833244605
524,3966.6600000000003,0.25523765882878097
525,3968.39,0.28351013433310135
526,3970.12,0.3570773098374218
527,3971.85,0.4824432853417422
528,3973.58,0.5175315608460627
529,3975.3100000000004,0.4883144363503831
530,3977.04,0.5069218118547035
531,3978.77,0.597607787359024
532,3980.5,0.6378627628633443
533,3982.2200000000003,0.6226032385092584
534,3983.95,0.6322699140135788
535,3985.68,0.6442116895178992
536,3987.4100000000003,0.6496366650222196
537,3989.14,0.6208510405265399
538,3990.8700000000003,0.6281030160308605
539,3992.6,0.6725329915351809
540,3994.33,0.7058074670395014
541,3996.06,0.6895662425438217
542,3997.79,0.6761621180481422
543,3999.5199999999995,0.6880783935524626
544,4001.25,0.701716769056783
545,4002.98,0.6879632445611035
546,4004.71,0.680462920065424
547,4006.44,0.6972276955697444
548,4008.1699999999996,0.7179516710740648
549,4009.9,0.7330959465783852
550,4011.63,0.7566796220827057
551,4013.36,0.7729007975870261
552,4015.09,0.7867140730913464
553,4016.8199999999997,0.8166994485956669
554,4018.55,0.7898492240999873
555,4020.2700000000004,0.7415937997459013
556,4022.0,0.7542025752502217
557,4023.73,0.7845349507545422
558,4025.46,0.7595396262588626
559,4027.19,0.6961719017631831
560,4028.9199999999996,0.6804896772675034
561,4030.65,0.6717405527718239
562,4032.3799999999997,0.6829387282761443
563,4034.11,0.7317345037804648
564,4035.84,0.7635251792847852
565,4037.5699999999997,0.7491486547891056
566,4039.3,0.734775630293426
567,4041.0299999999997,0.7536660057977466
568,4042.76,0.7045678813020669
569,4044.4900000000002,0.7021351568063873
570,4046.22,0.7407030323107078
571,4047.9500000000003,0.7337998078150283
572,4049.68,0.7458687833193487
573,4051.41,0.7492634588236691
