,lambda (Angstroms),Total Flux (erg/s/cm^2/Angstrom)
0,100.02000000000001,0.0031827714406083966
1,102.11,0.003910766281983578
2,104.01,0.004569014182324658
3,104.712855,0.004814488932036435
4,105.95,0.004475847303823021
5,107.91,0.003944589901919377
6,109.92,0.003434379019865125
7,114.05,0.0023272833194252986
8,118.05,0.001257735207377039
9,120.22644299999999,0.0011594970083712824
10,121.08000000000001,0.0013516486458581777
11,125.05000000000001,0.001506669535470228
12,127.08000000000001,0.0015672174462794124
13,127.96,0.0016191340036745272
14,130.94,0.0017056516412170737
15,131.85,0.0019213288426142942
16,133.98999999999998,0.001985093448097868
17,137.10999999999999,0.00234521942431691
18,138.038426,0.0023907333069048235
19,139.98,0.002510472921687052
20,142.92,0.005525540465449418
21,146.92000000000002,0.011126797144037671
22,151.04,0.011915759252983573
23,154.91,0.01287887713201771
24,158.489319,0.01387570536604189
25,158.88,0.01398441164570659
26,161.84,0.014737975571810585
27,165.98999999999998,0.015967032799287472
28,169.86,0.01702390924997074
29,173.01,0.01790377798889898
30,177.04000000000002,0.019002270597750025
31,179.92000000000002,0.019846441444770133
32,181.970086,0.020438896641777952
33,182.0,0.020447569634341883
34,185.82000000000002,0.021605594277832388
35,191.02,0.02304434489200794
36,194.11999999999998,0.024074134681227984
37,198.19,0.02520503656578462
38,201.87,0.026513329154278086
39,205.14999999999998,0.027444790157065746
40,208.929613,0.02774681480093089
41,209.93,0.027827916545199505
42,215.81,0.030797112413057954
43,219.82999999999998,0.032172652037001995
44,222.89,0.03285012682537731
45,227.03,0.03432388330376744
46,230.19000000000003,0.0516707571375145
47,233.93,0.08531066743441765
48,239.88329199999998,0.10969944209470318
49,239.93,0.10989067171205114
50,246.08,0.10397962749999488
51,251.80999999999997,0.11064306435607905
52,257.09,0.09034996664231368
53,260.06,0.10762171480332065
54,264.29,0.11398136975990635
55,269.2,0.11371494584426468
56,274.21000000000004,0.11292450738858958
57,275.42287,0.11267716715629783
58,279.31,0.11189367163869213
59,283.84,0.11216511125977027
60,289.79,0.10687188736251088
61,295.86,0.10737021021018071
62,300.65999999999997,0.10326308000734961
63,307.67,0.10470515235696502
64,316.227766,0.10615821227001479
65,317.75,0.10641345393166579
66,328.15999999999997,0.10494372946656184
67,338.13000000000005,0.10231269911909917
68,347.59999999999997,0.09952322663259251
69,357.34000000000003,0.09837694230116958
70,363.078055,0.09868558868898487
71,365.66,0.0988285875709807
72,375.04,0.09658599488796327
73,384.66,0.09056768998277907
74,395.44000000000005,0.0926801260037889
75,404.65000000000003,0.09226103447813959
76,414.08,0.08995815674883742
77,416.86938299999997,0.08885578275996939
78,421.78000000000003,0.08691371642688574
79,429.62,0.084551684809139
80,440.64,0.08358875699950008
81,450.9,0.08113414041811211
82,460.34,0.0782083298987844
83,469.97999999999996,0.07608351326675905
84,478.630092,0.0751709437294312
85,479.82,0.07504425704835621
86,489.87,0.07150363011070231
87,500.13,0.07149747768479892
88,505.91999999999996,0.06906813350877743
89,511.78000000000003,0.07281454083667276
90,520.09,0.07083047080165746
91,529.76,0.06795419284274071
92,539.61,0.06356530589389583
93,549.5408739999999,0.061429241294960024
94,549.64,0.0614079567258853
95,559.86,0.06283139740393498
96,570.27,0.06282905407306384
97,579.54,0.06055670479571751
98,590.31,0.05945273702689118
99,599.9,0.05587148047136245
100,609.65,0.04867149527674251
101,619.56,0.05535793144303138
102,629.62,0.05299090076017226
103,630.957344,0.053006368311990036
104,639.85,0.05311295694703242
105,650.25,0.05131696619330669
106,657.7800000000001,0.04923684298411874
107,665.4,0.049922671489562004
108,674.65,0.049241543271104034
109,685.62,0.04606760004337603
110,695.15,0.04692826938154852
111,704.82,0.043303362498036235
112,716.28,0.04513330749441154
113,724.43596,0.04437932591193259
114,726.2399999999999,0.04421236296647205
115,734.65,0.0434071174677973
116,744.87,0.04203591044087031
117,755.23,0.040986802632752534
118,765.74,0.03679515541621607
119,774.61,0.03933125306505732
120,785.38,0.03730840154059512
121,794.48,0.03748242076319437
122,805.53,0.03714004767635061
123,814.86,0.03646544847270787
124,824.2900000000001,0.03596908299678601
125,831.763771,0.03357362834003043
126,835.76,0.03229103302092744
127,845.4399999999999,0.03435231608047927
128,855.23,0.03349227622025328
129,865.1300000000001,0.033183953440249485
130,875.15,0.03280274474776078
131,885.28,0.03220096313549427
132,895.53,0.03168520561074285
133,905.9000000000001,0.03089213217350654
134,914.28,0.032715934284978064
135,924.87,0.06670088500818612
136,935.58,0.10762020981890928
137,944.2399999999999,0.16209721813458272
138,954.992586,0.2029025726793737
139,955.1700000000001,0.20357589180846214
140,964.01,0.22475587365557587
141,975.1700000000001,0.07447498576120809
142,984.19,0.19486741909389652
143,995.5899999999999,0.1957642798469617
144,1004.8,0.2562652441922012
145,1014.1,0.24643110428022807
146,1025.84,0.12497564895048993
147,1035.34,0.18868029957804425
148,1044.92,0.30667844642140957
149,1054.58,0.2983088894805858
150,1064.34,0.24529882780952586
151,1074.19,0.2796897618812533
152,1084.1299999999999,0.22578899169576797
153,1094.16,0.2855329172530701
154,1096.4782,0.28273594052953926
155,1104.28,0.27332205255715836
156,1114.5,0.26343553950831694
157,1124.82,0.2369653116546923
158,1135.22,0.2862007719572412
159,1145.73,0.2628232159745285
160,1156.33,0.2726868466675109
161,1164.34,0.2764794608043779
162,1175.1200000000001,0.19892666484875063
163,1185.99,0.2640321555688185
164,1194.21,0.19484563861564075
165,1205.26,0.1498700026870989
166,1213.62,0.10041216500722469
167,1224.84,0.1856475039105514
168,1236.18,0.2574247250481383
169,1244.75,0.2770986562782194
170,1256.2599999999998,0.26585545224767493
171,1258.92541,0.2563435221633833
172,1264.97,0.23477342129233383
173,1273.7399999999998,0.2868250136452184
174,1285.53,0.29623363780035056
175,1294.44,0.2419066316275115
176,1306.42,0.2380367577834473
177,1315.47,0.2855097530848846
178,1324.59,0.27266964912346014
179,1333.77,0.24414724579386834
180,1346.1100000000001,0.28094257574080056
181,1355.44,0.27141717399079063
182,1364.84,0.24527147297791888
183,1374.3,0.2533070725968799
184,1383.8200000000002,0.25389347284767366
185,1393.4199999999998,0.218604773940911
186,1406.3100000000002,0.22369490967964328
187,1416.0600000000002,0.23369661235246247
188,1425.87,0.23585871565711441
189,1435.76,0.23423681980421
190,1442.39,0.24414488962172706
191,1445.43977,0.24621959208234848
192,1445.71,0.24640342412581007
193,1455.73,0.23858881268436166
194,1465.82,0.2216465018615858
195,1475.98,0.22012239165748243
196,1486.21,0.22215828207205157
197,1496.52,0.223182873193675
198,1503.42,0.21167293417710875
199,1510.3600000000001,0.19040489551406964
200,1517.3300000000002,0.2012204571161759
201,1524.34,0.1957379190718093
202,1534.8999999999999,0.17166701240297746
203,1545.54,0.1822560064411999
204,1556.2599999999998,0.1728564011864767
205,1563.44,0.17647626464460045
206,1574.2800000000002,0.1860712604504587
207,1585.1899999999998,0.19261025687498942
208,1596.18,0.19573805400657446
209,1603.55,0.18996421914395223
210,1614.66,0.18952891733611874
211,1625.8500000000001,0.17975831623533953
212,1633.3600000000001,0.18909508261006233
213,1644.68,0.19040508265824638
214,1656.0800000000002,0.1768839834134847
215,1659.58691,0.18309152051996228
216,1663.72,0.19040768117254564
217,1671.4,0.17088207686712525
218,1675.26,0.19084202600528638
219,1686.8700000000001,0.19619077535607665
220,1694.65,0.1847926775050128
221,1706.3999999999999,0.17729383589190217
222,1714.28,0.16854034449519484
223,1726.1599999999999,0.16699601127274769
224,1734.13,0.17607552568496118
225,1746.1499999999999,0.17167420149861312
226,1754.21,0.18059122171974748
227,1766.37,0.16623020656949855
228,1774.52,0.16932053259955376
229,1786.8200000000002,0.17128272648540394
230,1795.07,0.18059455896981563
231,1803.35,0.1785285933905343
232,1815.85,0.1654725001850975
233,1824.24,0.1681576417056083
234,1836.8799999999999,0.1613361575362706
235,1845.3600000000001,0.14816470486570224
236,1853.8799999999999,0.14884735477687655
237,1866.73,0.1530190841616875
238,1875.3400000000001,0.1628302398817826
239,1884.0000000000002,0.150572798829056
240,1897.0600000000002,0.1451320417680156
241,1905.46072,0.15202347594755677
242,1905.82,0.1523181540892811
243,1914.61,0.1468099227843683
244,1923.4499999999998,0.14281258731958685
245,1936.78,0.1441308782985985
246,1945.72,0.1526658345140797
247,1954.7,0.14346718740166592
248,1968.25,0.1555015600772554
249,1977.34,0.1576632038131306
250,1981.9,0.15091552443310757
251,1995.6399999999999,0.14680148130119608
252,2004.85,0.14952871505338644
253,2014.1000000000001,0.14545704547768185
254,2023.3999999999999,0.14849947174210856
255,2032.74,0.14379049467864036
256,2046.83,0.1491837224276482
257,2056.27,0.14149043704444264
258,2065.77,0.14181594666939468
259,2075.2999999999997,0.15195565379842552
260,2080.09,0.15765345528300662
261,2084.88,0.1681493567675877
262,2094.5,0.1583818564088549
263,2104.17,0.15765275189025343
264,2113.88,0.1628138440437571
265,2123.64,0.15984403203739203
266,2133.44,0.14986371670313203
267,2143.29,0.16057879720900334
268,2153.1800000000003,0.16318537438697972
269,2163.12,0.15405924740508742
270,2173.11,0.15299951626332647
271,2183.14,0.16094458179367058
272,2187.7616199999998,0.1626647066272438
273,2193.21,0.16469335869247345
274,2203.34,0.16020683064215188
275,2213.5099999999998,0.14511070524513603
276,2223.73,0.14814728316475237
277,2233.99,0.16814286373767443
278,2244.2999999999997,0.16094794762722867
279,2254.66,0.1437834348334151
280,2265.0699999999997,0.14181072535623365
281,2275.52,0.147470118532358
282,2286.03,0.16546031568844094
283,2296.58,0.1491822154978296
284,2307.1800000000003,0.15987761862385044
285,2312.5,0.14683857151351376
286,2323.17,0.11938637928281963
287,2333.8900000000003,0.12765039036875772
288,2344.67,0.11327300543465439
289,2355.4900000000002,0.1409831231538568
290,2366.36,0.11515704418969139
291,2377.2799999999997,0.12541796854215814
292,2382.7599999999998,0.10554333204504439
293,2393.76,0.11574436170412264
294,2404.81,0.11261159467983303
295,2415.91,0.11848263097217562
296,2427.06,0.1467910705811504
297,2432.6600000000003,0.14412764204395384
298,2443.89,0.1602550869595401
299,2455.17,0.1636428351917585
300,2466.5,0.1503110867406091
301,2472.19,0.13933196417335048
302,2483.6,0.11726562102881254
303,2495.06,0.12112928120090677
304,2506.58,0.1532104453529596
305,2511.88643,0.1121587675931817
306,2512.36,0.10849508518477285
307,2518.15,0.10386223654111688
308,2523.95,0.10339498764073614
309,2535.6,0.12318218855635064
310,2547.31,0.12462948793161639
311,2553.18,0.17603683723416208
312,2564.96,0.14713793481235427
313,2576.8,0.1728936308501977
314,2582.7400000000002,0.1606310783556698
315,2594.66,0.15098237233971487
316,2606.64,0.1380471647834112
317,2612.65,0.13064141049180975
318,2624.71,0.1549332008817077
319,2636.82,0.22344778998798165
320,2642.9,0.28067693389930665
321,2655.1000000000004,0.3734669206950575
322,2667.3599999999997,0.25315200595045956
323,2673.51,0.280170948064711
324,2685.8500000000004,0.3187950312663147
325,2692.04,0.24186077235366693
326,2704.46,0.28949785350147234
327,2716.9500000000003,0.2216936328522041
328,2723.2099999999996,0.1827376721424828
329,2735.7799999999997,0.22176324943941622
330,2742.0899999999997,0.14961878744607096
331,2754.74,0.18409846268920602
332,2767.46,0.22600613613526752
333,2773.84,0.23831787234484872
334,2786.6400000000003,0.16492774373711186
335,2793.07,0.10056127866306906
336,2805.96,0.11311164774480907
337,2812.4300000000003,0.2150024816438671
338,2825.41,0.2874208484150839
339,2831.92,0.2676507812872428
340,2844.9900000000002,0.1998451457479365
341,2858.12,0.13830470866828143
342,2864.7099999999996,0.2617010394866419
343,2877.94,0.3522584998397389
344,2884.0315,0.32794149809383993
345,2884.57,0.32579184317290627
346,2897.8900000000003,0.39903163617467047
347,2911.2599999999998,0.533447529150165
348,2931.44,0.46692641854773276
349,2951.7599999999998,0.4289462078717454
350,2972.22,0.44314839712220305
351,2992.8199999999997,0.45051338629910564
352,3006.64,0.44544417903817335
353,3027.48,0.4807614680889816
354,3048.46,0.5012934570662348
355,3069.5899999999997,0.5523827459646792
356,3090.87,0.5350436347843144
357,3112.3,0.6288418235251408
358,3126.66,0.5776461159804962
359,3148.34,0.5818452045899742
360,3170.1600000000003,0.6441054931258974
361,3192.14,0.5560764815777575
362,3206.87,0.6126807738387176
363,3229.1,0.5204781621592294
364,3251.48,0.7354440504009324
365,3266.4900000000002,0.8603048425147823
366,3289.13,0.846861930619883
367,3311.31121,0.7868571734736177
368,3311.9300000000003,0.7851832127512166
369,3319.57,0.7345737360189398
370,3327.2200000000003,0.7569776591862281
371,3334.89,0.8416485821526466
372,3342.58,0.7624144049181951
373,3350.2799999999997,0.8170605275833089
374,3358.0,0.8596073500475527
375,3365.75,0.6044715722104919
376,3373.5,0.574675294373431
377,3381.2799999999997,0.7559153162350654
378,3389.07,0.8194678379962648
379,3396.8900000000003,0.6943795594561595
380,3404.72,0.9133503808156194
381,3412.5699999999997,0.7685999019742092
382,3420.43,0.8012357230323643
383,3428.32,0.8124638437892145
384,3436.22,0.7995815644456299
385,3444.14,0.5320456849011754
386,3452.08,0.8589854051558512
387,3460.04,0.785296725209657
388,3468.02,0.785405645062593
389,3476.0099999999998,0.7314067648150941
390,3484.02,0.8150969843667254
391,3492.0499999999997,0.7469258037174868
392,3500.11,0.7183261227669436
393,3508.17,0.9044431418164002
394,3516.2599999999998,0.7201769605645522
395,3524.37,0.7807278791118343
396,3532.49,0.8862366975586815
397,3540.63,0.9410505158046588
398,3548.7999999999997,0.9900890337493314
399,3556.98,0.8525695515935691
400,3565.18,0.9457825692369369
401,3573.4,0.624971786679435
402,3581.63,0.7110741040214981
403,3589.89,0.5211744210622563
404,3598.1600000000003,0.8974729380025798
405,3606.46,0.8224064546415985
406,3614.77,0.7873127711801822
407,3623.11,0.6564542874174613
408,3631.46,1.1514755035543052
409,3639.83,0.9339352194902796
410,3648.22,0.881840535225384
411,3656.63,1.1128492507596186
412,3665.06,1.2175741660929833
413,3673.5099999999998,1.0581800812254782
414,3681.9800000000005,0.9741552961571033
415,3690.4700000000003,0.8583926108878586
416,3698.97,1.065968825518179
417,3707.5000000000005,0.8826775398471944
418,3716.05,1.1320366539753404
419,3724.6099999999997,0.615086568003051
420,3733.2,0.9660331817294571
421,3741.8,0.7586871953554283
422,3750.4300000000003,0.6196222086800947
423,3759.0800000000004,1.1354532218038913
424,3767.74,0.8815298348272529
425,3776.4300000000003,1.0796900475493099
426,3785.13,1.2284439601709316
427,3793.86,0.921354772491249
428,3801.8939600000003,0.7583909090282911
429,3802.61,0.7438664861091397
430,3811.37,0.9989673164600387
431,3820.1600000000003,0.8083709465724134
432,3828.96,0.6319464766052798
433,3837.79,0.555595706399622
434,3846.64,0.892897136034948
435,3855.5,0.9503196655907659
436,3864.39,0.7395003949080593
437,3873.3,0.8749733240663367
438,3882.23,0.8280596530655978
439,3891.1800000000003,0.7279860819058427
440,3892.52,1.3877500712517565
441,3894.2900000000004,1.5666440571788218
442,3896.06,1.1495460431058868
443,3897.84,1.290784028953444
444,3899.61,1.4412210148805091
445,3901.3799999999997,1.1347290008075743
446,3903.16,1.7304849866551315
447,3904.93,1.3547299725821966
448,3906.7000000000003,0.7234792585092618
449,3908.47,0.680232844436327
450,3910.25,0.550440630283884
451,3912.02,1.3579549162109492
452,3913.79,1.2246879021380144
453,3915.5699999999997,0.6829197879855715
454,3917.34,0.9417199739126367
455,3919.11,0.5055713598397019
456,3920.88,0.5645029457667672
457,3922.66,0.33107783161432425
458,3924.43,0.2296689175413894
459,3926.2000000000003,0.8180632034684545
460,3927.98,0.3183897893160117
461,3929.75,0.5564899752430769
462,3931.52,1.093469761170142
463,3933.29,1.0835527470972073
464,3935.07,0.8837949329447643
465,3936.8399999999997,0.6591702188718295
466,3938.61,1.1482797047988946
467,3940.39,1.1724766906464519
468,3942.1600000000003,0.970259276573517
469,3943.93,1.2794416625005822
470,3945.7,1.1190416484276475
471,3947.48,0.9785771342752045
472,3949.2500000000005,1.5033956202022696
473,3951.02,1.3464126061293349
474,3952.8,1.443655591976892
475,3954.57,1.3766285779039573
476,3956.3399999999997,1.0883705638310224
477,3958.11,1.1795975497580877
478,3959.89,0.8231838356056447
479,3961.6600000000003,0.6857772215327098
480,3963.43,0.818091407459775
481,3965.2,0.7588520933868403
482,3966.98,0.8720043792343973
483,3968.75,0.5159914651614624
484,3970.52,0.4869457510885277
485,3972.3,0.7056340369360847
486,3974.07,1.26395642286315
487,3975.84,1.8590764087902152
488,3977.6099999999997,1.6007883947172803
489,3979.39,1.6015973805648376
490,3981.1600000000003,1.0200283664919028
491,3982.9300000000003,0.9270716524189678
492,3984.71,2.080260338266525
493,3986.48,1.7755533241935901
494,3988.25,1.7222873101206553
495,3990.0200000000004,1.9823792960477205
496,3991.7999999999997,1.6677202818952777
497,3993.57,1.707749267822343
498,3995.34,1.5125352537494081
499,3997.12,1.766140239596965
500,3998.89,1.8447372255240302
501,4000.66,1.6166422114510954
502,4002.4300000000003,1.8641771973781607
503,4004.2100000000005,1.6533831832257178
504,4005.98,1.751586169152783
505,4007.75,1.7187841550798482
506,4009.53,1.4005501409274053
507,4011.2999999999997,1.4223941268544704
508,4013.07,1.5680421127815356
509,4014.84,2.064413098708601
510,4016.6200000000003,1.819299084556158
511,4018.39,1.2743170704832232
512,4020.16,1.5353880564102884
513,4021.94,1.7759690422578454
514,4023.7099999999996,1.9184810281849105
515,4025.48,1.9135010141119757
516,4027.25,2.0270440000390413
517,4029.03,1.909600985886598
518,4030.7999999999997,1.4630119718136634
519,4032.5699999999997,1.7191459577407284
520,4034.35,1.6052329435882855
521,4036.1200000000003,1.3187959295153506
522,4037.89,1.8669179154424158
523,4039.66,2.151600901369481
524,4041.44,1.6631028872170384
525,4043.21,1.3552038731441034
526,4044.98,1.6505288590711686
527,4046.7599999999998,1.8052998449187256
528,4048.53,1.3141428308457908
529,4050.3,1.700410816772856
530,4052.0699999999997,1.9003408026999211
531,4053.85,1.5770557885474785
532,4055.62,1.3931847744745436
533,4057.3900000000003,1.5144667604016089
534,4059.1699999999996,1.9189237462491657
535,4060.94,1.651505732176231
536,4062.71,1.336107718103296
537,4064.4799999999996,1.6441977040303613
538,4066.2599999999998,1.8110966898779186
539,4068.03,1.7883866758049838
540,4069.8,1.765528661732049
541,4071.5800000000004,1.618397647579606
542,4073.35,1.5544596335066712
543,4075.12,1.6073646194337363
544,4076.8900000000003,1.5430336053608016
545,4078.6699999999996,1.4930355912083586
546,4080.44,1.6515605771354238
547,4082.21,1.624733563062489
548,4083.9900000000002,1.525720548910046
549,4085.7599999999998,1.6788115348371113
550,4087.5299999999997,2.1798315207641763
551,4089.3,1.9272295066912417
552,4091.0800000000004,1.8250144925387988
553,4092.85,1.854876478465864
554,4094.62,1.7993884643929292
555,4096.4,1.7283564502404862
556,4098.17,1.5605634361675513
557,4099.9400000000005,1.5641734220946166
558,4101.71,1.7585844080216817
559,4103.49,1.635120393869239
560,4105.26,1.867727379796304
561,4107.03,1.7152543657233694
562,4108.81,1.5330283515709264
563,4110.58,1.8479233374979915
564,4112.35,1.5498913234250566
565,4114.12,1.7332403093521218
566,4115.900000000001,1.5873052951996791
567,4117.67,1.5862172811267443
568,4119.44,1.9228842670538095
569,4121.22,1.5222122529013664
570,4122.990000000001,1.5576482388284316
571,4124.76,1.5762502247554968
572,4126.53,1.2100662106825621
573,4128.31,1.4570131965301192
574,4130.08,1.7637661824571844
575,4131.85,1.7158681683842496
576,4133.62,1.5123081543113148
577,4135.400000000001,1.381002140158872
578,4137.17,1.392006126085937
579,4138.94,1.5015791120130022
580,4140.72,2.009957097860559
