,lambda (Angstroms),Total Flux (erg/s/cm^2/Angstrom)
0,100.05999999999999,0.0019261246674745444
1,101.92,0.0023156568231519946
2,104.05,0.002761557327024554
3,104.712855,0.0029003991756993666
4,105.99000000000001,0.0026780557773873775
5,107.96,0.002335342949214341
6,109.97,0.0019866529377992087
7,114.09,0.0012705984018637152
8,118.1,0.0005740887323439771
9,120.22644299999999,0.00022649758530083244
10,121.13000000000001,0.00022914354243315353
11,125.10000000000001,0.00020766559131415554
12,127.13000000000001,0.00019573942661099033
13,128.01,0.00019195814669040653
14,131.0,0.00017433380025569514
15,131.9,0.0001796492173823706
16,134.05,0.00016723558496276207
17,136.85,0.00016749723157908605
18,138.038426,0.0001613777519243605
19,140.04000000000002,0.00016665852454605945
20,142.97,0.00038420326113278034
21,146.98,0.0008933935821951526
22,151.1,0.000944651041491156
23,154.97,0.0010103145775289069
24,158.489319,0.0010747225137333757
25,158.95,0.0010830830893510653
26,161.9,0.0011359278130360982
27,166.06,0.0012233034844021109
28,169.92,0.0012920865736984594
29,173.08,0.0013529063048322574
30,177.11999999999998,0.0014259455433704045
31,179.99,0.0014804123118368605
32,181.970086,0.0015179623738617832
33,182.07999999999998,0.0015201104101317934
34,185.89000000000001,0.0015980994965318685
35,191.1,0.0016993189375146486
36,194.2,0.0017742319369477807
37,197.81,0.001848502829836041
38,201.95999999999998,0.0019389018452062017
39,204.76999999999998,0.002001799964047202
40,208.929613,0.0020131157591567936
41,210.02,0.002016861779416519
42,215.9,0.0022332974563428806
43,219.92000000000002,0.0023346858477109036
44,222.98,0.0023692344142746224
45,227.12,0.002482198533743183
46,229.75,0.003733659991279974
47,234.01999999999998,0.006293586399524117
48,239.88329199999998,0.007599691766811948
49,240.01999999999998,0.007629931367575208
50,246.18,0.0071854543708204585
51,251.92,0.0075344035556626264
52,257.19,0.006358974181815625
53,260.16999999999996,0.007241747702866088
54,263.79,0.007526169899578395
55,268.69,0.007471195447614392
56,273.69,0.0073825824762225505
57,275.42287,0.00735272657680475
58,278.78,0.00729978102631048
59,283.96000000000004,0.007253676012698525
60,289.90999999999997,0.0068389887267929035
61,295.98,0.006890786788062294
62,300.79,0.006769667203994051
63,307.79,0.006759600455869789
64,316.227766,0.006753026166055256
65,317.87,0.006749604543298926
66,328.28999999999996,0.00659159918910081
67,338.26,0.006393892997991863
68,347.74,0.0061872140289133465
69,356.66,0.006042671885012463
70,363.078055,0.005952758804365065
71,365.81,0.005917168333592322
72,375.18999999999994,0.005747969509310603
73,384.82000000000005,0.005420807285661035
74,394.69,0.005412642358618331
75,404.81000000000006,0.005295063032207777
76,414.24,0.005133143728052489
77,416.86938299999997,0.005079318247125674
78,421.95000000000005,0.004974439422139722
79,429.79,0.004842895996675397
80,440.81,0.004704957763433449
81,451.08000000000004,0.004519421852780565
82,460.53,0.004380663188158387
83,470.17,0.004246557588480313
84,478.630092,0.0041511489052421914
85,480.02000000000004,0.004134644688979807
86,490.07,0.0039487928919895
87,500.33,0.003857076991778499
88,506.11999999999995,0.003760566574407963
89,511.98,0.0038099224559638633
90,520.3,0.0037135494140773597
91,529.98,0.0035621088941901777
92,539.83,0.003385900814552911
93,549.5408739999999,0.003273390656319614
94,549.87,0.003269652570690275
95,560.09,0.00323896330301427
96,570.5,0.0031870840968981043
97,579.77,0.0030517925214229016
98,590.5500000000001,0.0029959955404495813
99,600.15,0.002849385598209889
100,609.9,0.0025152701256227024
101,619.8100000000001,0.0027521530206648537
102,629.88,0.0026532512833363432
103,630.957344,0.0026481338077463936
104,640.11,0.002607026149414199
105,650.51,0.0025330370294553224
106,658.0500000000001,0.002449854067485137
107,665.67,0.002445414989207575
108,674.93,0.0023922785266288064
109,684.32,0.002273059375050551
110,695.43,0.0022850227228637127
111,705.11,0.0021618386496712197
112,716.5699999999999,0.002187773988639611
113,724.43596,0.002147046732714781
114,726.53,0.002136070431134175
115,734.95,0.002098731073845904
116,745.17,0.002053246849203846
117,755.54,0.0020088603022823054
118,764.29,0.0018424068359791732
119,774.9200000000001,0.0019358462637731966
120,785.7,0.0018732143692877378
121,794.8,0.0018615334843324804
122,805.85,0.0018378394097439536
123,815.1899999999999,0.0018062898091415244
124,824.6199999999999,0.0017911488151714063
125,831.763771,0.001673008158588981
126,834.1700000000001,0.0016325682373337584
127,845.78,0.0017154870545020838
128,855.5699999999999,0.0016798522129928594
129,865.48,0.00166689226106677
130,875.5,0.0016577640412585549
131,885.64,0.0016449007110334746
132,895.89,0.0016284821129262685
133,904.18,0.0015876846516278546
134,914.6500000000001,0.001973334517756396
135,925.2399999999999,0.005887452273468073
136,935.96,0.011168556076228145
137,944.62,0.019503960441144396
138,954.992586,0.026342570615000012
139,955.5600000000001,0.026716752731411487
140,964.4,0.029560475285159676
141,975.57,0.006198562982599421
142,984.59,0.024539047294229364
143,995.9899999999999,0.0258108952934069
144,1005.21,0.03711511678046101
145,1014.51,0.035610385937684785
146,1023.9,0.015785532473849437
147,1035.75,0.024934627367731346
148,1045.34,0.04649862807932017
149,1055.01,0.04533640646107866
150,1064.77,0.03552740222177802
151,1074.6200000000001,0.04202332536141826
152,1084.57,0.03277879558877057
153,1094.6,0.04359734348629256
154,1096.4782,0.043216127287602185
155,1104.73,0.04154075664158122
156,1114.95,0.039581085095331515
157,1125.27,0.03528016443414787
158,1135.68,0.04471108556952366
159,1146.19,0.040405837589965514
160,1154.13,0.04269838386420988
161,1164.81,0.043792130389264
162,1175.59,0.03002908779938418
163,1183.74,0.04181991493226724
164,1194.69,0.02861135684699971
165,1205.75,0.020498668735304825
166,1214.1100000000001,0.0138369267268266
167,1225.3400000000001,0.027830373119744005
168,1233.8300000000002,0.04191300926185164
169,1245.25,0.04595159833639454
170,1253.8799999999999,0.043582831717594646
171,1258.92541,0.040761948496383156
172,1265.48,0.03709792432778837
173,1274.2600000000002,0.04800422125197866
174,1286.05,0.050150107691181785
175,1294.96,0.03920530545821316
176,1303.94,0.03840127367908204
177,1316.0,0.04822666186880127
178,1325.12,0.045845040997345175
179,1334.31,0.04021066057972658
180,1343.56,0.04800477055111156
181,1355.99,0.04616331113968619
182,1365.3899999999999,0.040862962083580125
183,1374.85,0.04288601341647763
184,1384.38,0.04308460520321265
185,1393.98,0.03718457744378517
186,1403.6399999999999,0.03849094007336128
187,1416.63,0.03920611429263597
188,1426.45,0.040118417959554946
189,1436.3400000000001,0.03966025208031144
190,1442.97,0.04181411506520684
191,1445.43977,0.0422477021768228
192,1446.29,0.042396965704176226
193,1456.3200000000002,0.041052230281871334
194,1466.4099999999999,0.03752899518605314
195,1476.5800000000002,0.03727062052555057
196,1483.3899999999999,0.03787607758179221
197,1493.68,0.03840283357426306
198,1504.0300000000002,0.036090139893220616
199,1510.97,0.03194746765685013
200,1517.95,0.03422982563813746
201,1524.9499999999998,0.032992683728253674
202,1535.52,0.028475771244329172
203,1546.17,0.031365129195720286
204,1553.3,0.029408017993224383
205,1564.07,0.029817666597588915
206,1574.9099999999999,0.03172806558285461
207,1585.83,0.033221215003435924
208,1596.82,0.03376113480491839
209,1604.19,0.03299315490836933
210,1615.3100000000002,0.032917355417239676
211,1626.51,0.030935746361425633
212,1634.02,0.032841577226678895
213,1645.3400000000001,0.033298648823838276
214,1656.75,0.03044049091072772
215,1659.58691,0.031501878297683375
216,1664.39,0.03329904721211351
217,1672.08,0.029408822796221003
218,1675.9299999999998,0.03337634578696402
219,1683.6699999999998,0.03478703335796429
220,1695.34,0.032393597098736
221,1703.1599999999999,0.03093808784876469
222,1714.97,0.029276587152836146
223,1726.8600000000001,0.02900841963593603
224,1734.83,0.03086770634664302
225,1746.8500000000001,0.030027393995664096
226,1754.92,0.032024804680156616
227,1763.0199999999998,0.029077096556784796
228,1775.2399999999998,0.029822802153376942
229,1783.43,0.0302373576064121
230,1795.79,0.03239779876630399
231,1804.0800000000002,0.03187978819312468
232,1816.59,0.029347765313694874
233,1824.97,0.029824788316922545
234,1833.4,0.028483083307042984
235,1846.1,0.025981317977805687
236,1854.6299999999999,0.02610144694171166
237,1863.19,0.026955357097753294
238,1876.1,0.029014660113465617
239,1884.76,0.026709334243292783
240,1893.4599999999998,0.02568624996263416
241,1905.46072,0.026905334611053953
242,1906.59,0.027019949000922076
243,1915.3899999999999,0.02598292824259079
244,1924.23,0.025334475435358002
245,1933.1100000000001,0.025685320579223705
246,1946.51,0.02720489419721925
247,1955.49,0.025448624218831192
248,1969.05,0.027900369641220713
249,1978.1399999999999,0.028418214028353515
250,1982.7,0.027015880453581848
251,1996.4399999999998,0.026158756655914595
252,2005.6599999999999,0.026766244384117503
253,2014.91,0.025799640575644277
254,2024.2099999999998,0.02664293420604417
255,2033.5600000000002,0.025563005275317182
256,2042.94,0.026641824807914067
257,2057.1,0.025384909496781002
258,2066.6,0.025327112882673364
259,2076.14,0.027198214219664223
260,2085.7200000000003,0.029750263507753578
261,2095.35,0.027893960234716044
262,2105.02,0.027765004912777013
263,2114.74,0.028475197029711095
264,2124.5,0.028214907097743668
265,2134.3,0.026151825116874743
266,2144.16,0.027955540062653553
267,2154.05,0.028671933471756235
268,2163.9900000000002,0.02713106431973204
269,2173.98,0.026882152606580955
270,2184.02,0.027889498332302993
271,2187.7616199999998,0.02820353223046421
272,2194.1,0.028736095532326058
273,2204.23,0.027889699234901793
274,2214.4,0.02526360457105137
275,2224.62,0.025379621949168252
276,2234.89,0.02873766136925244
277,2245.21,0.027319042831303927
278,2255.57,0.02468984592692926
279,2265.98,0.024577671064521894
280,2276.44,0.025675858244081834
281,2286.9500000000003,0.028345797465609078
282,2297.5,0.025685398320710165
283,2302.8,0.02721166476924436
284,2313.43,0.02494790889149313
285,2324.11,0.019696235055709208
286,2334.84,0.02160527326189259
287,2345.61,0.019537283101649813
288,2356.44,0.023820385391767795
289,2367.32,0.019737909723853087
290,2372.77,0.021298612298289197
291,2383.73,0.01826824989752217
292,2394.73,0.01999170913032899
293,2405.7799999999997,0.019281310405103117
294,2416.89,0.020290984130238002
295,2422.46,0.024451101605395636
296,2433.64,0.023907758189284752
297,2444.87,0.02646794681514117
298,2456.16,0.02684945789135835
299,2467.5,0.025016801009542837
300,2473.1800000000003,0.023355492977028536
301,2484.6,0.020687889362360712
302,2496.07,0.020890967789660184
303,2507.59,0.025943688258926966
304,2511.88643,0.02077069440460228
305,2513.37,0.018984360273156357
306,2519.16,0.018557528756982883
307,2524.9700000000003,0.01818193692469136
308,2536.62,0.020785692785931256
309,2542.47,0.02093544032140365
310,2554.21,0.028112944760112345
311,2566.0,0.024055658408525943
312,2577.84,0.027757211266644426
313,2583.7900000000004,0.026032527221526606
314,2595.71,0.024649068815172915
315,2607.6899999999996,0.0227559494604651
316,2613.7,0.021739524466993145
317,2625.77,0.025198193689754136
318,2637.89,0.03423169212222001
319,2643.97,0.04231181602233492
320,2656.17,0.05390500319032863
321,2662.3,0.03757329630014841
322,2674.58,0.041694522203669954
323,2686.9300000000003,0.04616120700077834
324,2693.12,0.036685009162243994
325,2705.5600000000004,0.04282166253682119
326,2718.04,0.03396365527916229
327,2724.31,0.029390906176155782
328,2736.8799999999997,0.03462417749596569
329,2743.1899999999996,0.023861697760723093
330,2755.8500000000004,0.028238417658001815
331,2762.21,0.03371865713246411
332,2774.96,0.035652775607211626
333,2787.77,0.026092113133605026
334,2794.1899999999996,0.016785751659713192
335,2807.0899999999997,0.01875413776357539
336,2813.56,0.03280141549938845
337,2826.5499999999997,0.04285840018071945
338,2833.06,0.04084980728429642
339,2846.14,0.032548200543096234
340,2852.7000000000003,0.0239227668563781
341,2865.87,0.04147736869264672
342,2872.48,0.052343714215633476
343,2884.0315,0.048644872105452826
344,2885.73,0.04810103108433864
345,2892.3900000000003,0.05665477893001946
346,2912.44,0.0737170024444189
347,2932.6200000000003,0.06516198591676707
348,2952.95,0.06087062934059453
349,2973.42,0.06365000271913601
350,2987.15,0.06442637827787438
351,3007.8500000000004,0.06493201158201745
352,3028.7,0.0686839448376398
353,3049.69,0.07100068804797618
354,3070.83,0.07685255120979186
355,3092.12,0.07552176432308683
356,3113.5499999999997,0.0861916473910958
357,3127.92,0.08030728274281251
358,3149.61,0.08057099572671894
359,3171.4399999999996,0.08781888866533938
360,3193.42,0.07638981155543913
361,3208.16,0.08419868678747143
362,3230.4,0.07157463959346862
363,3252.79,0.09820605235094511
364,3267.81,0.11360748749240544
365,3290.46,0.11139098016577936
366,3311.31121,0.10557201408843693
367,3313.27,0.10502536130878118
368,3320.9,0.10056551412847678
369,3328.56,0.10929076676266661
370,3336.23,0.11084871933502118
371,3343.92,0.1039648717837052
372,3351.63,0.10304682410871871
373,3359.36,0.11406837631006171
374,3367.1,0.10797602844956945
375,3374.86,0.07843651046540664
376,3382.64,0.09154724235757333
377,3390.44,0.1108578841260695
378,3398.26,0.10737873577089514
379,3406.09,0.11093468735388552
380,3413.9399999999996,0.10844833881320537
381,3421.81,0.11544189014885471
382,3429.7,0.10927464136083352
383,3437.6099999999997,0.11134439244914181
384,3445.53,0.07326378347561484
385,3453.4700000000003,0.11694079437841734
386,3461.44,0.09575059509571406
387,3469.4199999999996,0.10382049575117552
388,3477.4100000000003,0.09046020634480172
389,3485.43,0.10341669675292213
390,3493.4700000000003,0.09199450703737203
391,3501.52,0.10541349725998667
392,3509.59,0.11588794735893077
393,3517.6800000000003,0.09665266733420434
394,3525.79,0.09848403718580741
395,3533.9199999999996,0.11816709691373996
396,3542.0600000000004,0.12842324657983722
397,3550.2299999999996,0.1255449960604287
398,3558.4100000000003,0.11613634547918496
399,3566.62,0.1199812947124354
400,3574.84,0.08816825388385059
401,3583.08,0.08559985293159526
402,3591.34,0.0817785018556694
403,3599.62,0.126688290656073
404,3607.92,0.10469343933280612
405,3616.2300000000005,0.11325778794770396
406,3624.5699999999997,0.111744236377096
407,3632.92,0.1372025847446528
408,3641.3,0.13788603292670382
409,3649.69,0.11394538104691955
410,3658.11,0.1485407289816295
411,3666.54,0.1489266768545042
412,3674.9900000000002,0.14762792460370838
413,3683.46,0.12397417222924204
414,3691.95,0.11926061973110517
415,3700.46,0.14778466710929777
416,3709.0,0.1056409143019846
417,3717.55,0.16141716143283616
418,3726.12,0.0950968184400172
419,3734.7000000000003,0.11975695538536299
420,3743.32,0.13318370208336772
421,3751.94,0.07864700878137246
422,3760.5899999999997,0.12183939529387142
423,3769.2599999999998,0.11938564168269984
424,3777.95,0.14391528794785774
425,3786.66,0.16758393408934513
426,3795.3900000000003,0.127185480107162
427,3801.8939600000003,0.11791413782346914
428,3804.14,0.11471242889513165
429,3812.91,0.1505675859649746
430,3821.7000000000003,0.11693354293691526
431,3830.5099999999998,0.08813394981095363
432,3839.34,0.07912712658708967
433,3848.19,0.12777031326532345
434,3857.06,0.13322676984565493
435,3865.9500000000003,0.1332777263280841
436,3874.86,0.10963448271261098
437,3883.8,0.1180610389502844
438,3892.75,0.10821379513900668
439,3901.7200000000003,0.14976785122982667
440,3910.72,0.15226560717379323
441,3919.73,0.16585636306880863
442,3928.77,0.13833511881697058
443,3937.82,0.05311957451618137
444,3946.8999999999996,0.12626393006853873
445,3956.0,0.1657422855229938
446,3965.12,0.12578254087954657
447,3976.5499999999997,0.14161738492838408
448,3979.29,0.09610057151576944
449,3982.0299999999997,0.12684325810315483
450,3984.7700000000004,0.1325377446905402
451,3987.51,0.20774073127792556
452,3990.25,0.15593411786531092
453,3992.9900000000002,0.1836717044526963
454,3995.73,0.18871089104008168
455,3998.4599999999996,0.18111697767641818
456,4001.2,0.19606356426380356
457,4003.94,0.18943955085118894
458,4006.6800000000003,0.2790910374385743
459,4009.42,0.16942482402595968
460,4012.1600000000003,0.23906161061334505
461,4014.9,0.1840143972007304
462,4017.6400000000003,0.13379088378811577
463,4020.38,0.16524157037550113
464,4023.12,0.21577745696288653
465,4025.8500000000004,0.24695664359922304
466,4028.59,0.1790039301866084
467,4031.3300000000004,0.25348031677399374
468,4034.07,0.26734190336137914
469,4036.81,0.2580482899487645
470,4039.55,0.26480057653614986
471,4042.29,0.2711959631235352
472,4045.03,0.19056664971092063
473,4047.77,0.198860736298306
474,4050.5,0.18305832293464253
475,4053.2400000000002,0.1718946095220279
476,4055.98,0.19711969610941327
477,4058.7200000000003,0.19933228269679862
478,4061.46,0.180645269284184
479,4064.2,0.22722685587156935
480,4066.94,0.23676294245895474
481,4069.68,0.1943068290463401
482,4072.42,0.2940511156337255
483,4075.16,0.27963240222111085
484,4077.8900000000003,0.20959678885744737
485,4080.63,0.19563497544483274
486,4083.37,0.2267559620322181
487,4086.11,0.19930364861960348
488,4088.85,0.2573771352069888
489,4091.59,0.18391412179437422
490,4094.33,0.20911070838175957
491,4097.07,0.19243659496914495
492,4099.8099999999995,0.20281488155653032
493,4102.55,0.1562902681439157
494,4105.28,0.1990040547802522
495,4108.02,0.1868552413676376
496,4110.76,0.20474262795502296
497,4113.5,0.21664851454240833
498,4116.24,0.24993930112979368
499,4118.98,0.21233698771717907
500,4121.72,0.20856807430456442
501,4124.46,0.2300671608919498
502,4127.2,0.18529844747933516
503,4129.9400000000005,0.18171513406672055
504,4132.67,0.19229422070305704
505,4135.41,0.17958870729044243
506,4138.15,0.2276407938778278
507,4140.889999999999,0.22662698046521318
508,4143.63,0.19754726705259854
509,4146.37,0.24816885363998392
510,4149.11,0.23095224022736927
511,4151.85,0.22996702681475464
512,4154.59,0.23365011340214
513,4157.32,0.2723241000384765
514,4160.0599999999995,0.2416310866258619
515,4162.8,0.16679757321324729
516,4165.54,0.18222945980063265
517,4168.28,0.22270114638801802
518,4171.0199999999995,0.24705533297540339
519,4173.76,0.21126601956278876
520,4176.5,0.26491400615017413
521,4179.24,0.2703099927375595
522,4181.9800000000005,0.25026687932494485
523,4184.71,0.2323946659612814
524,4187.45,0.2826022525486667
525,4190.19,0.2793901391360521
526,4192.93,0.2327511257234375
527,4195.67,0.19474911231082287
528,4198.41,0.2564057988982082
529,4201.150000000001,0.28661308548559356
530,4203.89,0.22195817207297897
531,4206.63,0.14925195866036434
532,4209.37,0.18606884524774972
533,4212.099999999999,0.24067443188408624
534,4214.84,0.2350068184714716
535,4217.58,0.22512790505885696
536,4220.320000000001,0.24148779164624234
537,4223.06,0.2655850782336277
538,4225.8,0.25751916482101306
539,4228.54,0.19826045140839846
540,4231.28,0.17861703799578382
541,4234.02,0.2107515245831692
542,4236.76,0.20733951117055457
543,4239.49,0.2040140978068911
544,4242.2300000000005,0.21671938439427646
545,4244.97,0.2503671709816618
546,4247.71,0.23449245756904719
547,4250.45,0.22242934415643256
548,4253.19,0.23176553074381792
549,4255.93,0.1709652173312033
550,4258.67,0.23332140391858866
551,4261.41,0.255833990505974
552,4264.15,0.2368329770933594
553,4266.88,0.22242966372969594
554,4269.62,0.2290392503170813
555,4272.36,0.24100223690446668
556,4275.1,0.21938862349185204
557,4277.84,0.2171615100792374
558,4280.58,0.2317225966666228
559,4283.32,0.20799628325400815
560,4286.0599999999995,0.21159356984139352
561,4288.8,0.1992592564287789
562,4291.53,0.1676536430651154
563,4294.27,0.19807512965250076
564,4297.01,0.23497781623988614
565,4299.75,0.18181480282727153
566,4302.49,0.1765754894146569
567,4305.23,0.18268547600204227
568,4307.97,0.19658986258942762
569,4310.71,0.210308749176813
570,4313.45,0.23677573576419836
