,lambda (Angstroms),Total Flux (erg/s/cm^2/Angstrom)
0,100.05999999999999,0.025864511432284923
1,101.92,0.03109220943286215
2,104.05,0.037078766562485155
3,104.712855,0.03894178083711913
4,105.99000000000001,0.0359467510827595
5,107.96,0.03132691043494125
6,109.97,0.026613271465682067
7,114.09,0.01695148255540152
8,118.1,0.007547663389208425
9,120.22644299999999,0.0025611311638466363
10,121.13000000000001,0.0024631650614491294
11,125.10000000000001,0.0020325277575970217
12,127.13000000000001,0.0018123274364215108
13,128.01999999999998,0.0017158071699322503
14,131.0,0.0013925833240681978
15,131.91,0.0012940089192791761
16,134.05,0.0010619154953049905
17,136.86,0.000757409827638889
18,138.038426,0.000629639370813352
19,140.04000000000002,0.0006221423230968534
20,142.98,0.0006145302470341554
21,146.98,0.0006092964533161989
22,151.1,0.0005963065971467034
23,154.98,0.0005848862598802854
24,158.489319,0.0005751150246686354
25,158.95,0.0005728851722810701
26,161.91,0.0005587544902497642
27,166.06,0.0005397436213545211
28,169.93,0.0005223664081919692
29,173.09,0.0005084388377801697
30,177.11999999999998,0.0004910999299132231
31,180.0,0.0004794661952341146
32,181.970086,0.00047142790228170433
33,182.07999999999998,0.00047183491774720307
34,185.89000000000001,0.0004870285126434942
35,191.1,0.0005079029719373726
36,194.21,0.0005216357096348701
37,197.82000000000002,0.0005381993410457916
38,201.95999999999998,0.0005576061821929424
39,204.76999999999998,0.0005717445596623855
40,208.929613,0.0005874188957617696
41,210.02,0.0006020088183783464
42,215.9,0.0006960678429436853
43,219.92000000000002,0.0007582823740240703
44,222.98,0.00080310304395093
45,227.12,0.0008689102326755056
46,229.75,0.0010144565293773492
47,234.01999999999998,0.0012915943472164642
48,239.88329199999998,0.0015236053518206572
49,240.03,0.001526331746321809
50,246.19,0.001472859512101582
51,251.92,0.0015112179033220528
52,257.19,0.0013752620938511768
53,260.16999999999996,0.0014769005896342492
54,263.79,0.0015246281429009334
55,268.7,0.0015242728198455254
56,273.69,0.0015231602664755688
57,275.42287,0.0015198134216947417
58,278.78,0.0015791272994018061
59,283.96000000000004,0.001697177404549958
60,289.90999999999997,0.0017783461334363471
61,295.98,0.0019164062971910344
62,300.79,0.0020052478948286035
63,307.8,0.002195176131718283
64,316.227766,0.0024188610216090345
65,317.88,0.0024337448347471107
66,328.28999999999996,0.0025379652241832524
67,338.27000000000004,0.002622320132595614
68,347.75,0.0027154214584221873
69,356.66999999999996,0.0031456429717526763
70,363.078055,0.003829333809992469
71,365.82000000000005,0.00415806740627462
72,375.2,0.004669765592393451
73,384.82000000000005,0.004651466277943895
74,394.7,0.0068494541712119175
75,404.82,0.009216113563911553
76,414.24999999999994,0.010430340020745301
77,416.86938299999997,0.010544663736806832
78,421.95000000000005,0.01075465098178383
79,429.79999999999995,0.011512406758781287
80,440.82000000000005,0.015024749182031222
81,451.09000000000003,0.01725885821894382
82,459.47,0.01717555672228633
83,470.17999999999995,0.019607833079183498
84,478.630092,0.02367321736352636
85,480.02000000000004,0.024330759081301206
86,490.07,0.023238549130780484
87,500.34000000000003,0.031151447907711054
88,506.13,0.028724926234724488
89,511.99,0.046596055975017876
90,520.3100000000001,0.047946909667721124
91,529.98,0.048667519187966364
92,539.8399999999999,0.04381502397282862
93,549.5408739999999,0.04623744834474947
94,549.87,0.04632064543552842
95,560.1,0.06525219148000137
96,570.51,0.07882526088596066
97,579.78,0.08306007900250655
98,590.56,0.09078020031818773
99,600.15,0.0817122844107093
100,609.9,0.08415959149121872
101,619.8100000000001,0.11328503155971599
102,629.89,0.11300839980295034
103,630.957344,0.11499447825766126
104,640.12,0.13207591414253336
105,650.52,0.13422508021727797
106,658.0500000000001,0.12853041565408826
107,665.67,0.15055463079731457
108,674.93,0.1657928205907891
109,684.32,0.14922076996019792
110,695.4399999999999,0.18176497368627098
111,705.12,0.1537689021096871
112,716.58,0.20576678472666532
113,724.43596,0.21418259033785053
114,726.54,0.21643476138152304
115,734.96,0.22504272718944976
116,745.1800000000001,0.22661633794443917
117,755.55,0.23348551911168386
118,764.3,0.21746915982657208
119,774.9300000000001,0.25187653637505913
120,785.71,0.2383936833358014
121,794.81,0.2655492216792852
122,805.86,0.28125587538208685
123,815.1999999999999,0.29043688638517895
124,824.64,0.30478601099644126
125,831.763771,0.26318844398154456
126,834.1800000000001,0.24907071988134774
127,845.79,0.3154438652664958
128,855.5799999999999,0.31833321826568617
129,865.49,0.338671674059555
130,875.51,0.34890865741521254
131,885.6500000000001,0.35863564356554856
132,895.9,0.36779485727767325
133,904.1899999999999,0.368618825343382
134,914.6600000000001,0.368594894179084
135,925.26,0.9225947410423544
136,935.97,1.5518832154674136
137,944.6300000000001,2.2688267671500477
138,954.992586,2.8003250390051044
139,955.57,2.8299418759812838
140,964.41,3.102950415422557
141,975.58,1.027876042748239
142,984.6,2.522270511725647
143,996.01,2.575022045099508
144,1005.22,3.4814634396983912
145,1014.52,3.5461947990653417
146,1023.91,2.2019351232003594
147,1035.77,2.9428374804145565
148,1045.3500000000001,4.56804273017105
149,1055.02,4.464166944695611
150,1064.78,3.679171123988238
151,1074.64,4.2145182641342736
152,1084.58,3.5707593729630362
153,1094.6200000000001,4.443598442645206
154,1096.4782,4.415925040934699
155,1104.74,4.29287859272164
156,1114.97,4.185420058747044
157,1125.28,3.7217244267550518
158,1135.7,4.610249659989139
159,1146.2,4.322560795205829
160,1154.15,4.484620054727038
161,1164.83,4.515732969404586
162,1175.61,3.0884707615603872
163,1183.76,4.392672776038104
164,1194.71,3.4652223599069383
165,1205.76,2.816785821254027
166,1214.1200000000001,2.2530275784360776
167,1225.3600000000001,3.4892738069918487
168,1233.85,4.61016240489563
169,1245.27,4.905806412912258
170,1253.9,4.750239839285595
171,1258.92541,4.58653441711553
172,1265.5,4.37237225503393
173,1274.2700000000002,5.256756019329936
174,1286.06,5.453964046815671
175,1294.98,4.515614824184015
176,1303.95,4.526080605909803
177,1316.02,5.416391657797235
178,1325.1399999999999,5.208496452595361
179,1334.33,4.761103253493912
180,1343.5800000000002,5.428883059621398
181,1356.01,5.2809671428824405
182,1365.4099999999999,4.827404962082263
183,1374.87,4.962664786511023
184,1384.4,4.974095617040205
185,1394.0,4.0152854536698115
186,1403.6599999999999,4.043155295528353
187,1413.3899999999999,4.6850631434873184
188,1426.47,4.695793283395158
189,1436.3600000000001,4.79417214529795
190,1442.99,4.9626377230952725
191,1445.43977,5.005076512427423
192,1446.3100000000002,5.020152000241477
193,1456.3400000000001,4.87212373386769
194,1466.43,4.557501471882496
195,1476.6000000000001,4.599584215748757
196,1483.41,4.685082713853894
197,1493.7,4.717609466497337
198,1504.0500000000002,4.484490223529373
199,1510.99,4.071240731143124
200,1517.9699999999998,4.2926352416826035
201,1524.97,4.204603753684946
202,1535.54,3.645231526808484
203,1546.19,3.645226305783477
204,1553.32,3.554181827294435
205,1564.09,3.808329615046611
206,1574.9299999999998,4.07129740791881
207,1585.8500000000001,4.233757206642466
208,1593.1699999999998,4.292665742050629
209,1604.21,4.214342549551468
210,1615.3300000000002,4.1948983629037615
211,1626.53,4.06188518210751
212,1634.04,4.292633731412881
213,1645.36,4.3422905593938115
214,1656.77,4.137420393957631
215,1659.58691,4.23139161292483
216,1664.42,4.3926241815954485
217,1672.1,3.9785702838754027
218,1675.95,4.51571834035689
219,1683.6899999999998,4.599634474685907
220,1695.36,4.362311708228493
221,1703.19,4.233781890631103
222,1714.9900000000002,4.015341193613324
223,1726.88,3.978588544669138
224,1734.85,4.224091801852892
225,1746.88,4.146934227689852
226,1754.94,4.3323685329472
227,1763.04,4.080695859570589
228,1775.26,4.090081386896245
229,1783.45,4.175802761593228
230,1795.82,4.372443369041538
231,1804.11,4.362389797153624
232,1816.61,4.043240474041571
233,1825.0,4.12788695556876
234,1833.42,4.006249453120481
235,1846.1299999999999,3.7131142421801444
236,1854.6499999999999,3.738900793146969
237,1863.2099999999998,3.8347723654798345
238,1876.13,4.071371266711216
239,1884.79,3.756113892459185
240,1893.4899999999998,3.620286539573195
241,1905.46072,3.815990483282269
242,1906.61,3.8347781424357983
243,1915.4099999999999,3.687613083401472
244,1924.2500000000002,3.5870779968260806
245,1933.13,3.738909882709624
246,1946.53,3.8613446564528093
247,1955.52,3.5953354665984234
248,1969.07,3.906047137062614
249,1978.1599999999999,4.015401878355566
250,1982.72,3.808400738674142
251,1996.4699999999998,3.7130872714330074
252,2005.68,3.8347229301027634
253,2014.94,3.7301715543461884
254,2024.24,3.8701811510485484
255,2033.5800000000002,3.6621647202098426
256,2042.97,3.764705254944806
257,2057.13,3.4572565054077535
258,2066.63,3.5459739644047876
259,2076.16,3.8701554027460228
260,2085.75,3.7995267997756605
261,2095.38,3.6118591692642332
262,2105.05,3.64522051121174
263,2114.7599999999998,3.6875108256181828
264,2124.52,3.721567105598293
265,2134.33,3.5296693511520725
266,2144.18,3.554153569164787
267,2154.08,3.67893075275117
268,2164.02,3.5704969087964877
269,2174.01,3.562306030415474
270,2184.0499999999997,3.4892221176081293
271,2187.7616199999998,3.5374157578347187
272,2194.13,3.6201140580265316
273,2204.26,3.5458966189622556
274,2214.43,3.401901201856265
275,2224.65,3.3245468121981303
276,2234.92,3.4651484499878524
277,2245.2400000000002,3.3553271152254305
278,2255.6,3.2340608024212947
279,2266.0099999999998,3.3019515170650147
280,2276.47,3.348092259156591
281,2286.98,3.3948150286960246
282,2297.53,3.1977878201937426
283,2302.83,3.2349027296665303
284,2313.46,3.118066565080819
285,2324.14,2.605758427942964
286,2334.87,2.9508853182529657
287,2345.64,2.8904962305212525
288,2356.47,3.0339271757269675
289,2367.35,2.8577221483805384
290,2372.7999999999997,2.897662140196895
291,2383.76,2.735736156767037
292,2394.7599999999998,2.8647571952954634
293,2405.81,2.7741712612717464
294,2416.92,2.8129013601854576
295,2422.49,2.92518541787667
296,2433.67,2.82616355521738
297,2444.9,2.9391577200059467
298,2456.19,2.898992917731941
299,2467.53,2.8725241429057915
300,2473.22,2.7943252664718594
301,2484.63,2.8204425300727096
302,2496.1,2.525540826610987
303,2507.62,2.873251150597121
304,2511.88643,2.695682904556261
305,2513.4,2.632687171109901
306,2519.2,2.7126229388369
307,2525.0,2.6388837065638993
308,2536.66,2.6634572292702456
309,2542.51,2.6148649863742017
310,2554.24,2.738265494208288
311,2566.03,2.6823079892947224
312,2577.88,2.7830874716335052
313,2583.82,2.7513702096159833
314,2595.7400000000002,2.7138076770825057
315,2607.7299999999996,2.646113129676768
316,2613.74,2.603854852786986
317,2625.7999999999997,2.6831042905089877
318,2637.92,2.733218715483338
319,2644.0000000000005,2.8819044237212954
320,2656.21,2.9154878295741677
321,2662.33,2.702299529313691
322,2674.62,2.7846019181696944
323,2686.96,2.778394296402655
324,2693.16,2.6656509791453087
325,2705.59,2.7154003382567917
326,2718.08,2.6113136846206224
327,2724.34,2.6054743546156254
328,2736.92,2.6785156818579785
329,2743.23,2.431836341229938
330,2755.89,2.4600536514754223
331,2762.2400000000002,2.517545302348947
332,2774.99,2.6000805934729536
333,2787.7999999999997,2.488974871849309
334,2794.2299999999996,2.1480475057259647
335,2807.13,2.2546947649808424
336,2813.6,2.553233390359064
337,2826.5800000000004,2.630977632617072
338,2833.1,2.5417522473722505
339,2846.18,2.495511468384173
340,2852.7400000000002,2.4164880746409168
341,2865.91,2.583416276531361
342,2872.5099999999998,2.5775788742896704
343,2884.0315,2.562316955607366
344,2885.7699999999995,2.560014418862745
345,2892.42,2.54256938994815
346,2912.47,2.6810763027695588
347,2932.6600000000003,2.5963012149822386
348,2952.99,2.549236126586191
349,2966.62,2.567033067322141
350,2987.18,2.5555659779260393
351,3007.89,2.561771887877729
352,3028.74,2.5502937972206894
353,3049.73,2.5388267059549223
354,3070.87,2.5333256140369462
355,3092.16,2.527818521466761
356,3106.43,2.522193459419953
357,3127.97,2.476419365762753
358,3149.65,2.4766512714968245
359,3171.48,2.4656541765786875
360,3193.46,2.3604070810083413
361,3208.2,2.4099230169179453
362,3230.44,2.3177949202171035
363,3252.83,2.416139822864053
364,3267.85,2.4611967575562006
365,3290.5,2.438962659072655
366,3311.31121,2.4238920044992267
367,3313.31,2.4224444024485567
368,3320.95,2.461892767425916
369,3328.6,2.484847131572094
370,3336.2799999999997,2.507904493224727
371,3343.97,2.3786498540461793
372,3351.6800000000003,2.4453872132052683
373,3359.4,2.4119115715331763
374,3367.15,2.400896927367539
375,3374.91,2.240863282370721
376,3382.69,2.29306863571154
377,3390.49,2.440232987389996
378,3398.3,2.4515923382372704
379,3406.14,2.3630746865910006
380,3413.9900000000002,2.379583034113549
381,3421.86,2.4519353799737345
382,3429.7499999999995,2.407331724171557
383,3437.65,2.4408150675381983
384,3445.58,2.221069408411295
385,3453.52,2.4466677484532107
386,3461.48,2.2730480868327634
387,3469.4599999999996,2.320694423549953
388,3477.46,2.247170758604779
389,3485.48,2.2838110919972427
390,3493.51,2.2839374245585247
391,3501.5600000000004,2.305123755457444
392,3509.64,2.2788950838628192
393,3517.73,2.2270264114370124
394,3525.83,2.273875738180024
395,3533.96,2.359216062429492
396,3542.11,2.4198523850165965
397,3550.27,2.419975706772519
398,3558.46,2.354055026034898
399,3566.66,2.3979623444660954
400,3574.8799999999997,2.1921516612349294
401,3583.1200000000003,2.122717976341401
402,3591.39,2.0696752889543277
403,3592.5099999999998,2.109368195862004
404,3595.2000000000003,3.177184972274189
405,3597.88,2.106566749517556
406,3600.57,1.6894345259297414
407,3603.2599999999998,2.689236302341927
408,3605.95,2.0562210787541124
409,3608.6400000000003,2.717213855166298
410,3611.33,2.344803631578483
411,3614.02,2.2921184079906687
412,3616.71,2.0132501844028536
413,3619.3999999999996,2.375471960815039
414,3622.09,2.025774737227225
415,3624.77,2.2313645144705916
416,3627.46,2.290719290882777
417,3630.1499999999996,2.3315770672949627
418,3632.84,1.997214843707148
419,3635.53,2.3865976201193333
420,3638.22,2.0580903965315187
421,3640.91,2.6100871729437043
422,3643.6000000000004,2.68067994935589
423,3646.29,2.7515077257680756
424,3648.98,2.5817505021802605
425,3651.66,2.3126122794236275
426,3654.35,2.4343660558358127
427,3657.0399999999995,1.8123558322479985
428,3659.73,1.5620526086601838
429,3662.42,2.5938153850723693
430,3665.1099999999997,2.466789161484555
431,3667.7999999999997,2.38179293789674
432,3670.4900000000002,2.4087177143089256
433,3673.18,1.998494490721111
434,3675.87,1.7310992671332963
435,3678.56,2.1297300435454822
436,3681.2400000000002,1.5417988207888487
437,3683.9300000000003,2.323611597201034
438,3686.62,2.6884093736132195
439,3689.31,2.241423150025405
440,3691.9999999999995,2.6265919264375905
441,3694.69,2.017226702849776
442,3697.38,2.3795654792619616
443,3700.0699999999997,2.9184492556741466
444,3702.7599999999998,2.0820810320863323
445,3705.4500000000003,2.4543698084985177
446,3708.13,1.6551235857418845
447,3710.82,2.18007836215407
448,3713.5099999999998,1.7995891385662552
449,3716.2000000000003,2.2974999149784407
450,3718.8900000000003,2.3389416913906262
451,3721.58,2.9186854678028116
452,3724.27,4.393449244214997
453,3726.9600000000005,6.465517020627182
454,3729.65,7.981136797039368
455,3732.34,7.760449573451553
456,3735.02,6.3478823506949205
457,3737.71,3.9701241271071055
458,3740.3999999999996,2.9126009035192912
459,3743.09,2.176443679931477
460,3745.78,3.019133456343662
461,3748.47,2.7052592327558473
462,3751.16,2.2473860091680327
463,3753.8500000000004,2.4205357855802183
464,3756.54,2.464201561992404
465,3759.23,2.8611933384045893
466,3761.91,2.7729341156479563
467,3764.6000000000004,2.778083892060142
468,3767.29,2.618862668472327
469,3769.98,2.623544444884512
470,3772.67,2.7308982212966977
471,3775.3599999999997,2.878641997708883
472,3778.05,2.6792657741210686
473,3780.7400000000002,3.033292550533254
474,3783.43,2.7571163269454395
475,3786.12,3.069113103357625
476,3788.8100000000004,2.9232388797698103
477,3791.4900000000002,2.698823657013177
478,3794.18,3.156109433425363
479,3796.87,3.092653209837548
480,3799.56,2.7019789862497334
481,3801.8939600000003,2.3760156827831374
482,3802.25,2.326290768828053
483,3804.94,2.729605591827422
484,3807.63,2.7054874148267913
485,3810.3199999999997,2.7725672378261605
486,3813.01,3.319764060825529
487,3815.7000000000003,3.102943883824899
488,3818.38,3.348343707482263
489,3821.0699999999997,3.016673530481632
490,3823.7599999999998,3.340495353481001
491,3826.4500000000003,3.09077717648037
492,3829.14,2.7886109994797392
493,3831.83,2.3224248224791086
494,3834.52,2.7745586454784776
495,3837.2099999999996,2.524957468477847
496,3839.9,2.4195912914772157
497,3842.59,2.6181441144765847
498,3845.27,2.7984489381339492
499,3847.9600000000005,2.630096761133318
500,3850.65,2.854992584132687
501,3853.34,2.9691364071320563
502,3856.0299999999997,3.0064812301314254
503,3858.72,2.9777970531307942
504,3861.4100000000003,3.0577558761301638
505,3864.1,3.0766026991295328
506,3866.79,3.316717522128902
507,3869.48,3.274569345128271
508,3872.16,3.344243168785635
509,3874.8500000000004,3.631186991785004
510,3877.54,3.4124928147843736
511,3880.23,3.0838666377837423
512,3882.92,2.8582664607831116
513,3885.6099999999997,3.0800002837824807
514,3888.3,3.1702611067818496
515,3890.99,2.6922519297812193
516,3893.68,2.840932752780588
517,3896.37,2.853223575779957
518,3899.05,2.8038313994373216
519,3901.7400000000002,2.9065032224366902
520,3904.43,3.112316045436059
521,3907.12,2.8826168684354285
522,3909.8100000000004,2.889405691434798
523,3912.5,3.3182425144341665
524,3915.19,3.484367337433536
525,3917.88,3.327838160432905
526,3920.5699999999997,2.9720529834322744
527,3923.26,2.8238368064316433
528,3925.9500000000003,2.9643226294310123
529,3928.63,3.136316453088377
530,3931.3199999999997,3.052373276087746
531,3934.01,2.7826350990871145
532,3936.7000000000003,3.024623922086484
533,3939.39,2.926631745085853
534,3942.08,3.081634568085222
535,3944.7700000000004,3.2234083910845914
536,3947.46,3.27913321408396
537,3950.15,3.544301037083329
538,3952.84,3.205841860082699
539,3955.52,3.0880806837400625
540,3958.2099999999996,3.2429665067394318
541,3960.9,3.238516329738801
542,3963.59,2.48222315273817
543,3966.2799999999997,2.5285829757375393
544,3968.97,2.5104347987369082
545,3971.6600000000003,2.379311621736277
546,3974.35,2.620011444735647
547,3977.04,2.6483422677350155
548,3979.73,2.2792110907343845
549,3982.4100000000003,2.694479914391749
550,3985.1,3.339198737391118
551,3987.79,3.232192560390487
552,3990.48,3.5990973833898563
553,3993.1699999999996,3.542550206389225
554,3995.86,3.6415910293885942
555,3998.55,3.5668968523879636
556,4001.24,3.2337066753873325
557,4003.93,3.461644498386702
558,4006.6200000000003,3.204668321386071
559,4009.31,3.78885914438544
560,4011.99,3.536583968042804
561,4014.68,3.283586791042173
562,4017.37,3.5139846140415423
563,4020.06,3.7038754370409115
564,4022.75,3.5267422600402805
565,4025.44,3.4147010830396494
566,4028.1299999999997,3.681859906039019
567,4030.82,3.7903837290383877
568,4033.51,3.537622552037757
569,4036.2,3.665463375037126
570,4038.88,3.7357231986944903
571,4041.5699999999997,3.508600021693859
572,4044.26,3.5594078446932285
573,4046.9500000000003,3.0009676676925974
574,4049.64,3.5834044906919664
575,4052.33,3.819654313691336
576,4055.0199999999995,3.3679861366907047
577,4057.71,3.5481589596900744
578,4060.4,3.408840782689443
579,4063.0899999999997,3.578125605688812
580,4065.7700000000004,3.8813614293461765
581,4068.46,3.5128132523455458
582,4071.15,3.3798160753449147
583,4073.84,3.826447898344284
584,4076.5299999999997,3.4770997213436527
585,4079.2200000000003,3.786756544343022
586,4081.9100000000003,3.188278367342391
587,4084.6,3.39174919034176
588,4087.29,3.1743430133411294
