,lambda (Angstroms),Total Flux (erg/s/cm^2/Angstrom)
0,100.02000000000001,52.01364661724972
1,102.11,51.85108728574073
2,104.01,51.70330250968619
3,104.712855,51.64863539411916
4,105.95,51.14313684847656
5,107.91,50.34228435801936
6,109.92,49.52103655609591
7,114.05,47.83353829074324
8,118.05,46.199160103742834
9,120.22644299999999,45.310361077056804
10,121.08000000000001,45.01815539837058
11,125.05000000000001,43.65833166402172
12,127.08000000000001,42.96298745799447
13,127.96,42.66158312653933
14,130.94,41.640829167952525
15,131.85,41.329311679595484
16,133.98999999999998,40.59628865926135
17,137.10999999999999,39.527849360465765
18,138.038426,39.20984962603323
19,139.98,38.73454002883491
20,142.92,38.01764318458416
21,146.92000000000002,37.04377245242665
22,151.04,36.03570526603443
23,154.91,35.08902923471455
24,158.489319,34.2135653880464
25,158.88,34.141349534178104
26,161.84,33.59413506782392
27,165.98999999999998,32.82709813665168
28,169.86,32.11172383837779
29,173.01,31.52946205327115
30,177.04000000000002,30.784509477626766
31,179.92000000000002,30.252195564957834
32,181.970086,29.87326721362606
33,182.0,29.869051043700757
34,185.82000000000002,29.330699141679016
35,191.02,28.597726473796016
36,194.11999999999998,28.16093407178885
37,198.19,27.587246805734267
38,201.87,27.068817786770914
39,205.14999999999998,26.606505122260103
40,208.929613,26.073001196000053
41,209.93,25.966859019973185
42,215.81,25.345476966480273
43,219.82999999999998,24.92000012133716
44,222.89,24.5957601092133
45,227.03,24.157639618692773
46,230.19000000000003,23.83945078708774
47,233.93,23.47596932449191
48,239.88329199999998,22.868224545068948
49,239.93,22.86459399938006
50,246.08,22.355473266605575
51,251.80999999999997,21.893292554605946
52,257.09,21.440975529150784
53,260.06,21.215233817957255
54,264.29,20.8754833944392
55,269.2,20.473467446809494
56,274.21000000000004,20.062745213281016
57,275.42287,19.963257558419993
58,279.31,19.71837246305879
59,283.84,19.434171747827456
60,289.79,19.055234082126244
61,295.86,18.674552276948706
62,300.65999999999997,18.36901769789563
63,307.67,17.930250100153533
64,316.227766,17.394297832308798
65,317.75,17.32315773946855
66,328.15999999999997,16.833441508773298
67,338.13000000000005,16.3632007121324
68,347.59999999999997,15.916252314189652
69,357.34000000000003,15.458283650349902
70,363.078055,15.189467867697713
71,365.66,15.098918091938762
72,375.04,14.767195891389557
73,384.66,14.423267796753803
74,395.44000000000005,14.046724564033074
75,404.65000000000003,13.722797243461837
76,414.08,13.389258469977937
77,416.86938299999997,13.290176904408193
78,421.78000000000003,13.156511956697024
79,429.62,12.943848981225544
80,440.64,12.647284471621505
81,450.9,12.369614589231535
82,460.34,12.113469274888326
83,469.97999999999996,11.852760134436151
84,478.630092,11.619816632243005
85,479.82,11.59514294880881
86,489.87,11.384277623349215
87,500.13,11.172614614521809
88,505.91999999999996,11.050741488809267
89,511.78000000000003,10.93360006197412
90,520.09,10.760186315847825
91,529.76,10.557824482196654
92,539.61,10.350236761373072
93,549.5408739999999,10.14323348701201
94,549.64,10.141652226749002
95,559.86,9.982240451721871
96,570.27,9.81841280550539
97,579.54,9.67025567642501
98,590.31,9.49966097742871
99,599.9,9.345159004766263
100,609.65,9.184520335312786
101,619.56,9.03525011906828
102,629.62,8.874565840832181
103,630.957344,8.853535123382821
104,639.85,8.742697023686995
105,650.25,8.611150735762093
106,657.7800000000001,8.515126407004932
107,665.4,8.420745190852266
108,674.65,8.304661154092136
109,685.62,8.164625599329044
110,695.15,8.046590082894015
111,704.82,7.922322351621534
112,716.28,7.781177449927366
113,724.43596,7.678669792026019
114,726.2399999999999,7.661795989274568
115,734.65,7.58310748022941
116,744.87,7.4870909755276855
117,755.23,7.390100059117717
118,765.74,7.288577484448919
119,774.61,7.208970354076679
120,785.38,7.107208769092572
121,794.48,7.023109578056789
122,805.53,6.920435449656197
123,814.86,6.833357657956873
124,824.2900000000001,6.745532020751662
125,831.763771,6.673923524896445
126,835.76,6.644979812411573
127,845.4399999999999,6.580038024785072
128,855.23,6.511413515708268
129,865.1300000000001,6.442579325181165
130,875.15,6.3728416321628245
131,885.28,6.302121967694181
132,895.53,6.2306577107343015
133,905.9000000000001,6.158085521283182
134,914.28,6.101904598978423
135,924.87,6.062587636626703
136,935.58,6.0293744317837445
137,944.2399999999999,6.023908610332764
138,954.992586,5.990286663243685
139,955.1700000000001,5.989758440080485
140,964.01,5.951069224097569
141,975.1700000000001,5.725206860209633
142,984.19,5.78451103964788
143,995.5899999999999,5.708201016321496
144,1004.8,5.706326945370969
145,1014.1,5.633508242131023
146,1025.84,5.432543241266834
147,1035.34,5.431908821828181
148,1044.92,5.485026095910041
149,1054.58,5.411233863512421
150,1064.34,5.292123873015447
151,1074.19,5.259805350229051
152,1084.1299999999999,5.1385855951532395
153,1094.16,5.130401007788007
154,1096.4782,5.1119039434615825
155,1104.28,5.059229754504693
156,1114.5,4.992674232244941
157,1124.82,4.908980503896542
158,1135.22,4.900548870677223
159,1145.73,4.818894280760394
160,1156.33,4.769981835363783
161,1164.34,4.729359697663135
162,1175.1200000000001,4.592032741306957
163,1185.99,4.596865029470998
164,1194.21,4.482099328984192
165,1205.26,4.375852406188668
166,1213.62,4.280039097177755
167,1224.84,4.303060514031529
168,1236.18,4.311958423578926
169,1244.75,4.284112451781854
170,1256.2599999999998,4.209047300978553
171,1258.92541,4.1847559047650185
172,1264.97,4.139291587180053
173,1273.7399999999998,4.156675438531309
174,1285.53,4.119478285444795
175,1294.44,4.029930119371782
176,1306.42,3.978703399780908
177,1315.47,3.990401816283627
178,1324.59,3.9415104240742136
179,1333.77,3.876699552968685
180,1346.1100000000001,3.8647149600011215
181,1355.44,3.818308141655307
182,1364.84,3.755004314597359
183,1374.3,3.7256446086432957
184,1383.8200000000002,3.6885985237931167
185,1393.4199999999998,3.6153611004147876
186,1406.3100000000002,3.569497167566174
187,1416.0600000000002,3.5409571969475566
188,1425.87,3.5043404474328264
189,1435.76,3.4636234593899418
190,1442.39,3.447323191369282
191,1445.43977,3.437342177014107
192,1445.71,3.436780380532455
193,1455.73,3.4013182176658
194,1465.82,3.3565352088509743
195,1475.98,3.3269772540879776
196,1486.21,3.3007861533768112
197,1496.52,3.273363014439165
198,1503.42,3.2428143424052402
199,1510.3600000000001,3.202397201258075
200,1517.3300000000002,3.1939808832759806
201,1524.34,3.169156096180646
202,1534.8999999999999,3.115947650285249
203,1545.54,3.097178366163371
204,1556.2599999999998,3.0581997438150137
205,1563.44,3.0420082879884074
206,1574.2800000000002,3.0216931583003284
207,1585.1899999999998,2.9981288826640804
208,1596.18,2.9709326688013507
209,1603.55,2.944823259686855
210,1614.66,2.913732838484405
211,1625.8500000000001,2.8730863790554757
212,1633.3600000000001,2.8617012780446385
213,1644.68,2.8317767189976792
214,1656.0800000000002,2.786800321724238
215,1659.58691,2.7833314641631937
216,1663.72,2.782660078346572
217,1671.4,2.7482922235981415
218,1675.26,2.760792395820936
219,1686.8700000000001,2.7437038368848325
220,1694.65,2.7172702301214495
221,1706.3999999999999,2.6870635183644116
222,1714.28,2.6630812595860744
223,1726.1599999999999,2.6385778202095973
224,1734.13,2.632254634617801
225,1746.1499999999999,2.60462364242039
226,1754.21,2.597964030015136
227,1766.37,2.5601027849967886
228,1774.52,2.5474425457780776
229,1786.8200000000002,2.525633947938794
230,1795.07,2.51900195670513
231,1803.35,2.5009341898669786
232,1815.85,2.463720787997789
233,1824.24,2.45019154394319
234,1836.8799999999999,2.4189421892530656
235,1845.3600000000001,2.389382418385007
236,1853.8799999999999,2.373599446710968
237,1866.73,2.3529374627894404
238,1875.3400000000001,2.3461090643019435
239,1884.0000000000002,2.3171154398069684
240,1897.0600000000002,2.2864351266540397
241,1905.46072,2.27709145795056
242,1905.82,2.2768773596155074
243,1914.61,2.2589216076279186
244,1923.4499999999998,2.24240594647089
245,1936.78,2.2248476218981303
246,1945.72,2.2207226424022215
247,1954.7,2.19880741557076
248,1968.25,2.1916536306524637
249,1977.34,2.180942923648234
250,1981.9,2.1677378273952863
251,1995.6399999999999,2.1441665676331176
252,2004.85,2.1338515186222313
253,2014.1000000000001,2.1166809222757923
254,2023.3999999999999,2.106553616759914
255,2032.74,2.088618263908483
256,2046.83,2.0740586399602323
257,2056.27,2.052997368769921
258,2065.77,2.039869926576281
259,2075.2999999999997,2.036514198880978
260,2080.09,2.0354288804486056
261,2084.88,2.0391416620162333
262,2094.5,2.0157512778159377
263,2104.17,2.001328484446202
264,2113.88,1.9927392437409128
265,2123.64,1.9759482938661845
266,2133.44,1.9520901966559034
267,2143.29,1.9488566902761828
268,2153.1800000000003,1.9374580365609089
269,2163.12,1.914255873676196
270,2173.11,1.8990493016220422
271,2183.14,1.8927908822323372
272,2187.7616199999998,1.8879663300991905
273,2193.21,1.884774435953675
274,2203.34,1.8705815120361702
275,2213.5099999999998,1.8457406634437692
276,2223.73,1.8389846090077473
277,2233.99,1.8491492298968297
278,2244.2999999999997,1.8320754449422911
279,2254.66,1.8049841541441323
280,2265.0699999999997,1.7930367575023527
281,2275.52,1.7886831361856768
282,2286.03,1.7966028278566561
283,2296.58,1.7702158948527398
284,2307.1800000000003,1.7707545560052025
285,2312.5,1.752617974243986
286,2323.17,1.71494196721538
287,2333.8900000000003,1.7129342543431536
288,2344.67,1.688227654458583
289,2355.4900000000002,1.7055702298991158
290,2366.36,1.6693286994960284
291,2377.2799999999997,1.6691262632493205
292,2382.7599999999998,1.6440007827885184
293,2393.76,1.643661797192017
294,2404.81,1.6299411057518962
295,2415.91,1.6251763084681548
296,2427.06,1.6428010053407922
297,2432.6600000000003,1.6347717508553006
298,2443.89,1.6401387983781461
299,2455.17,1.6327182400573708
300,2466.5,1.6085302758929747
301,2472.19,1.5920990908889667
302,2483.6,1.5590998773747782
303,2495.06,1.5519827580169692
304,2506.58,1.5730256516468155
305,2511.88643,1.5268894417822503
306,2512.36,1.522887700157635
307,2518.15,1.51412164446574
308,2523.95,1.509514049990267
309,2535.6,1.520984867121428
310,2547.31,1.514072951551119
311,2553.18,1.561289985590597
312,2564.96,1.5239818985352391
313,2576.8,1.5412855787784105
314,2582.7400000000002,1.5247827413328396
315,2594.66,1.5066249113073846
316,2606.64,1.4851377485804584
317,2612.65,1.4734417396498385
318,2624.71,1.4891244666542856
319,2636.82,1.5489942997408404
320,2642.9,1.6018832193251715
321,2655.1000000000004,1.685964203359521
322,2667.3599999999997,1.5568974546924002
323,2673.51,1.5795262027916825
324,2685.8500000000004,1.609341343855934
325,2692.04,1.5279883368209033
326,2704.46,1.5667593676165275
327,2716.9500000000003,1.490039126927103
328,2723.2099999999996,1.4466144484070236
329,2735.7799999999997,1.4766668974489718
330,2742.0899999999997,1.400018025011
331,2754.74,1.4254674637843212
332,2767.46,1.4582949310725934
333,2773.84,1.4660522871495725
334,2786.6400000000003,1.3835248441692174
335,2793.07,1.314568306328305
336,2805.96,1.3179171142957447
337,2812.4300000000003,1.415189321320518
338,2825.41,1.4783418802357522
339,2831.92,1.453924632126212
340,2844.9900000000002,1.3767889419892405
341,2858.12,1.3058756191507983
342,2864.7099999999996,1.4245676607726316
343,2877.94,1.5056808500984051
344,2884.0315,1.4770154147196308
345,2884.57,1.4745942647444947
346,2897.8900000000003,1.541118525486326
347,2911.2599999999998,1.6687936777474586
348,2931.44,1.5920984349374103
349,2951.7599999999998,1.5438735083814055
350,2972.22,1.5477603980794434
351,2992.8199999999997,1.544739504031525
352,3006.64,1.532702679966368
353,3027.48,1.5575130852110952
354,3048.46,1.5674676067098652
355,3069.5899999999997,1.6079038027665393
356,3090.87,1.5798359733811167
357,3112.3,1.6628298185535977
358,3126.66,1.6043942428968934
359,3148.34,1.59766294566588
360,3170.1600000000003,1.6489222646889097
361,3192.14,1.5498116165737037
362,3206.87,1.598989498159828
363,3229.1,1.4955792076411276
364,3251.48,1.6992617916803305
365,3266.4900000000002,1.8165550057745414
366,3289.13,1.7916977057141106
367,3311.31121,1.720509868138465
368,3311.9300000000003,1.7186149362750895
369,3319.57,1.6652772003320255
370,3327.2200000000003,1.6849492932686174
371,3334.89,1.7668812439645205
372,3342.58,1.684900952419735
373,3350.2799999999997,1.7367973897546052
374,3358.0,1.7765873848487863
375,3365.75,1.5186840665819348
376,3373.5,1.4861202483150833
377,3381.2799999999997,1.664582016687199
378,3389.07,1.72535271393897
379,3396.8900000000003,1.597471897829708
380,3404.72,1.8136466106001021
381,3412.5699999999997,1.6660928811298072
382,3420.43,1.6959218805391683
383,3428.32,1.704332466587496
384,3436.22,1.6886290815154799
385,3444.14,1.4182649542027748
386,3452.08,1.742369284649381
387,3460.04,1.6658380728552986
388,3468.02,1.6630973188205276
389,3476.0099999999998,1.6062451936654125
390,3484.02,1.6870750262696084
391,3492.0499999999997,1.6160363166331158
392,3500.11,1.5845583936355898
393,3508.17,1.7677971706380644
394,3516.2599999999998,1.5806420342795058
395,3524.37,1.6382968556802586
396,3532.49,1.7409060059606671
397,3540.63,1.7928130140003868
398,3548.7999999999997,1.8389340086790738
399,3556.98,1.6984934322374161
400,3565.18,1.7887782135550703
401,3573.4,1.465032052632035
402,3581.63,1.5481954205886561
403,3589.89,1.355346075184244
404,3598.1600000000003,1.7286913586594874
405,3606.46,1.6506609287736982
406,3614.77,1.6125997277675643
407,3623.11,1.478763013400398
408,3631.46,1.9708024279128868
409,3639.83,1.750273200184687
410,3648.22,1.695182430215799
411,3656.63,1.923187918006222
412,3665.06,2.0249024635559563
413,3673.5099999999998,1.8624908668650022
414,3681.9800000000005,1.7754414279333588
415,3690.4700000000003,1.6566469467610276
416,3698.97,1.8611877944683517
417,3707.5000000000005,1.6748504288146426
418,3716.05,1.9211563209202454
419,3724.6099999999997,1.4011494419055035
420,3733.2,1.7490285495297289
421,3741.8,1.5386114860336095
422,3750.4300000000003,1.3964647091764573
423,3759.0800000000004,1.9092067900786165
424,3767.74,1.6521908998604318
425,3776.4300000000003,1.8472478962812136
426,3785.13,1.992895021581651
427,3793.86,1.6826883335210558
428,3801.8939600000003,1.5168555269469597
429,3802.61,1.5021495657223811
430,3811.37,1.7550294649024767
431,3820.1600000000003,1.562204557915381
432,3828.96,1.383549015539221
433,3837.79,1.3049595669958698
434,3846.64,1.640017247674391
435,3855.5,1.6951934929638481
436,3864.39,1.4821203320861143
437,3873.3,1.6153343004302525
438,3882.23,1.566156597996263
439,3891.1800000000003,1.4638139247841457
440,3892.52,2.1232381826495943
441,3894.2900000000004,2.3016834187852986
442,3896.06,1.8841366549210028
443,3897.84,2.024923355667643
444,3899.61,2.1749115918033475
445,3901.3799999999997,1.8679708279390517
446,3903.16,2.463275528685692
447,3904.93,2.0870717648213963
448,3906.7000000000003,1.4553723009571007
449,3908.47,1.4116771370928047
450,3910.25,1.281433637839445
451,3912.02,2.0884991739751495
452,3913.79,1.9547834101108537
453,3915.5699999999997,1.4125640108574942
454,3917.34,1.6709154469931984
455,3919.11,1.2343180831289025
456,3920.88,1.2928009192646068
457,3922.66,1.0589245200112474
458,3924.43,0.9570668561469514
459,3926.2000000000003,1.5450123922826555
460,3927.98,1.044887693029296
461,3929.75,1.2825391291650003
462,3931.52,1.8190701653007044
463,3933.29,1.8087044014364086
464,3935.07,1.608495302183049
465,3936.8399999999997,1.3834218383187533
466,3938.61,1.8720825744544576
467,3940.39,1.895828275201098
468,3942.1600000000003,1.693162111336802
469,3943.93,2.0018957474725063
470,3945.7,1.8410469836082108
471,3947.48,1.7001311843548512
472,3949.2500000000005,2.2245009204905553
473,3951.02,2.0670691566262596
474,3952.8,2.1638608573729
475,3954.57,2.096385093508604
476,3956.3399999999997,1.8076783296443084
477,3958.11,1.8984565657800128
478,3959.89,1.541591566526653
479,3961.6600000000003,1.4037362026623572
480,3963.43,1.5356016387980616
481,3965.2,1.4759135749337657
482,3966.98,1.5886145756804062
483,3968.75,1.2321529118161103
484,3970.52,1.2026584479518145
485,3972.3,1.420895448698455
486,3974.07,1.978769084834159
487,3975.84,2.5734403209698637
488,3977.6099999999997,2.3147035571055676
489,3979.39,2.315061257852208
490,3981.1600000000003,1.7330434939879122
491,3982.9300000000003,1.6396380301236166
492,3984.71,2.792375430870257
493,3986.48,2.487219667005961
494,3988.25,2.4335049031416656
495,3990.0200000000004,2.6931481392773695
496,3991.7999999999997,2.3780378400240103
497,3993.57,2.417618076159714
498,3995.34,2.2219553122954183
499,3997.12,2.4751090130420588
500,3998.89,2.553257249177763
501,4000.66,2.3247134853134677
502,4002.4300000000003,2.571799721449172
503,4004.2100000000005,2.360554422195812
504,4005.98,2.458308658331516
505,4007.75,2.4250578944672205
506,4009.53,2.1063725952138608
507,4011.2999999999997,2.127767831349565
508,4013.07,2.2729670674852693
509,4014.84,2.768889303620974
510,4016.6200000000003,2.523324004367614
511,4018.39,1.9778932405033185
512,4020.16,2.2385154766390225
513,4021.94,2.478645177385663
514,4023.7099999999996,2.620708413521367
515,4025.48,2.6152796496570714
516,4027.25,2.7283738857927755
517,4029.03,2.610479586539416
518,4030.7999999999997,2.16344182267512
519,4032.5699999999997,2.4191270588108247
520,4034.35,2.304762759557465
521,4036.1200000000003,2.017876995693169
522,4037.89,2.5655502318288734
523,4039.66,2.8497844679645774
524,4041.44,2.360835168711218
525,4043.21,2.052487404846922
526,4044.98,2.3473636409826266
527,4046.7599999999998,2.501683341729267
528,4048.53,2.010077577864971
529,4050.3,2.3958968140006753
530,4052.0699999999997,2.5953780501363797
531,4053.85,2.27164175088302
532,4055.62,2.0873219870187243
533,4057.3900000000003,2.2081552231544284
534,4059.1699999999996,2.612160923901069
535,4060.94,2.344294160036773
536,4062.71,2.028447396172477
537,4064.4799999999996,2.3360886323081815
538,4066.2599999999998,2.502536333054822
539,4068.03,2.479377569190526
540,4069.8,2.45607080532623
541,4071.5800000000004,2.308488506072871
542,4073.35,2.244101742208575
543,4075.12,2.2965579783442793
544,4076.8900000000003,2.2317782144799834
545,4078.6699999999996,2.181328915226624
546,4080.44,2.339405151362328
547,4082.21,2.3121293874980324
548,4083.9900000000002,2.212665088244673
549,4085.7599999999998,2.3653073243803773
550,4087.5299999999997,2.865878560516081
551,4089.3,2.6128277966517857
552,4091.0800000000004,2.5101614973984256
553,4092.85,2.53957473353413
554,4094.62,2.4836379696698345
555,4096.4,2.412154670416475
556,4098.17,2.243912906552179
557,4099.9400000000005,2.2470741426878833
558,4101.71,2.441036378823587
559,4103.49,2.317121079570228
560,4105.26,2.549279315705932
561,4107.03,2.3963575518416365
562,4108.81,2.2136802525882766
563,4110.58,2.5281264887239807
564,4112.35,2.229645724859685
565,4114.12,2.412545960995389
566,4115.900000000001,2.2661596617420297
567,4117.67,2.264622897877734
568,4119.44,2.6008411340134385
569,4121.22,2.1997178347600785
570,4122.990000000001,2.2347050708957825
571,4124.76,2.252858307031487
572,4126.53,1.8862255431671915
573,4128.31,2.1327212439138314
574,4130.08,2.439025480049536
575,4131.85,2.3906787161852403
576,4133.62,2.1866699523209445
577,4135.400000000001,2.0549126530675847
578,4137.17,2.065467889203289
579,4138.94,2.1745921253389935
580,4140.72,2.6825188260856336
581,4142.49,2.539616062221338
582,4144.26,2.020177298357042
583,4146.04,1.9581889991036825
584,4147.81,2.050305235239387
585,4149.58,2.140971471375091
586,4151.349999999999,2.1109507075107956
587,4153.13,2.152558408257436
588,4154.900000000001,2.31968864439314
589,4156.67,2.395931880528844
590,4158.44,2.3433001166645484
591,4160.22,2.3006928174111887
592,4161.99,2.437435053546893
593,4163.76,2.5169752896825974
594,4165.54,2.372164990429238
595,4167.31,2.1108512265649417
596,4169.08,1.914592462700646
597,4170.849999999999,2.1786316988363508
