,lambda (Angstroms),Total Flux (erg/s/cm^2/Angstrom)
0,101.98,0.0013461991518302365
1,104.11999999999999,0.0016052224999667931
2,104.712855,0.0016769878804531013
3,106.05,0.0015420161986176323
4,108.02000000000001,0.0013431878146943931
5,110.03,0.0011404215688148468
6,113.9,0.0007499473643169125
7,117.9,0.0003464163545859731
8,120.22644299999999,0.00011405560505563616
9,120.92999999999999,0.00011153941329406692
10,124.89,9.451692743008367e-05
11,126.92,8.575433577506196e-05
12,128.09,8.078905515615781e-05
13,131.07,6.805821326356443e-05
14,131.98,6.53999020044168e-05
15,134.13,5.632517941412285e-05
16,136.94,4.660194867983171e-05
17,138.038426,4.2179797158006784e-05
18,140.13,4.318650104216917e-05
19,143.06,7.049828587738723e-05
20,147.07,0.00013424839775084269
21,150.84,0.00014832020250468982
22,155.07,0.00016524100173778624
23,158.489319,0.00018203683649915592
24,159.04000000000002,0.00018469305514547677
25,162.0,0.0001994750861027702
26,166.16,0.00022365537285356092
27,170.03,0.0002462905852875898
28,173.19,0.00026554280887713277
29,176.80999999999997,0.0002920886055208497
30,180.10000000000002,0.00031281386932135487
31,181.970086,0.0003260173099904426
32,182.19,0.0003276436759967311
33,185.99999999999997,0.0003594434267025613
34,191.20999999999998,0.0004015405007648644
35,193.87,0.0004310498251421632
36,197.93,0.00046700117287593496
37,202.08,0.0005082857635397657
38,204.89000000000001,0.0005398763261338294
39,208.929613,0.0005619850415864617
40,210.14000000000001,0.0005691104187000648
41,216.03,0.00066353892591682
42,220.05,0.0007160436077523643
43,223.11,0.0007451277401943456
44,227.26,0.0008056412328852681
45,229.89,0.001230454214036383
46,234.16,0.0021133218629015007
47,239.88329199999998,0.0026872916415925686
48,240.17,0.002715785552643148
49,245.76000000000002,0.0026645820115766936
50,252.07,0.002915912604755705
51,256.76,0.0025185183958824184
52,259.73,0.0029530181996449637
53,263.95,0.0031604618198058875
54,268.86,0.0032239598186187155
55,273.85,0.0032891991656810397
56,275.42287,0.003304885753137029
57,278.95,0.0033430391634683993
58,284.13,0.0034148453673768994
59,290.08,0.003340274101596123
60,296.15,0.003467491126253381
61,300.96999999999997,0.003461516458847777
62,307.98,0.0035850060919363075
63,316.227766,0.00373230903007437
64,318.07,0.0037638200862907733
65,327.72999999999996,0.0038476368308844643
66,337.69,0.003888517822204668
67,347.95,0.003912091060251383
68,356.88,0.003954252804477228
69,363.078055,0.004001688941144115
70,366.03,0.004025958868672982
71,375.42,0.0040374849650096425
72,385.04999999999995,0.003921767846556186
73,394.93,0.004070284004363023
74,405.06,0.004119479438430155
75,413.54,0.004102802849179344
76,416.86938299999997,0.004085757350002836
77,422.2,0.004057934930077855
78,430.05,0.004031475192244732
79,441.08000000000004,0.0040515407376843044
80,451.36,0.003998034188012392
81,459.75,0.003954027158659538
82,470.46,0.003919641876851544
83,478.630092,0.003913509067765357
84,480.30999999999995,0.003911667777475175
85,490.36,0.0038218303329945746
86,499.48,0.0038374411356151637
87,506.43,0.0037667901814718626
88,512.29,0.003905413828769741
89,519.4200000000001,0.0038597126009939516
90,530.3,0.0037706245058746544
91,540.16,0.0036335762946727913
92,549.5408739999999,0.003570455827417816
93,550.2,0.0035661079348148846
94,560.4300000000001,0.0036227824445141245
95,569.53,0.0036389470279220514
96,580.12,0.0035478875760857806
97,589.55,0.0035311501114194893
98,600.51,0.0033960220602272774
99,610.27,0.003022381547486768
100,620.18,0.0033947984674397953
101,630.26,0.0033024075444454985
102,630.957344,0.003302876676620445
103,640.5,0.0033107254904912553
104,649.41,0.0032441695223455855
105,658.4399999999999,0.0031573288711272468
106,664.54,0.0031940733149332418
107,675.3299999999999,0.003173257978649092
108,684.73,0.0030257401379566906
109,694.25,0.0030822716141916204
110,705.5400000000001,0.0029191862651046833
111,715.35,0.0030076946739139966
112,724.43596,0.0029712252241463873
113,725.3,0.002967725099853554
114,735.39,0.0029413606698857424
115,745.62,0.0028822460882632736
116,754.2600000000001,0.002837138729004414
117,764.75,0.002591233865737581
118,775.39,0.0027618563399836155
119,784.3700000000001,0.002669806612420588
120,795.28,0.002676387294189783
121,804.4900000000001,0.002664789817479818
122,815.6800000000001,0.0026292311959396977
123,825.12,0.002611888970082796
124,831.763771,0.002466288674437044
125,834.68,0.002401924972795828
126,844.3399999999999,0.0025293858226852354
127,854.12,0.0024884378756788584
128,864.0100000000001,0.0024761281981846802
129,874.02,0.002458229723794718
130,884.1400000000001,0.0024349735189169537
131,894.37,0.002411964583551388
132,904.73,0.0023673757848820566
133,915.21,0.0027307621893169418
134,925.8,0.005868233863264024
135,934.3700000000001,0.009852648951623468
136,945.19,0.015596595098186965
137,953.94,0.020315281991202732
138,954.992586,0.020536329120971936
139,964.98,0.02263462139959115
140,973.9100000000001,0.006714181879847667
141,985.1899999999999,0.019625970749645377
142,994.3000000000001,0.020175677195909302
143,1005.82,0.02752067302038356
144,1015.12,0.026648366264099752
145,1024.52,0.012885987822264511
146,1034.0,0.019989298031988116
147,1045.97,0.034400736271480895
148,1055.65,0.03369498311010162
149,1065.42,0.027393228431726056
150,1075.27,0.03181266240490934
151,1085.22,0.02550812469254118
152,1095.26,0.03315703546317673
153,1096.4782,0.0329954436461599
154,1105.4,0.03181166426283007
155,1115.6299999999999,0.030660434582161264
156,1125.95,0.027708820153568688
157,1133.75,0.034240918666841744
158,1144.24,0.0313731552699487
159,1154.83,0.03300131659758481
160,1165.52,0.033768462649750065
161,1176.3,0.023967463953991536
162,1184.46,0.032622043475569504
163,1195.4199999999998,0.02352907528396343
164,1203.7,0.01777064847497636
165,1214.84,0.01199287078752275
166,1226.08,0.022939837824598276
167,1234.58,0.032996959409575324
168,1246.0,0.0359294569508033
169,1254.6399999999999,0.034471211150121146
170,1258.92541,0.03285522678567647
171,1266.2499999999998,0.03009361255941524
172,1275.03,0.0377945355055571
173,1283.86,0.03939404863931936
174,1295.74,0.03173050321792589
175,1304.73,0.03136687695207343
176,1313.77,0.03840909087384136
177,1325.9299999999998,0.03676518650312211
178,1335.12,0.03284425098775124
179,1344.3700000000001,0.03840893569752484
180,1353.6899999999998,0.03727678066996701
181,1366.22,0.03353203768763871
182,1375.69,0.03494969322294206
183,1385.22,0.03519219898338989
184,1394.82,0.03044293500650628
185,1404.49,0.03136768129229123
186,1414.23,0.032618987840744726
187,1424.03,0.033224974614342706
188,1433.8999999999999,0.03307290165060924
189,1440.5200000000002,0.03471000649154991
190,1445.43977,0.03506685254146633
191,1447.17,0.03519235040164681
192,1453.85,0.034155071439354805
193,1463.93,0.031657753184878235
194,1474.0700000000002,0.03151258511936312
195,1484.29,0.032024457305796596
196,1494.5800000000002,0.0324697097126851
197,1504.9399999999998,0.03072432234002863
198,1511.8899999999999,0.02757520422806314
199,1515.3700000000001,0.029342485187827182
200,1525.87,0.02847790825608076
201,1536.45,0.024862791576282933
202,1543.54,0.02682417390522749
203,1554.24,0.025441067603352564
204,1565.02,0.026033061553426235
205,1575.8600000000001,0.027639385692461355
206,1586.79,0.028807850114938652
207,1594.11,0.02941069316823543
208,1605.1599999999999,0.02874198796863562
209,1616.29,0.02874173302098441
210,1623.75,0.027259716515191237
211,1635.0,0.028874371945462926
212,1646.34,0.02920850765917679
213,1653.94,0.02713518159429366
214,1659.58691,0.02825648057560471
215,1665.3999999999999,0.029410893074665784
216,1673.0900000000001,0.026335019938268162
217,1676.95,0.029682538715056873
218,1684.69,0.030725246728617654
219,1696.3600000000001,0.028875305128908905
220,1704.1899999999998,0.02783143521239481
221,1716.01,0.026518997062561275
222,1723.9299999999998,0.026336389215972308
223,1735.8799999999999,0.028025224056030616
224,1743.8899999999999,0.02732444827936677
225,1755.98,0.029076846339308612
226,1764.0800000000002,0.026704022632569893
227,1776.3100000000002,0.027325163912395263
228,1784.51,0.027833132505573347
229,1796.8799999999999,0.029685657005282244
230,1805.17,0.029346267668385457
231,1813.5100000000002,0.02720040948144707
232,1826.08,0.02770657858098958
233,1834.51,0.02670533246397632
234,1842.9699999999998,0.024413747036938105
235,1855.75,0.024753580966305904
236,1864.3100000000002,0.025622907839184497
237,1872.9199999999998,0.027453655862021486
238,1885.9,0.0254465243912229
239,1894.61,0.024754404713976698
240,1903.3500000000001,0.02597989572670554
241,1905.46072,0.025857469703503486
242,1916.54,0.025214265813141415
243,1925.3899999999999,0.024471153444417283
244,1934.28,0.024583229889845806
245,1943.21,0.026522075149426994
246,1956.68,0.025039595815335006
247,1965.71,0.02751600811029784
248,1974.78,0.02783384921941333
249,1983.9,0.02695109884621965
250,1993.0500000000002,0.026337977583640457
251,2006.8700000000001,0.02682679787338424
252,2016.1299999999999,0.026216273349724865
253,2025.44,0.026580837343756315
254,2034.79,0.02621562015194042
255,2044.1799999999998,0.027513731774277187
256,2053.6099999999997,0.026095032210766613
257,2063.09,0.02615478116494686
258,2072.62,0.02821834863681794
259,2077.39,0.03195168722452256
260,2086.98,0.03527536291762262
261,2096.62,0.03307345712841351
262,2106.29,0.03277033044981889
263,2116.02,0.03439202199245325
264,2125.7799999999997,0.03314837264570212
265,2135.6,0.031079701520179977
266,2145.4500000000003,0.03478943950527232
267,2155.36,0.03543519571159367
268,2165.3,0.032768531028529495
269,2175.3,0.03284300456669432
270,2185.34,0.03609378691901179
271,2187.7616199999998,0.036234341888648
272,2195.43,0.03667983638226764
273,2205.56,0.035680185821839475
274,2215.74,0.031007596443245324
275,2225.97,0.03269279824648519
276,2236.24,0.03885273099519227
277,2246.56,0.03701998492573337
278,2256.93,0.03180363003810848
279,2267.35,0.03108032633231761
280,2272.58,0.032996099952155786
281,2283.07,0.03894353790093254
282,2293.61,0.03423314703154331
283,2304.19,0.03821713710762129
284,2314.83,0.0340501286019001
285,2325.51,0.027290881041646117
286,2336.25,0.027850934899592956
287,2347.0299999999997,0.023536179703007008
288,2352.44,0.032251877577447643
289,2363.3,0.02440469427179612
290,2374.21,0.027622812147978616
291,2385.17,0.02183630120599513
292,2396.18,0.02454563144584566
293,2407.24,0.02397814286753021
294,2412.79,0.02604308405110609
295,2423.92,0.03519170712735826
296,2435.11,0.03493599162181125
297,2446.35,0.03981657729809826
298,2457.6400000000003,0.04129387415621929
299,2463.31,0.037052638176196806
300,2474.68,0.03393704692525226
301,2486.1,0.02652050685614173
302,2497.58,0.028468678205232016
303,2503.34,0.03865430435251077
304,2511.88643,0.02772764032377103
305,2514.8900000000003,0.023887458885033495
306,2520.69,0.02213699582653141
307,2526.5,0.022491372676549146
308,2532.32,0.028828519435086707
309,2544.0099999999998,0.02969143249476095
310,2555.75,0.04532400509703431
311,2567.55,0.03632449715042663
312,2573.47,0.04396007299416242
313,2585.3500000000004,0.04007681431571332
314,2597.28,0.037044375179863344
315,2603.2699999999995,0.033239560383237915
316,2615.2799999999997,0.031080820515546524
317,2627.36,0.038657710007493906
318,2633.41,0.05943655466198742
319,2645.5699999999997,0.07723666342209339
320,2657.78,0.10366169172479847
321,2663.91,0.06816292564745059
322,2676.2000000000003,0.07697313321831427
323,2682.37,0.08754229677504567
324,2694.75,0.06623218352258776
325,2707.19,0.08013862972124881
326,2713.43,0.060225542637618985
327,2725.96,0.04984387801295844
328,2732.2400000000002,0.06130243056340791
329,2744.85,0.03787659520690596
330,2757.52,0.04820819930152295
331,2763.88,0.06081020112013101
332,2776.6400000000003,0.06467911439142641
333,2783.04,0.042435735844113774
334,2795.88,0.023696778383567776
335,2802.33,0.027198379378854252
336,2815.2599999999998,0.058233041094986664
337,2821.75,0.08185047172435245
338,2834.78,0.07777102252568309
339,2847.8599999999997,0.05883620286961287
340,2854.43,0.03798520276713724
341,2867.6000000000004,0.07912183228774543
342,2874.21,0.10403421181934908
343,2884.0315,0.09689874671248606
344,2887.48,0.094393391326479
345,2894.14,0.11397862007961884
346,2907.49,0.151914317580282
347,2927.65,0.1331378138060026
348,2947.94,0.12387201000738503
349,2968.38,0.13021180618068504
350,2988.9500000000003,0.13222350232964697
351,3009.67,0.1333467984505264
352,3030.53,0.14211709454519564
353,3051.54,0.1480116906117824
354,3072.69,0.1606833866521589
355,3086.87,0.15767028399743255
356,3108.27,0.181714279991005
357,3129.8199999999997,0.169060375956495
358,3151.51,0.16893037189577473
359,3173.36,0.18550226780509985
360,3188.01,0.1611096650623819
361,3210.1000000000004,0.17854466092677512
362,3232.35,0.15079945676121373
363,3247.27,0.21044445396794742
364,3269.7799999999997,0.2453473497537098
365,3292.4500000000003,0.2406625455095176
366,3307.64,0.2260319426657029
367,3311.31121,0.22319907574198153
368,3322.91,0.21424890046802428
369,3330.5699999999997,0.23485387305400762
370,3338.25,0.20215364556841386
371,3345.95,0.23417411801124308
372,3353.66,0.21058319041828374
373,3361.3900000000003,0.21052136275374733
374,3369.14,0.21338693501763384
375,3376.9100000000003,0.2051391072099433
376,3384.69,0.1954033793664642
377,3392.4900000000002,0.2364819514514081
378,3400.3100000000004,0.2562507234647749
379,3408.1499999999996,0.2298976954065646
380,3416.0099999999998,0.20912826727677727
381,3423.88,0.26562973911120136
382,3431.7799999999997,0.2541856108382599
383,3439.69,0.2488998825295299
384,3447.6200000000003,0.18067645414922284
385,3455.56,0.23002052573312723
386,3463.53,0.193034397209666
387,3471.5099999999998,0.24016536865041624
388,3479.52,0.1850916399838009
389,3487.54,0.21639911128139705
390,3495.58,0.2042335825074161
391,3503.64,0.2624054536618581
392,3511.71,0.2516782247805115
393,3519.81,0.24758419579179938
394,3527.92,0.1877568667672987
395,3536.05,0.24459763767122095
396,3544.21,0.27059150846777763
397,3552.38,0.27680967922854577
398,3560.57,0.2582520499177368
399,3568.77,0.2022651205711393
400,3577.0,0.2136908911171762
401,3585.25,0.16355506159163608
402,3593.5099999999998,0.21954343203030738
403,3601.8,0.2893151023616131
404,3610.1,0.22764147265713028
405,3618.42,0.2679796428810704
406,3626.4,0.37494711432182065
407,3629.1400000000003,0.25422060451576245
408,3631.88,0.17879589470970428
409,3634.62,0.2558143849036461
410,3637.36,0.3294801750975879
411,3640.1099999999997,0.3412175652557412
412,3642.8500000000004,0.371079155449683
413,3645.59,0.30948394564362486
414,3648.3300000000004,0.17788083583756664
415,3651.07,0.20189022603150847
416,3653.81,0.41982121622545027
417,3656.55,0.3595845064193921
418,3659.29,0.521990096613334
419,3662.03,0.4732485868072757
420,3664.77,0.4006368770012176
421,3667.5099999999998,0.2623017671951594
422,3670.25,0.3133688573891012
423,3672.99,0.352365847583043
424,3675.73,0.34879543777698485
425,3678.47,0.45799212797092664
426,3681.2200000000003,0.3876598181290799
427,3683.96,0.35134550832302175
428,3686.7,0.3176348985169635
429,3689.44,0.17334348871090538
430,3692.18,0.12330437890484719
431,3694.92,0.297562069098789
432,3697.66,0.2192027592927308
433,3700.3999999999996,0.20155934948667262
434,3703.14,0.32223363968061447
435,3705.8799999999997,0.33592352987455626
436,3708.6200000000003,0.2267533200684981
437,3711.36,0.1622927102624399
438,3714.1000000000004,0.27370120045638174
439,3716.84,0.3157984906503235
440,3719.58,0.32776408084426534
441,3722.32,0.3561715710382072
442,3725.0699999999997,0.3637809611963605
443,3727.81,0.4339020513903023
444,3730.55,0.4411389415842441
445,3733.2900000000004,0.22112703177818593
446,3736.03,0.10402352197212773
447,3738.77,0.19778831216606954
448,3741.51,0.18003170236001137
449,3744.25,0.2722550925539532
450,3746.9900000000002,0.24933428274789501
451,3749.73,0.1434123729418368
452,3752.47,0.20194256313577863
453,3755.21,0.13488685332972045
454,3757.95,0.22970554352366226
455,3760.69,0.24244623371760407
456,3763.43,0.1180881239115459
457,3766.1699999999996,0.13752561410548772
458,3768.92,0.183810704263641
459,3771.66,0.3729423944575828
460,3774.4,0.3058781846515246
461,3777.14,0.20995387484546646
462,3779.88,0.29923376503940824
463,3782.62,0.2941305552333501
464,3785.3599999999997,0.34673894542729194
465,3788.1,0.34462283562123375
466,3790.8399999999997,0.42448032581517553
467,3793.58,0.33621931600911736
468,3796.32,0.2538366062030592
469,3799.0600000000004,0.401873296397001
470,3801.8,0.3574858865909428
471,3801.8939600000003,0.3503506427261945
472,3804.54,0.14941257875802796
473,3807.28,0.19264187099517877
474,3810.02,0.3219204632323296
475,3812.77,0.38817335544114884
476,3815.5099999999998,0.30513764767829965
477,3818.2500000000005,0.34632913991545045
478,3820.9900000000002,0.41645893215260127
479,3823.73,0.42859882438975205
480,3826.4700000000003,0.3567100166269029
481,3829.21,0.16693380886405368
482,3831.9500000000003,0.2246279011012045
483,3834.69,0.22565559333835533
484,3837.43,0.07828182557550613
485,3840.17,0.14310737781265695
486,3842.91,0.26262357004980774
487,3845.65,0.3494043622869586
488,3848.39,0.18156445452410938
489,3851.1299999999997,0.22668354676126018
490,3853.88,0.3177212389700794
491,3856.62,0.34112113120723025
492,3859.36,0.23109782344438107
493,3862.1,0.16142101568153186
494,3864.84,0.3178958079186827
495,3867.58,0.4506749001558335
496,3870.3199999999997,0.25709299239298433
497,3873.06,0.1910301846301351
498,3875.7999999999997,0.16112507686728592
499,3878.54,0.24040766910443676
500,3881.2799999999997,0.20606996134158756
501,3884.0200000000004,0.3080906535787384
502,3886.76,0.29026434581588917
503,3889.5,0.29987873805304
504,3892.2400000000002,0.2221375302901908
505,3894.98,0.2832629225273416
506,3897.73,0.14865401473616086
507,3900.47,0.2953665069733117
508,3903.2099999999996,0.3643728992104625
509,3905.9500000000003,0.3728202914476133
510,3908.69,0.2957934836847641
511,3911.4300000000003,0.2396583759219149
512,3914.17,0.3500391681590657
513,3916.9100000000003,0.3700514603962165
514,3919.65,0.3916748526333674
515,3922.39,0.3082645448705182
516,3925.13,0.31917643710766896
517,3927.87,0.3570326293448198
518,3930.61,0.3366808215819706
519,3933.35,0.4123669138191214
520,3936.0899999999997,0.34559860605627224
521,3938.83,0.36521029829342305
522,3941.58,0.14292369050224227
523,3944.32,0.2460151827393931
524,3947.06,0.2500560749765439
525,3949.8,0.1934855672136947
526,3952.54,0.3680480594508455
527,3955.2799999999997,0.21219155168799633
528,3958.02,0.26982474392514716
529,3960.7599999999998,0.317652136162298
530,3963.5,0.3647305283994488
531,3966.24,0.3675696206365996
532,3968.9799999999996,0.4149790128737504
533,3971.7200000000003,0.3346341051109012
534,3974.46,0.15020459734805203
535,3977.2000000000003,0.14793168958520286
536,3979.94,0.13419828182235366
537,3982.69,0.1544275740311729
538,3985.43,0.3078281662683237
539,3988.1699999999996,0.3055727585054745
540,3990.91,0.38875665074262533
541,3993.65,0.4260815429797762
542,3996.3900000000003,0.39073363521692694
543,3999.13,0.5081336274540778
544,4001.8700000000003,0.5743185196912286
545,4004.61,0.3974396119283794
546,4007.35,0.43577470416553016
547,4010.09,0.34500569640268103
548,4012.83,0.43222188863983185
549,4015.57,0.5655062808769826
550,4018.31,0.5373952731141334
551,4021.0499999999997,0.47371856535128426
552,4023.79,0.6531758575884351
553,4026.54,0.5146725497972543
554,4029.28,0.4483138420344051
555,4032.02,0.5294687342715559
556,4034.76,0.5842628265087068
557,4037.5,0.4771743187458576
558,4040.24,0.6087517109830084
559,4042.98,0.5196113032201592
560,4045.72,0.51966369545731
561,4048.46,0.48725068769446084
562,4051.2,0.5653315799316115
563,4053.9399999999996,0.43397207216876243
564,4056.68,0.47361356440591323
565,4059.42,0.522764656643064
566,4062.1600000000003,0.49811964888021487
567,4064.9,0.4936349411173657
568,4067.6400000000003,0.5133599333545165
569,4070.39,0.5439332255633357
570,4073.1299999999997,0.5623258178004865
