,lambda (Angstroms),Total Flux (erg/s/cm^2/Angstrom)
0,100.08,3.326966561198712
1,101.94,3.317711104206123
2,104.07,3.3071121130957444
3,104.712855,3.303913233140941
4,106.00999999999999,3.270007841021991
5,107.98,3.2185150455323126
6,109.98,3.1662380965393817
7,114.11,3.0582861965116153
8,118.11999999999999,2.9534709145431988
9,120.22644299999999,2.898411730053094
10,120.87,2.884308592756968
11,125.12,2.7911725489815717
12,126.86,2.753041559107235
13,128.04,2.7271826120064
14,131.02,2.661877813799236
15,131.93,2.6419357587319734
16,134.07,2.595039027196413
17,136.88,2.5334597017279155
18,138.038426,2.508073540731584
19,140.07,2.4762509225133837
20,143.0,2.4303556982041172
21,147.0,2.367700590521495
22,151.12,2.3031650845004425
23,155.0,2.2423890188588493
24,158.489319,2.1877326057102753
25,158.98,2.1819218713252506
26,161.92999999999998,2.146987463433641
27,166.08,2.097842531809494
28,169.95,2.0520134462304407
29,173.11,2.0145923168592614
30,177.15,1.9667501700212229
31,180.02,1.932763373730782
32,181.970086,1.909670288957746
33,182.11,1.9084062595999933
34,185.92000000000002,1.8739855637543392
35,191.13000000000002,1.8269168737476524
36,193.79,1.8028858826144905
37,197.85,1.7662067968882948
38,201.99,1.7288051135137261
39,204.8,1.7034190999702383
40,208.929613,1.666110888462696
41,210.04999999999998,1.6585011434249246
42,215.94,1.618497530681414
43,219.95000000000002,1.5912622696324366
44,223.01000000000002,1.5704790265611221
45,227.16,1.542293113876595
46,229.79,1.524442534342328
47,234.06,1.495466752223043
48,239.88329199999998,1.4559322777098203
49,240.07,1.4549556208549677
50,246.22000000000003,1.4227662217997252
51,251.96,1.392732523059499
52,257.23,1.3651378274423398
53,260.21,1.3495550145224662
54,263.83,1.3306157434967134
55,268.74,1.3049205982978613
56,273.73,1.278806142268274
57,275.42287,1.269946860316818
58,278.82,1.2563036280119386
59,284.01,1.2354601432532122
60,289.95,1.2115984763299306
61,296.03000000000003,1.187182732355931
62,300.84,1.16786397682058
63,307.84,1.1397525985847257
64,316.227766,1.1060682355808036
65,317.93,1.1009629078266652
66,328.34000000000003,1.0697380405512187
67,338.32,1.0398017829708193
68,347.8,1.0113647628032656
69,356.72,0.9846077090780992
70,363.078055,0.9655362800880871
71,365.87,0.9592650924853169
72,375.26,0.9381709112481658
73,384.88,0.9165546463361962
74,394.76,0.8943655571266057
75,404.88000000000005,0.8716324191345961
76,414.31,0.8504468602670416
77,416.86938299999997,0.8446966173807019
78,422.02000000000004,0.835859714734022
79,429.86,0.8224086342040334
80,440.89000000000004,0.8034868789224295
81,451.16,0.7858657219095491
82,459.55,0.7714704283982476
83,470.25,0.7531119600254316
84,478.630092,0.7387352894879313
85,480.09999999999997,0.7367959493051827
86,490.15000000000003,0.7235316587024186
87,500.41,0.7099959604792984
88,506.21,0.7023428870742208
89,512.07,0.6946388130204697
90,520.39,0.6836621087711169
91,530.0699999999999,0.6708888530185046
92,539.92,0.6578858387779847
93,549.5408739999999,0.645206547919067
94,549.96,0.644785354979497
95,560.18,0.6345165519195067
96,570.6,0.6240434458616692
97,579.87,0.6147083334164529
98,590.65,0.6038820388024905
99,600.25,0.5942191367058263
100,610.0,0.5844091785857768
101,619.91,0.5744890765074496
102,629.98,0.5643684138708447
103,630.957344,0.5633860970959178
104,640.2199999999999,0.556008967482169
105,650.62,0.5477422864145814
106,658.16,0.5417401688880807
107,664.25,0.5369132684974454
108,675.04,0.5283239857560735
109,684.4300000000001,0.5208228100872613
110,695.5500000000001,0.5120584809680716
111,705.23,0.5043044228520864
112,716.6899999999999,0.4952839284224181
113,724.43596,0.48913471613926596
114,726.66,0.48782654980987117
115,735.07,0.482884954137672
116,745.3,0.47689958582868325
117,755.67,0.47081818482455673
118,764.42,0.46565472227845184
119,775.0500000000001,0.4594867094119267
120,785.83,0.4531527752863256
121,794.93,0.44785616810237655
122,804.14,0.4424835033151051
123,815.3199999999999,0.4359363076319678
124,824.76,0.43047661667411286
125,831.763771,0.42616361487580756
126,834.3100000000001,0.4249765216430168
127,845.92,0.4201964072972882
128,855.7199999999999,0.4159280281880599
129,865.63,0.4116955319429116
130,875.6500000000001,0.40739976856184346
131,885.7900000000001,0.40307653903249907
132,893.98,0.399586607912644
133,904.34,0.3950539091114598
134,914.8100000000001,0.3911981451743557
135,925.4,0.4004338190889754
136,933.96,0.4161156405119351
137,944.7800000000001,0.4431753611423586
138,954.992586,0.46479829443059734
139,955.72,0.46634539324355945
140,964.56,0.47554198375563334
141,975.7299999999999,0.3807459935316363
142,984.76,0.4509203591339018
143,993.87,0.45275144582677435
144,1005.38,0.4933568752378571
145,1014.6800000000001,0.48505327702092127
146,1024.07,0.4032853975309184
147,1035.93,0.4361451042134067
148,1045.51,0.5221121998135954
149,1055.19,0.5148631717770429
150,1064.95,0.4723023848310973
151,1074.81,0.49707497424841063
152,1084.75,0.45698550475633076
153,1094.79,0.49944481162750975
154,1096.4782,0.4975688623888851
155,1104.92,0.4888511063949582
156,1115.14,0.47901614026898776
157,1125.46,0.4575978028501997
158,1135.87,0.49784924126787555
159,1143.75,0.4776271033938397
160,1154.33,0.48577064061372555
161,1165.01,0.48844970654079356
162,1175.79,0.42180710117504394
163,1183.94,0.47709419081040016
164,1194.9,0.4140586371175787
165,1205.95,0.37295925926122125
166,1214.31,0.3379649891816604
167,1225.55,0.4025441858689492
168,1234.04,0.4682294731087253
169,1245.46,0.48530705146894226
170,1254.09,0.4729429788987735
171,1258.92541,0.459407072374326
172,1265.6999999999998,0.44113271305373986
173,1274.47,0.49356695243341886
174,1286.26,0.5027829276086087
175,1295.1799999999998,0.4483269366470052
176,1304.16,0.4446353735488886
177,1316.2199999999998,0.4922476741097699
178,1325.35,0.47956218067037065
179,1334.53,0.4511033437838773
180,1343.79,0.48941977738203324
181,1356.22,0.4786230164344175
182,1365.62,0.4509277483807097
183,1375.09,0.4597604795010701
184,1384.6200000000001,0.4606609384849173
185,1394.2199999999998,0.4242320966428328
186,1403.88,0.4290740826642352
187,1413.61,0.4377541678597057
188,1423.4099999999999,0.44053285222924443
189,1436.5800000000002,0.4377297682646346
190,1443.21,0.448075847179945
191,1445.43977,0.4501606797351364
192,1446.54,0.4512734109453686
193,1456.5700000000002,0.44331326070956095
194,1466.6599999999999,0.4238939201433298
195,1473.43,0.42321447786053645
196,1483.6399999999999,0.42610115663345816
197,1493.93,0.428002914965815
198,1504.28,0.4146932829677483
199,1511.23,0.3903451696936842
200,1518.2,0.40277982630947895
201,1525.2099999999998,0.3957771227049913
202,1535.78,0.36777845949537147
203,1546.43,0.3796315758451869
204,1553.57,0.36924532652478154
205,1564.34,0.3738147622137498
206,1575.1799999999998,0.385072142517224
207,1586.1,0.3927522023801333
208,1593.42,0.3964310820684572
209,1604.46,0.39049696127051936
210,1615.5900000000001,0.3890230549769462
211,1626.78,0.3769057583529495
212,1634.29,0.3887151019949321
213,1645.6200000000001,0.39025349459994696
214,1653.22,0.37413095274629415
215,1659.58691,0.38293181515097663
216,1664.68,0.3902412415989255
217,1672.36,0.3662599269046801
218,1676.22,0.39193554712345785
219,1683.9499999999998,0.3995226513439635
220,1695.6299999999999,0.3843562498297986
221,1703.45,0.37583612809685607
222,1715.2600000000002,0.3637617557610438
223,1723.18,0.36184347185760324
224,1735.12,0.37390862870014363
225,1743.1299999999999,0.3684679188432549
226,1755.21,0.3800869686470981
227,1763.32,0.3620955966197114
228,1775.54,0.3649539393848574
229,1783.73,0.36790057762107226
230,1796.1,0.37975347713047136
231,1804.3899999999999,0.3776676531961882
232,1816.8999999999999,0.3598400456668901
233,1825.28,0.3632671957791588
234,1833.71,0.3543559648061785
235,1846.42,0.33700753293588437
236,1854.9399999999998,0.33729787600945593
237,1863.4999999999998,0.34216837421482826
238,1876.42,0.35544468178648836
239,1885.0800000000002,0.33811511782136267
240,1893.78,0.32982150898803786
241,1905.46072,0.3385198173622088
242,1906.91,0.3396469251877172
243,1915.7099999999998,0.33192711495156724
244,1924.55,0.3266486810325256
245,1933.4399999999998,0.3316868175098695
246,1946.84,0.3398185837411865
247,1955.8300000000002,0.3255901610113014
248,1964.85,0.3425352205192476
249,1973.92,0.3476515504235793
250,1983.03,0.3355869566450195
251,1996.78,0.32917071565103506
252,2006.0,0.33397795674452335
253,2015.2600000000002,0.32749677415512
254,2024.56,0.3346956678828251
255,2033.8999999999999,0.32396013792763856
256,2043.2900000000002,0.33012717836883754
257,2052.7200000000003,0.317260795127145
258,2066.95,0.31868296993846146
259,2071.71,0.3338325516743621
260,2076.49,0.324755321568817
261,2086.0699999999997,0.331554049516281
262,2095.7000000000003,0.31974724786013037
263,2105.38,0.32072921660036535
264,2115.1,0.32220006165770876
265,2124.86,0.3236923830321605
266,2134.67,0.31028757480299785
267,2144.52,0.3134809428909435
268,2154.42,0.3195823813752747
269,2164.3599999999997,0.31214119617671443
270,2174.35,0.31032158137453947
271,2184.39,0.30713403696875013
272,2187.7616199999998,0.3096099472856985
273,2194.4700000000003,0.31473273872757057
274,2204.6,0.30899057164940097
275,2214.78,0.2993790400743006
276,2225.0,0.2939848569016556
277,2235.27,0.3048267092320799
278,2245.59,0.29705479706557336
279,2255.95,0.28869863330152234
280,2266.37,0.2914469921411544
281,2276.83,0.29514049938324183
282,2287.34,0.29937554212839845
283,2292.61,0.2881367441518976
284,2303.19,0.28918659660135126
285,2313.82,0.2809785845538741
286,2324.5,0.24794140800946626
287,2335.23,0.2685079669681276
288,2346.01,0.2625331614298583
289,2356.84,0.27383459139465816
290,2367.7200000000003,0.2604430568625273
291,2373.18,0.2646164137976896
292,2384.13,0.25252558896985566
293,2395.14,0.26059888674570486
294,2406.19,0.25438423292400947
295,2417.3,0.25698760170599716
296,2422.87,0.2661603167479118
297,2434.05,0.2596870952341964
298,2445.29,0.26713209632416424
299,2456.5699999999997,0.26445514581658736
300,2462.24,0.2625362318646405
301,2473.6,0.2560925781619744
302,2485.02,0.2568936470629915
303,2496.4900000000002,0.2441275514670778
304,2502.2499999999995,0.2635834214206556
305,2511.88643,0.24763016655783396
306,2513.7999999999997,0.24449211973914176
307,2519.5899999999997,0.24781431241689822
308,2525.4,0.2425372917705709
309,2537.06,0.24447792382974887
310,2542.9,0.24208033319729594
311,2554.6400000000003,0.2524722119601389
312,2566.4300000000003,0.2474551074127725
313,2572.35,0.2550809634839847
314,2584.22,0.2522273056402833
315,2596.1499999999996,0.2494114078243307
316,2602.14,0.2439683672612497
317,2614.15,0.2408881161489621
318,2626.21,0.2472626817264652
319,2632.27,0.2534452445290911
320,2644.42,0.26617640014821736
321,2656.62,0.27112377245713426
322,2662.75,0.25280113862546705
323,2675.0400000000004,0.25938410097600706
324,2687.39,0.2600312233542959
325,2693.58,0.2501999495503775
326,2706.0099999999998,0.25472541863233134
327,2712.25,0.24512936151820358
328,2724.7700000000004,0.24303962064178056
329,2737.35,0.24971243979310634
330,2743.66,0.22856568604468547
331,2756.3199999999997,0.23214305189967627
332,2762.6800000000003,0.23794691484104602
333,2775.43,0.24331517073766
334,2781.83,0.2327269070308623
335,2794.67,0.2058354529690994
336,2807.5699999999997,0.21283085893508527
337,2814.04,0.23888099859399448
338,2827.0299999999997,0.24748879460160353
339,2833.54,0.24136960761234522
340,2846.6200000000003,0.23550539366157738
341,2853.19,0.2269303667000679
342,2866.35,0.24369529945296514
343,2872.96,0.24574004584328812
344,2884.0315,0.24358474886634507
345,2886.22,0.24318807047072702
346,2892.88,0.24414247674318068
347,2912.9300000000003,0.25824863796881076
348,2933.1200000000003,0.2496246840109789
349,2946.66,0.24553180126758894
350,2967.09,0.24808840699525092
351,2987.65,0.24740322005255538
352,3008.36,0.24794599541329346
353,3029.21,0.24766145559056962
354,3050.21,0.24737207807127942
355,3071.35,0.24833088536852732
356,3092.64,0.24762075496920882
357,3106.92,0.2492401062560915
358,3128.46,0.24476731302916238
359,3150.1400000000003,0.2440514046187714
360,3171.98,0.2453966359987096
361,3186.62,0.234773976813833
362,3208.71,0.2404577453661606
363,3230.9500000000003,0.23018087622192182
364,3253.34,0.24310446938111674
365,3268.36,0.250285354698272
366,3291.0099999999998,0.24779396251675187
367,3306.21,0.24556984259802755
368,3311.31121,0.2455430813035953
369,3321.4700000000003,0.24558535287142827
370,3329.12,0.2514999950511249
371,3336.7999999999997,0.25309145190603605
372,3344.49,0.24164138031935203
373,3352.2000000000003,0.23936185184947767
374,3359.93,0.24552376649641297
375,3367.6699999999996,0.2440546527017531
376,3375.44,0.22521425358230776
377,3383.2200000000003,0.22931232602126722
378,3391.02,0.24607574157703635
379,3398.83,0.2467558286912103
380,3406.67,0.24141973048059875
381,3414.52,0.24250320382839205
382,3422.3900000000003,0.252834820292995
383,3430.28,0.2464430798744076
384,3438.19,0.2488868825726299
385,3446.12,0.22430072838766185
386,3454.06,0.24327434576109863
387,3462.02,0.22901370625134507
388,3469.9999999999995,0.23738320985840117
389,3478.0,0.22392595658226694
390,3486.0200000000004,0.23246844642294237
391,3494.06,0.23025077938042748
392,3502.11,0.24169638389631742
393,3510.18,0.237258931529017
394,3518.2799999999997,0.23210229383693112
395,3526.39,0.22907772770325002
396,3534.52,0.24006270468637864
397,3542.6600000000003,0.24950155322791207
398,3550.83,0.24841071644465995
399,3559.02,0.24118932277821756
400,3567.22,0.23928190067017996
401,3575.4399999999996,0.22316012167895205
402,3583.69,0.21683545736293863
403,3591.95,0.21218506460533004
404,3600.23,0.24193461496453111
405,3608.5299999999997,0.22873120844054184
406,3616.85,0.23180294503336227
407,3625.1800000000003,0.24177625318458748
408,3633.54,0.23984097601102722
409,3641.92,0.24802164195427662
410,3650.31,0.23391327945593085
411,3658.73,0.2549665316327996
412,3667.16,0.2524396553680731
413,3675.61,0.2550343222201564
414,3684.0899999999997,0.23648460374745406
415,3692.58,0.2405953568331566
416,3701.09,0.24525715303566883
417,3709.6200000000003,0.2203558923549907
418,3718.18,0.2521434463495271
419,3726.75,0.2183879719024683
420,3735.3399999999997,0.2261129405722192
421,3743.95,0.26945845235877974
422,3752.58,0.1950736072621499
423,3761.23,0.2700549052823298
424,3769.9,0.2518310464193193
425,3778.59,0.2611703306731185
426,3787.3,0.31896985804372735
427,3796.03,0.26870902853114587
428,3801.8939600000003,0.24836444728253293
429,3804.7799999999997,0.23837066355520614
430,3813.55,0.3184068257951997
431,3822.35,0.29906780147501083
432,3831.1600000000003,0.2596116149680945
433,3839.99,0.18544380408772315
434,3848.84,0.29120426883389683
435,3857.7099999999996,0.3170013092066155
436,3866.6099999999997,0.3218509630191518
437,3875.52,0.2992886546449606
438,3884.45,0.28558642189731437
439,3893.41,0.19607270258948567
440,3902.3799999999997,0.29535452109492955
441,3911.3799999999997,0.3229559530401909
442,3920.4,0.3378157606119973
443,3929.43,0.32647600599707627
444,3938.4900000000002,0.2205574648219727
445,3947.57,0.3178964992734142
446,3956.67,0.32728550935140066
447,3965.79,0.26722729505593223
448,3974.93,0.17575775638700877
449,3984.1,0.3185025311579029
450,3993.28,0.35164154374206946
451,3994.6,0.3471757350940411
452,3997.35,0.3457573337439821
453,4000.09,0.3690986945806506
454,4002.8399999999997,0.36838139323059155
455,4005.59,0.36859679188053257
456,4008.33,0.363245952717201
457,4011.0800000000004,0.37253485136714193
458,4013.82,0.3797688122038104
459,4016.5699999999997,0.3804593108537514
460,4019.31,0.3764120716904199
461,4022.06,0.37629147034036087
462,4024.81,0.3594027689903019
463,4027.5499999999997,0.35000762982697026
464,4030.3,0.3698882284769113
465,4033.04,0.3693927893135798
466,4035.7900000000004,0.38667758796352075
467,4038.53,0.3914084488001892
468,4041.2799999999997,0.3701277474501302
469,4044.03,0.3642710461000711
470,4046.77,0.3766385069367396
471,4049.52,0.36742110558668056
472,4052.2599999999998,0.3888215664233491
473,4055.01,0.38653976507329
474,4057.75,0.35830212590995847
475,4060.5,0.34871982455989947
476,4063.25,0.3474231232098404
477,4065.99,0.3635102840465089
478,4068.7400000000002,0.36511048269644986
479,4071.48,0.36466144353311836
480,4074.23,0.3540593421830593
481,4076.98,0.3495410408330003
482,4079.72,0.3693886016696688
483,4082.4700000000003,0.3486700003196097
484,4085.21,0.34724746115627825
485,4087.96,0.34702835980621916
486,4090.7,0.33768522064288764
487,4093.4500000000003,0.3343084192928286
488,4096.2,0.3203980179427696
489,4098.94,0.3019696787794381
490,4101.6900000000005,0.294432877429379
491,4104.43,0.2956695382660475
492,4107.18,0.3081165369159885
493,4109.92,0.32157889775265697
494,4112.67,0.3348137964025979
495,4115.42,0.3454412950525389
496,4118.16,0.34671285588920736
497,4120.91,0.35671465453914836
498,4123.65,0.3622334153758168
499,4126.4,0.3558262140257578
500,4129.14,0.3556145748624262
501,4131.889999999999,0.3515134735123673
502,4134.64,0.3548635721623082
503,4137.38,0.35718403299897666
504,4140.13,0.35548753164891767
505,4142.87,0.3683241924855861
506,4145.62,0.3719812911355271
507,4148.36,0.36466625197219554
508,4151.11,0.35986405062213656
509,4153.86,0.35641764927207753
510,4156.599999999999,0.354879210108746
511,4159.35,0.3651996087586869
512,4162.09,0.3628036695953554
513,4164.84,0.3625266682452964
514,4167.59,0.3560904668952374
515,4170.33,0.35941322773190587
516,4173.08,0.35199212638184685
517,4175.82,0.34892988721851526
518,4178.57,0.35580858586845626
519,4181.3099999999995,0.3521320467051247
520,4184.06,0.3508353453550657
521,4186.81,0.35371034400500667
522,4189.55,0.3568709048416751
523,4192.3,0.3654473034916161
524,4195.04,0.3668000643282846
525,4197.79,0.35392676297822556
526,4200.53,0.35243462381489404
527,4203.28,0.362221922464835
528,4206.03,0.36199132111477594
529,4208.77,0.3633962819514444
530,4211.52,0.35934728060138543
531,4214.26,0.35738014143805386
532,4217.01,0.3580243400879949
533,4219.75,0.3523953009246633
534,4222.5,0.3550847995746043
535,4225.25,0.34879939822454525
536,4227.99,0.3505518590612138
537,4230.74,0.35029805771115474
538,4233.4800000000005,0.35067171854782314
539,4236.2300000000005,0.35907421719776417
540,4238.98,0.3736822158477051
541,4241.72,0.3615058766843736
542,4244.47,0.3607247753343146
543,4247.21,0.35542593617098306
544,4249.96,0.344835534820924
545,4252.7,0.3556499956575925
546,4255.45,0.35139829430753344
547,4258.2,0.35506709295747446
548,4260.94,0.34943795379414294
549,4263.69,0.3563167524440839
550,4266.43,0.3544595132807523
551,4269.18,0.3402651119306933
552,4271.92,0.3355283727673618
553,4274.67,0.3422274714173028
554,4277.42,0.3438335700672437
555,4280.16,0.3475271309039122
556,4282.91,0.3348855295538532
557,4285.65,0.33407709039052164
558,4288.4,0.33716658904046265
559,4291.14,0.33437654987713106
560,4293.89,0.32503174852707206
561,4296.64,0.31061734717701306
562,4299.38,0.3097624080136815
563,4302.13,0.3147698066636225
564,4304.87,0.32505106750029095
565,4307.62,0.32818686615023196
566,4310.36,0.3258372269869004
567,4313.11,0.35107162563684136
568,4315.860000000001,0.34797302428678234
569,4318.6,0.35243718512345085
570,4321.35,0.3418002837733918
571,4324.09,0.32256084461006024
572,4326.84,0.3223071432600012
573,4329.59,0.3311037419099422
574,4332.33,0.3325028027466107
575,4335.08,0.3330544013965517
576,4337.82,0.34305776223322015
577,4340.570000000001,0.32692816088316107
578,4343.31,0.33139222171982957
579,4346.0599999999995,0.33286512036977056
580,4348.81,0.33291851901971153
581,4351.55,0.34373297985637996
582,4354.3,0.35175897850632093
583,4357.04,0.3496873393429894
584,4359.79,0.3545381379929304
585,4362.53,0.3708860988295989
586,4365.15832,0.3660195002272782
587,4365.280000000001,0.36579478047558495
588,4368.03,0.3616837549894652
589,4370.7699999999995,0.3543410437778404
590,4373.52,0.3508036182917206
591,4376.26,0.3490523070800958
592,4379.01,0.34805268159397607
593,4381.75,0.32624787038235126
594,4384.5,0.3279888448962315
