,lambda (Angstroms),Total Flux (erg/s/cm^2/Angstrom)
0,100.09,0.012669871484983875
1,101.94999999999999,0.015210444580633505
2,104.09,0.018110587864875596
3,104.712855,0.01895918553950087
4,106.02000000000001,0.017507560328859823
5,108.0,0.015313709851354749
6,110.0,0.013191652993268804
7,113.86999999999999,0.008913971400872512
8,117.87,0.004477239684700606
9,120.22644299999999,0.0025111115301270615
10,120.89000000000001,0.002669325425919879
11,125.14000000000001,0.0026394801083432663
12,126.88,0.002639779048911901
13,128.06,0.002631446043090629
14,131.04,0.002606035079236911
15,131.95,0.0027556571171205068
16,134.09,0.0027298407336819293
17,136.9,0.002901001982531274
18,138.038426,0.0028998471014729495
19,140.09,0.0030007755802871888
20,143.02,0.004707278583540268
21,147.03,0.007201637304715984
22,151.15,0.007672021821235671
23,155.03,0.008248088511550329
24,158.489319,0.008773874719740352
25,159.0,0.008850990147719813
26,161.95999999999998,0.009309256966028395
27,166.11,0.00999040576534617
28,169.98,0.01058137239266178
29,173.14,0.011084867333829048
30,177.18,0.011716366815574544
31,180.06,0.01219459258473965
32,181.970086,0.01249857659850833
33,182.14000000000001,0.012526252197741814
34,185.95000000000002,0.013200935056609749
35,191.16,0.01400801035705645
36,193.82,0.01459387799605611
37,197.88,0.015274858076634538
38,202.03,0.015987479957028743
39,204.83999999999997,0.016507713929054698
40,208.929613,0.01677763746671251
41,210.09,0.01685957566448054
42,215.98,0.018453145437935636
43,219.99,0.019246098577418647
44,223.04999999999998,0.01966093820505406
45,227.20000000000002,0.020502124072598823
46,229.83,0.03045972032118743
47,234.1,0.04989518852707084
48,239.88329199999998,0.06466696928886773
49,240.11,0.06524374854653613
50,246.26999999999998,0.062150340673534046
51,252.0,0.06564129789556296
52,257.28000000000003,0.05242090114727545
53,260.26,0.06338556188403743
54,263.88,0.06695098271191607
55,268.79,0.06677173825470176
56,273.78,0.066296880058877
57,275.42287,0.06594773859523492
58,278.87,0.06524756366949795
59,284.06,0.06557465733307447
60,290.01,0.06237414024218434
61,296.08,0.06254686566374684
62,300.89,0.05895621470455667
63,307.90000000000003,0.060079063140331505
64,316.227766,0.060923365637823725
65,317.98,0.06108627809083668
66,327.65000000000003,0.05994418524790127
67,338.38,0.05814786344803605
68,347.85999999999996,0.056282036172852226
69,356.78000000000003,0.05573754004472568
70,363.078055,0.05580186169756199
71,365.94,0.05584920849842845
72,375.32000000000005,0.054363438146052184
73,384.95,0.050896151547610444
74,394.83,0.05186435870310325
75,404.95000000000005,0.0515377818623732
76,414.39,0.05016716801094122
77,416.86938299999997,0.04963067706343645
78,422.09000000000003,0.048495240547125666
79,429.94,0.047089990619745024
80,440.96999999999997,0.04646833532050828
81,451.23999999999995,0.04512862463844469
82,459.63,0.04342805379886207
83,470.33,0.04218006905708208
84,478.630092,0.04163243153798009
85,480.18,0.04152420501995515
86,490.24,0.03947570369210578
87,500.5,0.039365185757340916
88,506.3,0.038115724156791576
89,512.16,0.04042746157416759
90,520.48,0.03914011872648302
91,530.16,0.037462206951773096
92,540.02,0.03504704223083922
93,549.5408739999999,0.03383634772547633
94,550.06,0.033771098979992
95,560.28,0.034621677381096595
96,569.39,0.03445787446857829
97,579.97,0.033215467079506525
98,589.39,0.03253722390322525
99,600.35,0.030656606513411785
100,610.11,0.0271029417575195
101,620.02,0.030295630422387074
102,630.0999999999999,0.028939008297449144
103,630.957344,0.028938443547928627
104,640.33,0.028947905789494795
105,650.7400000000001,0.027984615964672093
106,658.27,0.026869767820491983
107,664.3599999999999,0.02718296051663317
108,675.1600000000001,0.026823374214223455
109,684.5500000000001,0.02518100748462834
110,695.6700000000001,0.02553707766214722
111,705.35,0.023702728679987402
112,716.81,0.024534824492430423
113,724.43596,0.024162587739690444
114,726.79,0.024046711040442904
115,735.2,0.023619943899980907
116,745.43,0.022888368531737598
117,755.8,0.022281779453664954
118,764.55,0.02027064758933172
119,775.19,0.02135617564230251
120,784.16,0.020373213662523183
121,795.0699999999999,0.020378908846537404
122,804.28,0.0201553776499078
123,815.4699999999999,0.01980124541426335
124,824.91,0.019497269551485556
125,831.763771,0.018240613830389538
126,834.46,0.017741581330064204
127,844.12,0.018628925517467153
128,855.87,0.018159646842724357
129,865.78,0.01798521403704767
130,875.8000000000001,0.01765276055441594
131,885.94,0.017325924515105985
132,894.14,0.017006753142093996
133,904.5,0.016578215748873963
134,914.9699999999999,0.016343577678698897
135,925.56,0.027187687051845603
136,934.13,0.038253146129075745
137,944.9399999999999,0.04894702414831238
138,954.992586,0.0542658994568859
139,955.89,0.05474162344747742
140,964.73,0.05890400356549947
141,975.9,0.03105598618069249
142,984.93,0.05193000062251818
143,994.05,0.049603798165092965
144,1005.5600000000001,0.05690538693867145
145,1014.86,0.05612749068274441
146,1024.25,0.03634058752756648
147,1036.11,0.04914421058183588
148,1045.7,0.06264665987276705
149,1055.3700000000001,0.06066867414214184
150,1065.1399999999999,0.05360690963457118
151,1074.99,0.057288030105444164
152,1084.9399999999998,0.0485765117993717
153,1094.98,0.05728349659404833
154,1096.4782,0.056903521408552454
155,1105.11,0.05471086250365052
156,1115.34,0.053466660492241934
157,1125.66,0.04866798558923737
158,1136.07,0.05431938779463684
159,1143.95,0.05152423684156746
160,1154.53,0.051636499140619
161,1165.22,0.05127584679438655
162,1176.0,0.039577561556558144
163,1184.15,0.048744931928700864
164,1195.1100000000001,0.04218623090768051
165,1206.16,0.036347246995064204
166,1214.52,0.026144153953482987
167,1225.76,0.03991354838083073
168,1234.26,0.04631789306343356
169,1245.68,0.047495141707589374
170,1254.31,0.04630629999122025
171,1258.92541,0.04535821168557654
172,1265.92,0.0439257999718704
173,1274.69,0.04770696657196744
174,1283.53,0.047925356098177004
175,1295.4099999999999,0.04234414270127312
176,1304.39,0.042150688079707725
177,1316.46,0.046305632625109235
178,1325.5800000000002,0.04443356385576888
179,1334.7700000000002,0.04148237801254104
180,1344.02,0.044434644677409645
181,1356.4599999999998,0.043328264689405906
182,1365.8600000000001,0.040541807624515626
183,1375.33,0.04054203348573786
184,1384.86,0.040451551855056535
185,1394.4599999999998,0.03414250315048774
186,1404.13,0.03375537737203146
187,1413.8600000000001,0.03784972410167162
188,1423.6599999999999,0.036993353757424303
189,1433.53,0.03742102633928951
190,1443.47,0.03793775184726723
191,1445.43977,0.03788648963989176
192,1446.79,0.03785134155782978
193,1453.47,0.03682531591667892
194,1463.5500000000002,0.03517803955997223
195,1473.69,0.03493825530828514
196,1483.9099999999999,0.03485827386329086
197,1494.19,0.034540554523316176
198,1504.55,0.03314706799003431
199,1511.49,0.030947781470635052
200,1518.47,0.031736146354582204
201,1525.4799999999998,0.03137574229103916
202,1536.05,0.028241353125325896
203,1546.7,0.027413746766305435
204,1553.84,0.026734987263638196
205,1564.61,0.02804870511465694
206,1575.4599999999998,0.02909525577236849
207,1586.38,0.02942975888593624
208,1593.7,0.02956582569832781
209,1604.75,0.02870000337277137
210,1615.8700000000001,0.028308743503071134
211,1623.3300000000002,0.02754316522717511
212,1634.58,0.02837411991835068
213,1645.9099999999999,0.028116077416219055
214,1653.51,0.027292614052035438
215,1659.58691,0.027763930950552285
216,1664.97,0.02818262645054323
217,1672.6499999999999,0.02631673413874115
218,1676.51,0.028574983107028124
219,1684.25,0.028641516167790086
220,1695.9199999999998,0.027426866131497075
221,1703.75,0.02668750225110511
222,1715.56,0.02579123808412821
223,1723.48,0.02561735726258231
224,1735.43,0.026695518964921523
225,1743.44,0.026154341202221692
226,1755.5200000000002,0.027130416211783002
227,1763.6299999999999,0.025569624070023247
228,1775.85,0.025690844948900664
229,1784.0500000000002,0.026164875865986984
230,1796.4099999999999,0.02739035261418051
231,1804.71,0.0271428091522069
232,1813.04,0.02558235337651532
233,1825.6,0.025997501366588995
234,1834.0300000000002,0.02541411121183749
235,1846.74,0.023095427633321286
236,1855.27,0.02401009309950986
237,1863.83,0.025248076251980455
238,1876.75,0.025950496477438408
239,1885.4099999999999,0.024683695250849083
240,1894.12,0.02479941683472979
241,1902.8600000000001,0.02537375610489253
242,1905.46072,0.025328780685086576
243,1916.05,0.025139445252415092
244,1924.8899999999999,0.023638435782584337
245,1933.78,0.022073489799915174
246,1947.18,0.026182114359221496
247,1956.17,0.025241835350875513
248,1965.2,0.027841563132258804
249,1974.27,0.027146127703371367
250,1983.3799999999999,0.027519569064213205
251,1997.13,0.02751478803365066
252,2006.3500000000001,0.027135433066247994
253,2015.61,0.027444244888574602
254,2024.91,0.025742463500630485
255,2034.26,0.028072425599847954
256,2043.6499999999999,0.029857224488794697
257,2053.08,0.027874860167470716
258,2067.31,0.02774328061365944
259,2072.08,0.030960705288875203
260,2076.86,0.04055889666152328
261,2086.44,0.04568981280168406
262,2096.0699999999997,0.04255189242900644
263,2105.75,0.041206125543490416
264,2115.4700000000003,0.04526350544770366
265,2125.23,0.04119982214164617
266,2135.04,0.03925960232275028
267,2144.8999999999996,0.04662292599101597
268,2154.8,0.04651263644901094
269,2164.74,0.04147158369673518
270,2174.73,0.04204290443162102
271,2184.77,0.04958873865366844
272,2187.7616199999998,0.049791664095415106
273,2194.8599999999997,0.050277369734231046
274,2204.99,0.0485794370772002
275,2215.17,0.0399774075857319
276,2225.39,0.04473342862671362
277,2235.66,0.05614340283325786
278,2245.98,0.05350556020536464
279,2256.35,0.04253969074303396
280,2266.7599999999998,0.0404518218131533
281,2277.23,0.04313483868194769
282,2282.48,0.054757441066013636
283,2293.01,0.04652992373348306
284,2303.6,0.05501683219962752
285,2314.23,0.048278311198222
286,2324.91,0.03973693336237902
287,2335.64,0.03634708869209857
288,2346.42,0.02718866718738066
289,2357.25,0.04530019884822528
290,2362.69,0.029058511261428856
291,2373.5899999999997,0.03611657135406102
292,2384.55,0.023830317245368222
293,2395.56,0.02847931630223796
294,2406.61,0.028355675891557724
295,2417.72,0.03260176127955253
296,2423.2999999999997,0.052016030556331194
297,2434.48,0.05166742437611354
298,2445.7200000000003,0.06066870399457093
299,2457.01,0.06352375677859085
300,2462.67,0.056127457120269564
301,2474.04,0.04925994096918954
302,2485.46,0.03226332798367205
303,2496.93,0.03795459816371709
304,2502.69,0.056928104836520874
305,2511.88643,0.033654409803667636
306,2514.24,0.02769729651148454
307,2520.0299999999997,0.022355246461926697
308,2525.8399999999997,0.02471298437420113
309,2537.4999999999995,0.03857688612241453
310,2543.35,0.040568859958353506
311,2555.0899999999997,0.06888383355389599
312,2566.88,0.05231705205401914
313,2572.8,0.06580063875637106
314,2584.68,0.05840569808473942
315,2596.6099999999997,0.052442702317688474
316,2602.59,0.0451867529055372
317,2614.61,0.04076395796673146
318,2626.6800000000003,0.0551600979325064
319,2632.73,0.09329775138676806
320,2644.88,0.1257781031998721
321,2657.0899999999997,0.1719533588984729
322,2663.2200000000003,0.11343113420006366
323,2675.5099999999998,0.12783628174599354
324,2687.86,0.14742652317742028
325,2694.05,0.10686999236450784
326,2706.49,0.13143282462417977
327,2712.73,0.09462762871584801
328,2725.25,0.076259792822849
329,2737.83,0.09661506081534683
330,2744.14,0.054934377773428016
331,2756.81,0.07557293659417105
332,2763.16,0.09955597947591677
333,2775.92,0.10617504912490502
334,2782.31,0.06232871793031528
335,2795.16,0.028029238407548746
336,2808.06,0.033655973789362886
337,2814.53,0.09252237444210222
338,2827.52,0.13518999065216158
339,2834.04,0.1256053262094816
340,2847.1200000000003,0.08981225324778616
341,2853.69,0.05071782370968686
342,2866.86,0.12390508157623664
343,2873.4700000000003,0.1678444079618019
344,2884.0315,0.1561048536360159
345,2886.73,0.15310562602844538
346,2893.3799999999997,0.18659331215935102
347,2906.74,0.2522285842960276
348,2926.89,0.22024474227162907
349,2947.18,0.2032318999552495
350,2967.61,0.21087485734688904
351,2988.18,0.21481781444654763
352,3008.8900000000003,0.2148425712542253
353,3029.75,0.22969712774906623
354,3050.75,0.24220888395192622
355,3071.89,0.2613343398628053
356,3093.19,0.2536743954399919
357,3107.47,0.2925896656579367
358,3129.0099999999998,0.2693474207345845
359,3150.69,0.26754587551925146
360,3172.53,0.29675282997022584
361,3187.18,0.26030869941650675
362,3209.27,0.28807025334608666
363,3231.52,0.24581550694197402
364,3246.4300000000003,0.3431924758460046
365,3268.94,0.40047402889964173
366,3291.5899999999997,0.39321858166129786
367,3306.79,0.3670128499605108
368,3311.31121,0.3583792848693133
369,3322.0499999999997,0.3378724123947411
370,3329.71,0.38700370700418235
371,3337.3799999999997,0.3628727012149414
372,3345.0800000000004,0.35955509422965387
373,3352.79,0.32720688684568416
374,3360.52,0.3826407786643501
375,3368.27,0.36883526968565167
376,3376.0299999999997,0.28635346030827097
377,3383.81,0.30402965013352595
378,3391.61,0.37660563916141654
379,3399.43,0.38804832739194267
380,3407.27,0.3801223148251045
381,3415.12,0.3630240018595841
382,3423.0,0.4324385876980172
383,3430.89,0.3944134731377681
384,3438.79,0.40641485817883666
385,3446.72,0.27045564202385874
386,3454.67,0.4027381250715165
387,3462.6299999999997,0.33196670772049197
388,3470.61,0.3750445895721031
389,3478.6099999999997,0.2979482706263499
390,3486.63,0.36653915088323225
391,3494.67,0.3282245303427502
392,3502.73,0.4065664090049038
393,3510.8,0.4075231872683752
394,3518.89,0.35743366473448224
395,3527.0099999999998,0.33361004100454267
396,3535.14,0.4029130168759209
397,3543.29,0.4647356919499348
398,3551.46,0.4479491662265843
399,3559.64,0.42099094010455157
400,3567.8500000000004,0.3938297127864723
401,3576.07,0.3306476850697108
402,3584.3199999999997,0.2602970561569028
403,3592.5800000000004,0.31506272684541253
404,3600.86,0.4670294967365579
405,3609.1600000000003,0.3761968658303389
406,3617.48,0.4143767341267555
407,3625.82,0.43194140162580774
408,3634.1800000000003,0.4192286683274956
409,3642.5600000000004,0.505161934231819
410,3650.95,0.3815164997374604
411,3659.3700000000003,0.535125964047055
412,3667.8100000000004,0.5158012275592854
413,3676.26,0.5413830906728335
414,3684.73,0.4555620529890172
415,3693.23,0.45662751410915436
416,3701.7400000000002,0.5426970748306094
417,3710.28,0.37380893435601775
418,3718.8300000000004,0.560527793482744
419,3727.4,0.43719155181210584
420,3735.9900000000002,0.37559190934410325
421,3744.6099999999997,0.4728102656800541
422,3753.24,0.2728018216173228
423,3761.89,0.37823907675722707
424,3770.56,0.408114931099767
425,3779.2599999999998,0.5055580842462603
426,3787.97,0.5659335369940715
427,3796.7000000000003,0.4254329889445182
428,3801.8939600000003,0.4635197047135545
429,3805.4500000000003,0.4895957696376897
430,3814.23,0.5246114925303453
431,3823.0199999999995,0.3672160151073892
432,3831.83,0.30338823705320894
433,3840.6600000000003,0.28711515836780466
434,3849.52,0.44560077873556436
435,3858.39,0.4415504987877121
436,3867.29,0.46666201789302375
437,3876.2000000000003,0.3614701366827234
438,3885.1400000000003,0.404636654525587
439,3894.09,0.4074653720528386
440,3896.31,0.5409740019869725
441,3898.08,0.5303540461236468
442,3899.8500000000004,0.6899132902603212
443,3901.6299999999997,0.5261005340813836
444,3903.4,0.6071165782180579
445,3905.17,0.6123029223547322
446,3906.94,0.5170205664914066
447,3908.72,0.49041341031246893
448,3910.49,0.5758372544491432
449,3912.26,0.6093863985858176
450,3914.04,0.5956494424068799
451,3915.81,0.5844504865435542
452,3917.58,0.5453371306802286
453,3919.35,0.5584491748169029
454,3921.13,0.4706890186379653
455,3922.9,0.5369419627746396
456,3924.67,0.600904806911314
457,3926.44,0.4551056510479883
458,3928.2200000000003,0.3268720948690506
459,3929.99,0.22136453900572498
460,3931.76,0.2750451831423993
461,3933.53,0.20094662727907364
462,3935.3100000000004,0.385801171100136
463,3937.08,0.3752723152368103
464,3938.85,0.4365387593734847
465,3940.6200000000003,0.420244003510159
466,3942.3999999999996,0.2786952473312213
467,3944.17,0.4144990914678957
468,3945.94,0.44237153560457
469,3947.71,0.4655264797412444
470,3949.49,0.6554463235623067
471,3951.2599999999998,0.615197667698981
472,3953.03,0.5623452118356554
473,3954.8100000000004,0.5632126556567176
474,3956.58,0.5521250997933921
475,3958.35,0.4108476439300664
476,3960.12,0.42102118806674077
477,3961.9,0.3501139318878031
478,3963.67,0.27709187602447743
479,3965.44,0.2925655201611518
480,3967.21,0.2354610642978261
481,3968.9900000000002,0.27410880811888844
482,3970.7599999999998,0.2865978522555628
483,3972.53,0.3620473963922371
484,3974.3,0.43869754052891147
485,3976.0800000000004,0.6263047843499738
486,3977.85,0.5647477284866482
487,3979.62,0.5479413726233224
488,3981.3900000000003,0.5313550167599967
489,3983.1699999999996,0.5752786605810591
490,3984.94,0.6523067047177334
491,3986.71,0.6992612488544078
492,3988.4900000000002,0.6282390926754702
493,3990.2599999999998,0.6600548368121445
494,3992.0299999999997,0.5202442809488188
495,3993.8,0.6794027250854932
496,3995.5800000000004,0.6492771689065555
497,3997.35,0.7048919130432298
498,3999.12,0.6576494571799042
499,4000.89,0.6946973013165786
500,4002.6699999999996,0.6594287451376408
501,4004.44,0.5990769892743152
502,4006.21,0.6670664334109896
503,4007.98,0.7216128775476639
504,4009.76,0.7098981213687262
505,4011.5299999999997,0.7674721655054006
506,4013.3,0.768985009642075
507,4015.07,0.7388663537787492
508,4016.8500000000004,0.7269511975998116
509,4018.62,0.742671341736486
510,4020.39,0.7482806858731602
511,4022.17,0.6388363296942227
512,4023.9399999999996,0.613700973830897
513,4025.71,0.6474535179675712
514,4027.48,0.6330709621042456
515,4029.26,0.668645905925308
516,4031.0299999999997,0.6155263500619823
517,4032.8,0.5622983941986566
518,4034.57,0.757630638335331
519,4036.3500000000004,0.7081619821563933
520,4038.12,0.7507718262930676
521,4039.89,0.714976170429742
522,4041.6600000000003,0.7668696145664163
523,4043.4399999999996,0.6803335583874787
524,4045.21,0.606598702524153
525,4046.98,0.6626808466608274
526,4048.75,0.6215606907975018
527,4050.5299999999997,0.6684229346185641
528,4052.2999999999997,0.6970295787552384
529,4054.07,0.6233869228919128
530,4055.84,0.627482467028587
531,4057.62,0.6476071108496494
532,4059.39,0.6221601549863238
533,4061.16,0.625702099122998
534,4062.94,0.6299504429440604
535,4064.7100000000005,0.6128326870807348
536,4066.48,0.7422671312174091
537,4068.25,0.7092541753540834
538,4070.03,0.6685537191751458
539,4071.7999999999997,0.6280602633118201
540,4073.57,0.5847808074484945
541,4075.34,0.6795108515851688
542,4077.1200000000003,0.611872895406231
543,4078.89,0.6307094395429055
544,4080.66,0.7218074836795798
545,4082.4300000000003,0.7640203278162542
546,4084.2099999999996,0.6958697716373164
547,4085.98,0.6667526157739908
548,4087.75,0.7068913599106652
549,4089.52,0.7551374040473394
550,4091.2999999999997,0.7159727478684018
551,4093.0699999999997,0.7383492920050762
552,4094.84,0.6882795361417505
553,4096.62,0.6194648799628129
554,4098.39,0.5709316240994872
555,4100.16,0.5277661682361616
556,4101.929999999999,0.5958670123728358
557,4103.71,0.6432635561938982
558,4105.4800000000005,0.6166811003305726
559,4107.25,0.6348497444672468
560,4109.0199999999995,0.7186936886039212
561,4110.8,0.6952690324249836
562,4112.57,0.6875019765616579
563,4114.34,0.6863879206983322
564,4116.11,0.6979001648350066
565,4117.89,0.7383472086560688
566,4119.66,0.6820884527927432
567,4121.429999999999,0.6661952969294176
568,4123.21,0.6901492407504799
569,4124.98,0.6462463848871542
570,4126.75,0.6482968290238286
571,4128.5199999999995,0.684161173160503
572,4130.3,0.6769252169815653
573,4132.07,0.7231415611182397
574,4133.84,0.732494505254914
575,4135.61,0.6839385493915884
