,lambda (Angstroms),Total Flux (erg/s/cm^2/Angstrom)
0,102.03,6.131298622975377
1,103.92999999999999,6.113823881785136
2,104.712855,6.106623783598309
3,106.1,6.039608391041809
4,108.08,5.943951148931265
5,110.09,5.846844577475089
6,113.95,5.660361300286139
7,117.96,5.466631284644232
8,120.22644299999999,5.357136175328908
9,120.97999999999999,5.326614092496274
10,124.94999999999999,5.165812340512493
11,126.97999999999999,5.083588759960114
12,127.86,5.04794509755589
13,131.14000000000001,4.9150912410446015
14,132.05,4.878232801013051
15,133.88,4.804110159796178
16,137.0,4.677737704277295
17,138.038426,4.635677175313829
18,139.87,4.582650140355997
19,143.13,4.4882768967154565
20,147.14,4.372205904760298
21,150.91,4.263062544037818
22,155.14,4.140602436344372
23,158.489319,4.04363949689449
24,159.12,4.029836204685492
25,162.08,3.9650527507507705
26,165.86,3.882324660813457
27,170.10999999999999,3.7893083485944157
28,172.87,3.7289041808544723
29,176.9,3.640704044453686
30,180.19,3.56869933653158
31,181.86,3.5321516148511805
32,181.970086,3.529742308847044
33,186.09,3.460955821791412
34,190.87,3.3811508406623325
35,193.97,3.329395291699541
36,198.03,3.2616106138560124
37,202.18,3.1923251156767907
38,204.99,3.145412639295679
39,208.929613,3.0796338390456293
40,209.76000000000002,3.0692104662595665
41,216.14000000000001,2.9891449998226376
42,220.16,2.9386932757046975
43,223.22000000000003,2.9002862216656684
44,226.85,2.8547330575860372
45,230.0,2.81533493754586
46,233.73999999999998,2.768681163675936
47,239.73000000000002,2.693667084177314
48,239.88329199999998,2.6917420673240664
49,245.88,2.6337058112202723
50,252.19,2.5727401489262496
51,256.88,2.527238846019758
52,259.85,2.498638865192618
53,264.08,2.4577774552085114
54,268.99,2.4102952069000088
55,273.99,2.3619352403088656
56,275.42287,2.348077910659324
57,279.08,2.320937231428411
58,284.27,2.2824206065024217
59,290.21999999999997,2.238209550120989
60,296.3,2.1931044744774413
61,301.11,2.1573944147791737
62,308.13,2.1053037416249456
63,316.227766,2.0452143399260536
64,318.22,2.03417472290104
65,327.89,1.9805686746555378
66,337.85,1.9253438102816798
67,348.12,1.8683943479775116
68,357.05,1.818878551404364
69,363.078055,1.7854573157734395
70,366.21,1.772454181838817
71,374.74,1.7370264271935993
72,385.24,1.6933792705775639
73,395.12,1.652380342195999
74,405.26,1.6102718329096561
75,413.74,1.575043565476896
76,416.86938299999997,1.562041398730719
77,422.41,1.5444590326772918
78,430.26,1.5195522056549888
79,441.3,1.4845337783637491
80,450.53999999999996,1.4552108630330383
81,459.97,1.425288255034271
82,469.6,1.3947315525954453
83,478.630092,1.3660865551141965
84,480.54,1.361426663929388
85,489.46999999999997,1.3396150814982373
86,499.72,1.314611245617017
87,505.51,1.300473913665576
88,512.54,1.283388914836798
89,519.67,1.2659875272921048
90,530.55,1.2394318404006246
91,540.42,1.2153205082398788
92,549.5408739999999,1.1930864942915063
93,550.47,1.1913590091869717
94,559.41,1.174751541383609
95,569.81,1.1554230247107924
96,580.4,1.1356877993631842
97,589.83,1.1181793612406208
98,599.4200000000001,1.1003146667077066
99,610.56,1.0795296315120169
100,620.48,1.0612068290702537
101,630.57,1.0424431771299925
102,630.957344,1.041722928968636
103,639.34,1.0293685265582466
104,649.73,1.0140848274353107
105,657.25,1.003006778093205
106,664.86,0.9918257483015261
107,675.66,0.9759071553527573
108,685.06,0.9620057771751253
109,694.59,0.9481276541258874
110,704.26,0.933795043599536
111,715.6999999999999,0.9171077798982475
112,724.43596,0.9042637777466096
113,725.6500000000001,0.9029403394637762
114,735.75,0.8919270326711644
115,744.27,0.8827135056144262
116,754.62,0.8714608322180367
117,765.12,0.8599640798593806
118,775.77,0.8485065885384582
119,784.75,0.8387469043307694
120,795.67,0.8269117748777672
121,804.88,0.8169395715946031
122,814.2,0.8068296554057769
123,825.52,0.7946300223867306
124,831.763771,0.7875345543060882
125,835.08,0.7846828934700308
126,844.75,0.7773295178154412
127,854.5400000000001,0.7694029806036073
128,864.4300000000001,0.7615242994274035
129,874.4399999999999,0.7535403066939554
130,884.5699999999999,0.7454965304032634
131,894.8100000000001,0.7373107298517638
132,905.17,0.7288666857430205
133,915.65,0.7216923080770329
134,924.1199999999999,0.7390856429948847
135,934.8199999999999,0.7649724558072827
136,945.65,0.8142245927659997
137,954.4,0.8607324333836148
138,954.992586,0.8612296828843111
139,965.45,0.8701895598130575
140,974.38,0.7002611843191453
141,985.6700000000001,0.81726907671262
142,994.79,0.8239775285486245
143,1003.99,0.9047334203130148
144,1015.62,0.8889108874021301
145,1025.02,0.7387219289874857
146,1034.5,0.7933707105012271
147,1044.07,0.9552771244344028
148,1056.16,0.9385741461117375
149,1065.9299999999998,0.8545382098658785
150,1075.8,0.9004598985305016
151,1085.75,0.8219271271235107
152,1095.8,0.9022194806270025
153,1096.4782,0.9008276714921827
154,1105.94,0.8827833038899455
155,1116.1699999999998,0.8610773521978914
156,1123.91,0.823662384348771
157,1134.31,0.8989005779365165
158,1144.8,0.8580535660841557
159,1155.39,0.8739062926316771
160,1166.0900000000001,0.8772613014190689
161,1174.1699999999998,0.7579768241295481
162,1185.03,0.8544707343567515
163,1196.0,0.7339921268238251
164,1204.29,0.6618975701740568
165,1215.43,0.6081919079209301
166,1223.86,0.7194478650309969
167,1235.18,0.8376877918976581
168,1243.74,0.8683866189275715
169,1255.25,0.8413740787540089
170,1258.92541,0.8154183505660835
171,1263.95,0.7808805396599405
172,1275.65,0.8768535201751712
173,1284.49,0.8955795010089009
174,1296.3700000000001,0.7893116535320581
175,1305.3600000000001,0.7804153277057269
176,1314.41,0.869508859215371
177,1323.52,0.8458626480609909
178,1335.77,0.788685870822664
179,1345.0200000000002,0.8611948267855598
180,1354.35,0.8420120925297567
181,1363.74,0.7891244156099291
182,1376.3500000000001,0.8044611823874552
183,1385.8899999999999,0.8036600988075665
184,1395.5,0.7429756987863156
185,1405.17,0.7504876561010405
186,1414.92,0.7592330231970661
187,1424.7199999999998,0.7658162214064046
188,1434.6000000000001,0.7585938293970436
189,1441.22,0.7777943887996784
190,1445.43977,0.7805184172666366
191,1447.87,0.7824302357472283
192,1454.56,0.767370822416563
193,1464.64,0.7311622718376232
194,1474.79,0.7286808847963298
195,1485.01,0.7329082612926827
196,1495.31,0.736386038974917
197,1505.67,0.7120138425465623
198,1512.6200000000001,0.6690386080700115
199,1516.11,0.691888247304089
200,1526.62,0.6769927155992621
201,1533.66,0.629358819956828
202,1544.2900000000002,0.6529841400308232
203,1555.0,0.6329353612906998
204,1565.78,0.6368966460882226
205,1576.6299999999999,0.6539814944233917
206,1583.91,0.668986202338602
207,1594.8899999999999,0.6724519401008284
208,1605.9399999999998,0.6618012414007012
209,1613.3600000000001,0.6609266763912038
210,1624.54,0.6383511671181339
211,1635.8,0.6567479590309453
212,1643.3500000000001,0.6598232834485053
213,1654.74,0.6292435647883741
214,1659.58691,0.6403765335844409
215,1666.2099999999998,0.6562366222111635
216,1673.9,0.6135221338744545
217,1677.76,0.6568417623556384
218,1685.51,0.6708790646170828
219,1693.29,0.6452335121776037
220,1705.02,0.6285253241165382
221,1716.8400000000001,0.6080108719527022
222,1724.77,0.6040456460086059
223,1736.72,0.6235942901407685
224,1744.74,0.6141565000939019
225,1756.8300000000002,0.633115255621755
226,1764.94,0.602123901472118
227,1773.09,0.6069354077212499
228,1785.38,0.6109242652429467
229,1793.62,0.6320025073893082
230,1806.05,0.6258992763066957
231,1814.3899999999999,0.595991569449979
232,1826.96,0.600663549763057
233,1835.4,0.5852807939032623
234,1843.87,0.557368583342544
235,1856.6499999999999,0.555813280749158
236,1865.22,0.5634626211853615
237,1873.83,0.586170622020334
238,1886.82,0.5564423365204838
239,1895.53,0.542898888352378
240,1904.28,0.558052500583041
241,1905.46072,0.5562918674202448
242,1913.07,0.5454098097049406
243,1926.33,0.5364737373808888
244,1935.22,0.543748083763934
245,1944.15,0.5562850324929097
246,1953.1299999999999,0.5339700091542986
247,1966.66,0.5604932276652774
248,1975.74,0.5671775601914925
249,1984.86,0.5480209950636379
250,1994.02,0.5380359322817138
251,2003.23,0.5449430974322027
252,2017.1100000000001,0.5321030114700731
253,2026.4199999999998,0.5439352324853883
254,2035.7800000000002,0.5262290814331165
255,2045.17,0.5364979071402926
256,2054.61,0.5163191607798816
257,2064.1,0.5180957423518839
258,2073.63,0.5403883262698165
259,2078.41,0.5266947566085068
260,2083.2000000000003,0.5380419125336796
261,2092.81,0.5194286011434732
262,2107.32,0.5183818271297485
263,2117.05,0.5202240227773334
264,2126.82,0.5214188207708489
265,2136.63,0.49861802111029474
266,2146.5,0.5049593749686364
267,2156.4,0.5143389055864258
268,2166.36,0.5023175897231109
269,2176.36,0.49861737620572655
270,2186.4,0.4929293650342726
271,2187.7616199999998,0.49443964998824486
272,2196.5,0.5046053705415228
273,2206.63,0.49525582175285965
274,2216.8199999999997,0.47895327603158844
275,2227.0499999999997,0.47020959902191184
276,2237.33,0.48774555790172847
277,2242.4900000000002,0.475403621697434
278,2252.84,0.4605295508225413
279,2263.24,0.46487021583714183
280,2273.68,0.47123134956333695
281,2284.1800000000003,0.47781058635692397
282,2294.7200000000003,0.4594246918621056
283,2305.31,0.4606415332567806
284,2315.96,0.44662177771884737
285,2326.65,0.3934256908925089
286,2337.39,0.42472763995566365
287,2342.77,0.41550338166513967
288,2353.59,0.43401096815148366
289,2364.45,0.41137292334942227
290,2375.36,0.4169981144368541
291,2386.33,0.39806510859167793
292,2397.34,0.4106447714580963
293,2402.87,0.40115152083605216
294,2413.96,0.4055371211256598
295,2425.1,0.4198978573047607
296,2436.3,0.4098036965512536
297,2447.54,0.42120000450934103
298,2453.1800000000003,0.41770939284418207
299,2464.51,0.41301440540335743
300,2475.88,0.4029872866741274
301,2487.31,0.40324227101228927
302,2493.05,0.3850046311261169
303,2504.5499999999997,0.41445258570956933
304,2510.33,0.3834602145349916
305,2511.88643,0.3846365387005197
306,2516.1099999999997,0.387950608880419
307,2527.7300000000005,0.3794047244355493
308,2533.55,0.3833579881645389
309,2545.25,0.37933255133106436
310,2557.0,0.3963187942547117
311,2562.89,0.38736964964367193
312,2574.72,0.39961684017871435
313,2586.6099999999997,0.394211166422303
314,2592.57,0.38943041347123386
315,2604.54,0.3800710873262176
316,2616.56,0.37498684093832324
317,2622.59,0.38569847964722476
318,2634.69,0.3970151808707254
319,2646.8599999999997,0.41786917375419674
320,2652.9599999999996,0.428411504123069
321,2665.2,0.395948488666511
322,2677.51,0.40623296486992355
323,2683.68,0.4080054868987666
324,2696.06,0.3909670547621499
325,2702.28,0.3999679565481147
326,2714.75,0.3822605279743174
327,2727.28,0.3784743351090664
328,2733.57,0.3898456285550019
329,2746.19,0.35422983925257034
330,2752.52,0.36043175650420334
331,2765.22,0.3693620148131669
332,2777.9900000000002,0.378222764782101
333,2784.39,0.3590854736937047
334,2797.24,0.3173475712740339
335,2803.6899999999996,0.32837695994275945
336,2816.63,0.369465761085908
337,2823.1299999999997,0.38573752951175555
338,2836.16,0.3762688342177236
339,2842.7000000000003,0.36610712644926857
340,2855.82,0.35028673471805605
341,2862.4,0.3805638507552985
342,2875.61,0.38444976258690544
343,2882.24,0.3793431583812699
344,2884.0315,0.37956239695112814
345,2895.54,0.38125612417609744
346,2908.9100000000003,0.40535823706126
347,2929.0699999999997,0.39068389732789255
348,2949.3799999999997,0.3835001160786517
349,2969.82,0.388026885515654
350,2990.41,0.3866966134367832
351,3011.13,0.3883340920441554
352,3032.0099999999998,0.3875631330345962
353,3053.02,0.3868083247112801
354,3067.12,0.3883023222191927
355,3088.38,0.3881300113694212
356,3109.7799999999997,0.3898107551048347
357,3131.34,0.3829248612233166
358,3153.0399999999995,0.3815084219269836
359,3167.6,0.3835944987862181
360,3189.5600000000004,0.36564956086237127
361,3211.6699999999996,0.3747043814226513
362,3226.4900000000002,0.3570637596543722
363,3248.85,0.3795163776881967
364,3271.37,0.39183365810508974
365,3286.4700000000003,0.38702814550718045
366,3309.2599999999998,0.38302303119550163
367,3311.31121,0.3829729201062001
368,3324.53,0.38287982314858826
369,3332.19,0.38377719599334864
370,3339.88,0.3698535021521224
371,3347.57,0.3933155083108962
372,3355.2900000000004,0.38077494778368337
373,3363.03,0.3513729427991462
374,3370.7799999999997,0.3630517155859469
375,3378.55,0.3753083439154231
376,3386.3399999999997,0.378037627787575
377,3394.14,0.3789082894310647
378,3401.9700000000003,0.39934388438856777
379,3409.81,0.3713649571174087
380,3417.67,0.36795388538892515
381,3425.55,0.38245816920311726
382,3433.4500000000003,0.40051590855998503
383,3441.36,0.37602472568819056
384,3449.29,0.36705339835907175
385,3457.24,0.37093312657262856
386,3465.22,0.3579682881001987
387,3473.2000000000003,0.3801776496277689
388,3481.21,0.3631214444693525
389,3489.2400000000002,0.37625549485361176
390,3497.2799999999997,0.3623597230092088
391,3505.34,0.37991610670748144
392,3513.42,0.3664112459484297
393,3521.52,0.3836544407320536
394,3529.64,0.3508470910583531
395,3537.7799999999997,0.37707769692732823
396,3545.93,0.38181818056764116
397,3554.1,0.3853593197506297
398,3562.2999999999997,0.37653859224763164
399,3570.51,0.3523873425159714
400,3578.7400000000002,0.3525766483269868
401,3586.99,0.33201920968067783
402,3593.31,0.359049961166172
403,3596.05,0.3574664705127312
404,3598.7799999999997,0.4025043020879526
405,3601.5200000000004,0.41927091143451173
406,3604.25,0.38470854300973323
407,3606.99,0.34022525235629236
408,3609.7200000000003,0.32876578393151373
409,3612.46,0.3230700932780729
410,3615.2000000000003,0.29673460262463214
411,3617.93,0.29094953419985353
412,3620.67,0.3201193435464127
413,3623.4,0.3242823751216341
414,3626.14,0.4397433844681933
415,3628.8700000000003,0.3838345160434147
416,3631.61,0.36253692538997384
417,3634.35,0.38327113473653307
418,3637.08,0.3726177663117545
419,3639.82,0.3740719756583136
420,3642.55,0.36992790723353497
421,3645.29,0.36009921658009425
422,3648.02,0.3413451481553156
423,3650.76,0.3556941575018748
424,3653.5,0.36934046684843397
425,3656.2299999999996,0.38885749842365536
426,3658.97,0.36987430777021457
427,3661.7,0.36126673934543596
428,3664.44,0.39613564869199513
429,3667.17,0.3864535802672165
430,3669.9100000000003,0.3870810896137757
431,3672.65,0.3458834989603349
432,3675.3799999999997,0.3767453305355563
433,3678.12,0.39582633988211546
434,3680.85,0.3743860714573368
435,3683.59,0.38030378080389604
436,3686.32,0.3684312123791174
437,3689.06,0.3282874217256766
438,3691.79,0.369171653300898
439,3694.5299999999997,0.3787677626474572
440,3697.2699999999995,0.37348527199401643
441,3700.0,0.3854803035692378
442,3702.74,0.42361421291579704
443,3705.4700000000003,0.3767357444910184
444,3708.21,0.34907345383757754
445,3710.9399999999996,0.377207585412799
446,3713.68,0.3824433947593581
447,3716.4199999999996,0.36451410410591734
448,3719.15,0.3656189356811387
449,3721.89,0.4300381450276979
450,3724.6200000000003,0.4928271766029193
451,3727.36,0.5240174859494785
452,3730.0899999999997,0.48656241752469986
453,3732.83,0.41666132687125906
454,3735.5699999999997,0.38414273621781825
455,3738.3,0.3741093677930396
456,3741.04,0.40211757713959884
457,3743.77,0.3907203087148202
458,3746.51,0.3574785180613794
459,3749.24,0.3542437496366008
460,3751.9799999999996,0.33831895898316
461,3754.72,0.36684386832971916
462,3757.45,0.37803299990494055
463,3760.19,0.37376300925149974
464,3762.92,0.38019934082672113
465,3765.6600000000003,0.3969452501732803
466,3768.39,0.4009018817485017
467,3771.1299999999997,0.3960325910950609
468,3773.86,0.39054542267028225
469,3776.6,0.42407103201684143
470,3779.34,0.46743294136340063
471,3782.07,0.4694059729386221
472,3784.81,0.47703858228518126
473,3787.54,0.46911331386040267
474,3790.2799999999997,0.44913802320696183
475,3793.01,0.38967485478218317
476,3795.75,0.3609378641287424
477,3798.49,0.3645205734753016
478,3801.2200000000003,0.42569750505052295
479,3801.8939600000003,0.42467262080497786
480,3803.96,0.4215561148935649
481,3806.6899999999996,0.44207787774572094
482,3809.43,0.4665032408281046
483,3812.16,0.47989590368026064
484,3814.9,0.41957546676264423
485,3817.64,0.42395612984502795
486,3820.3700000000003,0.4355713926971839
487,3823.11,0.4332980557795676
488,3825.8399999999997,0.3621927186317236
489,3828.58,0.3767198817141073
490,3831.31,0.3633101445662633
491,3834.05,0.34287270764864697
492,3836.79,0.35983837073103064
493,3839.52,0.4002187335831866
494,3842.26,0.42425149666557027
495,3844.99,0.4083620595177263
496,3847.7299999999996,0.45586982260011
497,3850.46,0.444733585452266
498,3853.2,0.46275284853464965
499,3855.9300000000003,0.43675851138680566
500,3858.67,0.47814957446918926
501,3861.4100000000003,0.477963237551573
502,3864.14,0.485817800403729
503,3866.8799999999997,0.4741626634861127
504,3869.61,0.48305032633826867
505,3872.35,0.4551526894206523
506,3875.0800000000004,0.4395527522728083
507,3877.82,0.452178615355192
508,3880.56,0.43122437843757566
509,3883.29,0.4283745412897317
510,3886.0299999999997,0.40049770437211535
511,3888.76,0.4215980672242713
512,3891.5,0.42250703030665504
513,3894.23,0.454642493158811
514,3896.9700000000003,0.4383584562411947
515,3899.71,0.4495584193235783
516,3902.4399999999996,0.4726840821757344
517,3905.18,0.49217044525811804
518,3907.91,0.49727660811027397
519,3910.65,0.5306495711926577
520,3913.38,0.5245349340448137
521,3916.1200000000003,0.5119082971271973
522,3918.86,0.468491660209581
523,3921.5899999999997,0.461508923061737
524,3924.33,0.4516721861441207
525,3927.06,0.4153869489962767
526,3929.8,0.40178941207866037
527,3932.53,0.37265397493081637
528,3935.27,0.4008611380132
529,3938.0,0.42483390086535605
530,3940.74,0.4471101639477397
531,3943.4799999999996,0.45698752703012335
532,3946.21,0.4801545898822794
533,3948.95,0.4782530529646631
534,3951.6800000000003,0.47558931581681907
535,3954.42,0.45312647889920277
536,3957.1499999999996,0.45755064175135873
537,3959.89,0.41198480483374245
538,3962.6299999999997,0.3755321679161261
539,3965.36,0.3568323307682821
540,3968.1,0.34373079385066574
541,3970.8300000000004,0.3606568567028217
542,3973.57,0.38049481978520544
543,3976.2999999999997,0.4154817826373614
544,3979.04,0.4529052457197451
545,3981.7799999999997,0.4829926088021288
546,3984.51,0.4972738716542847
547,3987.25,0.5146317347366685
548,3989.98,0.5187666975888244
549,3992.7200000000003,0.5327768606712081
550,3995.45,0.5361680235233641
551,3998.1899999999996,0.5282529866057477
552,4000.93,0.5318688496881314
553,4003.66,0.5560279125402874
554,4006.4,0.5466043756226711
555,4009.13,0.5284836384748272
556,4011.8700000000003,0.5380922015572107
557,4014.6,0.5455748644093668
558,4017.3399999999997,0.5465249274917505
559,4020.07,0.5622735903439064
560,4022.81,0.5460513534262901
561,4025.55,0.5342100165086737
562,4028.28,0.5432632793608297
563,4031.02,0.5424569424432134
564,4033.75,0.5422317052953695
565,4036.49,0.5521088683777532
566,4039.2200000000003,0.5590750312299091
567,4041.96,0.5513872943122928
568,4044.7,0.5343385573946764
569,4047.4300000000003,0.5404780202468324
570,4050.17,0.5343402833292161
571,4052.8999999999996,0.5164260461813721
572,4055.64,0.5197113092637559
573,4058.37,0.5214284721159118
574,4061.11,0.5272554351982954
575,4063.85,0.5331650982806792
576,4066.5800000000004,0.5209543611328351
577,4069.32,0.5282072242152188
578,4072.0499999999997,0.5303584870673749
579,4074.79,0.5324451501497585
580,4077.52,0.5196351130019145
581,4080.26,0.5148612760842981
582,4083.0,0.5172992391666819
583,4085.73,0.5291835020188378
584,4088.4700000000003,0.5177348651012215
585,4091.2,0.4812017279533775
586,4093.9399999999996,0.4698771910357612
587,4096.67,0.47010645388791716
588,4099.41,0.45485561697030086
589,4102.14,0.46820687982245685
590,4104.88,0.4893671429048405
591,4107.62,0.5041833059872242
592,4110.349999999999,0.5013749688393803
593,4113.09,0.5105910319217639
594,4115.82,0.5074932947739198
595,4118.56,0.5241485578563035
