,lambda (Angstroms),Total Flux (erg/s/cm^2/Angstrom)
0,100.00999999999999,0.0018034657482355265
1,102.10000000000001,0.002215262018176742
2,104.0,0.0025892052899414786
3,104.712855,0.002729738499861078
4,105.94,0.002530195209027028
5,107.89999999999999,0.0022119183122631123
6,109.91000000000001,0.0018902300597654186
7,114.03999999999999,0.0012212350001557398
8,118.04,0.0005736665314538659
9,120.22644299999999,0.00026179195306511884
10,121.07,0.0002731146280249436
11,125.03999999999999,0.00026568180370969844
12,127.07,0.0002616042187323816
13,127.95,0.0002619574947028058
14,130.93,0.0002574102724208333
15,132.14,0.0002685845143801668
16,133.98,0.00026842843686378107
17,137.1,0.00028454238803164885
18,138.038426,0.0002861634635964276
19,139.97,0.0003036087589873378
20,142.9,0.0005129855424608052
21,146.91,0.000857023521207769
22,151.02,0.0009577365587763529
23,154.9,0.0010756357010552108
24,158.489319,0.001196336610857788
25,158.86999999999998,0.0012090834638629696
26,161.82,0.0013148593927648964
27,165.97,0.0014690922757964206
28,169.84,0.0016167802028643724
29,173.0,0.001748261848738979
30,177.03,0.0019165660363575435
31,179.89999999999998,0.0020503658349841636
32,181.970086,0.0021436754848414255
33,181.99,0.0021445839285199426
34,185.79999999999998,0.0023385946806162706
35,191.0,0.0025915772162857995
36,194.11,0.0027622194155035367
37,198.17000000000002,0.0029787822221993606
38,201.85999999999999,0.0032117631080879304
39,205.14000000000001,0.0033927397844333257
40,208.929613,0.0035452210061239905
41,209.91,0.0035853260286338347
42,215.79000000000002,0.0040883702900613
43,219.81,0.004380930091241302
44,222.86,0.004556893044872895
45,227.01,0.004860458227683095
46,230.17,0.00736910350423255
47,233.91,0.012368239483439814
48,239.88329199999998,0.016690202578876843
49,239.91,0.01670948798696196
50,246.06,0.016439440214923082
51,251.79,0.01793487024195028
52,257.06,0.014719134525097459
53,260.04,0.018053703474581063
54,264.27,0.01947161564112993
55,269.18,0.019876448037762316
56,274.18,0.020194980906023393
57,275.42287,0.020228042887058522
58,279.28000000000003,0.020335922608348413
59,283.82,0.020860118596369583
60,289.76,0.020343703215058073
61,295.83000000000004,0.02086942963516568
62,301.33,0.020119273541358725
63,308.35,0.020973040817990583
64,316.227766,0.02193494107032977
65,317.72,0.022115321966246493
66,328.13,0.022468877432373247
67,338.1,0.022515690486867353
68,348.37,0.022510828367474627
69,357.31,0.02287031418564688
70,363.078055,0.0233482699972594
71,365.63,0.02356208087417166
72,375.01,0.023511397482305924
73,384.63,0.02256328097593616
74,395.4,0.023574768712567935
75,404.60999999999996,0.024015786693475885
76,414.04,0.023854443486088478
77,416.86938299999997,0.02369569246827497
78,421.74,0.0234216253861436
79,429.58000000000004,0.023103554305323785
80,440.6,0.02337312344937552
81,450.86,0.023109108514527136
82,460.3,0.022586594968233887
83,469.94,0.022382229863756455
84,478.630092,0.022430098968246055
85,479.78,0.02243578950394584
86,489.82,0.021673871077504438
87,500.08,0.022021092785144993
88,505.87,0.02147083404121116
89,511.73,0.02299877306721249
90,520.04,0.022578744040944756
91,529.7099999999999,0.0219113031162746
92,539.56,0.020733085028580598
93,549.5408739999999,0.020261630284639093
94,549.59,0.020259320301131034
95,559.8100000000001,0.021064783935334515
96,570.22,0.021258177930643544
97,579.48,0.02077462079294533
98,590.26,0.02058337654409147
99,599.85,0.019612645296734465
100,609.59,0.017444118544987095
101,619.5,0.019791684221597324
102,629.56,0.019164934393817192
103,630.957344,0.019195054819950264
104,639.79,0.01938759058490348
105,650.1899999999999,0.01886119958186036
106,657.72,0.018265448711387793
107,665.3299999999999,0.018605748987045666
108,674.59,0.01856369915164381
109,685.5500000000001,0.01753001617151375
110,695.09,0.017938125347568428
111,704.76,0.016746042636085066
112,716.21,0.01749400792600394
113,724.43596,0.01733063482129311
114,726.17,0.0172960914830014
115,734.5799999999999,0.017098668164834963
116,744.8000000000001,0.01667367832991689
117,755.16,0.016371449593150626
118,765.67,0.014902122747261297
119,774.53,0.015891765101725668
120,785.3100000000001,0.015179819659414825
121,794.4,0.015320570246557167
122,805.45,0.015251496207824808
123,814.78,0.015043705820370247
124,824.2099999999999,0.014906953360166978
125,831.763771,0.014047699893826303
126,835.6800000000001,0.013601235372615237
127,845.36,0.014401222496605939
128,855.15,0.01410543061064199
129,865.05,0.014039329714723393
130,875.0600000000001,0.013878089808850143
131,885.2,0.01365480743666685
132,895.45,0.013497516054528905
133,905.8199999999999,0.013189453934258615
134,914.2,0.01315809572134974
135,924.7800000000001,0.021454177309347844
136,935.4899999999999,0.029866936431035905
137,944.15,0.037242389829151554
138,954.992586,0.04098701142153866
139,955.0799999999999,0.04101721364987745
140,963.9200000000001,0.043846582182044666
141,975.0799999999999,0.02484657734256347
142,984.1,0.03828183095796487
143,995.5,0.0367291295627959
144,1004.71,0.041681237988277824
145,1014.0,0.04187417422853047
146,1025.75,0.02858556327298352
147,1035.24,0.037668774050163036
148,1044.8200000000002,0.04633279236895964
149,1054.48,0.04496755850252699
150,1064.24,0.04008132190455778
151,1074.0900000000001,0.04255195284820564
152,1084.03,0.036222921333470603
153,1094.06,0.04284592736035264
154,1096.4782,0.04240807630435902
155,1104.18,0.04101310286289768
156,1114.3999999999999,0.04017135913312897
157,1124.71,0.0366396177090668
158,1135.1200000000001,0.040821817735789676
159,1145.62,0.03907517006821909
160,1156.22,0.03907439385143354
161,1164.23,0.03871600905931541
162,1175.01,0.030128927453942935
163,1185.8799999999999,0.037143498154277
164,1194.1,0.032954785408807453
165,1205.1499999999999,0.028904550720554603
166,1216.3,0.021582607483086783
167,1224.73,0.032055346784265824
168,1236.06,0.036044798158211086
169,1244.63,0.036713935490489194
170,1256.15,0.03579518062092603
171,1258.92541,0.03540751524991778
172,1264.85,0.03458051937259538
173,1273.6200000000001,0.03688162270297195
174,1285.4099999999999,0.036966804397970766
175,1294.32,0.032873788579687424
176,1306.29,0.03294965136926638
177,1315.3500000000001,0.035960266463133155
178,1324.46,0.03458090186104997
179,1333.64,0.032423867684636835
180,1345.98,0.03466071272418607
181,1355.3100000000002,0.03387269945992304
182,1364.71,0.03183215662133008
183,1374.17,0.031758874147597156
184,1383.6899999999998,0.031613422038724276
185,1396.5,0.026420879936343854
186,1406.1799999999998,0.025999238800431094
187,1415.9199999999998,0.02984708802937838
188,1425.74,0.029167947744805727
189,1435.62,0.029710057825093117
190,1442.25,0.029984638142128074
191,1445.43977,0.029852493454423035
192,1445.57,0.029847098203779482
193,1455.59,0.02910145934306903
194,1465.68,0.02785681083961909
195,1475.84,0.02779303269342965
196,1486.07,0.02785683490450072
197,1496.37,0.027475427472832294
198,1503.28,0.026421732739547944
199,1513.7,0.024716855920326096
200,1517.1899999999998,0.025350163732314173
201,1524.19,0.025175819458364758
202,1534.76,0.02270051340470114
203,1545.4,0.021630227708298026
204,1556.11,0.02128505236915542
205,1563.29,0.022544479013875875
206,1574.1299999999999,0.023443764338217068
207,1585.04,0.02366057001981876
208,1596.03,0.023714816109718182
209,1603.39,0.02306946367310851
210,1614.5100000000002,0.022805810426491723
211,1625.6999999999998,0.02233838753713544
212,1633.1999999999998,0.02296341581504678
213,1644.52,0.022806083589174297
214,1655.9199999999998,0.022287321771599537
215,1659.58691,0.02258623439493144
216,1663.57,0.022911048942316145
217,1671.24,0.021482554814894885
218,1675.1,0.023283198682972323
219,1686.7099999999998,0.023230231405350313
220,1694.4899999999998,0.022340091377796543
221,1706.24,0.02178247931818771
222,1714.1200000000001,0.020947413017786208
223,1726.0,0.02075639580347531
224,1733.96,0.02163376248479562
225,1745.98,0.0212398304884979
226,1754.04,0.021884650896970476
227,1766.2,0.020853774118685924
228,1774.3500000000001,0.02075846788159554
229,1786.6499999999999,0.021143836321324157
230,1794.9,0.021936773811386034
231,1803.18,0.0218864224195936
232,1815.68,0.020522588313626744
233,1824.0600000000002,0.02095158064898657
234,1836.71,0.02052326213374812
235,1845.1899999999998,0.01876361819626021
236,1853.7,0.01928928537691798
237,1866.55,0.020196864315984057
238,1875.1699999999998,0.020857775596509316
239,1883.82,0.019738727995180255
240,1896.8799999999999,0.019739234761266093
241,1905.46072,0.020371363962149502
242,1905.64,0.020384555964543867
243,1914.43,0.02001292366299298
244,1923.27,0.018895418959271718
245,1936.6,0.01804571854065131
246,1945.54,0.020904859032589315
247,1954.52,0.02005708760279102
248,1968.0700000000002,0.02214013661462099
249,1977.15,0.02168683038048196
250,1986.28,0.021987031744172558
251,1995.45,0.022037281186126863
252,2004.66,0.021935928706344872
253,2013.9099999999999,0.022189294304826586
254,2023.21,0.02090109750113793
255,2037.2299999999998,0.02259982393256643
256,2046.63,0.023991932324537037
257,2056.08,0.022391868314337274
258,2065.5699999999997,0.022391352382401215
259,2075.11,0.024946624048294785
260,2079.89,0.0334106344008075
261,2084.68,0.03826777427288614
262,2094.31,0.03563298161487305
263,2103.97,0.034742177515557734
264,2113.68,0.03844272101407205
265,2123.44,0.034901222110416005
266,2133.2400000000002,0.03363916128502366
267,2143.09,0.04006666805746094
268,2152.98,0.03988251290816192
269,2162.92,0.03554783535669255
270,2172.9,0.03595849588348687
271,2182.93,0.04312703400811083
272,2187.7616199999998,0.04322201067830142
273,2193.0099999999998,0.043325632917978134
274,2203.13,0.042145900561029036
275,2213.3,0.034420800119312395
276,2223.52,0.03924496159282822
277,2233.7799999999997,0.04962774459853002
278,2244.09,0.04739585951946428
279,2254.4500000000003,0.03748060635563102
280,2264.85,0.03530490472398372
281,2275.31,0.037654525390615375
282,2285.81,0.048949787589433004
283,2296.36,0.041297831703483105
284,2306.96,0.04932675773276566
285,2317.61,0.04298673567728068
286,2322.95,0.03560389022410794
287,2333.67,0.03248998084994841
288,2344.45,0.02410455377406785
289,2355.27,0.04083988823037326
290,2366.14,0.02603063460191113
291,2377.06,0.03247879288868146
292,2382.54,0.021425272798159617
293,2393.54,0.025647134149301896
294,2404.58,0.02565987703263015
295,2415.68,0.029607582214237357
296,2426.83,0.04802090931107704
297,2432.43,0.0480330238171131
298,2443.66,0.05697815397832472
299,2454.94,0.06010786605476881
300,2466.27,0.05225985004644536
301,2477.65,0.04575468595335437
302,2483.36,0.02855945467290186
303,2494.82,0.03466406364418282
304,2506.34,0.052837584913742734
305,2511.88643,0.026149652462452155
306,2512.12,0.02502576390514503
307,2517.91,0.02016775806892905
308,2523.71,0.022422662084463994
309,2535.3599999999997,0.03644423937428849
310,2547.07,0.038355355774618516
311,2552.94,0.06850755875240992
312,2564.72,0.0509398841149964
313,2576.56,0.06519301858808842
314,2582.5,0.05759196052813627
315,2594.42,0.051595803815235666
316,2606.39,0.04424776636108968
317,2612.4,0.03990622726339398
318,2624.46,0.0545963284750063
319,2636.58,0.09644493879712414
320,2642.65,0.130719328809934
321,2654.8500000000004,0.1834603479460592
322,2667.1,0.11798586634093904
323,2673.25,0.13332917516775625
324,2685.59,0.1563628922283944
325,2697.9900000000002,0.11127520839953807
326,2704.21,0.13883341618861172
327,2716.69,0.09857703117376279
328,2722.9500000000003,0.07672525836984016
329,2735.52,0.0995678020207495
330,2748.1499999999996,0.056037844782164385
331,2754.4800000000005,0.0782578909404982
332,2767.2000000000003,0.10464528236767139
333,2773.58,0.11138348778475983
334,2786.38,0.06429076802594039
335,2792.7999999999997,0.028810352850032514
336,2805.69,0.03465040175697137
337,2812.1600000000003,0.0967309658398181
338,2825.14,0.14347212341251525
339,2838.1800000000003,0.13274493009571797
340,2844.72,0.09145074314082116
341,2857.85,0.049952898489782155
342,2864.4399999999996,0.12986834079363996
343,2877.6600000000003,0.18269644480835925
344,2884.0315,0.16694838206832724
345,2884.3,0.16628475026999784
346,2897.61,0.20753394623180932
347,2910.99,0.2840045421723832
348,2931.16,0.2475770360529045
349,2951.48,0.22703342988791647
350,2971.94,0.23575982368045317
351,2992.5400000000004,0.24091401743051458
352,3013.2799999999997,0.24057331113810065
353,3027.19,0.2597171069178751
354,3048.18,0.27471270054961244
355,3069.31,0.3001043941388744
356,3090.58,0.2901793876856611
357,3111.9999999999995,0.3412385811869385
358,3133.57,0.3129428746427067
359,3148.0399999999995,0.31241727025257987
360,3169.8599999999997,0.3492444636324993
361,3191.83,0.3044688569669094
362,3206.56,0.33869695249789994
363,3228.7900000000004,0.28722884575342733
364,3251.17,0.4098547389634455
365,3273.71,0.48198643212492037
366,3288.82,0.47349632754062077
367,3311.31121,0.4407381692888728
368,3311.6200000000003,0.4402884189259951
369,3319.2500000000005,0.4026014746739394
370,3326.8999999999996,0.4102228303058889
371,3334.57,0.4551555858218435
372,3342.26,0.4249156412218032
373,3349.96,0.4596631965637654
374,3357.69,0.4737810517317353
375,3365.43,0.3248898068417077
376,3373.1800000000003,0.3242509618936827
377,3380.96,0.43053421677166526
378,3388.76,0.453053071533653
379,3396.5699999999997,0.3902082262376433
380,3404.4,0.5169303808256386
381,3412.2400000000002,0.4340926353556365
382,3420.11,0.44742928971164203
383,3427.9900000000002,0.4675932440096502
384,3435.9,0.4841865981336659
385,3443.82,0.34686695219968416
386,3451.7599999999998,0.46163680614970753
387,3459.7099999999996,0.4769243600417335
388,3467.69,0.4683745137597671
389,3475.68,0.4706925674198032
390,3483.69,0.4752126209638445
391,3491.73,0.48420867433389336
392,3499.78,0.41037472764594474
393,3507.8399999999997,0.5399091808999986
394,3515.93,0.44103553398006035
395,3524.03,0.4950171870021245
396,3532.16,0.5125841398501962
397,3540.3,0.5443913926402706
398,3548.46,0.5755184453143501
399,3556.64,0.5025917978724346
400,3564.84,0.5276634503145243
401,3573.06,0.381521102640619
402,3581.3,0.42526895485071886
403,3589.55,0.3067788070028213
404,3597.16,0.4421712628667605
405,3599.8999999999996,0.41680284697545883
406,3602.64,0.5015401310841571
407,3605.37,0.34109791525085276
408,3608.11,0.37467919935955096
409,3610.85,0.4380434834682493
410,3613.5899999999997,0.4105423675769475
411,3616.32,0.6495879517436433
412,3619.06,0.5185515358523415
413,3621.8,0.4810553199610397
414,3624.54,0.44308660406973793
415,3627.2700000000004,0.4716841882364336
416,3630.01,0.5017261723451318
417,3632.75,0.4996965564538301
418,3635.4900000000002,0.5448806405625284
419,3638.22,0.5501397247292241
420,3640.9599999999996,0.5558052088379223
421,3643.7000000000003,0.5155420929466206
422,3646.44,0.4887787770553188
423,3649.17,0.5290431612220146
424,3651.91,0.5701924453307128
425,3654.6499999999996,0.5977673294394109
426,3657.39,0.6965055135481093
427,3660.1299999999997,0.6731599976568076
428,3662.86,0.5879690818235032
429,3665.6,0.5382585659322014
430,3668.34,0.6181714500408997
431,3671.08,0.649354334149598
432,3673.81,0.6567351183162936
433,3676.55,0.5621682024249919
434,3679.29,0.5424830865336902
435,3682.03,0.5687781706423884
436,3684.76,0.5602265548090841
437,3687.5,0.5762731389177824
438,3690.2400000000002,0.5880254230264805
439,3692.98,0.5992069071351789
440,3695.71,0.6233610913018744
441,3698.45,0.6405949754105728
442,3701.1899999999996,0.5966139595192711
443,3703.93,0.5457507436279693
444,3706.66,0.48898212779466493
445,3709.4,0.5402303119033631
446,3712.14,0.5673554960120615
447,3714.8799999999997,0.5162271801207597
448,3717.62,0.569659564229458
449,3720.35,0.5707916483961537
450,3723.09,0.5767279325048519
451,3725.83,0.5522009166135501
452,3728.57,0.5644777007222485
453,3731.3,0.5837609848889441
454,3734.04,0.49122896899764235
455,3736.78,0.42043935310634056
456,3739.52,0.4190150372150388
457,3742.2499999999995,0.48374782138173456
458,3744.9900000000002,0.42565640549043277
459,3747.73,0.41977078959913106
460,3750.4700000000003,0.47254057370782926
461,3753.2,0.528218057874525
462,3755.94,0.5219806419832232
463,3758.68,0.5170286260919215
464,3761.4199999999996,0.49732041020061973
465,3764.15,0.4938062943673154
466,3766.89,0.5549687784760137
467,3769.63,0.654543062584712
468,3772.37,0.6133864466934101
469,3775.1099999999997,0.5737113308021085
470,3777.84,0.6720669149688041
471,3780.58,0.6885512990775023
472,3783.32,0.6270474831862006
473,3786.06,0.5543095672948988
474,3788.7900000000004,0.5933290514615945
475,3791.53,0.5474287355702927
476,3794.27,0.551180419678991
477,3797.01,0.5563616037876893
478,3799.74,0.5671196879543849
479,3801.8939600000003,0.5629549073291178
480,3802.4799999999996,0.5618217727712809
481,3805.2200000000003,0.619323760191121
482,3807.96,0.5484188476109613
483,3810.69,0.5208051350767146
484,3813.43,0.4801098224965547
485,3816.1699999999996,0.4533003099163949
486,3818.91,0.4421000973362351
487,3821.64,0.4127047848019883
488,3824.38,0.36883937222182855
489,3827.12,0.35939725964166874
490,3829.86,0.41288764706150893
491,3832.6,0.31332393448134915
492,3835.33,0.31857622194710233
493,3838.07,0.38093190936694254
494,3840.81,0.46468389678678274
495,3843.55,0.514606184206623
496,3846.28,0.4606156716723761
497,3849.0200000000004,0.5743352590922163
498,3851.76,0.5287116465120565
499,3854.5,0.4478061339318968
500,3857.23,0.53008492139765
501,3859.97,0.47775770881749013
502,3862.7099999999996,0.5415541962373304
503,3865.4500000000003,0.5367577836571705
504,3868.18,0.5507724711229238
505,3870.92,0.45545635854276395
506,3873.66,0.47240804596260416
507,3876.3999999999996,0.5204339333824444
508,3879.13,0.5642318208481976
509,3881.87,0.5222164082680377
510,3884.61,0.593558095687878
511,3887.35,0.5701378831077182
512,3890.09,0.5463025705275584
513,3892.82,0.5864114579933115
514,3895.56,0.6346563454131517
515,3898.3,0.7009427328329919
516,3901.04,0.6398424202528321
517,3903.7699999999995,0.6688385077185854
518,3906.51,0.6773684951384256
519,3909.25,0.6768489825582658
520,3911.9900000000002,0.718291969978106
521,3914.72,0.6538518574438592
522,3917.46,0.6591540448636994
523,3920.2,0.6507376322835396
524,3922.9399999999996,0.5195229197033798
525,3925.67,0.45760090716913304
526,3928.41,0.3807012945889732
527,3931.15,0.3451708820088134
528,3933.89,0.3727573694286536
529,3936.6200000000003,0.42690695689440683
530,3939.36,0.509915444314247
531,3942.1,0.5921168317340872
532,3944.84,0.6481431191539274
533,3947.58,0.6689508065737676
534,3950.3100000000004,0.6744291940395208
535,3953.05,0.648489881459361
536,3955.79,0.6395547688792013
537,3958.53,0.6220888562990414
538,3961.2599999999998,0.4789969437647946
539,3963.9999999999995,0.3730807311846348
540,3966.7400000000002,0.417492718604475
541,3969.48,0.4689252060243152
542,3972.21,0.5647900934900684
543,3974.95,0.6671082809099086
544,3977.69,0.7510328683297488
545,3980.43,0.804868655749589
546,3983.16,0.8576709432153422
547,3985.9,0.8994599306351825
548,3988.64,0.9089695180550227
549,3991.38,0.9329471054748628
550,3994.11,0.921537692940616
551,3996.85,0.9241303803604562
552,3999.59,0.9250514677802965
553,4002.33,0.9270677552001367
554,4005.07,0.9710468426199769
555,4007.8,0.97381733008573
556,4010.5400000000004,1.0082852175055703
557,4013.28,1.0560682049254104
558,4016.02,1.0438471923452506
559,4018.75,1.0152611798110038
560,4021.49,1.0439081672308441
561,4024.2299999999996,1.0016561546506844
562,4026.9700000000003,0.9986572420705244
563,4029.7,0.9831555295362777
564,4032.44,0.9411340169561179
565,4035.18,0.9721437043759581
566,4037.9199999999996,1.0079950917957983
567,4040.65,0.9852308792615515
568,4043.39,0.9618848666813917
569,4046.13,0.953698754101232
570,4048.87,0.9367511415210721
571,4051.6000000000004,0.9558338289868252
572,4054.34,0.9392321164066655
573,4057.08,0.9153675038265057
574,4059.82,0.911043491246346
575,4062.5499999999997,0.9052826787120991
576,4065.29,0.9203259661319393
577,4068.03,0.9416519535517796
578,4070.7700000000004,0.9150207409716197
579,4073.51,0.9287382283914599
580,4076.24,0.9664390158572131
