,lambda (Angstroms),Total Flux (erg/s/cm^2/Angstrom)
0,100.00999999999999,0.0053933558747065805
1,102.10000000000001,0.006624912034530228
2,104.0,0.007744091569824436
3,104.712855,0.008164227620079989
4,105.94,0.0075630782670810855
5,107.89999999999999,0.006603354856789338
6,109.91000000000001,0.0056238566592962565
7,114.03999999999999,0.0036032421604672194
8,118.04,0.001646599174361598
9,120.22644299999999,0.000619170392208908
10,121.07,0.0006177188840748309
11,125.03999999999999,0.0005501674111290953
12,127.07,0.0005153490561971449
13,127.95,0.0005023762841084175
14,130.93,0.00045270221726249996
15,132.14,0.0004455531431405005
16,133.98,0.00041753351059134334
17,137.1,0.00038640056409494655
18,138.038426,0.00037381083286886483
19,139.97,0.0003902230769620134
20,142.9,0.0005980328273824155
21,146.91,0.0009399261636233072
22,151.02,0.0010384410763290587
23,154.9,0.001154265103165632
24,158.489319,0.0012730463605753783
25,158.86999999999998,0.0012854803915889087
26,161.82,0.0013888321782946893
27,165.97,0.0015396548273892622
28,169.84,0.0016841626085931172
29,173.0,0.0018130475462169366
30,177.03,0.0019780401090726306
31,179.89999999999998,0.0021094815049524916
32,181.970086,0.002201090075886956
33,181.99,0.0022020037855598282
34,185.79999999999998,0.002397022041848812
35,191.0,0.002651379648857398
36,194.11,0.00282284424651061
37,198.17000000000002,0.0030404806665980826
38,201.85999999999999,0.003274437324263791
39,205.14000000000001,0.0034562813532999764
40,208.929613,0.003609764688110337
41,209.91,0.003651444085901504
42,215.79000000000002,0.0041639308701838995
43,219.81,0.004462946273723905
44,222.86,0.004643807134618685
45,227.01,0.004954036683049287
46,230.17,0.00746775651269765
47,233.91,0.012472898450319445
48,239.88329199999998,0.016804453883550553
49,239.91,0.016823703960885873
50,246.06,0.01654552064476925
51,251.79,0.018033370725850845
52,257.06,0.014810663575292374
53,260.04,0.018141290423743184
54,264.27,0.0195536069233898
55,269.18,0.01995194411328694
56,274.18,0.02026386271807018
57,275.42287,0.020295280565175565
58,279.28000000000003,0.020408607825045236
59,283.82,0.02093921578910875
60,289.76,0.020431189645174225
61,295.83000000000004,0.020965488905497032
62,301.33,0.020223100624076177
63,308.35,0.021086782453971744
64,316.227766,0.022059808707821763
65,317.72,0.022238645898739483
66,328.13,0.022581432297119734
67,338.1,0.022617931460602064
68,348.37,0.02260244510242388
69,357.31,0.022952682556940638
70,363.078055,0.023424671358460887
71,365.63,0.02364054262251498
72,375.01,0.02359743244691777
73,384.63,0.02265708292780848
74,395.4,0.023677266137703802
75,404.60999999999996,0.024125720080427654
76,414.04,0.02397199045826543
77,416.86938299999997,0.023815523825245686
78,421.74,0.023543816158430802
79,429.58000000000004,0.02322954291597135
80,440.6,0.023504450348126555
81,450.86,0.023245405543581406
82,460.3,0.022727464904701657
83,469.94,0.02252776959126937
84,478.630092,0.022579848334120283
85,479.78,0.02258480851183752
86,489.82,0.021816513232513313
87,500.08,0.022157218355434986
88,505.87,0.02160328212363348
89,511.73,0.023127499201637473
90,520.04,0.02270219212283427
91,529.7099999999999,0.022028609348823804
92,539.56,0.02084413508574179
93,549.5408739999999,0.02036634104248357
94,549.59,0.020364020903393096
95,559.8100000000001,0.021167371806003546
96,570.22,0.02135861379193063
97,579.48,0.020873142378835988
98,590.26,0.020679669632274408
99,599.85,0.019706955890203392
100,609.59,0.01753641563496129
101,619.5,0.019881932664791973
102,629.56,0.019253103181451577
103,630.957344,0.019282934741360076
104,639.79,0.019477931754710437
105,650.1899999999999,0.01895443874558108
106,657.72,0.01836078613416338
107,665.3299999999999,0.018703206961136993
108,674.59,0.01866373745493143
109,685.5500000000001,0.017633108514541255
110,695.09,0.018043876042705284
111,704.76,0.016854487908255198
112,716.21,0.01760564377801182
113,724.43596,0.01744456286387934
114,726.17,0.017410294449004195
115,734.5799999999999,0.017214204494504885
116,744.8000000000001,0.01679083498975067
117,755.16,0.016490248779451877
118,765.67,0.01502258824178389
119,774.53,0.016013635305177007
120,785.3100000000001,0.015303398978244476
121,794.4,0.0154455907396715
122,805.45,0.015378268623474425
123,814.78,0.015171957461110743
124,824.2099999999999,0.015036700080500934
125,831.763771,0.014178644226978475
126,835.6800000000001,0.013730826117845712
127,845.36,0.014527467489817819
128,855.15,0.014228291831925975
129,865.05,0.014158769144170177
130,875.0600000000001,0.013994069426550427
131,885.2,0.013767282310000548
132,895.45,0.013606448163586716
133,905.8199999999999,0.013294801802775846
134,914.2,0.01326054716404922
135,924.7800000000001,0.02155297192804353
136,935.4899999999999,0.029962029293107713
137,944.15,0.03733448948745466
138,954.992586,0.0410753634967843
139,955.0799999999999,0.04110556094963233
140,963.9200000000001,0.043934446546133994
141,975.0799999999999,0.02493383202769041
142,984.1,0.0383685928738946
143,995.5,0.036815268688387706
144,1004.71,0.04176687396483346
145,1014.0,0.04195930268559143
146,1025.75,0.028670049818950556
147,1035.24,0.03775274215048911
148,1044.8200000000002,0.04641623710687893
149,1054.48,0.045050475507580984
150,1064.24,0.04016370571367333
151,1074.0900000000001,0.042633798544616935
152,1084.03,0.036304224000411806
153,1094.06,0.042926682081057925
154,1096.4782,0.04248869891702964
155,1104.18,0.04109240858869303
156,1114.3999999999999,0.040248917399386915
157,1124.71,0.036715413127200405
158,1135.1200000000001,0.040895833207369024
159,1145.62,0.03914739020465727
160,1156.22,0.039144801554300626
161,1164.23,0.03878504717794622
162,1175.01,0.03019612236182881
163,1185.8799999999999,0.037208834462831006
164,1194.1,0.03301871622642237
165,1205.1499999999999,0.028966592161663803
166,1216.3,0.021642742449260354
167,1224.73,0.03211404035279748
168,1236.06,0.036101554474633264
169,1244.63,0.03676922647146757
170,1256.15,0.03584850186277808
171,1258.92541,0.03546036194023611
172,1264.85,0.03463343811778615
173,1273.6200000000001,0.036934648108915835
174,1285.4099999999999,0.037019973193912294
175,1294.32,0.03292706573906228
176,1306.29,0.03300307410779914
177,1315.3500000000001,0.03601379938939947
178,1324.46,0.03463454558314991
179,1333.64,0.03247762305391051
180,1345.98,0.0347146181725582
181,1355.3100000000002,0.033926718379769134
182,1364.71,0.03188628986399023
183,1374.17,0.03181312244279146
184,1383.6899999999998,0.03166778611617282
185,1396.5,0.026475399809031564
186,1406.1799999999998,0.026053876401293283
187,1415.9199999999998,0.02990184408813514
188,1425.74,0.029222823234417175
189,1435.62,0.029765053475279347
190,1442.25,0.03003971442638422
191,1445.43977,0.029907608532666694
192,1445.57,0.029902214611338445
193,1455.59,0.029156678029207097
194,1465.68,0.02791213251885727
195,1475.84,0.027848458080288952
196,1486.07,0.02791236471350216
197,1496.37,0.027531062418496878
198,1503.28,0.026477438218643824
199,1513.7,0.02477266776097829
200,1517.1899999999998,0.025406011196942517
201,1524.19,0.02523173837509427
202,1534.76,0.022756540214103418
203,1545.4,0.021686363124894078
204,1556.11,0.02134129710746626
205,1563.29,0.022600797041627627
206,1574.1299999999999,0.0235001930146512
207,1585.04,0.023717110059456287
208,1596.03,0.02377146832915454
209,1603.39,0.023126191019325525
210,1614.5100000000002,0.022862651279475166
211,1625.6999999999998,0.022395342611406324
212,1633.1999999999998,0.023020447445140344
213,1644.52,0.022863230767522894
214,1655.9199999999998,0.022344585314798604
215,1659.58691,0.022643535367905407
216,1663.57,0.022968646826948432
217,1671.24,0.021540724444684654
218,1675.1,0.023341656048916967
219,1686.7099999999998,0.023289554216050938
220,1694.4899999999998,0.022399994133389636
221,1706.24,0.02184325795456312
222,1714.1200000000001,0.021008779053358618
223,1726.0,0.020818647410425935
224,1733.96,0.021696607454386865
225,1745.98,0.0213035714654937
226,1754.04,0.021948992690911426
227,1766.2,0.02091902235605777
228,1774.3500000000001,0.020824323644786615
229,1786.6499999999999,0.021210608963972474
230,1794.9,0.02200416143415811
231,1803.18,0.02195442725878079
232,1815.68,0.020591524940880238
233,1824.0600000000002,0.021021141946959712
234,1836.71,0.02059376640124436
235,1845.1899999999998,0.018834754588780627
236,1853.7,0.019361056130753933
237,1866.55,0.02026959294795217
238,1875.1699999999998,0.02093114678952795
239,1883.82,0.01981274398554077
240,1896.8799999999999,0.01981422428379828
241,1905.46072,0.02044699311768139
242,1905.64,0.020460167893631604
243,1914.43,0.020087690988978935
244,1923.27,0.018969336877815154
245,1936.6,0.018118355621953935
246,1945.54,0.020976637097767942
247,1954.52,0.020128002808373062
248,1968.0700000000002,0.02220974984386297
249,1977.15,0.021755571141445877
250,1986.28,0.022054895232517677
251,1995.45,0.022104263558380587
252,2004.66,0.022002026119034616
253,2013.9099999999999,0.022254502914479755
254,2023.21,0.02096541250341379
255,2037.2299999999998,0.02266279179769929
256,2046.63,0.02405399697361111
257,2056.08,0.02245302494301182
258,2065.5699999999997,0.022451597147203645
259,2075.11,0.025005952144884363
260,2079.89,0.0334695032024225
261,2084.68,0.03832618281865842
262,2094.31,0.035690464844619144
263,2103.97,0.0347987325466732
264,2113.68,0.03849834304221615
265,2123.44,0.034955906331248
266,2133.2400000000002,0.03369290385507096
267,2143.09,0.04011946417238282
268,2152.98,0.03993435872448578
269,2162.92,0.03559872607007764
270,2172.9,0.03600842765046061
271,2182.93,0.043176002024332485
272,2187.7616199999998,0.043270514439547124
273,2193.0099999999998,0.043374538753934405
274,2203.13,0.0421955816830871
275,2213.3,0.03447126035793718
276,2223.52,0.03929620477848466
277,2233.7799999999997,0.049679773795590056
278,2244.09,0.047448678558392854
279,2254.4500000000003,0.03753421906689305
280,2264.85,0.03535931417195115
281,2275.31,0.03770973617184612
282,2285.81,0.049005802768299016
283,2296.36,0.04135465511044931
284,2306.96,0.04938439319829698
285,2317.61,0.043045187031842055
286,2322.95,0.03566275067232382
287,2333.67,0.032549662549845246
288,2344.45,0.02416506132220355
289,2355.27,0.04090122469111977
290,2366.14,0.026092803805733384
291,2377.06,0.03254179866604439
292,2382.54,0.021488698394478853
293,2393.54,0.025711402447905693
294,2404.58,0.02572499109789045
295,2415.68,0.029673546642712077
296,2426.83,0.04808772793323111
297,2432.43,0.04810027145133931
298,2443.66,0.05704626193497417
299,2454.94,0.06017683816430642
300,2466.27,0.05232969013933607
301,2477.65,0.04582539786006311
302,2483.36,0.028630604018705583
303,2494.82,0.03473609093254845
304,2506.34,0.0529104947412282
305,2511.88643,0.026222987198049635
306,2512.12,0.025099091715435097
307,2517.91,0.020240914206787152
308,2523.71,0.02249564625339198
309,2535.3599999999997,0.036516878122865463
310,2547.07,0.03842764732385555
311,2552.94,0.06857967625722974
312,2564.72,0.051011652344989195
313,2576.56,0.06526443576426524
314,2582.5,0.05766320158440881
315,2594.42,0.05166669144570701
316,2606.39,0.04431829908326903
317,2612.4,0.03997658179018196
318,2624.46,0.05466632542501889
319,2636.58,0.09651457639137243
320,2642.65,0.13078878642980196
321,2654.8500000000004,0.18352944383817762
322,2667.1,0.11805459902281712
323,2673.25,0.13339772550326878
324,2685.59,0.1564310766851832
325,2697.9900000000002,0.11134302519861419
326,2704.21,0.1389010485658352
327,2716.69,0.09864429352128837
328,2722.9500000000003,0.07679233510952048
329,2735.52,0.09963450606224851
330,2748.1499999999996,0.05610417434649316
331,2754.4800000000005,0.07832403282149462
332,2767.2000000000003,0.10471104710301417
333,2773.58,0.11144906335427948
334,2786.38,0.06435596407782117
335,2792.7999999999997,0.02887535855009754
336,2805.69,0.03471502527091412
337,2812.1600000000003,0.09679539751945433
338,2825.14,0.1435361702375458
339,2838.1800000000003,0.13280859028715392
340,2844.72,0.09151420942246348
341,2857.85,0.050015975469346476
342,2864.4399999999996,0.1299312223809199
343,2877.6600000000003,0.1827589344250778
344,2884.0315,0.16701068277124606
345,2884.3,0.1663470508099935
346,2897.61,0.207596238695428
347,2910.99,0.2840668265171496
348,2931.16,0.2476393081587134
349,2951.48,0.2270956896637494
350,2971.94,0.23582207104135952
351,2992.5400000000004,0.24097625229154368
352,3013.2799999999997,0.2406355334143019
353,3027.19,0.25977932075362525
354,3048.18,0.2747749016488372
355,3069.31,0.3001665824166232
356,3090.58,0.2902415630569833
357,3111.9999999999995,0.3413007435608155
358,3133.57,0.31300502392812
359,3148.0399999999995,0.31247941075773966
360,3169.8599999999997,0.3493065908974978
361,3191.83,0.3045309709007282
362,3206.56,0.3387590574936997
363,3228.7900000000004,0.28729093726028193
364,3251.17,0.4099168168903364
365,3273.71,0.48204849637476116
366,3288.82,0.4735583826218623
367,3311.31121,0.4408002107226695
368,3311.6200000000003,0.4403504567779851
369,3319.2500000000005,0.40266342402181826
370,3326.8999999999996,0.41028469091766673
371,3334.57,0.4552173574655305
372,3342.26,0.4249773236654095
373,3349.96,0.4597247896912962
374,3357.69,0.47384255519520585
375,3365.43,0.3249512205251231
376,3373.1800000000003,0.32431228568104803
377,3380.96,0.4305954503149958
378,3388.76,0.45311421460095896
379,3396.5699999999997,0.39026927871292977
380,3404.4,0.5169913424769158
381,3412.2400000000002,0.43415350606690956
382,3420.11,0.44749006913492617
383,3427.9900000000002,0.4676539320289505
384,3435.9,0.48424719440099767
385,3443.82,0.34692745659905255
386,3451.7599999999998,0.4616972184491227
387,3459.7099999999996,0.47698468012520057
388,3467.69,0.4684347412793013
389,3475.68,0.4707527022594097
390,3483.69,0.47527266289153336
391,3491.73,0.48426862300168
392,3499.78,0.41043458293783425
393,3507.8399999999997,0.5399689426999961
394,3515.93,0.441095201940181
395,3524.03,0.4950767610063735
396,3532.16,0.5126436195505889
397,3540.3,0.5444507779208119
398,3548.46,0.5755777359430503
399,3556.64,0.5026509936173039
400,3564.84,0.5277225509435729
401,3573.06,0.3815801079218571
402,3581.3,0.4253278645521566
403,3589.55,0.3068376210084638
404,3597.16,0.4422299886002816
405,3599.8999999999996,0.41686154092637645
406,3602.64,0.5015987932524711
407,3605.37,0.34115654575255827
408,3608.11,0.374737798078653
409,3610.85,0.43810205040474776
410,3613.5899999999997,0.4106009027308425
411,3616.32,0.6496464552309296
412,3619.06,0.5186100075570244
413,3621.8,0.48111375988311905
414,3624.54,0.44314501220921376
415,3627.2700000000004,0.47174256470930087
416,3630.01,0.5017845170353956
417,3632.75,0.4997548693614904
418,3635.4900000000002,0.5449389216875852
419,3638.22,0.5501979741876722
420,3640.9599999999996,0.555863426513767
421,3643.7000000000003,0.5156002788398617
422,3646.44,0.48883693116595645
423,3649.17,0.5291012836660436
424,3651.91,0.5702505359921383
425,3654.6499999999996,0.597825388318233
426,3657.39,0.6965635406443278
427,3660.1299999999997,0.6732179929704225
428,3662.86,0.5880270454705095
429,3665.6,0.5383164977966043
430,3668.34,0.6182293501226991
431,3671.08,0.6494122024487938
432,3673.81,0.6567929549488809
433,3676.55,0.5622260072749756
434,3679.29,0.5425408596010703
435,3682.03,0.5688359119271652
436,3684.76,0.5602842644272522
437,3687.5,0.5763308167533471
438,3690.2400000000002,0.5880830690794417
439,3692.98,0.5992645214055365
440,3695.71,0.6234186739056236
441,3698.45,0.6406525262317183
442,3701.1899999999996,0.5966714785578131
443,3703.93,0.5458082308839078
444,3706.66,0.4890395833839949
445,3709.4,0.5402877357100896
446,3712.14,0.5674128880361844
447,3714.8799999999997,0.5162845403622791
448,3717.62,0.5697168926883739
449,3720.35,0.570848945188461
450,3723.09,0.5767851975145557
451,3725.83,0.5522581498406504
452,3728.57,0.5645349021667452
453,3731.3,0.5838181546668323
454,3734.04,0.491286106992927
455,3736.78,0.42049645931902174
456,3739.52,0.4190721116451165
457,3742.2499999999995,0.48380486414520363
458,3744.9900000000002,0.42571341647129834
459,3747.73,0.4198277687973931
460,3750.4700000000003,0.4725975211234878
461,3753.2,0.528274973623575
462,3755.94,0.5220375259496697
463,3758.68,0.5170854782757645
464,3761.4199999999996,0.4973772306018592
465,3764.15,0.4938630831019462
466,3766.89,0.555025535428041
467,3769.63,0.6545997877541357
468,3772.37,0.6134431400802305
469,3775.1099999999997,0.5737679924063253
470,3777.84,0.6721235449064124
471,3780.58,0.688607897232507
472,3783.32,0.6271040495586018
473,3786.06,0.5543661018846965
474,3788.7900000000004,0.5933855543847836
475,3791.53,0.5474852067108783
476,3794.27,0.5512368590369731
477,3797.01,0.5564180113630678
478,3799.74,0.5671760638631549
479,3801.8939600000003,0.5630112582530495
480,3802.4799999999996,0.5618781183138427
481,3805.2200000000003,0.6193800805733632
482,3807.96,0.5484751428328839
483,3810.69,0.5208614052301436
484,3813.43,0.4801660674896641
485,3816.1699999999996,0.4533565297491848
486,3818.91,0.4421562920087054
487,3821.64,0.41276095440596494
488,3824.38,0.3688955166654856
489,3827.12,0.3594533789250062
490,3829.86,0.4129437411845268
491,3832.6,0.31338000344404743
492,3835.33,0.318632265841307
493,3838.07,0.3809879281008276
494,3840.81,0.46473989036034824
495,3843.55,0.5146621526198688
496,3846.28,0.4606716150171284
497,3849.0200000000004,0.574391177276649
498,3851.76,0.5287675395361696
499,3854.5,0.4478620017956903
500,3857.23,0.5301407641929499
501,3859.97,0.47781352645247044
502,3862.7099999999996,0.5416099887119911
503,3865.4500000000003,0.5368135509715116
504,3868.18,0.5508282133687713
505,3870.92,0.4555120756282919
506,3873.66,0.4724637378878125
507,3876.3999999999996,0.5204896001473331
508,3879.13,0.5642874625445927
509,3881.87,0.5222720248041133
510,3884.61,0.5936136870636339
511,3887.35,0.5701934493231545
512,3890.09,0.5463581115826751
513,3892.82,0.5864669739799347
514,3895.56,0.6347118362394554
515,3898.3,0.7009981984989759
516,3901.04,0.6398978607584965
517,3903.7699999999995,0.6688939231557562
518,3906.51,0.6774238854152768
519,3909.25,0.6769043476747973
520,3911.9900000000002,0.718347309934318
521,3914.72,0.6539071723315776
522,3917.46,0.6592093345910982
523,3920.2,0.6507928968506188
524,3922.9399999999996,0.5195781591101394
525,3925.67,0.45765612150739904
526,3928.41,0.3807564837669196
527,3931.15,0.34522604602644025
528,3933.89,0.37281250828596085
529,3936.6200000000003,0.42696207068322045
530,3939.36,0.509970532942741
531,3942.1,0.5921718952022618
532,3944.84,0.6481981574617823
533,3947.58,0.6690058197213029
534,3950.3100000000004,0.6744841821185624
535,3953.05,0.6485448443780831
536,3955.79,0.6396097066376037
537,3958.53,0.6221437688971243
538,3961.2599999999998,0.4790518312943839
539,3963.9999999999995,0.3731355935539045
540,3966.7400000000002,0.4175475558134251
541,3969.48,0.4689800180729457
542,3972.21,0.5648448804702053
543,3974.95,0.6671630427297259
544,3977.69,0.7510876049892465
545,3980.43,0.8049233672487671
546,3983.16,0.8577256296460267
547,3985.9,0.8995145919055474
548,3988.64,0.909024154165068
549,3991.38,0.9330017164245885
550,3994.11,0.9215922788218481
551,3996.85,0.9241849410813687
552,3999.59,0.9251060033408893
553,4002.33,0.9271222656004101
554,4005.07,0.9711013278599306
555,4007.8,0.9738717902571902
556,4010.5400000000004,1.008339652516711
557,4013.28,1.0561226147762315
558,4016.02,1.043901577035752
559,4018.75,1.0153155394330116
560,4021.49,1.0439625016925322
561,4024.2299999999996,1.0017104639520529
562,4026.9700000000003,0.9987115262115734
563,4029.7,0.9832097886088331
564,4032.44,0.9411882508683537
565,4035.18,0.9721979131278743
566,4037.9199999999996,1.0080492753873949
567,4040.65,0.9852850377846545
568,4043.39,0.9619390000441751
569,4046.13,0.9537528623036957
570,4048.87,0.9368052245632162
571,4051.6000000000004,0.9558878869604759
572,4054.34,0.9392861492199965
573,4057.08,0.9154215114795171
574,4059.82,0.9110974737390378
575,4062.5499999999997,0.9053366361362973
576,4065.29,0.9203798983958179
577,4068.03,0.9417058606553387
578,4070.7700000000004,0.9150746229148592
579,4073.51,0.9287920851743798
580,4076.24,0.9664928475716394
