,lambda (Angstroms),Total Flux (erg/s/cm^2/Angstrom)
0,100.1,0.051905716124039054
1,101.96000000000001,0.062351426716439534
2,104.10000000000001,0.07436960655119194
3,104.712855,0.07781138568286075
4,106.03,0.07163945871729932
5,108.0,0.06240836822367245
6,110.01,0.0529898819757917
7,113.88000000000001,0.03485575826895715
8,117.88,0.016112506444272683
9,120.22644299999999,0.005118375545179087
10,120.9,0.0049726057769206985
11,124.86,0.004114616767231388
12,126.89,0.0036747984993780293
13,128.07,0.0034191638081726297
14,131.05,0.0027735966066539013
15,131.96,0.0025769328609954994
16,134.1,0.0021134090106229957
17,136.91,0.001505638241633863
18,138.038426,0.0012613382224568894
19,140.1,0.001246222244644325
20,143.03,0.0012348896155417236
21,147.04,0.0012301029321214398
22,151.16,0.0012061508692058364
23,155.04,0.0011857563779163849
24,158.489319,0.001168586851391388
25,159.01999999999998,0.0011637651973907422
26,161.97,0.0011378109728092346
27,166.13,0.0011029203675688717
28,170.0,0.001071388182982284
29,173.16000000000003,0.001046334478617008
30,177.19,0.0010155146622904067
31,180.07,0.0009952140709701554
32,181.970086,0.0009820351634309003
33,182.14999999999998,0.000983585307411356
34,185.97,0.0010184947672640297
35,191.18,0.0010660593727175448
36,193.83999999999997,0.0010957647175364221
37,197.89999999999998,0.0011361093701547087
38,202.04,0.0011808027203615325
39,204.85,0.001213765698158918
40,208.929613,0.0012484714285488322
41,210.10999999999999,0.00128118448705822
42,215.99,0.0014813144224942083
43,220.01,0.0016127984742718732
44,223.07,0.001706778895774275
45,227.22,0.0018463253308183822
46,229.85,0.002191083884593322
47,234.11999999999998,0.0028785920734218364
48,239.88329199999998,0.0034068899582915136
49,240.13,0.0034191593320601764
50,245.72,0.0033298609644560563
51,252.01999999999998,0.003412338718319034
52,256.71,0.0030847909573059173
53,260.28,0.0033310957511616043
54,263.9,0.0034319505113177915
55,268.81,0.0034234958020268732
56,273.8,0.003405573838816755
57,275.42287,0.0034000340714445314
58,278.89,0.003523980224055693
59,284.08,0.003710519407075805
60,290.03000000000003,0.0038071411641027162
61,296.1,0.004074770538078068
62,300.91,0.004203343434094781
63,307.92,0.004486650307499594
64,316.227766,0.00482337257852654
65,318.01000000000005,0.004833170050408564
66,327.66999999999996,0.004827639915011015
67,337.63,0.004792776203979999
68,347.89,0.0047417779173155195
69,356.81,0.004730006601813847
70,363.078055,0.004757119924961708
71,365.96999999999997,0.004845895843814289
72,375.34999999999997,0.005067421549909104
73,384.97999999999996,0.005152384280153568
74,394.86,0.0056240490345476814
75,404.99,0.006038948813091444
76,414.42,0.006336789524016189
77,416.86938299999997,0.006399598938980285
78,422.12,0.00650996051114754
79,429.97,0.0067087705184037385
80,441.0,0.007308118765542066
81,451.27,0.007753825710067054
82,459.66,0.00794714111654852
83,470.37,0.008475236867849652
84,478.630092,0.009213917068034642
85,480.22,0.009330612563055594
86,490.28000000000003,0.009288934569703176
87,500.54,0.010622329769325858
88,506.34,0.010470099365603789
89,512.2,0.013927523319774248
90,520.52,0.014450870947538452
91,530.1999999999999,0.01496111068753334
92,540.06,0.014420153501205821
93,549.5408739999999,0.015472687164315794
94,550.1,0.015538189141716757
95,560.33,0.019891119341393322
96,569.43,0.023287214230646183
97,580.02,0.02471054886550198
98,589.44,0.027465736586025268
99,600.4,0.026490006057037503
100,610.16,0.027585117410785624
101,620.07,0.036075154779191765
102,630.14,0.03735142856323311
103,630.957344,0.03779870175686407
104,640.38,0.043020523553416956
105,649.29,0.045223592421443824
106,658.33,0.04515736995982349
107,664.42,0.051901947670966425
108,675.2099999999999,0.05733271731024923
109,684.6099999999999,0.054363721166528975
110,695.7299999999999,0.06584377743055352
111,705.4100000000001,0.05941530842297776
112,715.22,0.07699568808575481
113,724.43596,0.08185418310050638
114,725.17,0.08223989397628327
115,735.26,0.08684378884092708
116,745.49,0.0900681915134054
117,755.86,0.0946830919937182
118,764.61,0.09134244498337461
119,775.25,0.10558877837879684
120,784.22,0.10419034078076461
121,795.13,0.11565980709129622
122,804.34,0.1235392143066946
123,815.53,0.1295943162328952
124,824.97,0.1378124455611645
125,831.763771,0.12363393199458374
126,834.53,0.11784087821081332
127,844.1899999999999,0.1471544725352108
128,855.9300000000001,0.15082747329798782
129,865.8499999999999,0.16143758092718274
130,875.87,0.16891809367360747
131,886.01,0.1763456125607079
132,894.21,0.18328033217355047
133,904.5699999999999,0.18618226231855645
134,915.04,0.1979775480925152
135,925.64,0.5976019905188726
136,934.2,1.0962819285537424
137,945.02,1.7935093822380055
138,954.992586,2.3035423068222927
139,955.96,2.353023272911435
140,964.81,2.6766623503912945
141,975.98,0.7347449131540097
142,985.0100000000001,2.3367925498368494
143,994.12,2.3912104239432357
144,1005.64,3.262435412933968
145,1014.94,3.210346138421278
146,1024.33,1.6932027935100777
147,1036.19,2.532791516550884
148,1045.78,4.22189801519855
149,1055.46,4.154421443447707
150,1065.22,3.4319578091204113
151,1075.0800000000002,3.9766350965725485
152,1085.03,3.3154003136261756
153,1095.07,4.1831434602812925
154,1096.4782,4.1647078669727575
155,1105.2,4.0505110063988425
156,1115.43,3.958292961700292
157,1125.75,3.57694969666715
158,1136.1599999999999,4.390288211299416
159,1144.04,4.087871919781862
160,1154.62,4.270690018226567
161,1165.31,4.370030847373439
162,1176.0900000000001,3.1011274561857185
163,1184.24,4.25096150366439
164,1195.2,3.2397796718074874
165,1206.26,2.573593595134372
166,1214.6200000000001,1.847563128498997
167,1225.86,3.187880611156699
168,1234.3600000000001,4.390017801778626
169,1245.78,4.736528843767146
170,1254.41,4.596859716127996
171,1258.92541,4.424619023191629
172,1266.02,4.154013897096999
173,1274.7900000000002,5.063586424271235
174,1283.63,5.253543963635001
175,1295.51,4.379892032372731
176,1304.49,4.359728596115563
177,1313.53,5.217439170306563
178,1325.6899999999998,5.028606287802423
179,1334.87,4.596841886372488
180,1344.13,5.253535498873447
181,1353.4399999999998,5.122210120081214
182,1365.97,4.6930683020074575
183,1375.44,4.846827951077013
184,1384.97,4.880411610594738
185,1394.57,4.115951282301996
186,1404.24,4.192444966198785
187,1413.97,4.607494660543745
188,1423.77,4.650067367078237
189,1433.6399999999999,4.693094085802261
190,1443.58,4.891690816715817
191,1445.43977,4.916951061689168
192,1446.9099999999999,4.936920355444194
193,1453.59,4.813437331730887
194,1463.6599999999999,4.523406803468459
195,1473.8100000000002,4.533821286898088
196,1484.02,4.60750377909676
197,1494.3100000000002,4.650087282987487
198,1504.6699999999998,4.440826797108763
199,1511.61,4.050137811394638
200,1518.59,4.27040683152654
201,1525.6,4.182860856042964
202,1536.17,3.676914400855888
203,1543.26,3.779938437064368
204,1553.96,3.643228000876883
205,1564.73,3.832483574919948
206,1575.58,4.078284160655068
207,1586.5000000000002,4.231262756620739
208,1593.82,4.30994882644388
209,1604.87,4.211827441409141
210,1616.0,4.202146068066458
211,1623.4599999999998,4.059502158350698
212,1634.71,4.2802588025461
213,1646.04,4.319861458433557
214,1653.64,4.097035569178896
215,1659.58691,4.243847276187843
216,1665.1,4.379954322506761
217,1672.7900000000002,3.9762665301300144
218,1676.64,4.451158639278196
219,1684.38,4.5548069002670095
220,1696.0600000000002,4.329854366462015
221,1703.89,4.192530723508837
222,1715.7,4.003883328454299
223,1723.62,3.967171781559132
224,1735.56,4.202286525255054
225,1743.5700000000002,4.116086074417895
226,1755.66,4.319992978210498
227,1763.76,4.050282623431349
228,1775.99,4.087745676647524
229,1784.19,4.163757428599497
230,1796.5500000000002,4.349987620566128
231,1804.8500000000001,4.339969479249222
232,1813.18,4.050345369951653
233,1825.7499999999998,4.12559778605364
234,1834.17,4.004052772814081
235,1846.8899999999999,3.72825234901275
236,1855.41,3.745504442504312
237,1863.98,3.8415445893614346
238,1876.8999999999999,4.059743379022347
239,1885.56,3.78019362193748
240,1894.2600000000002,3.6435079075450605
241,1903.01,3.841564246518202
242,1905.46072,3.817337621040692
243,1916.2,3.7111480873551144
244,1925.0400000000002,3.6183959254949865
245,1933.93,3.736902694846057
246,1942.86,3.877033409166086
247,1956.32,3.6266898912206873
248,1965.35,3.912884467963113
249,1974.42,4.013274989674497
250,1983.54,3.823840442597081
251,1997.29,3.7281855256766323
252,2006.51,3.8237958410216124
253,2015.77,3.7367641013355506
254,2025.07,3.8680383066184474
255,2034.42,3.676978443112543
256,2043.8100000000002,3.780027524575597
257,2053.2400000000002,3.51158655100761
258,2062.7200000000003,3.593273508650821
259,2072.24,3.876886411262991
260,2077.02,3.7024438350535553
261,2086.61,3.8236626413614028
262,2096.2400000000002,3.643198392638209
263,2105.91,3.676897088883974
264,2115.63,3.710904716340937
265,2125.4,3.745252275009099
266,2135.21,3.5602347786462194
267,2145.06,3.593174227252298
268,2154.97,3.7023415933118153
269,2164.91,3.601484918098052
270,2174.91,3.584870160337726
271,2184.94,3.5275453613041194
272,2187.7616199999998,3.5622004249944785
273,2195.03,3.6514884520434534
274,2205.16,3.5766235635993127
275,2215.34,3.431468729999969
276,2225.57,3.361106951245423
277,2235.84,3.5114322163667135
278,2246.1600000000003,3.400063536332801
279,2256.5299999999997,3.284667911143686
280,2266.94,3.3363663298304083
281,2277.41,3.3878298143308863
282,2282.66,3.4414785730345647
283,2293.19,3.2539221233488
284,2303.78,3.281330739476791
285,2314.41,3.1673883994806196
286,2325.09,2.6629881143292455
287,2335.83,2.9922268949916275
288,2346.61,2.9217247195298475
289,2357.44,3.0709855989128636
290,2362.87,2.891351555057811
291,2373.78,2.935898522192503
292,2384.74,2.7629785441719914
293,2395.7400000000002,2.890704610027317
294,2406.8,2.8031227416964
295,2412.35,2.84089182946886
296,2423.4900000000002,2.9585330488896173
297,2434.67,2.8622333121862122
298,2445.91,2.9670786412965637
299,2457.2,2.930543025251712
300,2462.86,2.902447233682725
301,2474.23,2.8143587053895485
302,2485.65,2.8313812319411693
303,2497.13,2.5919488243065456
304,2502.88,2.9067961314581936
305,2511.88643,2.705602364374688
306,2514.4300000000003,2.6487779307589965
307,2520.23,2.715416468498873
308,2526.04,2.6402590019934733
309,2537.7,2.668405052001569
310,2543.55,2.6245465685150653
311,2555.29,2.7646615845609532
312,2567.09,2.6992405751351845
313,2572.9999999999995,2.799250066177024
314,2584.88,2.7646510227890464
315,2596.81,2.7241299581746885
316,2602.8,2.6486584152543196
317,2614.8100000000004,2.609859316677753
318,2626.8799999999997,2.69280019262953
319,2632.9399999999996,2.7668636199922285
320,2645.09,2.9347434619817974
321,2657.3,2.9932902784997095
322,2663.43,2.753908676145475
323,2675.72,2.834772458701179
324,2688.07,2.845118215785226
325,2694.2700000000004,2.709468583714059
326,2706.7000000000003,2.769888306835898
327,2712.9399999999996,2.6439686577836268
328,2725.46,2.617125342697981
329,2738.04,2.706370002140678
330,2744.36,2.4331913191261987
331,2757.02,2.4759569446066867
332,2763.3799999999997,2.5498582446111033
333,2776.13,2.6246328318841075
334,2782.5299999999997,2.4937651149074194
335,2795.38,2.1302526597276623
336,2801.8199999999997,2.23462592576987
337,2814.7499999999995,2.5688154366279043
338,2827.75,2.668562917769007
339,2834.26,2.5766191540942818
340,2847.3500000000004,2.5037805970278995
341,2853.91,2.400915812126794
342,2867.0800000000004,2.6056342210982026
343,2873.69,2.628321414970717
344,2884.0315,2.6073519129626237
345,2886.96,2.6014149992755002
346,2893.6099999999997,2.6120519414999466
347,2906.97,2.7893398254275565
348,2927.1200000000003,2.6779736503632856
349,2947.41,2.618768474082687
350,2967.84,2.638654296585761
351,2988.4100000000003,2.6282101178725075
352,3009.1299999999997,2.6298529378560462
353,3029.98,2.6253937567101375
354,3050.9900000000002,2.620895574174141
355,3072.13,2.6224623905086974
356,3093.43,2.611881205453165
357,3107.71,2.6269370813877657
358,3129.25,2.568548894247101
359,3150.94,2.5580887058032284
360,3172.78,2.571185516056147
361,3187.43,2.4413073887761687
362,3209.52,2.505102196857074
363,3231.77,2.3825170035478918
364,3246.69,2.5438328739221383
365,3269.19,2.622287678440942
366,3291.85,2.5933244815696583
367,3307.05,2.55452234951125
368,3311.31121,2.555261182847429
369,3322.31,2.557166485787398
370,3329.97,2.6150312135984475
371,3337.6499999999996,2.559793938087855
372,3345.34,2.523076660916441
373,3353.05,2.458427380423385
374,3360.7799999999997,2.537267096608687
375,3368.53,2.523995809472347
376,3376.2999999999997,2.316403519014365
377,3384.08,2.3852562268955615
378,3391.88,2.5482449314551157
379,3399.7,2.6118516326930274
380,3407.54,2.458524330609298
381,3415.39,2.479617026864747
382,3423.26,2.6308227197985534
383,3431.16,2.604946407749897
384,3439.06,2.5793880957012405
385,3446.99,2.329391778670121
386,3454.94,2.500006458317359
387,3462.9,2.326287136303776
388,3470.89,2.4286258093077295
389,3478.89,2.2650644806508624
390,3486.91,2.370174148672353
391,3494.95,2.3414368133722014
392,3503.0,2.478455476411229
393,3511.08,2.431556134467793
394,3519.1699999999996,2.435517790863536
395,3527.2799999999997,2.2871954439376365
396,3535.42,2.449013092029274
397,3543.56,2.5626537401209113
398,3551.73,2.5490853832300857
399,3559.9199999999996,2.483619023017618
400,3568.13,2.3216046594835076
401,3576.35,2.2567832942885766
402,3584.6,2.1241919241111824
403,3592.86,2.177184552272967
404,3601.14,2.469240177113109
405,3606.42,2.271780300199577
406,3609.1299999999997,2.519754850117063
407,3611.83,2.2581524016953702
408,3614.53,2.2845919532736776
409,3617.23,1.845463504851985
410,3619.9399999999996,2.202058054769471
411,3622.64,2.5699846063477785
412,3625.34,2.4625181579260857
413,3628.0499999999997,2.708479707843572
414,3630.75,2.712563259421879
415,3633.45,2.6871648110001862
416,3636.15,2.1945903625784937
417,3638.8599999999997,2.35377291249598
418,3641.56,2.375614464074287
419,3644.26,2.5393500156525945
420,3646.96,2.294874567230902
421,3649.67,2.169120117148388
422,3652.37,2.4702086687266953
423,3655.07,2.0892992203050027
424,3657.77,2.67279777188331
425,3660.48,2.556581321800796
426,3663.18,2.665720873379103
427,3665.88,2.2777424249574105
428,3668.5800000000004,2.571877976535718
429,3671.29,2.440778526453204
430,3673.99,2.589284078031511
431,3676.69,2.5371046296098188
432,3679.3900000000003,2.303950181188126
433,3682.1,2.021876731105612
434,3684.7999999999997,2.2565302826839195
435,3687.5,2.4302658342622268
436,3690.2000000000003,2.310672385840534
437,3692.91,2.5430719357580203
438,3695.6099999999997,2.5441094873363275
439,3698.3100000000004,2.493021038914635
440,3701.01,2.585149590492942
441,3703.72,2.409912140410428
442,3706.42,2.7100246919887354
443,3709.1200000000003,2.5903172435670427
444,3711.82,2.5963547951453503
445,3714.5299999999997,2.9123143450628364
446,3717.2300000000005,3.8967248966411434
447,3719.9300000000003,5.366416448219451
448,3722.63,8.052414999797758
449,3725.3399999999997,10.571869549715244
450,3728.0400000000004,11.258649101293551
451,3730.7400000000002,9.433987652871858
452,3733.44,6.4553132044501655
453,3736.1499999999996,4.115677754367653
454,3738.8500000000004,3.2472513059459596
455,3741.55,2.927662857524267
456,3744.25,2.667900409102574
457,3746.9599999999996,2.6184079590200606
458,3749.6600000000003,2.589848510598368
459,3752.36,2.5542770621766753
460,3755.06,2.879791613754982
461,3757.7700000000004,3.6725231636724684
462,3760.4700000000003,4.162691715250776
463,3763.17,4.546080266829083
464,3765.8799999999997,4.445891816746569
465,3768.5800000000004,3.8349893683248766
466,3771.28,3.051789919903184
467,3773.98,2.7977174714814907
468,3776.6899999999996,3.0094840213989773
469,3779.3900000000003,3.2148855729772845
470,3782.09,3.134258124555592
471,3784.79,3.249777676133899
472,3787.4999999999995,3.1244802260513853
473,3790.2000000000003,2.9200047776296927
474,3792.9,2.846906329208
475,3795.6,2.638349880786307
476,3798.31,2.6047764307037937
477,3801.01,2.8132809822821008
478,3801.8939600000003,2.837027274998091
479,3803.71,2.8858125967048083
480,3806.41,3.021733241717115
481,3809.12,3.1512578854146525
482,3811.82,3.2675245304269596
483,3814.52,3.397411175439266
484,3817.2200000000003,3.1432238204515732
485,3819.9300000000003,3.1036724641491107
486,3822.63,2.9547131091614176
487,3825.33,2.9700037541737245
488,3828.03,2.7170223991860314
489,3830.7400000000002,2.622991042883569
490,3833.44,2.430928687895876
491,3836.1400000000003,2.4576553329081827
492,3838.84,2.5094389779204893
493,3841.55,2.709539621618027
494,3844.25,2.856551266630334
495,3846.9500000000003,3.041953911642641
496,3849.65,3.3937915566549477
497,3852.36,3.4084322003524856
498,3855.06,3.453895845364792
499,3857.76,3.614873490377099
500,3860.46,3.6507401353894062
501,3863.17,3.6023927790869434
502,3865.8700000000003,3.7921634240992503
503,3868.57,3.7906740691115575
504,3871.27,3.709818714123864
505,3873.98,3.5858983578214016
506,3876.6800000000003,3.441078002833709
507,3879.38,3.1863156478460155
508,3882.08,3.1143092928583225
509,3884.79,3.13556093655586
510,3887.4900000000002,3.129875581568167
511,3890.19,2.994134226580474
512,3892.89,3.0420108715927805
513,3895.6000000000004,3.0693545152903186
514,3898.3,3.341020160302625
515,3901.0,3.337575805314932
516,3903.7,3.515277450327239
517,3906.4100000000003,3.6598010940247763
518,3909.11,3.818480739037083
519,3911.81,3.8642323840493904
520,3914.5200000000004,3.8684120277469276
521,3917.2200000000003,3.7615226727592344
522,3919.92,3.6524493177715414
523,3922.62,3.6470499627838486
524,3925.3300000000004,3.562785606481386
525,3928.03,3.269519251493693
526,3930.73,3.0407348965059997
527,3933.43,2.9341885415183064
528,3936.1400000000003,2.985612185215844
529,3938.84,3.140612830228151
530,3941.54,3.3769914752404575
531,3944.24,3.6129691202527647
532,3946.9500000000003,3.5477837639503025
533,3949.65,3.625545408962609
534,3952.35,3.851407053974916
535,3955.05,3.791987698987223
536,3957.76,3.44870334268476
537,3960.46,3.366755987697067
538,3963.16,3.1920506327093743
539,3965.86,3.003551277721681
540,3968.57,2.8422789214192186
541,3971.27,2.7455595664315258
542,3973.97,2.8377452114438326
543,3976.67,3.112686856456139
544,3979.38,3.264855500153677
545,3982.08,3.718298145165984
546,3984.78,3.9313447901782905
547,3987.48,4.074048435190598
548,3990.19,4.073746078888135
549,3992.89,4.122427723900442
550,3995.59,4.173810368912749
551,3998.29,4.215424013925055
552,4001.0,4.180868657622593
553,4003.7,4.3313883026349
554,4006.4,4.136109947647206
555,4009.1,4.157550592659514
556,4011.81,4.260349236357052
557,4014.51,4.315410881369358
558,4017.21,4.252772526381665
559,4019.91,4.316225171393972
560,4022.62,4.380000815091509
561,4025.32,4.203227460103816
562,4028.02,4.356563105116123
563,4030.72,4.262202750128431
564,4033.4300000000003,4.2898863938259675
565,4036.13,4.358052038838275
566,4038.83,4.280758683850581
567,4041.5299999999997,4.166455328862888
568,4044.2400000000002,4.223104972560426
569,4046.94,4.133858617572733
570,4049.64,4.51661626258504
571,4052.3399999999997,4.408174907597346
572,4055.05,4.4079285512948845
573,4057.75,4.423335196307191
574,4060.45,4.482419841319498
575,4063.1600000000003,4.354302485017036
576,4065.86,4.631141130029342
577,4068.56,4.5738487750416486
578,4071.2599999999998,4.563912420053956
579,4073.9700000000003,4.3506810637514945
580,4076.67,4.395857708763801
581,4079.37,4.127591353776107
582,4082.0699999999997,4.236789998788415
583,4084.78,4.1286726424859514
584,4087.48,4.175286287498259
585,4090.18,3.9359279325105656
586,4092.8799999999997,3.8498415775228727
587,4095.59,3.7023592212204104
588,4098.29,3.707822866232717
589,4100.99,3.581507511245024
590,4103.69,3.637717156257331
591,4106.4,3.7120707999548683
592,4109.1,3.576387444967175
593,4111.8,3.613288089979482
594,4114.5,3.9594927349917888
595,4117.21,3.8876983786893264
596,4119.91,4.067296023701633
597,4122.61,3.9640276687139404
598,4125.3099999999995,4.126385313726247
