,lambda (Angstroms),Total Flux (erg/s/cm^2/Angstrom)
0,100.07000000000001,7.646013386588003
1,101.93,7.624742872008998
2,104.06,7.600384702055671
3,104.712855,7.592918808689649
4,106.0,7.515599521106846
5,107.97,7.397260875385308
6,109.98,7.276519415443605
7,114.1,7.029029457552876
8,118.11,6.788147242969252
9,120.22644299999999,6.661011744528266
10,120.86,6.6291041097219106
11,125.11,6.415062633686248
12,127.15,6.312322726191701
13,128.03,6.268003554151607
14,131.01,6.117922713521601
15,131.92000000000002,6.0720926804229105
16,134.06,5.964316510330909
17,136.87,5.822797377023162
18,138.038426,5.763952299660117
19,140.06,5.691178822599062
20,142.98999999999998,5.585704047883946
21,146.99,5.441712138166588
22,151.10999999999999,5.293399082576802
23,154.99,5.1537257732418755
24,158.489319,5.027756408400309
25,158.96,5.014946687425605
26,161.92000000000002,4.9343894761541485
27,166.07,4.821446234946124
28,169.94,4.716123329440936
29,173.1,4.630123266949169
30,177.13,4.52044609280093
31,180.01,4.442066485542002
32,181.970086,4.388722474471051
33,182.1,4.386025138817003
34,185.91,4.3069203163799195
35,191.12,4.198748123089395
36,194.21999999999997,4.134384851904629
37,197.82999999999998,4.059432974589466
38,201.98000000000002,3.9732694439921183
39,204.79000000000002,3.9149276268846376
40,208.929613,3.82897905823617
41,210.04,3.811646547881943
42,215.92,3.719866013509247
43,219.94,3.65711767021965
44,223.0,3.6093536139529396
45,227.14000000000001,3.544732519257981
46,229.77,3.503700607033816
47,234.04999999999998,3.4369366205559353
48,239.88329199999998,3.345911336695715
49,240.04999999999998,3.343906889833319
50,246.21,3.2698089708947577
51,251.94,3.2008997478902206
52,257.21999999999997,3.1373693012143122
53,260.2,3.1015468265180597
54,263.82,3.058015672694425
55,268.72,2.9990804125160246
56,273.72,2.9389420899645953
57,275.42287,2.918460590102986
58,278.8,2.8872885031792515
59,283.99,2.8393831088173407
60,289.93,2.7845451243239396
61,296.01,2.7284280787606603
62,300.82,2.6840283688027045
63,307.82,2.619417544108798
64,316.227766,2.5418138715885763
65,317.91,2.530217455507277
66,328.32,2.458451228900866
67,338.3,2.389646821113645
68,347.78000000000003,2.324289767281294
69,356.7,2.2627923442343985
70,363.078055,2.2188213853857137
71,365.85,2.2045107403237965
72,375.23,2.15608073177382
73,384.86,2.1063514047827456
74,394.73,2.055400621068218
75,404.86,2.0030996747949485
76,414.29,1.9544089888567522
77,416.86938299999997,1.9410901331981043
78,421.99,1.9208985913705394
79,429.83,1.8899847649291903
80,440.86,1.846494647876884
81,451.13,1.8059968694867494
82,459.52,1.772913438250408
83,470.22,1.7307207966750973
84,478.630092,1.6975599770738674
85,480.06,1.6932238961389576
86,490.12,1.6627104733927194
87,500.38,1.631599289007789
88,506.17,1.614036826937638
89,512.04,1.59625219735201
90,520.35,1.5710511140943322
91,530.03,1.5416925160216102
92,539.88,1.5118116736659992
93,549.5408739999999,1.4825167408756816
94,549.92,1.4816397882691137
95,560.14,1.4580094638904284
96,570.5600000000001,1.433914271525076
97,579.83,1.4124646129830596
98,590.61,1.3875377868617065
99,600.21,1.3653209081016888
100,609.96,1.3427404445516713
101,619.87,1.31987294083232
102,629.9399999999999,1.2965801268436352
103,630.957344,1.2942281473280242
104,640.1800000000001,1.2773288218985492
105,650.58,1.2582671880051688
106,658.1099999999999,1.2444576633373654
107,665.7299999999999,1.2305098089854845
108,674.99,1.2135448946904164
109,684.38,1.1963077247516813
110,695.5,1.1759803442856822
111,705.18,1.15819470976492
112,716.6400000000001,1.1372670414924058
113,724.43596,1.1229905674445235
114,726.61,1.1200368939619163
115,735.02,1.1086135386522313
116,745.2499999999999,1.0947198805465153
117,755.61,1.0806492561767962
118,764.36,1.0687181532381826
119,775.0,1.0543349797152284
120,785.78,1.0396665549156563
121,794.88,1.027350186335498
122,804.0799999999999,1.0148814009291842
123,815.27,0.9996951145123739
124,824.71,0.9869160078032867
125,831.763771,0.9771993676777277
126,834.26,0.9746189745575284
127,845.8599999999999,0.9630514740113459
128,855.6600000000001,0.9531170999378467
129,865.56,0.9431382450880874
130,875.59,0.9330120516291897
131,885.73,0.9227823131164059
132,895.98,0.9124283665497359
133,904.27,0.9040210923977655
134,914.74,0.8937085447233232
135,925.34,0.8891486984397425
136,936.05,0.8867795381022756
137,944.71,0.8915710216781425
138,954.992586,0.8927569988654948
139,955.65,0.8928472749606361
140,964.4899999999999,0.8884881227995506
141,975.66,0.8392445740575453
142,984.69,0.8592046801237665
143,996.09,0.8514203537621856
144,1005.31,0.8634168860557141
145,1014.6099999999999,0.8535842266554771
146,1024.0,0.8115744690997536
147,1035.86,0.8145882254990212
148,1045.44,0.8455340851706047
149,1055.11,0.8345517966867023
150,1064.8799999999999,0.8064567135855931
151,1074.73,0.8101703887907181
152,1084.6699999999998,0.7835431358403573
153,1094.71,0.7957034582727893
154,1096.4782,0.7934452284846841
155,1104.84,0.7842750477053225
156,1115.06,0.7726482185827084
157,1125.3799999999999,0.7559284807798338
158,1135.79,0.7687334661647247
159,1146.3,0.7523639528693552
160,1154.25,0.7518218877886522
161,1164.93,0.7456065127368401
162,1175.71,0.7069160390047675
163,1183.8600000000001,0.7283010465635437
164,1194.81,0.6917670410750287
165,1205.87,0.665986075038227
166,1214.23,0.6478647033684563
167,1225.46,0.6691072155752117
168,1233.96,0.6943086377530766
169,1245.37,0.6943160663353636
170,1254.0100000000002,0.6825111523608636
171,1258.92541,0.672896793919303
172,1265.6100000000001,0.6613865384782878
173,1274.3799999999999,0.682629301175205
174,1286.17,0.6817048419045838
175,1295.0900000000001,0.6503162646362259
176,1304.07,0.644663669381758
177,1316.13,0.6629209941736416
178,1325.26,0.6525342489538986
179,1334.44,0.6339258470790639
180,1343.6899999999998,0.6491137658871009
181,1356.1200000000001,0.638325581431306
182,1365.52,0.6203506302740678
183,1374.99,0.6202911997997013
184,1384.52,0.6160294013392247
185,1394.1200000000001,0.5932000335616197
186,1403.78,0.5906754877979046
187,1413.51,0.5914964527170612
188,1426.5900000000001,0.5868067317450744
189,1436.48,0.5815543253679376
190,1443.11,0.5837869129027794
191,1445.43977,0.5837220758730568
192,1446.44,0.5838697753729125
193,1456.46,0.5764120849523714
194,1466.5600000000002,0.5636603435105088
195,1473.33,0.5616281758311613
196,1483.5400000000002,0.5601545142349811
197,1493.82,0.5579627579951447
198,1504.18,0.5476921507339865
199,1511.12,0.5335357446343303
200,1518.1,0.5374368530240135
201,1525.1000000000001,0.5319371486583658
202,1535.68,0.5144224710885732
203,1546.32,0.516162965252789
204,1553.46,0.5095065115998287
205,1564.23,0.5084941228543969
206,1575.0700000000002,0.5105735294653085
207,1585.99,0.5112593250548986
208,1593.31,0.5101331566039645
209,1604.35,0.5042696456615721
210,1615.47,0.49999114369785774
211,1626.67,0.4907360107128219
212,1634.18,0.49448914108624864
213,1645.51,0.49154646519156514
214,1653.1000000000001,0.4815589745436703
215,1659.58691,0.4836543094157554
216,1664.56,0.4858650722205435
217,1672.24,0.47226248604383725
218,1676.1000000000001,0.48429463090814895
219,1683.8400000000001,0.4863557785894372
220,1695.51,0.47658870396936404
221,1703.3300000000002,0.4705896234613115
222,1715.14,0.46182030450989214
223,1723.06,0.45913040376516384
224,1734.9999999999998,0.4625259015060659
225,1743.0100000000002,0.45816232154832914
226,1755.09,0.46136538495788504
227,1763.19,0.4508368757871401
228,1775.41,0.4489582848653496
229,1783.61,0.44917968545792897
230,1795.97,0.45247408020479235
231,1804.26,0.44961797158436323
232,1816.77,0.4374390009762129
233,1825.15,0.4376164731427755
234,1833.58,0.43151604019100037
235,1846.29,0.4200553991094982
236,1854.8100000000002,0.41847681694471467
237,1863.3700000000001,0.41904865068526076
238,1876.29,0.42284917810673933
239,1884.95,0.4122641116106096
240,1893.65,0.4063931210198095
241,1905.46072,0.40826371771751935
242,1906.78,0.40857281000143875
243,1915.5800000000002,0.40304232391040673
244,1924.42,0.399090470018961
245,1933.3,0.4004275283271014
246,1946.7,0.40205677518848437
247,1955.6899999999998,0.39362910204548696
248,1969.2399999999998,0.4001172796553184
249,1973.78,0.4019984743083541
250,1982.8899999999999,0.3949750477641153
251,1996.64,0.38964517637187773
252,2005.86,0.39064890837650107
253,2015.11,0.385800784530814
254,2024.41,0.3879354609346097
255,2033.76,0.3810380375878881
256,2043.1499999999999,0.3828862764407529
257,2057.31,0.3735349450942741
258,2066.81,0.3730642724960009
259,2076.35,0.3792211120973139
260,2085.93,0.37913150389821315
261,2095.56,0.3715165359485952
262,2105.23,0.37018734019856336
263,2114.95,0.3697806846980144
264,2124.71,0.3684511013970516
265,2134.52,0.36006007834557163
266,2144.37,0.3609029774936778
267,2154.27,0.3625280568912668
268,2164.21,0.356998048488442
269,2174.2,0.35446685033510006
270,2184.2400000000002,0.35192432243124067
271,2187.7616199999998,0.3526349784632167
272,2194.3199999999997,0.35440009439788617
273,2204.45,0.35042819296933453
274,2214.62,0.3434475273791697
275,2224.8399999999997,0.34030528908698837
276,2235.1099999999997,0.34565184809279054
277,2245.43,0.340413254396576
278,2255.8,0.333849987998345
279,2266.21,0.3340495474385008
280,2276.67,0.33535983417664006
281,2287.18,0.33741386821276276
282,2292.45,0.33035412742021913
283,2303.03,0.3310371216735186
284,2313.66,0.3247721332248017
285,2324.34,0.30602451207406806
286,2335.0699999999997,0.314426058221318
287,2345.85,0.30983078166655137
288,2356.67,0.31613895095017147
289,2367.5499999999997,0.3065243389913718
290,2373.01,0.30853262593116526
291,2383.96,0.3004287241895424
292,2394.97,0.3037117112054997
293,2406.02,0.29951915405984375
294,2417.13,0.3003404056717679
295,2422.7000000000003,0.306612038667125
296,2433.88,0.30236392049622607
297,2445.12,0.30599285108290725
298,2456.4,0.3040569675079752
299,2467.74,0.30071335269062327
300,2473.4300000000003,0.29643273320114066
301,2484.85,0.2937439000605623
302,2496.3199999999997,0.2861892842179674
303,2507.84,0.2975131356733559
304,2511.88643,0.2876960089943723
305,2513.62,0.28355240459003006
306,2519.4100000000003,0.2843792344524596
307,2525.2200000000003,0.2818650953506835
308,2536.88,0.28370502921871965
309,2542.7300000000005,0.28222436218853186
310,2554.46,0.2901132796818479
311,2566.25,0.28427973028254655
312,2572.1699999999996,0.28935887687763867
313,2584.0400000000004,0.2861782416215142
314,2595.9700000000003,0.2828448394727724
315,2607.95,0.27843797991351626
316,2613.96,0.2760066111696824
317,2626.0299999999997,0.2800442162715003
318,2632.08,0.28776555959925487
319,2644.23,0.29784375884424963
320,2656.44,0.30510094119662706
321,2662.56,0.2869045981496615
322,2674.85,0.29176754464521587
323,2687.2000000000003,0.2931388342481529
324,2693.39,0.28363244482646716
325,2705.8199999999997,0.2880228985725812
326,2712.06,0.27815106174038096
327,2724.58,0.274627480147569
328,2737.1600000000003,0.2793066916621397
329,2743.4700000000003,0.2619747584552192
330,2756.13,0.26516356411296693
331,2762.48,0.270247012977635
332,2775.23,0.27337084329645667
333,2788.04,0.26140561672266105
334,2794.47,0.24366424973050602
335,2807.3700000000003,0.24687609781778436
336,2813.84,0.2665901828972178
337,2826.8300000000004,0.2765618156455702
338,2833.35,0.27291709331448927
339,2846.42,0.2656740702060186
340,2852.9900000000002,0.2549307804644232
341,2866.15,0.27386405201702657
342,2872.7599999999998,0.2790727443470197
343,2884.0315,0.2746105451271813
344,2886.0200000000004,0.27388463566334653
345,2892.67,0.27713344665462064
346,2912.73,0.2916386265771706
347,2932.92,0.2824998710754899
348,2953.25,0.2779409389630991
349,2966.88,0.2813139017918307
350,2987.44,0.2802178223904163
351,3008.15,0.28133162519181265
352,3029.0,0.28106785138249896
353,3050.0,0.2813848597759959
354,3071.14,0.2825957915587829
355,3092.43,0.28207340554438054
356,3106.7,0.28534403243843776
357,3128.24,0.28059751676205325
358,3149.92,0.2788689244749587
359,3171.76,0.2813690732041956
360,3186.39,0.2697507173849985
361,3208.48,0.2764997364522532
362,3230.7200000000003,0.26288183772231855
363,3253.12,0.28072918000871533
364,3268.13,0.29109255910330534
365,3290.7799999999997,0.28721057172771997
366,3311.31121,0.2840399415147561
367,3313.6,0.2837359658329766
368,3321.24,0.28408026952413684
369,3328.89,0.29212014822012833
370,3336.56,0.2943244769257826
371,3344.26,0.282737630645931
372,3351.9700000000003,0.2770772593709107
373,3359.69,0.29115726310072176
374,3367.44,0.28551199184502696
375,3375.2,0.2629541955941635
376,3382.98,0.26714174935296275
377,3390.7799999999997,0.28838265312142475
378,3398.6,0.2894856068995494
379,3406.43,0.2845217356825055
380,3414.28,0.2848845144751242
381,3422.1600000000003,0.29625111828223716
382,3430.04,0.28705462208935
383,3437.9500000000003,0.2870724509109569
384,3445.88,0.2565575297422266
385,3453.82,0.29189098357832766
386,3461.7799999999997,0.2712758874240914
387,3469.76,0.2779616412795179
388,3477.7599999999998,0.2679826451446071
389,3485.78,0.275557499019359
390,3493.81,0.2698688278989423
391,3501.8700000000003,0.27519528179301966
392,3509.9399999999996,0.2803992106919284
393,3518.0299999999997,0.2691344896004999
394,3526.14,0.2684521185187341
395,3534.27,0.282564497446631
396,3542.42,0.2954001263841906
397,3550.58,0.29310453032658157
398,3558.77,0.28480635928346665
399,3566.97,0.2908649632451831
400,3575.1899999999996,0.2633684172165623
401,3583.44,0.2548656962024355
402,3591.7,0.25149585019314014
403,3599.98,0.28716615419350744
404,3605.93,0.16925902206816754
405,3608.6800000000003,0.3538519083967919
406,3611.42,0.30639735972058496
407,3614.17,0.2050132860492094
408,3616.91,0.20244033737300246
409,3619.6600000000003,0.36403696370162686
410,3622.4,0.3062728150254199
411,3625.1499999999996,0.20386318135404435
412,3627.89,0.4577160926778374
413,3630.64,0.0545908190064618
414,3633.3900000000003,0.1357474153350862
415,3636.13,0.27143699665887927
416,3638.88,0.4054925229875037
417,3641.62,0.5847314743112967
418,3644.37,0.28012950063992115
419,3647.11,0.1464433419637142
420,3649.8599999999997,0.39656017829233864
421,3652.6,0.40345502961613167
422,3655.35,0.5693301559447561
423,3658.1000000000004,0.27968308227338046
424,3660.84,0.30427283359717355
425,3663.5899999999997,0.26597865992579794
426,3666.33,0.37957561124959105
427,3669.08,0.3828182375782154
428,3671.82,0.1787560989020085
429,3674.5699999999997,0.3224373152306329
430,3677.31,0.18381433655442594
431,3680.06,0.08136890288305036
432,3682.8100000000004,0.23179491921167475
433,3685.55,0.14573635053546782
434,3688.2999999999997,0.20965476686409226
435,3691.04,0.1689775281878853
436,3693.79,0.3203171745165097
437,3696.53,0.43005062584030274
438,3699.2799999999997,0.3453603521689272
439,3702.02,0.16749837349272023
440,3704.77,0.27200842982134465
441,3707.5200000000004,0.29331275614996904
442,3710.26,0.2621311074737621
443,3713.0099999999998,0.25367283380238653
444,3715.75,0.3938584851261796
445,3718.5,0.453635411454804
446,3721.2400000000002,0.27782176277859705
447,3723.99,0.30962488910722147
448,3726.7400000000002,0.21947201543584585
449,3729.48,0.23384966675963892
450,3732.2300000000005,0.29569619308826334
451,3734.9700000000003,0.3006862444120564
452,3737.72,0.2646749707406808
453,3740.46,0.23694792206447385
454,3743.21,0.10675780939309826
455,3745.9500000000003,0.2342914997168913
456,3748.7,0.28663432604551575
457,3751.4500000000003,0.32117185237414014
458,3754.19,0.4401037036979332
459,3756.9399999999996,0.3689031300265576
460,3759.6800000000003,0.2951650813503507
461,3762.43,0.3248745076789751
462,3765.17,0.28478725900276813
463,3767.92,0.32201668533139255
464,3770.6600000000003,0.24774743665518562
465,3773.41,0.23159216298381002
466,3776.16,0.29946928931243444
467,3778.9,0.40177404063622746
468,3781.6499999999996,0.42782076696485194
469,3784.3900000000003,0.33126041828864494
470,3787.14,0.2615005446172694
471,3789.88,0.3377171959410624
472,3792.63,0.3352833222696868
473,3795.3700000000003,0.3343709735934799
474,3798.12,0.3351294999221043
475,3800.87,0.39767152625072877
476,3801.8939600000003,0.40764345836953186
477,3803.61,0.424381406726831
478,3806.3599999999997,0.43325090572092384
479,3809.1000000000004,0.33326527744594714
480,3811.85,0.39263257644004
481,3814.59,0.40890194816506337
482,3817.34,0.40330524715915617
483,3820.08,0.24748071888417955
484,3822.83,0.20389364787827238
485,3825.58,0.2425384168723652
486,3828.32,0.2529781885973885
487,3831.0699999999997,0.2070411675914814
488,3833.8100000000004,0.20231865931650472
489,3836.56,0.28833585831059755
490,3839.2999999999997,0.33300043003562096
491,3842.05,0.18550030902971376
492,3844.79,0.2896534007547371
493,3847.54,0.34035329974882994
494,3850.29,0.35001649874292273
495,3853.03,0.3487492704679461
496,3855.7799999999997,0.30467366946203894
497,3858.5199999999995,0.19536698118706233
498,3861.27,0.37880244018115516
499,3864.0099999999998,0.35546351190617853
500,3866.76,0.3559037109002713
501,3869.5,0.2829580826252947
502,3872.25,0.2629930816193875
503,3875.0,0.23566078061348034
504,3877.7400000000002,0.3096421523385037
505,3880.49,0.2215392513325965
506,3883.2299999999996,0.3082718230576199
507,3885.98,0.2979509220517127
508,3888.72,0.22309459377673607
509,3891.4700000000003,0.18724739277082886
510,3894.21,0.3552536644958523
511,3896.96,0.29395886348994504
512,3899.71,0.3978846624840379
513,3902.4500000000003,0.33084173420906127
514,3905.2,0.24768293320315407
515,3907.9399999999996,0.32157290492817747
516,3910.69,0.30989080392227025
517,3913.43,0.2585468756472936
518,3916.1800000000003,0.32276697464138643
519,3918.92,0.41564044636640984
520,3921.67,0.4087496453605027
521,3924.42,0.23352574435459544
522,3927.1600000000003,0.3186163160796188
523,3929.91,0.32230381507371164
524,3932.6499999999996,0.25933808679873505
525,3935.4,0.28565898579282784
526,3938.14,0.36903455751785125
527,3940.8900000000003,0.266874156511944
528,3943.63,0.2798837282369674
529,3946.38,0.2419610272310602
530,3949.13,0.34207202622515304
531,3951.87,0.3253006979501764
532,3954.62,0.3723258969442692
533,3957.3599999999997,0.2991240686692926
534,3960.11,0.31417096766338537
535,3962.85,0.36699043938840875
536,3965.6000000000004,0.26421963838250156
537,3968.35,0.2603995373765944
538,3971.0899999999997,0.2196458091016178
539,3973.84,0.29160560809571057
540,3976.58,0.31427767982073396
541,3979.33,0.2834049788148268
542,3982.0699999999997,0.2992224505398502
543,3984.82,0.3743989495339429
544,3987.56,0.37631792125896635
545,3990.3100000000004,0.3681637202530591
546,3993.06,0.390071319247152
547,3995.7999999999997,0.41674789097217535
548,3998.55,0.39496968996626813
549,4001.29,0.43887156169129155
550,4004.04,0.3834425606853844
551,4006.7799999999997,0.33170203241040774
552,4009.53,0.29009863140450054
553,4012.27,0.2140520031295239
554,4015.0200000000004,0.24182580212361673
555,4017.77,0.31362080111770957
556,4020.5099999999998,0.3025077728427329
557,4023.26,0.27220887183682574
558,4026.0,0.3099392435618491
559,4028.75,0.3857687425559419
560,4031.49,0.4071471142809653
561,4034.2400000000002,0.3392906132750581
562,4036.98,0.3014852850000815
563,4039.7300000000005,0.33461808399417425
564,4042.48,0.36005378298826707
565,4045.22,0.3820057547132905
566,4047.9700000000003,0.3193682537073833
567,4050.71,0.3041839254324067
568,4053.46,0.3570994244264995
569,4056.2,0.4356469961515229
570,4058.9500000000003,0.38299529514561564
571,4061.69,0.31919946687063905
572,4064.44,0.31216856586473185
573,4067.19,0.29553016485882466
574,4069.93,0.33185673658384807
575,4072.6800000000003,0.38339883557794086
576,4075.42,0.3373594073029642
577,4078.17,0.33023080629705703
578,4080.91,0.29483027802208045
579,4083.66,0.29084537701617325
580,4086.4,0.3736654487411966
581,4089.1499999999996,0.40618784773528943
582,4091.9,0.3857952467293822
583,4094.64,0.37698361845440564
584,4097.39,0.3138272174484984
585,4100.13,0.3249080891735218
586,4102.88,0.3277288881676146
587,4105.62,0.332412859892638
588,4108.37,0.28482755888673084
589,4111.11,0.3268674306117542
590,4113.86,0.386283629605847
