,lambda (Angstroms),Total Flux (erg/s/cm^2/Angstrom)
0,100.05999999999999,0.001328401866941776
1,101.92,0.0015968965193035411
2,104.05,0.0019043661972076898
3,104.712855,0.0020000506335953734
4,105.99000000000001,0.0018462257727173928
5,107.96,0.0016089505212071482
6,109.97,0.001366857687830023
7,114.09,0.0008706275860329783
8,118.1,0.0003876467274616499
9,120.22644299999999,0.00013153536248094265
10,121.13000000000001,0.00012650257349156822
11,125.10000000000001,0.00010438339222894681
12,127.13000000000001,9.307318215158624e-05
13,128.01,8.817116118105564e-05
14,131.0,7.151362246129792e-05
15,131.9,6.650483839030057e-05
16,134.05,5.452804115014034e-05
17,136.85,3.8941301254815526e-05
18,138.038426,3.232301843006562e-05
19,140.04000000000002,3.193746159978862e-05
20,142.97,3.15115403395258e-05
21,146.98,3.11529472388248e-05
22,151.1,3.0487470266782876e-05
23,154.97,2.991280115687941e-05
24,158.489319,2.9428802495159158e-05
25,158.95,2.931680128048702e-05
26,161.9,2.8615857353963794e-05
27,166.06,2.7675588694866636e-05
28,169.93,2.6831953401427706e-05
29,173.08,2.6173954395140194e-05
30,177.11999999999998,2.537025278390163e-05
31,179.99,2.484076888928411e-05
32,181.970086,2.4481921329775965e-05
33,182.07999999999998,2.4505939470108116e-05
34,185.89000000000001,2.5411289354570003e-05
35,191.1,2.6685379857994265e-05
36,194.2,2.7532362228553803e-05
37,197.81,2.8601485024592497e-05
38,201.95999999999998,2.9836515859373817e-05
39,204.76999999999998,3.077882830171972e-05
40,208.929613,3.1826757086151295e-05
41,210.02,3.2639767444006175e-05
42,215.9,3.810689484940164e-05
43,219.92000000000002,4.1730484524518945e-05
44,222.98,4.436011711304106e-05
45,227.12,4.827707767398278e-05
46,229.75,5.83959870883008e-05
47,234.01999999999998,7.633942860888561e-05
48,239.88329199999998,9.288865746246553e-05
49,240.03,9.314461291999057e-05
50,246.18,9.134233576776808e-05
51,251.92,9.671907642569376e-05
52,257.19,8.807263579281365e-05
53,260.16999999999996,9.748499780685871e-05
54,263.79,0.00010251928689774558
55,268.69,0.00010441149014231627
56,273.69,0.0001059395485551435
57,275.42287,0.00010651696945848161
58,278.78,0.00011101499735924065
59,283.96000000000004,0.00011830579945262914
60,289.90999999999997,0.00012263672091125097
61,295.98,0.0001324804757774417
62,300.79,0.00013746633986415956
63,307.79,0.00014872425863900882
64,316.227766,0.00016243380036226393
65,317.88,0.00016363048297930748
66,328.28999999999996,0.00016871275242082048
67,338.27000000000004,0.00017277153292286657
68,347.74,0.0001761946823571728
69,356.66,0.00018053172965960275
70,363.078055,0.00018483742454143947
71,365.81,0.00018852209345957493
72,375.2,0.00019767672899166473
73,384.82000000000005,0.00020130470650164386
74,394.69,0.0002178123687701983
75,404.82,0.00023018508718767108
76,414.24999999999994,0.00023785440828113293
77,416.86938299999997,0.00023955328925989367
78,421.95000000000005,0.00024224460156387176
79,429.79,0.00024684651668500815
80,440.82000000000005,0.00025729534497405594
81,451.08000000000004,0.0002630159976708492
82,459.47,0.0002664783667864531
83,470.17,0.0002728874626788204
84,478.630092,0.0002805665274892051
85,480.02000000000004,0.00028125543436757457
86,490.07,0.00027837772927598455
87,500.33,0.0002850003363168091
88,506.13,0.0002852665761644487
89,511.99,0.00032785159090706383
90,520.3,0.0003317909138611819
91,529.98,0.0003341728969172425
92,539.83,0.0003265651421757338
93,549.5408739999999,0.0003523587637435788
94,549.87,0.0003532848681793321
95,560.09,0.0003876862214239715
96,570.5,0.00041714411929840356
97,579.77,0.0004155649493940794
98,590.5500000000001,0.00046003469733705513
99,600.15,0.00046521192073710775
100,609.9,0.0004837170320027862
101,619.8100000000001,0.0005702149703251322
102,629.88,0.0006012795357041458
103,630.957344,0.0006046021670095053
104,640.11,0.0006344647983015275
105,650.52,0.0006950381699852783
106,658.0500000000001,0.0007285541904251095
107,665.67,0.0007875125405913132
108,674.93,0.0008275152768825267
109,684.32,0.0008230436450007226
110,695.4399999999999,0.0010184001289703008
111,705.11,0.0009774852117927666
112,716.5699999999999,0.0011972361636175299
113,724.43596,0.0012632995360477269
114,726.54,0.0012808776066234018
115,734.95,0.001357812323284481
116,745.17,0.0014986276519736875
117,755.54,0.001617776733040916
118,764.29,0.0016698242884255106
119,774.9200000000001,0.0019026935402813095
120,785.7,0.0020043505445151303
121,794.8,0.0021839435221151088
122,805.86,0.002353359864121237
123,815.1899999999999,0.0024962442620341816
124,824.63,0.0027517040783576756
125,831.763771,0.0024553815992048927
126,834.1800000000001,0.002354567974235183
127,845.78,0.0030318124084807983
128,855.5699999999999,0.0031712260818656753
129,865.48,0.003479477490777231
130,875.5,0.0037580269072549086
131,885.64,0.004087068059259265
132,895.9,0.0043551559467903
133,904.1899999999999,0.004474966426091693
134,914.6600000000001,0.005980532600794415
135,925.25,0.03322528951102382
136,935.96,0.0723123971567799
137,944.62,0.1374407355706219
138,954.992586,0.1933132374124364
139,955.5600000000001,0.19636970472851387
140,964.4,0.22287752699412441
141,975.57,0.03813904241345356
142,984.6,0.18925962085898107
143,995.9999999999999,0.20280439165399916
144,1005.21,0.30133790648050063
145,1014.51,0.2931272194974891
146,1023.9,0.12975433070496456
147,1035.76,0.20847529225136058
148,1045.34,0.402746699638753
149,1055.01,0.3972294052166324
150,1064.78,0.3148044087839417
151,1074.63,0.37846821074279513
152,1084.57,0.2999428108921354
153,1094.6100000000001,0.4036722090309058
154,1096.4782,0.40097747757417995
155,1104.73,0.38907455220675397
156,1114.96,0.3750034084614809
157,1125.27,0.33809105968203174
158,1135.69,0.4355332039805903
159,1146.19,0.3972198432449728
160,1154.14,0.4256250429737195
161,1164.82,0.44057757091120564
162,1175.6,0.30340949255597166
163,1183.74,0.4315425803285501
164,1194.7,0.30062419064641976
165,1205.75,0.21829889530084132
166,1214.1100000000001,0.15172496922943535
167,1225.3400000000001,0.30271346255696063
168,1233.84,0.4581630276757464
169,1245.25,0.5046857096763754
170,1253.89,0.48418876598535293
171,1258.92541,0.4562279460174717
172,1265.49,0.4197762785040051
173,1274.2600000000002,0.5445201177582686
174,1286.05,0.5728169705299637
175,1294.96,0.453969010410863
176,1303.94,0.4518720506050803
177,1316.01,0.5688695046300472
178,1325.1299999999999,0.5457792454509003
179,1334.31,0.4853170865403118
180,1343.56,0.5794487279430413
181,1355.99,0.5636581835793576
182,1365.3899999999999,0.5058486256534825
183,1374.86,0.5321274680409255
184,1384.39,0.5395330106969267
185,1393.98,0.4645389536214862
186,1403.6499999999999,0.48196689690412325
187,1413.3799999999999,0.5058459404553186
188,1426.45,0.5200236989562562
189,1436.3400000000001,0.5212122432236068
190,1442.97,0.550824772899293
191,1445.43977,0.5574658693995563
192,1446.3000000000002,0.5597789871854825
193,1456.3200000000002,0.5445263248269783
194,1466.4199999999998,0.5046847627690049
195,1476.5800000000002,0.5070172009364298
196,1483.4,0.5176265265566893
197,1493.68,0.5284669651749105
198,1504.0300000000002,0.5012108040560963
199,1510.98,0.4477315301647186
200,1517.95,0.47975645634847364
201,1524.96,0.46775228268249414
202,1535.53,0.4064634223901399
203,1546.17,0.44057506236075017
204,1553.31,0.41978188918313336
205,1564.08,0.4345275296421064
206,1574.9199999999998,0.4656039703640439
207,1585.83,0.48867671134894597
208,1596.83,0.5000506526719453
209,1604.2,0.49206068035835493
210,1615.3200000000002,0.4943277221321506
211,1626.51,0.47100416416891083
212,1634.02,0.5023645923812495
213,1645.35,0.5117038349439388
214,1656.75,0.4764569777695927
215,1659.58691,0.4926116148157204
216,1664.4,0.5200196204691986
217,1672.08,0.46560743116240766
218,1675.9399999999998,0.5296822370576924
219,1683.6699999999998,0.550829749122602
220,1695.34,0.5176331692775172
221,1703.17,0.5000559840858281
222,1714.98,0.4775477080815049
223,1726.8600000000001,0.4764564339975626
224,1734.83,0.510526152646635
225,1746.8600000000001,0.4989066826777944
226,1754.92,0.5333582037959279
227,1763.0199999999998,0.4909367260114217
228,1775.2399999999998,0.5035264612550433
229,1783.44,0.5140681862139383
230,1795.8,0.5495658252983215
231,1804.0900000000001,0.5457890527262778
232,1816.59,0.5070192956514226
233,1824.98,0.5176360258227799
234,1833.4,0.5000622568171574
235,1846.11,0.4602800055034447
236,1854.6299999999999,0.46561433924122353
237,1863.19,0.4830849740763627
238,1876.11,0.5188258285237924
239,1884.77,0.48086366610233283
240,1893.4699999999998,0.46454440477823367
241,1905.46072,0.48970093527812686
242,1906.59,0.4920700937973431
243,1915.3899999999999,0.4764637826051768
244,1924.23,0.46561466999850065
245,1933.1200000000001,0.4753628556236872
246,1946.52,0.5046848817628885
247,1955.5,0.4742718642054279
248,1969.05,0.5200296850402172
249,1978.1399999999999,0.5333573635928546
250,1982.7,0.508181902338732
251,1996.4499999999998,0.49546741610097217
252,2005.6599999999999,0.5081833904100799
253,2014.92,0.49433026295105037
254,2024.2199999999998,0.5128885340775109
255,2033.5600000000002,0.49206820378946176
256,2042.95,0.5117066717332751
257,2057.11,0.4830814709967894
258,2066.61,0.48867473505070075
259,2076.15,0.5296856976901022
260,2085.73,0.5296849589149939
261,2095.36,0.5023636183717484
262,2105.0299999999997,0.504682576413993
263,2114.74,0.5117067330417275
264,2124.51,0.5176269875476974
265,2134.31,0.48307934099278493
266,2144.16,0.49775799266973514
267,2154.06,0.515246242578548
268,2164.0,0.4989058910728511
269,2173.9900000000002,0.4966106377990168
270,2184.03,0.4920567827570453
271,2187.7616199999998,0.50064211627965
272,2194.11,0.5152482297858157
273,2204.23,0.50236561511368
274,2214.41,0.47754690213321127
275,2224.63,0.4656050902805207
276,2234.9,0.4977556798375528
277,2245.22,0.4786484708043075
278,2255.58,0.45710356289884035
279,2265.99,0.46668215640309585
280,2276.45,0.480856351317074
281,2286.96,0.4943432476407748
282,2297.51,0.4646563450922537
283,2302.81,0.4711724945228545
284,2313.44,0.4521520942298896
285,2324.12,0.3642392953466474
286,2334.84,0.41925759759118336
287,2345.62,0.4041933015273865
288,2356.45,0.4412540068733122
289,2367.33,0.40344731362896064
290,2372.7799999999997,0.4176742672887293
291,2383.73,0.3836575760179894
292,2394.74,0.4093064864389167
293,2405.79,0.3955020979876221
294,2416.9,0.40574091122799466
295,2422.47,0.43481376827109774
296,2433.65,0.42016018348508205
297,2444.88,0.44311600010878904
298,2456.17,0.43814871842416314
299,2467.5,0.4342389378673154
300,2473.19,0.41858879829375284
301,2484.6099999999997,0.4245146202744058
302,2496.08,0.39264154366478143
303,2507.6,0.44884866846487975
304,2511.88643,0.40862027296998626
305,2513.38,0.39460297302059955
306,2519.17,0.401992209840145
307,2524.98,0.38928824644145044
308,2536.63,0.3966257193167016
309,2542.4799999999996,0.3930374554815273
310,2554.22,0.4222210273746988
311,2566.01,0.40986789872227064
312,2577.85,0.4332681695242426
313,2583.7900000000004,0.42737760470698866
314,2595.7200000000003,0.42065277452688105
315,2607.7,0.4074182438011736
316,2613.71,0.40003067822008
317,2625.7799999999997,0.421895346512293
318,2637.9,0.4388524142589062
319,2643.98,0.4779347479139729
320,2656.1800000000003,0.4914551147876265
321,2662.31,0.4431398478970934
322,2674.59,0.46415291389778723
323,2686.94,0.4653404791346415
324,2693.13,0.44139911158938866
325,2705.5600000000004,0.4559831759532832
326,2718.05,0.4305886396624581
327,2724.32,0.4306467712442456
328,2736.8900000000003,0.45106383408046075
329,2743.2000000000003,0.3893144652257685
330,2755.86,0.40125432707990405
331,2762.2200000000003,0.418286057679612
332,2774.97,0.43811291855166795
333,2787.78,0.4071067787690042
334,2794.2,0.3294372087139924
335,2807.1000000000004,0.351469767949249
336,2813.57,0.43245919734863736
337,2826.5600000000004,0.4603215556018144
338,2833.0699999999997,0.444760084564723
339,2846.15,0.43375564183582044
340,2852.71,0.4133412702531293
341,2865.88,0.458597126542147
342,2872.49,0.4586576544138561
343,2884.0315,0.4569359722013606
344,2885.74,0.4566811280915226
345,2892.4,0.454649526604235
346,2912.45,0.4952821221267402
347,2932.63,0.4764831176202143
348,2952.96,0.46799231308019085
349,2966.59,0.4779257100363877
350,2987.16,0.47923880544276826
351,3007.86,0.4849983008201178
352,3028.71,0.48521649616396983
353,3049.71,0.48654619147432443
354,3070.84,0.49127828675564783
355,3092.13,0.4949008820012406
356,3113.5600000000004,0.49626777721556914
357,3127.94,0.48848217400427857
358,3149.6200000000003,0.492089569162778
359,3171.4500000000003,0.49459366428777984
360,3193.43,0.4682187593792843
361,3208.17,0.4859441560875999
362,3230.4100000000003,0.4621599511210421
363,3252.8,0.49316814612098675
364,3267.82,0.5106654427667736
365,3290.47,0.5073904377086561
366,3311.31121,0.5076130986781887
367,3313.28,0.5076341246498045
368,3320.92,0.5065491920350246
369,3328.57,0.5172409593775551
370,3336.24,0.5305909266347067
371,3343.93,0.49526109380647926
372,3351.6400000000003,0.5057103608928728
373,3359.37,0.5116456278938873
374,3367.1099999999997,0.5047128948522124
375,3374.88,0.46249976168246887
376,3382.6600000000003,0.4777313284700359
377,3390.45,0.5167236952149135
378,3398.27,0.5120637618317225
379,3406.1000000000004,0.500494328405842
380,3413.9599999999996,0.507538294851893
381,3421.8199999999997,0.525468961297944
382,3429.71,0.5124082276159264
383,3437.6200000000003,0.52201679384853
384,3445.5400000000004,0.462126360038444
385,3453.4900000000002,0.5306829261002894
386,3461.45,0.4851807921194454
387,3469.43,0.4977159580532224
388,3477.42,0.4775936239443098
389,3485.44,0.4921859897073288
390,3493.48,0.4877534553849688
391,3501.5299999999997,0.4912135210199193
392,3509.6,0.4935680865694907
393,3517.69,0.47909765203368315
394,3525.8,0.4914663174124966
395,3533.9300000000003,0.5158975827059311
396,3542.0800000000004,0.5328968479139864
397,3550.2400000000002,0.5305358130793524
398,3558.42,0.5173607781593393
399,3566.63,0.5282848431112577
400,3574.85,0.4752715080204866
401,3583.0899999999997,0.4720871728443366
402,3591.35,0.44268253758280746
403,3599.6299999999997,0.5130622022358993
404,3607.93,0.4844454668036123
405,3610.12,0.5182541574546112
406,3612.86,0.4794991457576875
407,3615.59,0.5022334341034533
408,3618.3199999999997,0.5166253224492191
409,3621.05,0.4945753107949849
410,3623.79,0.4882705990980612
411,3626.5199999999995,0.495939587443827
412,3629.25,0.5047991757895929
413,3631.98,0.5252662641353586
414,3634.7200000000003,0.547682552438435
415,3637.45,0.5101033407842007
416,3640.1800000000003,0.5303691291299666
417,3642.92,0.5370374174330429
418,3645.6499999999996,0.5523398057788087
419,3648.38,0.5459940941245744
420,3651.11,0.5531640824703403
421,3653.8500000000004,0.5306822707734166
422,3656.58,0.5604108591191824
423,3659.31,0.5386935474649482
424,3662.04,0.5164859358107141
425,3664.78,0.5413620241137903
426,3667.5099999999998,0.5219207124595562
427,3670.2400000000002,0.527278800805322
428,3672.98,0.5159843891083983
429,3675.71,0.532520977454164
430,3678.44,0.5363208657999299
431,3681.17,0.5279792541456957
432,3683.9100000000003,0.525132242448772
433,3686.64,0.5070827307945378
434,3689.3700000000003,0.5032580191403037
435,3692.1,0.5104543074860693
436,3694.8399999999997,0.5309535957891457
437,3697.57,0.5350685841349114
438,3700.3,0.5324257724806774
439,3703.0299999999997,0.5393857608264431
440,3705.77,0.5312601491295195
441,3708.5,0.5313046374752852
442,3711.23,0.511679525821051
443,3713.97,0.5559189141241273
444,3716.7,0.5469734024698931
445,3719.4300000000003,0.5836173908156589
446,3722.16,0.7043329791614248
447,3724.9,0.873365067464501
448,3727.63,1.219245055810267
449,3730.3599999999997,1.5194130441560327
450,3733.09,1.3554570325017985
451,3735.83,0.9674855208048747
452,3738.5600000000004,0.6985452091506407
453,3741.29,0.6009764974964064
454,3744.0299999999997,0.5862065857994827
455,3746.76,0.6046427741452485
456,3749.49,0.5875650624910144
457,3752.22,0.5457316508367801
458,3754.96,0.5674650391398565
459,3757.69,0.6093263274856222
460,3760.42,0.6316756158313881
461,3763.15,0.6284025041771538
462,3765.89,0.6198038924802302
463,3768.62,0.614657580825996
464,3771.35,0.5786277691717618
465,3774.0800000000004,0.5691570575175275
466,3776.82,0.6178169458206039
467,3779.5499999999997,0.6839963341663696
468,3782.28,0.7326332225121356
469,3785.02,0.7612377108152117
470,3787.7499999999995,0.7632871991609776
471,3790.48,0.7421215875067434
472,3793.21,0.6969268758525092
473,3795.9500000000003,0.6477017641555854
474,3798.68,0.6107531525013513
475,3801.41,0.5836697408471171
476,3801.8939600000003,0.5854281090536452
477,3804.14,0.5935886311907055
478,3806.88,0.6588281219309752
479,3809.61,0.7293317127050395
480,3812.34,0.7464026034791037
481,3815.08,0.7421191942193733
482,3817.81,0.7539290849934377
483,3820.54,0.7559872757675019
484,3823.2699999999995,0.7190123665415662
485,3826.01,0.6962498572818359
486,3828.74,0.6670220480559
487,3831.4700000000003,0.6308086388299644
488,3834.2,0.5899994296040287
489,3836.9399999999996,0.5514106203442983
490,3839.67,0.5635266111183626
491,3842.4,0.6126448018924269
492,3845.13,0.6654134926664911
493,3847.87,0.7187999834067608
494,3850.6,0.7604338741808251
495,3853.33,0.7893574649548893
496,3856.0699999999997,0.809479255695159
497,3858.8,0.8110298464692234
498,3861.53,0.8210278372432875
499,3864.2599999999998,0.8360941280173518
500,3867.0,0.8499394187576216
501,3869.73,0.8450911095316858
502,3872.4599999999996,0.8362771003057501
503,3875.19,0.8206177910798144
504,3877.93,0.7852144818200839
505,3880.6600000000003,0.7524502725941483
506,3883.39,0.7134620633682126
507,3886.1299999999997,0.6664954541084822
508,3888.86,0.6401212448825465
509,3891.5899999999997,0.6213365356566108
510,3894.32,0.638941326430675
511,3897.06,0.6600266171709447
512,3899.7900000000004,0.6919700079450091
513,3902.52,0.7383921987190732
514,3905.25,0.7750277894931376
515,3907.9900000000002,0.7989313802334073
516,3910.72,0.8095332710074714
517,3913.45,0.8241969617815358
518,3916.1800000000003,0.8451021525556001
519,3918.92,0.8470773432958696
520,3921.6499999999996,0.8360399340699339
521,3924.38,0.8102700248439982
522,3927.12,0.7853624155842679
523,3929.85,0.7259081063583321
524,3932.58,0.6827703971323965
525,3935.3100000000004,0.6413309879064607
526,3938.05,0.6408558786467303
527,3940.7799999999997,0.7070789694207947
528,3943.51,0.7585346601948589
529,3946.24,0.7948988509689232
530,3948.9800000000005,0.8106088417091929
531,3951.71,0.8221124324832572
532,3954.44,0.8305523232573214
533,3957.1800000000003,0.7809854139975911
534,3959.91,0.7316679047716553
535,3962.64,0.6868933955457196
536,3965.37,0.635728286319784
537,3968.11,0.5748173770600536
538,3970.84,0.5395930678341179
539,3973.57,0.5561646586081822
540,3976.2999999999997,0.5972906493822465
541,3979.04,0.645530440122516
542,3981.77,0.7207611308965803
543,3984.5000000000005,0.7794386216706447
544,3987.23,0.7966408124447089
545,3989.97,0.8252627031849786
546,3992.7000000000003,0.8516213939590429
547,3995.43,0.8608052847331071
548,3998.1699999999996,0.8758323754733768
549,4000.9,0.8800352662474411
550,4003.63,0.8766225570215053
551,4006.36,0.8852023477955696
552,4009.1,0.8950908385358394
553,4011.83,0.9059466293099036
554,4014.56,0.8826628200839678
555,4017.29,0.9173290108580322
556,4020.03,0.8997307015983017
557,4022.76,0.9259931923723661
558,4025.49,0.9071736831464303
559,4028.23,0.8955278738867
560,4030.96,0.8961418646607643
561,4033.6899999999996,0.8998196554348286
562,4036.42,0.8991206462088928
563,4039.16,0.8978918369491624
564,4041.8900000000003,0.9176764277232268
565,4044.62,0.914263618497291
566,4047.35,0.9156654092713553
567,4050.09,0.917850600011625
568,4052.8199999999997,0.8900148907856892
569,4055.55,0.9089240815597536
570,4058.28,0.9148779723338178
571,4061.02,0.9044576630740874
572,4063.75,0.8808236538481518
573,4066.48,0.883451044622216
574,4069.2200000000003,0.8803840353624857
575,4071.95,0.86666812613655
576,4074.68,0.8929919169106143
577,4077.4100000000003,0.8623723076846784
578,4080.15,0.8464461984249482
