,lambda (Angstroms),Total Flux (erg/s/cm^2/Angstrom)
0,100.05999999999999,0.0026957946056643625
1,101.92,0.0032408913008127927
2,104.05,0.0038649382934343762
3,104.712855,0.004059219245771036
4,105.99000000000001,0.0037477503699423287
5,107.96,0.0032675612249000777
6,109.97,0.0027786034993188924
7,114.09,0.0017750350418092014
8,118.1,0.000798687793281568
9,120.22644299999999,0.0003027029651864817
10,121.13000000000001,0.000302431283406415
11,125.10000000000001,0.00026813396783981777
12,127.13000000000001,0.0002496528132553865
13,128.01,0.00024302996136656916
14,131.0,0.00021575072835797323
15,131.9,0.00021815999233531887
16,134.05,0.00019880388294786692
17,136.85,0.0001900241642107205
18,138.038426,0.0001800671868197223
19,140.04000000000002,0.00018511969436448326
20,142.97,0.0004023302855858925
21,146.98,0.0009110632950732136
22,151.1,0.0009618508980876184
23,154.97,0.0010270730885404695
24,158.489319,0.0010910796717985552
25,158.95,0.0010993595250914914
26,161.9,0.0011516873382505376
27,166.06,0.0012383340781629555
28,169.92,0.001306440803177843
29,173.08,0.0013667068267651605
30,177.11999999999998,0.0014390381607185664
31,179.99,0.0014930020365716047
32,181.970086,0.0015302051401911855
33,182.07999999999998,0.0015323593741845107
34,185.89000000000001,0.001610563295144616
35,191.1,0.0017120765125205081
36,194.2,0.001787164311726893
37,197.81,0.0018616387617704574
38,201.95999999999998,0.0019522717832886824
39,204.76999999999998,0.002015328349666083
40,208.929613,0.0020268786929721967
41,210.02,0.002030998091183127
42,215.9,0.002249447238880033
43,219.92000000000002,0.002352212186795265
44,222.98,0.0023878085799844714
45,227.12,0.002502190347240456
46,229.75,0.003754552387791964
47,234.01999999999998,0.006315940959333764
48,239.88329199999998,0.007624054076121794
49,240.01999999999998,0.00765425511460529
50,246.18,0.007208040519148642
51,251.92,0.007555370577927677
52,257.19,0.006378454654541875
53,260.16999999999996,0.007260387584012523
54,263.79,0.007543788659409753
55,268.69,0.007487432026660148
56,273.69,0.00739740866671157
57,275.42287,0.0073670639632901075
58,278.78,0.007315129436834671
59,283.96000000000004,0.007270584417777936
60,289.90999999999997,0.006857689017510065
61,295.98,0.006911315103287211
62,300.79,0.006791644085591671
63,307.79,0.0067836854382177045
64,316.227766,0.006779652242808231
65,317.87,0.006775868360618497
66,328.28999999999996,0.006615564464741134
67,338.26,0.006415658997188608
68,347.74,0.006206888840478685
69,356.66,0.006060379039017448
70,363.078055,0.005969050203387594
71,365.81,0.005933930067029251
72,375.18999999999994,0.005766346113034844
73,384.82000000000005,0.005440841799925449
74,394.69,0.0054343761020656635
75,404.81000000000006,0.005318539045090888
76,414.24,0.005158243219273484
77,416.86938299999997,0.005104870415583414
78,421.95000000000005,0.005000516390995611
79,429.79,0.004869782795345555
80,440.81,0.00473298286880683
81,451.08000000000004,0.00454850779389279
82,460.53,0.004410725263421742
83,470.17,0.004277615423872439
84,478.630092,0.004183080622615575
85,480.02000000000004,0.00416638816457173
86,490.07,0.003979175248785299
87,500.33,0.003886069788489898
88,506.11999999999995,0.0037887752041711486
89,511.98,0.0038373374383494085
90,520.3,0.0037398375797083037
91,529.98,0.0035870860518662485
92,539.83,0.003409543940374075
93,549.5408739999999,0.0032957185927747898
94,549.87,0.003291965998966385
95,560.09,0.0032608262242199777
96,570.5,0.003208488135657346
97,579.77,0.003072787929992062
98,590.5500000000001,0.0030165157566294136
99,600.15,0.002869482637493845
100,609.9,0.002534937375871783
101,619.8100000000001,0.002771383428930795
102,629.88,0.0026720377966708807
103,630.957344,0.002666872830759086
104,640.11,0.002626309009179879
105,650.51,0.0025529378412374516
106,658.0500000000001,0.0024702028944791916
107,665.67,0.0024662165848906054
108,674.93,0.002413630337280329
109,684.32,0.0022949691250707714
110,695.43,0.002307592612009198
111,705.11,0.0021849837095397075
112,716.5699999999999,0.0022115999840954556
113,724.43596,0.00217134011142479
114,726.53,0.0021604346035878456
115,734.95,0.002123379903384266
116,745.17,0.0020782411888853845
117,755.54,0.0020342052231952274
118,764.29,0.0018680475703708424
119,774.9200000000001,0.0019618463692824754
120,785.7,0.001899578917002833
121,794.8,0.0018882056780654725
122,805.85,0.0018648851736415351
123,815.1899999999999,0.0018336513327981343
124,824.6199999999999,0.0018188291412399686
125,831.763771,0.0017009299959433587
126,834.1700000000001,0.0016603127322672617
127,845.78,0.0017423758763029174
128,855.5699999999999,0.0017060194981900032
129,865.48,0.001692329165493478
130,875.5,0.0016824624577619768
131,885.64,0.0016688517954468645
132,895.89,0.0016516777580967757
133,904.18,0.0016102693122789964
134,914.6500000000001,0.0019951475248589545
135,925.2399999999999,0.005908484782855302
136,935.96,0.011188798506719404
137,944.62,0.019523564617602157
138,954.992586,0.02636141031745635
139,955.5600000000001,0.02673558582397608
140,964.4,0.02957920539922355
141,975.57,0.006217162975639188
142,984.59,0.024557542211921107
143,995.9899999999999,0.025829257410769656
144,1005.21,0.03713337149264541
145,1014.51,0.0356285323127587
146,1023.9,0.015803569463389212
147,1035.75,0.024952526314823885
148,1045.34,0.046516415311048234
149,1055.01,0.045354081045510114
150,1064.77,0.03554496311048922
151,1074.6200000000001,0.04204077150598556
152,1084.57,0.03279612582427881
153,1094.6,0.043614556880809584
154,1096.4782,0.04323331880268255
155,1104.73,0.04155764729821371
156,1114.95,0.039597603133464124
157,1125.27,0.03529630620780702
158,1135.68,0.04472684779733313
159,1146.19,0.04042121662595172
160,1154.13,0.04271347340989382
161,1164.81,0.0438068305449696
162,1175.59,0.03004339491913785
163,1183.74,0.041833924905174145
164,1194.69,0.028624967585799594
165,1205.75,0.020511876229426757
166,1214.1100000000001,0.01384982941755724
167,1225.3400000000001,0.027842866367641605
168,1233.8300000000002,0.04192519296659229
169,1245.25,0.045963365670952355
170,1253.8799999999999,0.043594284404632505
171,1258.92541,0.04077321722910541
172,1265.48,0.03710921005890371
173,1274.2600000000002,0.04801552975277012
174,1286.05,0.0501614467676545
175,1294.96,0.03921666764149843
176,1303.94,0.03841265915071486
177,1316.0,0.04823807861632178
178,1325.12,0.04585648139628324
179,1334.31,0.040222124811617216
180,1343.56,0.048016258771556186
181,1355.99,0.04617483159556067
182,1365.3899999999999,0.04087450691701217
183,1374.85,0.04289758278306869
184,1384.38,0.04309619928449771
185,1393.98,0.03719619642129924
186,1403.6399999999999,0.03850258410270579
187,1416.63,0.039217792009690354
188,1426.45,0.040130121143376926
189,1436.3400000000001,0.03967198091243601
190,1442.97,0.04182586109128957
191,1445.43977,0.042259454607901314
192,1446.29,0.042408719985846714
193,1456.3200000000002,0.041064006394619865
194,1466.4099999999999,0.037540793260474395
195,1476.5800000000002,0.0372824407357708
196,1483.3899999999999,0.0378879126145091
197,1493.68,0.038414691003968285
198,1504.0300000000002,0.036102019850508864
199,1510.97,0.031959362719590184
200,1517.95,0.03424173589339244
201,1524.9499999999998,0.03300460921955514
202,1535.52,0.02848771974206084
203,1546.17,0.0313771008740084
204,1553.3,0.029420005190514135
205,1564.07,0.029829677236624483
206,1574.9099999999999,0.03174009981599645
207,1585.83,0.03323327300481029
208,1596.82,0.03377321672688575
209,1604.19,0.03300525287171706
210,1615.3100000000002,0.032929477584135544
211,1626.51,0.030947892905995884
212,1634.02,0.032853740117350455
213,1645.3400000000001,0.033310836353373584
214,1656.75,0.030452703275018804
215,1659.58691,0.03151409683673056
216,1664.39,0.033311342096958914
217,1672.08,0.029421239914709407
218,1675.9299999999998,0.03338882410174964
219,1683.6699999999998,0.03479963470115001
220,1695.34,0.03240638393823041
221,1703.1599999999999,0.030950998988270563
222,1714.97,0.029289686013970608
223,1726.8600000000001,0.029021707490310446
224,1734.83,0.030881120885300227
225,1746.8500000000001,0.030040999593929734
226,1754.92,0.03203853855221926
227,1763.0199999999998,0.029090959179498714
228,1775.2399999999998,0.02983685901472772
229,1783.43,0.03025154464897694
230,1795.79,0.03241218227282559
231,1804.0800000000002,0.03189430347037456
232,1816.59,0.029362479439172823
233,1824.97,0.029839635643691565
234,1833.4,0.02849806462986018
235,1846.1,0.025996501168927964
236,1854.6299999999999,0.026116765718396325
237,1863.19,0.026970811936854612
238,1876.1,0.02903032015885186
239,1884.76,0.026725131940609895
240,1893.4599999999998,0.025702185947687826
241,1905.46072,0.026921461349257707
242,1906.59,0.027036052601290904
243,1915.3899999999999,0.025998851539627107
244,1924.23,0.025350217609501204
245,1933.1100000000001,0.02570088081091319
246,1946.51,0.02722017987610695
247,1955.49,0.025463725906363668
248,1969.05,0.027915193497709
249,1978.1399999999999,0.02843285163969492
250,1982.7,0.02703042463501459
251,1996.4399999999998,0.026173019318280435
252,2005.6599999999999,0.026780318137764502
253,2014.91,0.02581352480590199
254,2024.2099999999998,0.026656627888461838
255,2033.5600000000002,0.025576507385444057
256,2042.94,0.026655134731079694
257,2057.1,0.0253979292954934
258,2066.6,0.02533993803574271
259,2076.14,0.02721084390752991
260,2085.7200000000003,0.029762696910855008
261,2095.35,0.027906196328602466
262,2105.02,0.02777704287788782
263,2114.74,0.028487035841595534
264,2124.5,0.028226545936841138
265,2134.3,0.02616326316362464
266,2144.16,0.027966776087714976
267,2154.05,0.02868296686045873
268,2163.9900000000002,0.027141894047624855
269,2173.98,0.026892777649213336
270,2184.02,0.027899917665224188
271,2187.7616199999998,0.028213874901276883
272,2194.1,0.02874654174525648
273,2204.23,0.02790031092886251
274,2214.4,0.02527438239947192
275,2224.62,0.025390566728835554
276,2234.89,0.02874877391695341
277,2245.21,0.0273303239638255
278,2255.57,0.024701296297700962
279,2265.98,0.024589291490330654
280,2276.44,0.02568764954171457
281,2286.9500000000003,0.028357760451852707
282,2297.5,0.02569753364899423
283,2302.8,0.027223886676942106
284,2313.43,0.024960304448090383
285,2324.11,0.019708805077992893
286,2334.84,0.021618018566649622
287,2345.61,0.019550204342309738
288,2356.44,0.023833483548474914
289,2367.32,0.019751185613394322
290,2372.77,0.021311977217604874
291,2383.73,0.01828179385653104
292,2394.73,0.02000543278246059
293,2405.7799999999997,0.019295214567144364
294,2416.89,0.020305069782333204
295,2422.46,0.024465278247553894
296,2433.64,0.023922117464998654
297,2444.87,0.026482489541197637
298,2456.16,0.02686418504790169
299,2467.5,0.025031713413359972
300,2473.1800000000003,0.023370498167839954
301,2484.6,0.020703081107304996
302,2496.07,0.02090634690552426
303,2507.59,0.02595925556249775
304,2511.88643,0.02078633189352973
305,2513.37,0.0189999883824189
306,2519.16,0.018573120259776036
307,2524.9700000000003,0.018197491694567906
308,2536.62,0.020801173900303758
309,2542.47,0.02095088444996511
310,2554.21,0.028128314664157286
311,2566.0,0.02407095377193632
312,2577.84,0.027772431773302197
313,2583.7900000000004,0.026047710110137245
314,2595.71,0.02466417634124208
315,2607.6899999999996,0.02277098124465114
316,2613.7,0.021754518253790406
317,2625.77,0.02521311116565579
318,2637.89,0.034246532971108024
319,2643.97,0.042326618431268885
320,2656.17,0.05391972846646008
321,2662.3,0.037587982820207776
322,2674.58,0.04170913108513793
323,2686.9300000000003,0.04617573780108967
324,2693.12,0.036699500827141594
325,2705.5600000000004,0.04283607555154966
326,2718.04,0.03397798939082721
327,2724.31,0.029405200646618095
328,2736.8799999999997,0.034638392494351966
329,2743.1899999999996,0.023875872865012332
330,2755.8500000000004,0.02825251272120254
331,2762.21,0.03373271198544975
332,2774.96,0.03566674985009628
333,2787.77,0.026106006387047034
334,2794.1899999999996,0.016799604323598467
335,2807.0899999999997,0.018767908869005544
336,2813.56,0.03281514569914382
337,2826.5499999999997,0.042872048253007236
338,2833.06,0.040863414198014994
339,2846.14,0.032561724760334726
340,2852.7000000000003,0.02393624959892934
341,2865.87,0.04149076816970541
342,2872.48,0.05235707190188686
343,2884.0315,0.04865815675895472
344,2885.73,0.048114315518074095
345,2892.3900000000003,0.05666806250202724
346,2912.44,0.07373028342218645
347,2932.6200000000003,0.0651752642834739
348,2952.95,0.06088390507683234
349,2973.42,0.06366327580679042
350,2987.15,0.06443964958902412
351,3007.8500000000004,0.06494528021482442
352,3028.7,0.06869721077269572
353,3049.69,0.07101395126716666
354,3070.83,0.0768658116937086
355,3092.12,0.07553502205232156
356,3113.5499999999997,0.08620490234753413
357,3127.92,0.08032053583993752
358,3149.61,0.08058424601740652
359,3171.4399999999996,0.08783213613147514
360,3193.42,0.07640305617761477
361,3208.16,0.08421192950246001
362,3230.4,0.07158787943085607
363,3252.79,0.09821928929132315
364,3267.81,0.11362072248936761
365,3290.46,0.11140421223209111
366,3311.31121,0.10558524345684106
367,3313.27,0.10503858583229364
368,3320.9,0.1005787197798675
369,3328.56,0.10930395346773325
370,3336.23,0.11086188706902964
371,3343.92,0.10397802049718728
372,3351.63,0.1030599537522062
373,3359.36,0.11408148683408639
374,3367.1,0.10798911982939723
375,3374.86,0.0784495826515693
376,3382.64,0.09156029530060267
377,3390.44,0.11087091777649731
378,3398.26,0.1073917500792532
379,3406.09,0.11094768229543973
380,3413.9399999999996,0.10846131433848752
381,3421.81,0.11545484620839659
382,3429.7,0.10928757790516694
383,3437.6099999999997,0.11135730942879854
384,3445.53,0.07327668086586077
385,3453.4700000000003,0.11695367212978429
386,3461.44,0.09576345313399968
387,3469.4199999999996,0.10383333405164574
388,3477.4100000000003,0.09047302488272241
389,3485.43,0.10342949545409098
390,3493.4700000000003,0.09200728585232083
391,3501.52,0.10542625616398132
392,3509.59,0.11590068630250308
393,3517.6800000000003,0.0966653862678861
394,3525.79,0.09849673606013037
395,3533.9199999999996,0.11817977567923593
396,3542.0600000000004,0.12843590521177212
397,3550.2299999999996,0.12555763448460022
398,3558.4100000000003,0.11614896367085893
399,3566.62,0.11999389259740957
400,3574.84,0.08818083143739083
401,3583.08,0.08561241010423336
402,3591.34,0.08179103859793715
403,3599.62,0.12670080691850222
404,3607.92,0.10470593506592857
405,3616.2300000000005,0.11327026312678554
406,3624.5699999999997,0.1117566909279344
407,3632.92,0.13721501864251393
408,3641.3,0.13789844609738533
409,3649.69,0.11395777346568736
410,3658.11,0.1485531005742813
411,3666.54,0.1489390275963059
412,3674.9900000000002,0.14764025444519174
413,3683.46,0.12398648112093885
414,3691.95,0.11927290762354724
415,3700.46,0.14779693395301688
416,3709.0,0.10565316002277846
417,3717.55,0.16142938600597062
418,3726.12,0.0951090218160241
419,3734.7000000000003,0.11976913753950819
420,3743.32,0.1331958629167148
421,3751.94,0.07865914829392144
422,3760.5899999999997,0.12185151341141998
423,3769.2599999999998,0.11939773835577977
424,3777.95,0.14392736312700083
425,3786.66,0.16759598772508316
426,3795.3900000000003,0.12719751215002678
427,3801.8939600000003,0.1179261537793713
428,3804.14,0.1147244404531843
429,3812.91,0.15057958035096444
430,3821.7000000000003,0.11694552011168136
431,3830.5099999999998,0.08814590973533507
432,3839.34,0.07913906922192555
433,3848.19,0.12778223857145285
434,3857.06,0.1332386777839169
435,3865.9500000000003,0.13328961685931776
436,3874.86,0.10964635579765537
437,3883.8,0.11807289453039817
438,3892.75,0.10822563319460937
439,3901.7200000000003,0.14977967172175735
440,3910.72,0.15227741004331052
441,3919.73,0.16586814829633206
442,3928.77,0.1383468863437588
443,3937.82,0.053131324322653925
444,3946.8999999999996,0.12627566209595423
445,3956.0,0.16575399973219132
446,3965.12,0.1257942372313652
447,3976.5499999999997,0.1416290588997377
448,3979.29,0.09611224012207721
449,3982.0299999999997,0.12685492134441675
450,3984.7700000000004,0.13254940256675626
451,3987.51,0.20775238378909577
452,3990.25,0.15594576501143528
453,3992.9900000000002,0.1836833462337748
454,3995.73,0.18872252745611434
455,3998.4599999999996,0.18112860874698544
456,4001.2,0.19607518996932496
457,4003.94,0.1894511711916645
458,4006.6800000000003,0.279102652414004
459,4009.42,0.16943643363634353
460,4012.1600000000003,0.23907321485868305
461,4014.9,0.18402599608102255
462,4017.6400000000003,0.13380247730336206
463,4020.38,0.16525315852570158
464,4023.12,0.21578903974804112
465,4025.8500000000004,0.24696822103891225
466,4028.59,0.17901550226125176
467,4031.3300000000004,0.25349188348359125
468,4034.07,0.2673534647059308
469,4036.81,0.2580598459282703
470,4039.55,0.2648121271506098
471,4042.29,0.2712075083729493
472,4045.03,0.19057818959528888
473,4047.77,0.1988722708176284
474,4050.5,0.18306985210849952
475,4053.2400000000002,0.17190613333083904
476,4055.98,0.19713121455317856
477,4058.7200000000003,0.19934379577551806
478,4061.46,0.1806567769978576
479,4064.2,0.22723835822019708
480,4066.94,0.23677443944253662
481,4069.68,0.19431832066487614
482,4072.42,0.29406260188721567
483,4075.16,0.2796438831095552
484,4077.8900000000003,0.2096082644004263
485,4080.63,0.1956464456227658
486,4083.37,0.2267674268451053
487,4086.11,0.19931510806744485
488,4088.85,0.25738858928978436
489,4091.59,0.18392557051212388
490,4094.33,0.20912215173446339
491,4097.07,0.1924480329568029
492,4099.8099999999995,0.20282631417914243
493,4102.55,0.15630169540148195
494,4105.28,0.1990154766923531
495,4108.02,0.18686665791469262
496,4110.76,0.20475403913703213
497,4113.5,0.21665992035937165
498,4116.24,0.24995070158171115
499,4118.98,0.2123483828040507
500,4121.72,0.2085794640263902
501,4124.46,0.23007854524872973
502,4127.2,0.18530982647106922
503,4129.9400000000005,0.18172650769340876
504,4132.67,0.19230558898427985
505,4135.41,0.1796000702066194
506,4138.15,0.2276521514289589
507,4140.889999999999,0.22663833265129843
508,4143.63,0.19755861387363793
509,4146.37,0.24818019509597747
510,4149.11,0.23096357631831696
511,4151.85,0.2299783575406565
512,4154.59,0.233661438762996
513,4157.32,0.2723354200538671
514,4160.0599999999995,0.24164240127620668
515,4162.8,0.1668088824985462
516,4165.54,0.1822407637208857
517,4168.28,0.22271244494322523
518,4171.0199999999995,0.24706662616556474
519,4173.76,0.21127730738790426
520,4176.5,0.2649252886102438
521,4179.24,0.2703212698325833
522,4181.9800000000005,0.2502781510549228
523,4184.71,0.23240593234579393
524,4187.45,0.2826135135681334
525,4190.19,0.27940139479047293
526,4192.93,0.2327623760128125
527,4195.67,0.194760357235152
528,4198.41,0.25641703845749153
529,4201.150000000001,0.28662431967983104
530,4203.89,0.22196940090217054
531,4206.63,0.14926318212451006
532,4209.37,0.1860800633468496
533,4212.099999999999,0.2406856446377207
534,4214.84,0.2350180258600602
535,4217.58,0.22513910708239973
536,4220.320000000001,0.24149898830473926
537,4223.06,0.26559626952707877
538,4225.8,0.25753035074941827
539,4228.54,0.19827163197175782
540,4231.28,0.17862821319409733
541,4234.02,0.21076269441643686
542,4236.76,0.20735067563877638
543,4239.49,0.2040252569296475
544,4242.2300000000005,0.21673053815198703
545,4244.97,0.25037831937432653
546,4247.71,0.23450360059666606
547,4250.45,0.22244048181900558
548,4253.19,0.2317766630413451
549,4255.93,0.1709763442636846
550,4258.67,0.23333252548602412
551,4261.41,0.25584510670836363
552,4264.15,0.23684408793070316
553,4266.88,0.2224407692215743
554,4269.62,0.2290503504439138
555,4272.36,0.24101333166625333
556,4275.1,0.21939971288859283
557,4277.84,0.21717259411093234
558,4280.58,0.23173367533327188
559,4283.32,0.2080073565556114
560,4286.0599999999995,0.2116046377779509
561,4288.8,0.19927031900029044
562,4291.53,0.16766470029116157
563,4294.27,0.19808618151350108
564,4297.01,0.2349888627358406
565,4299.75,0.18182584395818013
566,4302.49,0.17658652518051965
567,4305.23,0.18269650640285917
568,4307.97,0.19660088762519867
569,4310.71,0.2103197688475382
570,4313.45,0.2367867500698777
