,lambda (Angstroms),Total Flux (erg/s/cm^2/Angstrom)
0,101.98,0.10813569726586761
1,104.11,0.12884404352572743
2,104.712855,0.13470513746518564
3,106.05,0.12385817050793312
4,108.02000000000001,0.10787746169255616
5,110.03,0.09157227151710545
6,113.89,0.06025981677675845
7,117.9,0.02773055689556061
8,120.22644299999999,0.008858371661003566
9,120.92,0.008598040919113922
10,124.88000000000001,0.007111630140040845
11,126.91,0.006349657040144059
12,128.09,0.005906736829102615
13,131.07,0.004788175773199962
14,131.98,0.004446603156897505
15,134.12,0.0036433416325273448
16,136.93,0.0025885948683901584
17,138.038426,0.0021725413291313316
18,140.12,0.0021449494109075195
19,143.05,0.00210615607793515
20,147.06,0.0020531438054794847
21,150.82999999999998,0.0020032236327789965
22,155.06,0.0019472221594402526
23,158.489319,0.001901841211767491
24,159.04000000000002,0.0018906375389368838
25,162.0,0.0018304263637472327
26,166.15,0.0017460320862684982
27,170.02,0.0016673516137401363
28,173.18,0.0016031188186430758
29,176.80999999999997,0.0015293754332436054
30,180.10000000000002,0.0014625272321267284
31,181.970086,0.001424545777089955
32,182.18,0.0014259339862507101
33,185.99999999999997,0.0014512396893045032
34,191.20999999999998,0.0014857821290297027
35,193.87,0.0015034977363289407
36,197.93,0.0015304966464698834
37,202.07,0.0015580906399732084
38,204.88,0.001576875353826915
39,208.929613,0.0016037970190484478
40,210.14000000000001,0.001652089291166279
41,216.02,0.0018872767327481243
42,220.04,0.002048034582625508
43,223.1,0.002170350494203816
44,227.25,0.002336428187517534
45,229.88000000000002,0.0024456780801910476
46,234.14999999999998,0.002625251923292148
47,239.88329199999998,0.0028610730869515696
48,240.16,0.0028523671253327587
49,245.75,0.0026706051922366766
50,252.06,0.0024690439434645337
51,256.74,0.0023126976315701398
52,259.71999999999997,0.0022217517527997784
53,263.94,0.0020879793848095334
54,268.84999999999997,0.0019302954609630647
55,273.84,0.0017700029542637
56,275.42287,0.0017192075760155063
57,278.93,0.0018444349439284144
58,284.12,0.002029787356325203
59,290.07,0.0022397255917704613
60,296.14,0.0024578915408549518
61,300.96000000000004,0.0026297340070307765
62,307.97,0.002881631124622585
63,316.227766,0.0031787605417460236
64,318.05,0.0031338100951684334
65,327.72,0.0028943047003179086
66,337.68,0.002646786249727296
67,347.94,0.0023914825728538337
68,356.86,0.0021703250487104327
69,363.078055,0.0020167595791295363
70,366.02000000000004,0.0020784166376770267
71,375.40999999999997,0.002273170209938344
72,385.03999999999996,0.0024696153000210385
73,394.90999999999997,0.002679261307925109
74,405.03999999999996,0.0028911490851356698
75,413.53000000000003,0.0030677203405668316
76,416.86938299999997,0.0031363301328979527
77,422.18,0.003202927334003269
78,430.03,0.0033023148449534082
79,441.06,0.0034442226128234775
80,451.34000000000003,0.003573664295570922
81,459.73,0.0036797169558093518
82,470.44,0.0038151601833604333
83,478.630092,0.003920998071511384
84,480.29,0.003896384914601804
85,490.35,0.0037424122599142152
86,499.46,0.003610169421126549
87,506.40999999999997,0.0035409464942797553
88,512.27,0.0038170003572549766
89,520.6,0.0037359527588904026
90,530.28,0.0036444612905627834
91,540.13,0.003485985046758335
92,549.5408739999999,0.0036971887308633227
93,550.18,0.0037183193775931485
94,560.4,0.003934916922484096
95,569.51,0.004135997235004305
96,580.1,0.004040638857352166
97,589.52,0.0045021466942281665
98,600.48,0.00461272839403294
99,610.24,0.005119597031815294
100,620.16,0.005564608811200637
101,630.2299999999999,0.005936915973338782
102,630.957344,0.005940034820333062
103,640.47,0.006095272910583281
104,649.38,0.006904011296074925
105,658.42,0.007444876591792596
106,664.51,0.007850131232381161
107,675.31,0.008038397851158912
108,684.7,0.008141978597485122
109,694.23,0.010281804324054747
110,705.51,0.010082207303667063
111,715.3199999999999,0.01195696199072352
112,724.43596,0.012539539327000804
113,725.27,0.012590357610105529
114,735.36,0.013185103986761048
115,745.59,0.014974226545055001
116,754.23,0.01611124061188391
117,764.72,0.017225024936077808
118,775.3599999999999,0.01885822874059859
119,784.34,0.020541238962835124
120,795.25,0.02153513383194431
121,804.46,0.022663447924015406
122,815.65,0.023627723156401458
123,825.09,0.026159741118307118
124,831.763771,0.022950606357242633
125,834.65,0.02152667098175256
126,844.3100000000001,0.027719040891931387
127,854.09,0.028616452726460264
128,865.9699999999999,0.03091725323711497
129,876.0,0.03331762324737311
130,884.1,0.03657370814100132
131,894.34,0.038817199018872046
132,904.6899999999999,0.038895997494063646
133,915.17,0.06002189222063446
134,925.7700000000001,0.4446059488715553
135,934.33,0.9477378128085253
136,945.15,1.652697314654088
137,954.992586,2.0846306063916495
138,956.1,2.1332364907060226
139,964.9399999999999,2.2595185201391956
140,976.12,0.3485715808929144
141,985.1500000000001,1.5928791530401487
142,994.26,1.7993688168564614
143,1005.78,2.7285522172037635
144,1015.08,2.798613623734138
145,1024.48,1.5673618948508605
146,1033.96,2.1478990576366614
147,1045.93,3.70537484862253
148,1055.6100000000001,3.5064287405810273
149,1065.3700000000001,2.7410685242086026
150,1075.23,3.2649001724225264
151,1085.18,2.684807698764163
152,1095.22,3.5304091032335134
153,1096.4782,3.497448763600957
154,1105.36,3.264751756595027
155,1115.5800000000002,3.1468944421689815
156,1125.9099999999999,2.6237406615406993
157,1133.71,3.522142603563874
158,1144.2,3.2497211448232464
159,1154.79,3.3947532622624035
160,1165.47,3.3947589982633657
161,1176.26,1.981326268062091
162,1184.41,3.355949726714511
163,1195.3700000000001,2.8173942760188697
164,1203.65,1.963117183705009
165,1214.79,1.7138799701329792
166,1226.03,2.8630593327407343
167,1234.53,3.6372583080223992
168,1245.95,3.7389619077537652
169,1254.59,3.587252289687128
170,1258.92541,3.5476987850304518
171,1266.2,3.4813631083450214
172,1274.98,3.9422097551686557
173,1283.81,4.0154544170653175
174,1295.6899999999998,3.13162999841666
175,1304.67,3.3172617055324043
176,1313.7199999999998,4.024805433750387
177,1325.8700000000001,3.773679096496078
178,1335.0600000000002,3.505709866918538
179,1344.32,3.906147658443237
180,1353.64,3.8259164680555684
181,1366.1599999999999,3.4654452423416626
182,1375.6299999999999,3.4814000971730774
183,1385.17,3.4576189731067304
184,1394.77,2.5575598671280164
185,1404.44,2.7531417822515407
186,1414.1699999999998,3.1899427154626987
187,1423.97,3.204620669776095
188,1433.8400000000001,3.32485664519173
189,1440.46,3.4495536408605747
190,1445.43977,3.431744788729443
191,1447.1100000000001,3.42577156465426
192,1453.7900000000002,3.332453254779402
193,1463.87,3.0535158051478812
194,1474.02,3.1533503732272528
195,1484.23,3.1680489564873886
196,1494.52,3.1680215599885444
197,1504.88,2.902708181200593
198,1511.8300000000002,2.5517149396391767
199,1515.31,2.6967288201235324
200,1525.82,2.7657084792874924
201,1536.3899999999999,2.3219861536322166
202,1543.48,2.3273089474925857
203,1554.18,2.2901356547289673
204,1564.95,2.487967379676241
205,1575.8,2.6967441248645345
206,1586.73,2.7913628902938474
207,1594.05,2.7979127423471475
208,1605.1000000000001,2.8496565381379906
209,1616.2299999999998,2.8431033541698523
210,1623.69,2.753191241644937
211,1634.94,2.984022088038329
212,1646.27,3.01853795467274
213,1653.8700000000001,2.9160728775696096
214,1659.58691,3.0021788637016136
215,1665.34,3.088838954032214
216,1673.02,2.88290214440441
217,1676.88,3.204697276544602
218,1684.6200000000001,3.2120285777790802
219,1696.3,3.025663158970128
220,1704.13,2.95666262649803
221,1715.94,2.7849334478906904
222,1723.8600000000001,2.7721630817120175
223,1735.8100000000002,2.9567211617833373
224,1743.8200000000002,2.8830429618980884
225,1755.91,3.0048593006480684
226,1764.01,2.8896142670562432
227,1776.24,2.791586864484883
228,1784.4399999999998,2.8896430156635295
229,1796.8100000000002,3.039715871770829
230,1805.1000000000001,3.0750331892428995
231,1813.43,2.7344175806231585
232,1826.0000000000002,2.8764108062714007
233,1834.4299999999998,2.778898382422131
234,1842.9,2.52870303248105
235,1855.68,2.5520876461472817
236,1864.24,2.6236784624996248
237,1872.8500000000001,2.8369713712372038
238,1885.83,2.534593354444378
239,1894.5300000000002,2.371047429475381
240,1903.28,2.6237325968916196
241,1905.46072,2.5947905855146773
242,1916.47,2.4486314052846954
243,1925.3200000000002,2.365530327134092
244,1934.2,2.5287491775321302
245,1943.13,2.6236619088445714
246,1956.6,2.376393827184839
247,1965.6299999999999,2.6476723203260875
248,1974.7,2.7597817181988584
249,1983.82,2.575613996986033
250,1992.97,2.5286042043218493
251,2006.79,2.65382528906294
252,2016.05,2.599362234410444
253,2025.36,2.721764060672351
254,2034.71,2.4938307916657814
255,2044.1000000000001,2.5933044273907337
256,2053.53,2.482345967847209
257,2063.01,2.511055389218088
258,2072.54,2.7153486915033698
259,2077.31,2.448260330737451
260,2086.9,2.6051854901200175
261,2096.53,2.453861554234106
262,2106.21,2.540020499262598
263,2115.93,2.5693773490226133
264,2125.7000000000003,2.6050840796970314
265,2135.5099999999998,2.516648715102972
266,2145.37,2.4537252314233164
267,2155.27,2.5752176524751835
268,2165.22,2.5574629544414536
269,2175.21,2.5398611611392465
270,2185.25,2.464982248751443
271,2187.7616199999998,2.4865244230815473
272,2195.34,2.551556657541854
273,2205.47,2.5281898936126637
274,2215.65,2.4593432246295284
275,2225.88,2.3923506505924483
276,2236.1600000000003,2.4424611715014235
277,2246.48,2.4312507683672426
278,2256.85,2.348776460179118
279,2267.26,2.403479227947837
280,2272.4900000000002,2.414589159305224
281,2282.98,2.442947078987632
282,2293.52,2.280616093616095
283,2304.1,2.361377184201402
284,2314.7400000000002,2.271421388721976
285,2325.42,1.8857116691993938
286,2336.16,2.1555240636120785
287,2346.94,2.1611085339816065
288,2352.35,2.221926807144793
289,2363.21,2.15209542942801
290,2374.1200000000003,2.152711146657283
291,2385.07,2.0947019398433993
292,2396.08,2.1440678469647825
293,2407.1400000000003,2.086283849032221
294,2412.69,2.1058773880443624
295,2423.83,2.1555285420254893
296,2435.02,2.083016790952671
297,2446.26,2.146886134825909
298,2457.55,2.142572573645202
299,2463.21,2.113535321538665
300,2474.58,2.0708449122716464
301,2486.0099999999998,2.071452616939894
302,2497.48,1.8342263975649862
303,2503.24,2.07237633535056
304,2511.88643,1.9760348422147396
305,2514.79,1.9436746203111308
306,2520.5899999999997,2.026142357702844
307,2526.3999999999996,1.975792087745232
308,2532.22,1.9760898104382953
309,2543.91,1.9317172190777996
310,2555.65,2.0047155909706804
311,2567.45,1.9778299187676134
312,2573.37,2.0287965679674307
313,2585.25,2.0107988369697667
314,2597.18,1.9929970692254793
315,2603.17,1.9569416669800241
316,2615.18,1.93513884044114
317,2627.25,1.962635969806308
318,2633.31,1.9810415161155805
319,2645.46,2.0418285866861514
320,2657.6699999999996,2.061309613160774
321,2663.8,1.9374611080247741
322,2676.1000000000004,1.9877080683554758
323,2682.27,1.988011533822177
324,2694.65,1.9123534353582816
325,2707.0899999999997,1.9129462927984382
326,2713.33,1.882664706819867
327,2725.8500000000004,1.8876095054654265
328,2732.1299999999997,1.918561890089557
329,2744.7500000000005,1.79525961524187
330,2757.4100000000003,1.8082783109968847
331,2763.77,1.833699636826418
332,2776.5299999999997,1.8769492590881864
333,2782.9300000000003,1.8261315555204214
334,2795.77,1.6584921189875925
335,2802.2200000000003,1.7169813786732042
336,2815.15,1.8444908759964538
337,2828.1499999999996,1.870719321874431
338,2834.67,1.79511953011477
339,2847.75,1.7957159171981503
340,2854.32,1.7591830886918662
341,2867.49,1.8341734096313245
342,2874.1,1.826040551727742
343,2884.0315,1.8170934059110169
344,2887.3700000000003,1.8140882025330782
345,2894.02,1.8019081025133645
346,2907.38,1.8487009015715032
347,2927.5299999999997,1.8117385985042498
348,2947.8300000000004,1.7755052931809128
349,2968.2599999999998,1.784598985902303
350,2988.8399999999997,1.7732226763676093
351,3009.5499999999997,1.7538693648776433
352,3030.41,1.7588010511315935
353,3051.42,1.7516397351294597
354,3072.57,1.7445284170216482
355,3086.7499999999995,1.7212142037465288
356,3108.15,1.7221258818785774
357,3129.69,1.6955465579049476
358,3151.39,1.6925342315248288
359,3173.23,1.6741079030390316
360,3187.88,1.6253526826948497
361,3209.98,1.6488523502985075
362,3232.23,1.6011440156460812
363,3247.1499999999996,1.6390157912409489
364,3269.66,1.6474904526779774
365,3292.32,1.6333261118589222
366,3307.52,1.6227048832424333
367,3311.31121,1.6379757505370307
368,3322.78,1.684168528742239
369,3330.44,1.6883753263578887
370,3338.12,1.6239271182231876
371,3345.8199999999997,1.6242129043381353
372,3353.53,1.602252687577908
373,3361.2599999999998,1.6210964650673299
374,3369.01,1.588183236806401
375,3376.77,1.5559580056702964
376,3384.56,1.5997837659086662
377,3392.3599999999997,1.64111752327186
378,3400.18,1.6757762748847034
379,3408.02,1.5860580207471962
380,3415.88,1.6047187608593376
381,3423.75,1.6805994980963042
382,3431.6400000000003,1.6732072295829197
383,3439.55,1.6696739553191844
384,3447.48,1.5875886753050985
385,3455.43,1.5769703895406617
386,3463.39,1.5414241009010494
387,3471.38,1.595843803635911
388,3479.38,1.5562615034955973
389,3487.4,1.538777197604933
390,3495.44,1.6004628859639176
391,3503.5,1.5752055685725515
392,3511.57,1.56828124830601
393,3519.6699999999996,1.5867299194139424
394,3527.7799999999997,1.550972587646699
395,3535.92,1.6131272472539298
396,3544.07,1.6283609039859852
397,3552.24,1.6437595549676898
398,3560.43,1.6290092001990437
399,3568.6299999999997,1.5668588425552221
400,3576.86,1.5001664762858742
401,3585.11,1.4832991042661758
402,3593.3700000000003,1.511139729371302
403,3601.65,1.5899273487260772
404,3609.96,1.5504999594553261
405,3618.2799999999997,1.5723795673093999
406,3626.62,1.639186169413123
407,3634.98,1.5838997657664948
408,3643.36,1.6512103563695162
409,3649.6099999999997,1.561787559384896
410,3652.34,1.3430107744620141
411,3655.06,1.5842079924143075
412,3657.7799999999997,1.5793212103666006
413,3660.5,1.6008084283188941
414,3663.22,1.5537826462711875
415,3665.9399999999996,1.4661348642234806
416,3668.67,1.4542070793005986
417,3671.39,1.531165297252892
418,3674.1099999999997,1.6358315152051852
419,3676.83,1.6395957331574786
420,3679.5499999999997,1.492452951109772
421,3682.2700000000004,1.505497169062065
422,3685.0,1.5864723841391832
423,3687.72,1.5165736020914766
424,3690.44,1.5518638200437698
425,3693.16,1.5679150379960631
426,3695.88,1.5624002559483565
427,3698.6000000000004,1.5250714739006497
428,3701.33,1.5749656889777677
429,3704.0499999999997,1.499263906930061
430,3706.77,1.5166221248823544
431,3709.49,1.7818953428346478
432,3712.21,1.961924560786941
433,3714.9300000000003,2.5136707787392347
434,3717.66,3.9708229938163524
435,3720.3799999999997,6.371289211768645
436,3723.1,8.703273429720939
437,3725.82,8.815421647673231
438,3728.54,6.7168798656255255
439,3731.26,3.952277083577819
440,3733.99,2.492219298654937
441,3736.7099999999996,1.9584355166072303
442,3739.4300000000003,1.6486477345595234
443,3742.15,1.633878952511817
444,3744.8700000000003,1.6225871704641102
445,3747.59,1.5179733884164035
446,3750.3199999999997,1.6339766034935215
447,3753.0400000000004,1.7075358214458147
448,3755.76,1.7670580393981081
449,3758.48,1.6631772573504013
450,3761.2000000000003,1.7252094753026948
451,3763.92,1.747952693254988
452,3766.65,1.669287908332106
453,3769.3700000000003,1.6452651262843994
454,3772.09,1.7378023442366926
455,3774.81,1.934875562188986
456,3777.53,1.8797467801412793
457,3780.25,1.8430459980935725
458,3782.98,1.8829532131706905
459,3785.7000000000003,1.790208431122984
460,3788.42,1.784327649075277
461,3791.14,1.6882888670275706
462,3793.86,1.6228600849798638
463,3796.58,1.666750302932157
464,3799.3100000000004,1.735360518009275
465,3801.8939600000003,1.8267711600166352
466,3802.03,1.8315837441114124
467,3804.75,1.8786111250126583
468,3807.47,1.9160455059139039
469,3810.19,1.8456508868151495
470,3812.91,1.8835032677163956
471,3815.6400000000003,1.851864646341543
472,3818.36,1.7953240272427886
473,3821.08,1.7744644081440346
474,3823.8,1.8189567890452805
475,3826.52,1.6304851699465261
476,3829.24,1.5323815508477718
477,3831.9700000000003,1.6095399294729194
478,3834.69,1.7493913103741652
479,3837.41,1.6860286912754108
480,3840.13,1.7649210721766566
481,3842.85,1.8054654530779026
482,3845.5699999999997,1.9475128339791483
483,3848.3,1.9476872126042957
484,3851.02,1.9345655935055415
485,3853.74,2.0271559744067873
486,3856.46,2.046684355308033
487,3859.18,2.118727736209279
488,3861.8999999999996,2.1549331171105246
489,3864.63,2.3002634957356722
490,3867.35,2.179522876636918
491,3870.0699999999997,2.0534232575381637
492,3872.79,1.9715266384394095
493,3875.5099999999998,1.8773180193406553
494,3878.2299999999996,1.854916400241901
495,3880.96,1.9527507788670486
496,3883.68,1.9966671597682943
497,3886.3999999999996,2.00137454066954
498,3889.12,1.8995319215707858
499,3891.8399999999997,1.8129823024720317
500,3894.5600000000004,1.8305236833732774
501,3897.29,1.7889000619984248
502,3900.0099999999998,1.8697784428996707
503,3902.73,1.9986518238009165
504,3905.45,2.019905204702162
505,3908.17,1.979336585603408
506,3910.8900000000003,1.9421129665046537
507,3913.62,1.9440643451298012
508,3916.3399999999997,1.932433726031047
509,3919.06,1.8929361069322928
510,3921.78,1.7758284878335386
511,3924.5,1.6986368687347844
512,3927.2200000000003,1.6968082496360302
513,3929.95,1.6441536282611777
514,3932.6699999999996,1.6096750091624235
515,3935.3900000000003,1.733790390063669
516,3938.11,1.853435770964915
517,3940.8300000000004,1.8325761518661607
518,3943.55,1.8882565327674066
519,3946.2799999999997,1.941626911392554
520,3948.9999999999995,1.9289232922937996
521,3951.7200000000003,1.8163376731950456
522,3954.44,1.8199200540962912
523,3957.1600000000003,1.723750434997537
524,3959.88,1.6992838158987829
525,3962.6099999999997,1.7655151945239302
526,3965.3300000000004,1.7863765754251761
527,3968.05,1.7747189563264218
528,3970.77,1.7238503372276677
529,3973.4900000000002,1.7310397181289134
530,3976.21,1.8522540990301593
531,3978.94,1.8654724776553069
532,3981.6600000000003,1.8966848585565526
533,3984.38,1.9219372394577983
534,3987.1,1.966193620359044
535,3989.82,1.9786900012602897
536,3992.54,1.9504853821615358
537,3995.2700000000004,2.0062597607866834
538,3997.9900000000002,2.0421521416879287
539,4000.71,2.0206655225891748
540,4003.43,2.06787590349042
541,4006.15,2.057499284391666
542,4008.87,2.050102665292912
543,4011.6000000000004,2.1405130439180593
544,4014.32,2.119288424819305
545,4017.04,2.081725805720551
546,4019.76,2.1457181866217967
547,4022.48,2.0978825675230426
548,4025.2,1.9788409484242884
549,4027.9300000000003,2.0701133270494356
550,4030.65,2.0636577079506817
551,4033.37,2.012345088851927
552,4036.09,2.049282469753173
553,4038.81,2.119339850654419
554,4041.5299999999997,2.0820912315556646
555,4044.26,2.0236586101808123
556,4046.98,2.015503991082058
557,4049.7,2.0359983719833035
558,4052.42,2.0860067528845496
559,4055.14,2.0214671337857957
560,4057.8599999999997,2.099993514687041
561,4060.59,2.0703668933121886
562,4063.31,2.1591402742134345
563,4066.0299999999997,2.05149565511468
564,4068.75,2.079520036015926
565,4071.47,2.0477344169171716
566,4074.1899999999996,2.0144317978184176
567,4076.92,2.016854176443565
568,4079.64,2.0350755573448107
569,4082.3599999999997,2.0259789382460567
570,4085.08,1.9558193191473023
571,4087.7999999999997,1.959558700048548
572,4090.5200000000004,1.992235080949794
573,4093.25,2.0666474595749413
574,4095.97,2.197899840476187
575,4098.69,2.374008221377433
576,4101.41,2.2820736022786785
577,4104.13,2.0206709831799246
578,4106.85,1.9075103640811701
579,4109.58,1.9347397427063178
580,4112.3,1.8586471236075635
581,4115.0199999999995,1.8929705045088092
582,4117.74,1.971469885410055
583,4120.46,1.928130266311301
584,4123.18,1.9478936472125465
585,4125.91,1.942448025837694
