,lambda (Angstroms),Total Flux (erg/s/cm^2/Angstrom)
0,100.09,0.000223331
1,101.94999999999999,0.0002564023
2,104.09,0.0002715704
3,104.712855,0.00028048526229766836
4,106.02000000000001,0.0002991943
5,108.0,0.000332535
6,110.0,0.0004601662
7,113.86999999999999,0.000535631
8,117.87,0.0005982754
9,120.22644299999999,0.0012827780837565495
10,120.89000000000001,0.001475529
11,125.14000000000001,0.001666889
12,126.88,0.001757752
13,128.06,0.001810836
14,131.04,0.001940529
15,131.95,0.002137515
16,134.09,0.002223082
17,136.9,0.002540499
18,138.038426,0.002598597268322256
19,140.09,0.002703297
20,143.02,0.004415186
21,147.03,0.006916916
22,151.15,0.007394874
23,155.03,0.007978073
24,158.489319,0.008510218211903526
25,159.0,0.008588776
26,161.95999999999998,0.009055403
27,166.11,0.009748273
28,169.98,0.01035017
29,173.14,0.01086259
30,177.18,0.0115055
31,180.06,0.01199186
32,181.970086,0.012301238833365383
33,182.14000000000001,0.01232876
34,185.95000000000002,0.01299998
35,191.16,0.01380232
36,193.82,0.01438577
37,197.88,0.01506306
38,202.03,0.01577191
39,204.83999999999997,0.01628959
40,208.929613,0.01655579654221333
41,210.09,0.01663133
42,215.98,0.01819239
43,219.99,0.01896321
44,223.04999999999998,0.01936116
45,227.20000000000002,0.02017944
46,229.83,0.03012252
47,234.1,0.04953442
48,239.88329199999998,0.06427427996167047
49,240.11,0.06485209
50,246.26999999999998,0.06178669
51,252.0,0.0653037
52,257.28000000000003,0.05210731
53,260.26,0.06308552
54,263.88,0.0666674
55,268.79,0.06651048
56,273.78,0.06605831
57,275.42287,0.0657166382269941
58,278.87,0.06499973
59,284.06,0.06530163
60,290.01,0.06207223
61,296.08,0.06221549
62,300.89,0.05860149
63,307.90000000000003,0.05969031
64,316.227766,0.060494187269178566
65,317.98,0.06066333
66,327.65000000000003,0.05955562
67,338.38,0.05779745
68,347.85999999999996,0.05596533
69,356.78000000000003,0.05545255
70,363.078055,0.05553926514155022
71,365.94,0.05557867
72,375.32000000000005,0.05406687
73,384.95,0.05057286
74,394.83,0.05151365
75,404.95000000000005,0.05115899
76,414.39,0.04976218
77,416.86938299999997,0.04921880872564936
78,422.09000000000003,0.04807468
79,429.94,0.04665636
80,440.96999999999997,0.04601634
81,451.23999999999995,0.04465953
82,459.63,0.04294499
83,470.33,0.04167919
84,478.630092,0.04111773301526904
85,480.18,0.04101289
86,490.24,0.03898635
87,500.5,0.03889823
88,506.3,0.03766143
89,512.16,0.03998596
90,520.48,0.03871678
91,530.16,0.03706
92,540.02,0.03466636
93,549.5408739999999,0.03347644989178686
94,550.06,0.03341157
95,560.28,0.03426941
96,569.39,0.03411208
97,579.97,0.03287719
98,589.39,0.03220564
99,600.35,0.03033281
100,610.11,0.02678608
101,620.02,0.02998581
102,630.0999999999999,0.02863635
103,630.957344,0.02863639441762659
104,640.33,0.02863688
105,650.7400000000001,0.02766362
106,658.27,0.02654156
107,664.3599999999999,0.02684892
108,675.1600000000001,0.02647899
109,684.5500000000001,0.02482763
110,695.6700000000001,0.02517305
111,705.35,0.02332943
112,716.81,0.02415055
113,724.43596,0.02377100948577154
114,726.79,0.02365385
115,735.2,0.0232225
116,745.43,0.02248535
117,755.8,0.02187311
118,764.55,0.01985721
119,775.19,0.02093694
120,784.16,0.01994909
121,795.0699999999999,0.01994884
122,804.28,0.01972029
123,815.4699999999999,0.01936006
124,824.91,0.01905094
125,831.763771,0.017790549454908898
126,834.46,0.01729472
127,844.12,0.01819354
128,855.87,0.01773822
129,865.78,0.01757556
130,875.8000000000001,0.01725501
131,885.94,0.01694022
132,894.14,0.01663079
133,904.5,0.01621456
134,914.9699999999999,0.01599236
135,925.56,0.02684905
136,934.13,0.03792469
137,944.9399999999999,0.04863141
138,954.992586,0.05396222750247122
139,955.89,0.05443812
140,964.73,0.05860216
141,975.9,0.03075624
142,984.93,0.05163195
143,994.05,0.04930746
144,1005.5600000000001,0.05661121
145,1014.86,0.05583506
146,1024.25,0.03604992
147,1036.11,0.04885577
148,1045.7,0.06236002
149,1055.3700000000001,0.06038385
150,1065.1399999999999,0.05332392
151,1074.99,0.05700689
152,1084.9399999999998,0.04829724
153,1094.98,0.05700611
154,1096.4782,0.056626416130700886
155,1105.11,0.05443883
156,1115.34,0.05320064
157,1125.66,0.04840803
158,1136.07,0.05406555
159,1143.95,0.05127503
160,1154.53,0.05139351
161,1165.22,0.05103914
162,1176.0,0.03934719
163,1184.15,0.04851935
164,1195.1100000000001,0.04196709
165,1206.16,0.0361346
166,1214.52,0.02593642
167,1225.76,0.03971242
168,1234.26,0.04612176
169,1245.68,0.04730572
170,1254.31,0.04612195
171,1258.92541,0.04517657409881136
172,1265.92,0.04374387
173,1274.69,0.04752467
174,1283.53,0.04774269
175,1295.4099999999999,0.04216098
176,1304.39,0.04196715
177,1316.46,0.04612159
178,1325.5800000000002,0.04424914
179,1334.7700000000002,0.04129757
180,1344.02,0.04424945
181,1356.4599999999998,0.04314255
182,1365.8600000000001,0.0403557
183,1375.33,0.04035553
184,1384.86,0.04026465
185,1394.4599999999998,0.0339552
186,1404.13,0.03356767
187,1413.8600000000001,0.03766161
188,1423.6599999999999,0.03680483
189,1433.53,0.03723209
190,1443.47,0.0377484
191,1445.43977,0.03769705545307229
192,1446.79,0.03766186
193,1453.47,0.0366356
194,1463.5500000000002,0.03498797
195,1473.69,0.03474783
196,1483.9099999999999,0.03466749
197,1494.19,0.03434941
198,1504.55,0.03295556
199,1511.49,0.03075603
200,1518.47,0.03154415
201,1525.4799999999998,0.0311835
202,1536.05,0.02804874
203,1546.7,0.02722076
204,1553.84,0.02654175
205,1564.61,0.02785509
206,1575.4599999999998,0.02890126
207,1586.38,0.02923538
208,1593.7,0.02937119
209,1604.75,0.02850498
210,1615.8700000000001,0.02811333
211,1623.3300000000002,0.02734749
212,1634.58,0.02817805
213,1645.9099999999999,0.02791961
214,1653.51,0.02709588
215,1659.58691,0.02756698369827225
216,1664.97,0.0279843
217,1672.6499999999999,0.02611644
218,1676.51,0.0283737
219,1684.25,0.02843825
220,1695.9199999999998,0.02722061
221,1703.75,0.02647924
222,1715.56,0.02557995
223,1723.48,0.02540404
224,1735.43,0.02647914
225,1743.44,0.02593591
226,1755.5200000000002,0.02690889
227,1763.6299999999999,0.02534602
228,1775.85,0.02546411
229,1784.0500000000002,0.02593604
230,1796.4099999999999,0.02715835
231,1804.71,0.02690868
232,1813.04,0.02534609
233,1825.6,0.02575802
234,1834.0300000000002,0.02517247
235,1846.74,0.02285053
236,1855.27,0.02376301
237,1863.83,0.0249988
238,1876.75,0.02569791
239,1885.4099999999999,0.02442889
240,1894.12,0.02454238
241,1902.8600000000001,0.02511448
242,1905.46072,0.025068838251281277
243,1916.05,0.024883
244,1924.8899999999999,0.02338491
245,1933.78,0.0218229
246,1947.18,0.02593595
247,1956.17,0.02499864
248,1965.2,0.02760135
249,1974.27,0.02690891
250,1983.3799999999999,0.02728536
251,1997.13,0.02728512
252,2006.3500000000001,0.02690881
253,2015.61,0.02722068
254,2024.91,0.02552197
255,2034.26,0.02785502
256,2043.6499999999999,0.02964292
257,2053.08,0.02766367
258,2067.31,0.02753679
259,2072.08,0.03075579
260,2076.86,0.04035556
261,2086.44,0.04548964
262,2096.0699999999997,0.0423549
263,2105.75,0.04101233
264,2115.4700000000003,0.04507292
265,2125.23,0.04101246
266,2135.04,0.03907548
267,2144.8999999999996,0.04644206
268,2154.8,0.04633504
269,2164.74,0.04129727
270,2174.73,0.04187189
271,2184.77,0.04942104
272,2187.7616199999998,0.0496249534444995
273,2194.8599999999997,0.05010879
274,2204.99,0.04840819
275,2215.17,0.03980348
276,2225.39,0.04455681
277,2235.66,0.05596408
278,2245.98,0.05332352
279,2256.35,0.04235492
280,2266.7599999999998,0.04026431
281,2277.23,0.04294457
282,2282.48,0.05456579
283,2293.01,0.0463355
284,2303.6,0.05481962
285,2314.23,0.0480783
286,2324.91,0.03953411
287,2335.64,0.03614144
288,2346.42,0.02698018
289,2357.25,0.04508886
290,2362.69,0.02884574
291,2373.5899999999997,0.03590093
292,2384.55,0.02361179
293,2395.56,0.02825789
294,2406.61,0.02813134
295,2417.72,0.0323745
296,2423.2999999999997,0.0517873
297,2434.48,0.05143575
298,2445.7200000000003,0.06043407
299,2457.01,0.06328615
300,2462.67,0.05588836
301,2474.04,0.04901785
302,2485.46,0.03201823
303,2496.93,0.03770648
304,2502.69,0.05667847
305,2511.88643,0.03340235344366188
306,2514.24,0.02744548
307,2520.0299999999997,0.02210402
308,2525.8399999999997,0.02446235
309,2537.4999999999995,0.03832744
310,2543.35,0.04032001
311,2555.0899999999997,0.06863618
312,2566.88,0.0520706
313,2572.8,0.06555479
314,2584.68,0.05816106
315,2596.6099999999997,0.05219928
316,2602.59,0.04494394
317,2614.61,0.04052237
318,2626.6800000000003,0.05491974
319,2632.73,0.09305801
320,2644.88,0.1255396
321,2657.0899999999997,0.1717161
322,2663.2200000000003,0.1131945
323,2675.5099999999998,0.1276009
324,2687.86,0.1471924
325,2694.05,0.1066365
326,2706.49,0.1312006
327,2712.73,0.09439604
328,2725.25,0.07602948
329,2737.83,0.09638603
330,2744.14,0.05470599
331,2756.81,0.07534584
332,2763.16,0.09932953
333,2775.92,0.1059499
334,2782.31,0.06210422
335,2795.16,0.02780605
336,2808.06,0.0334341
337,2814.53,0.09230116
338,2827.52,0.1349701
339,2834.04,0.1253861
340,2847.1200000000003,0.08959436
341,2853.69,0.0505006
342,2866.86,0.1236892
343,2873.4700000000003,0.1676292
344,2884.0315,0.15589072197963805
345,2886.73,0.1528915
346,2893.3799999999997,0.1863792
347,2906.74,0.2520145
348,2926.89,0.2200307
349,2947.18,0.2030179
350,2967.61,0.2106609
351,2988.18,0.2146039
352,3008.8900000000003,0.2146287
353,3029.75,0.2294833
354,3050.75,0.2419951
355,3071.89,0.2611206
356,3093.19,0.2534607
357,3107.47,0.292376
358,3129.0099999999998,0.2691338
359,3150.69,0.2673323
360,3172.53,0.2965393
361,3187.18,0.2600952
362,3209.27,0.2878568
363,3231.52,0.2456021
364,3246.4300000000003,0.3429791
365,3268.94,0.4002607
366,3291.5899999999997,0.3930053
367,3306.79,0.3667996
368,3311.31121,0.35816604433813903
369,3322.0499999999997,0.3376596
370,3329.71,0.3867912
371,3337.3799999999997,0.3626605
372,3345.0800000000004,0.3593432
373,3352.79,0.3269953
374,3360.52,0.3824295
375,3368.27,0.3686243
376,3376.0299999999997,0.2861428
377,3383.81,0.3038193
378,3391.61,0.3763956
379,3399.43,0.3878386
380,3407.27,0.3799129
381,3415.12,0.3628149
382,3423.0,0.4322298
383,3430.89,0.394205
384,3438.79,0.4062067
385,3446.72,0.2702478
386,3454.67,0.4025306
387,3462.6299999999997,0.3317595
388,3470.61,0.3748377
389,3478.6099999999997,0.2977417
390,3486.63,0.3663329
391,3494.67,0.3280186
392,3502.73,0.4063608
393,3510.8,0.4073179
394,3518.89,0.3572287
395,3527.0099999999998,0.3334054
396,3535.14,0.4027087
397,3543.29,0.4645317
398,3551.46,0.4477455
399,3559.64,0.4207876
400,3567.8500000000004,0.3936267
401,3576.07,0.330445
402,3584.3199999999997,0.2600947
403,3592.5800000000004,0.3148607
404,3600.86,0.4668278
405,3609.1600000000003,0.3759955
406,3617.48,0.4141757
407,3625.82,0.4317407
408,3634.1800000000003,0.4190283
409,3642.5600000000004,0.5049619
410,3650.95,0.3813168
411,3659.3700000000003,0.5349266
412,3667.8100000000004,0.5156022
413,3676.26,0.5411844
414,3684.73,0.4553637
415,3693.23,0.4564295
416,3701.7400000000002,0.5424994
417,3710.28,0.3736116
418,3718.8300000000004,0.5603308
419,3727.4,0.4369949
420,3735.9900000000002,0.3753956
421,3744.6099999999997,0.4726143
422,3753.24,0.2726062
423,3761.89,0.3780438
424,3770.56,0.40792
425,3779.2599999999998,0.5053635
426,3787.97,0.5657393
427,3796.7000000000003,0.4252391
428,3801.8939600000003,0.46332602284297186
429,3805.4500000000003,0.4894022
430,3814.23,0.5244182
431,3823.0199999999995,0.367023
432,3831.83,0.3031955
433,3840.6600000000003,0.2869227
434,3849.52,0.4454086
435,3858.39,0.4413586
436,3867.29,0.4664704
437,3876.2000000000003,0.3612788
438,3885.1400000000003,0.4044456
439,3894.09,0.4072746
440,3896.31,0.5407833
441,3898.08,0.5301634
442,3899.8500000000004,0.6897227
443,3901.6299999999997,0.52591
444,3903.4,0.6069261
445,3905.17,0.6121125
446,3906.94,0.5168302
447,3908.72,0.4902231
448,3910.49,0.575647
449,3912.26,0.6091962
450,3914.04,0.5954593
451,3915.81,0.5842604
452,3917.58,0.5451471
453,3919.35,0.5582592
454,3921.13,0.4704991
455,3922.9,0.5367521
456,3924.67,0.600715
457,3926.44,0.4549159
458,3928.2200000000003,0.3266824
459,3929.99,0.2211749
460,3931.76,0.2748556
461,3933.53,0.2007571
462,3935.3100000000004,0.3856117
463,3937.08,0.3750829
464,3938.85,0.4363494
465,3940.6200000000003,0.4200547
466,3942.3999999999996,0.278506
467,3944.17,0.4143099
468,3945.94,0.4421824
469,3947.71,0.4653374
470,3949.49,0.6552573
471,3951.2599999999998,0.6150087
472,3953.03,0.5621563
473,3954.8100000000004,0.5630238
474,3956.58,0.5519363
475,3958.35,0.4106589
476,3960.12,0.4208325
477,3961.9,0.3499253
478,3963.67,0.2769033
479,3965.44,0.292377
480,3967.21,0.2352726
481,3968.9900000000002,0.2739204
482,3970.7599999999998,0.2864095
483,3972.53,0.3618591
484,3974.3,0.4385093
485,3976.0800000000004,0.6261166
486,3977.85,0.5645596
487,3979.62,0.5477533
488,3981.3900000000003,0.531167
489,3983.1699999999996,0.5750907
490,3984.94,0.6521188
491,3986.71,0.6990734
492,3988.4900000000002,0.6280513
493,3990.2599999999998,0.6598671
494,3992.0299999999997,0.5200566
495,3993.8,0.6792151
496,3995.5800000000004,0.6490896
497,3997.35,0.7047044
498,3999.12,0.657462
499,4000.89,0.6945099
500,4002.6699999999996,0.6592414
501,4004.44,0.5988897
502,4006.21,0.6668792
503,4007.98,0.7214257
504,4009.76,0.709711
505,4011.5299999999997,0.7672851
506,4013.3,0.768798
507,4015.07,0.7386794
508,4016.8500000000004,0.7267643
509,4018.62,0.7424845
510,4020.39,0.7480939
511,4022.17,0.6386496
512,4023.9399999999996,0.6135143
513,4025.71,0.6472669
514,4027.48,0.6328844
515,4029.26,0.6684594
516,4031.0299999999997,0.6153399
517,4032.8,0.562112
518,4034.57,0.7574443
519,4036.3500000000004,0.7079757
520,4038.12,0.7505856
521,4039.89,0.71479
522,4041.6600000000003,0.7666835
523,4043.4399999999996,0.6801475
524,4045.21,0.6064127
525,4046.98,0.6624949
526,4048.75,0.6213748
527,4050.5299999999997,0.6682371
528,4052.2999999999997,0.6968438
529,4054.07,0.6232012
530,4055.84,0.6272968
531,4057.62,0.6474215
532,4059.39,0.6219746
533,4061.16,0.6255166
534,4062.94,0.629765
535,4064.7100000000005,0.6126473
536,4066.48,0.7420818
537,4068.25,0.7090689
538,4070.03,0.6683685
539,4071.7999999999997,0.6278751
540,4073.57,0.5845957
541,4075.34,0.6793258
542,4077.1200000000003,0.6116879
543,4078.89,0.6305245
544,4080.66,0.7216226
545,4082.4300000000003,0.7638355
546,4084.2099999999996,0.695685
547,4085.98,0.6665679
548,4087.75,0.7067067
549,4089.52,0.7549528
550,4091.2999999999997,0.7157882
551,4093.0699999999997,0.7381648
552,4094.84,0.6880951
553,4096.62,0.6192805
554,4098.39,0.5707473
555,4100.16,0.5275819
556,4101.929999999999,0.5956828
557,4103.71,0.6430794
558,4105.4800000000005,0.616497
559,4107.25,0.6346657
560,4109.0199999999995,0.7185097
561,4110.8,0.6950851
562,4112.57,0.6873181
563,4114.34,0.6862041
564,4116.11,0.6977164
565,4117.89,0.7381635
566,4119.66,0.6819048
567,4121.429999999999,0.6660117
568,4123.21,0.6899657
569,4124.98,0.6460629
570,4126.75,0.6481134
571,4128.5199999999995,0.6839778
572,4130.3,0.6767419
573,4132.07,0.7229583
574,4133.84,0.7323113
575,4135.61,0.6837554
576,4137.39,0.6729571
577,4139.16,0.7211105
578,4140.93,0.7558208
579,4142.7,0.7028124
580,4144.48,0.6788123
581,4146.25,0.6873603
582,4148.02,0.6543918
583,4149.79,0.6739823
584,4151.57,0.6524312
585,4153.34,0.667391
586,4155.110000000001,0.7190429
587,4156.88,0.7138103
588,4158.66,0.7578897
589,4160.43,0.6841771
590,4162.2,0.6791258
591,4163.98,0.7490042
592,4165.75,0.7128525
593,4167.52,0.7646792
594,4169.29,0.709114
595,4171.07,0.6691261
596,4172.84,0.6628281
597,4174.610000000001,0.6775875
598,4176.38,0.7094704
599,4178.16,0.713273
600,4179.93,0.7275236
601,4181.7,0.7115159
602,4183.47,0.7391244
603,4185.25,0.7371387
604,4187.02,0.729149
605,4188.79,0.7886786
606,4190.5599999999995,0.7553985
607,4192.34,0.7362037
608,4194.11,0.677277
609,4195.88,0.7059506
610,4197.66,0.7319524
611,4199.43,0.6972441
612,4201.2,0.765059
613,4202.969999999999,0.8140138
614,4204.75,0.7434623
615,4206.52,0.7929514
616,4208.29,0.8449155
617,4210.0599999999995,0.8100956
618,4211.84,0.7932866
619,4213.61,0.7606708
620,4215.38,0.8225193
621,4217.15,0.8316461
622,4218.93,0.8276379
623,4220.7,0.8393025
624,4222.47,0.7096472
625,4224.24,0.6806604
626,4226.0199999999995,0.7079982
627,4227.79,0.698892
628,4229.56,0.7356726
629,4231.34,0.7821304
630,4233.11,0.7289699
631,4234.88,0.7561071
632,4236.650000000001,0.7739869
633,4238.43,0.8555303
634,4240.2,0.82254
635,4241.97,0.8307094
636,4243.74,0.8448491
637,4245.5199999999995,0.8012541
638,4247.29,0.8098949
639,4249.06,0.8116751
640,4250.83,0.7685772
641,4252.61,0.7425255
642,4254.38,0.7710913
643,4256.150000000001,0.8041059
644,4257.92,0.8034854
645,4259.7,0.7735596
646,4261.47,0.8040399
647,4263.24,0.8463381
648,4265.01,0.8609681
649,4266.79,0.8196213
650,4268.56,0.7561752
651,4270.33,0.6967776
652,4272.11,0.7396326
653,4273.88,0.6750478
654,4275.65,0.7334452
655,4277.42,0.7535477
656,4279.2,0.7479141
657,4280.97,0.7445107
658,4282.74,0.7313304
659,4284.51,0.7482305
660,4286.29,0.7226462
661,4288.06,0.6941937
662,4289.83,0.7025226
663,4291.599999999999,0.7262126
664,4293.38,0.7337778
665,4295.15,0.7203782
666,4296.92,0.6148075
667,4298.69,0.6445498
668,4300.47,0.6150732
669,4302.24,0.5775403
670,4304.01,0.5707274
671,4305.78,0.5400068
672,4307.5599999999995,0.5692122
673,4309.33,0.6537681
674,4311.1,0.6607802
675,4312.88,0.7106923
676,4314.65,0.8128328
677,4316.42,0.8267945
678,4318.1900000000005,0.8353425
679,4319.97,0.846584
680,4321.74,0.8284167
681,4323.51,0.7913078
682,4325.280000000001,0.8045533
683,4327.0599999999995,0.8214496
684,4328.83,0.8501898
685,4330.6,0.8774423
686,4332.37,0.8975446
687,4334.15,0.8684019
688,4335.92,0.8757031
689,4337.6900000000005,0.8849006
690,4339.46,0.8230537
691,4341.24,0.8177096
692,4343.01,0.819401
693,4344.78,0.8196486
694,4346.5599999999995,0.819911
695,4348.33,0.8201809
696,4350.1,0.8204917
697,4351.87,0.8208063
698,4353.65,0.8211579
699,4355.42,0.8215168
700,4357.1900000000005,0.8219167
701,4358.96,0.8963441
702,4360.74,0.8861648
703,4362.51,0.9360588
704,4364.28,0.9302027
705,4365.15832,0.9232554369129976
706,4366.05,0.9162025
707,4367.83,0.9126574
708,4369.6,0.9268644
709,4371.37,0.8730098
710,4373.139999999999,0.8532879
711,4374.92,0.8503
712,4376.69,0.7960932
713,4378.46,0.7788833
714,4380.240000000001,0.785138
715,4382.01,0.7399219
716,4383.78,0.7319766
717,4385.549999999999,0.7711136
718,4387.33,0.7901919
719,4389.1,0.8195109
720,4390.87,0.8009243
721,4392.64,0.8069344
722,4394.42,0.8771724
723,4396.19,0.9050444
724,4397.96,0.9032441
725,4399.7300000000005,0.8923789
726,4401.51,0.8406394
727,4403.28,0.8654614
728,4405.05,0.8287086
729,4406.820000000001,0.8130571
730,4408.599999999999,0.8573141
731,4410.37,0.8807558
732,4412.14,0.8826513
733,4413.91,0.954737
734,4415.69,0.9504838
735,4417.46,0.9282646
736,4419.2300000000005,0.9111476
737,4421.01,0.9171089
738,4422.78,0.9380391
739,4424.55,0.9661782
740,4426.320000000001,0.926576
741,4428.099999999999,0.96297
742,4429.87,0.8942262
743,4431.64,0.9138164
744,4433.41,0.9508869
745,4435.19,0.9563584
746,4436.96,0.9596119
747,4438.7300000000005,0.9030636
748,4440.5,0.9399784
749,4442.28,0.9957856
750,4444.05,0.9880192
751,4445.82,0.9924484
752,4447.59,1.008214
753,4449.37,0.9638876
754,4451.14,0.92368
755,4452.91,0.9509953
756,4454.69,0.9219415
757,4456.46,0.9075144
758,4458.2300000000005,0.8674001
759,4460.0,0.9068932
760,4461.78,0.9232552
761,4463.55,0.9639059
762,4465.32,0.9291349
763,4467.09,0.9613926
764,4468.87,0.9593209
765,4470.64,1.053918
766,4472.41,1.017273
767,4474.179999999999,1.00098
768,4475.96,1.025374
769,4477.73,1.040312
770,4479.5,0.9847027
771,4481.280000000001,1.047193
772,4483.05,1.021456
773,4484.82,1.040784
774,4486.59,1.086889
775,4488.37,1.03221
776,4490.14,1.056342
777,4491.91,1.027204
778,4493.68,0.9911592
779,4495.46,1.062065
780,4497.23,1.050376
781,4499.0,1.040005
782,4500.77,1.079209
783,4502.55,1.107214
784,4504.32,1.113958
785,4506.09,1.138584
786,4507.860000000001,1.12832
787,4509.639999999999,1.11623
788,4511.41,1.104831
789,4513.18,1.069859
790,4514.95,1.08611
791,4516.73,1.110086
792,4518.5,1.09626
793,4520.27,1.095083
794,4522.04,1.067053
795,4523.82,1.042652
