,lambda (Angstroms),Total Flux (erg/s/cm^2/Angstrom)
0,101.98,7.037626455733557
1,104.11,7.0151422141269455
2,104.712855,7.0087784876134505
3,106.05,6.934635094798676
4,108.02000000000001,6.825400506294744
5,110.03,6.713947956602964
6,113.9,6.499360211674061
7,117.9,6.277564092884656
8,120.22644299999999,6.148565085890401
9,120.92,6.116322876157792
10,124.88000000000001,5.932229642953034
11,126.91,5.837858616840889
12,128.09,5.783002552401477
13,131.07,5.644467745597678
14,131.98,5.602163492515571
15,134.12,5.502678765483179
16,136.93,5.3720469510217175
17,138.038426,5.320518232310795
18,140.12,5.2513496133667
19,143.06,5.1536563583901005
20,147.06,5.020740365365654
21,150.84,4.8951347518667045
22,155.06,4.754908379168081
23,158.489319,4.6409555441268155
24,159.04000000000002,4.627121483644772
25,162.0,4.55276115707434
26,166.15,4.448505969585914
27,170.02,4.35128486717306
28,173.18,4.27190019448179
29,176.80999999999997,4.180708308060781
30,180.10000000000002,4.0980578104553835
31,181.970086,4.0510780116357505
32,182.18,4.0470549084676914
33,185.99999999999997,3.973842764236569
34,191.20999999999998,3.873990599248438
35,193.87,3.823010415768646
36,197.93,3.7451985567086497
37,202.07,3.665853459569761
38,204.88,3.6119984545906707
39,208.929613,3.534385668189976
40,210.14000000000001,3.5169453422606187
41,216.03,3.4320770192375267
42,220.04,3.374297397544709
43,223.1,3.3302062148028564
44,227.25,3.270409351236987
45,229.88000000000002,3.232514019529596
46,234.16,3.170844069341194
47,239.88329199999998,3.0883778871992766
48,240.16,3.0853054319131594
49,245.76000000000002,3.0231252240685316
50,252.06,2.953172522351939
51,256.75,2.9010965594912976
52,259.71999999999997,2.8681189047076034
53,263.94,2.8212617156678634
54,268.84999999999997,2.76674303023363
55,273.85,2.711225021603444
56,275.42287,2.693760500985233
57,278.94,2.6637892238226675
58,284.12,2.6196477793387083
59,290.07,2.5689447439025974
60,296.15,2.517133965161102
61,300.96000000000004,2.4761454865249886
62,307.97,2.4164097187687994
63,316.227766,2.346041123961982
64,318.06,2.3343794620985845
65,327.72,2.272896245702923
66,337.68,2.209503615845541
67,347.94,2.144201580160436
68,356.87000000000006,2.087364656201899
69,363.078055,2.0478521642837877
70,366.02000000000004,2.033829420114566
71,375.40999999999997,1.9890720708513419
72,385.03999999999996,1.9431707116171273
73,394.92,1.8960779435257153
74,405.05,1.8477934879811058
75,413.53000000000003,1.8073737327268007
76,416.86938299999997,1.7914565993042324
77,422.19,1.772089657155171
78,430.04,1.7435158631114032
79,441.07,1.7033670110463497
80,451.34000000000003,1.6659844652488862
81,459.73,1.6354451104494094
82,470.44,1.5964610089241837
83,478.630092,1.5666493682741205
84,480.29,1.5620025295173212
85,490.35,1.5338398583192276
86,499.46999999999997,1.5083089146422963
87,506.42,1.4888527199316843
88,512.28,1.4724495010948886
89,519.41,1.452489568000693
90,530.28,1.4220595979764705
91,540.14,1.3944567590245818
92,549.5408739999999,1.3681406363604385
93,550.18,1.3667758323073524
94,560.41,1.3449304174452883
95,569.52,1.3254767184532743
96,580.11,1.3028610402433372
97,589.53,1.2827462575639883
98,600.49,1.2593411119020705
99,610.25,1.2384993923830632
100,620.16,1.2173397411924425
101,630.24,1.1958151869919922
102,630.957344,1.1942833276734957
103,640.4799999999999,1.1781630107736327
104,649.39,1.1630824094633117
105,658.43,1.1477804051810783
106,664.52,1.137472777398401
107,675.3199999999999,1.1191904643810422
108,684.71,1.1032942671675052
109,694.24,1.087170746803447
110,705.52,1.0680736088828724
111,715.33,1.0514759973277714
112,724.43596,1.0360636184330716
113,725.28,1.0350032791058514
114,735.37,1.0223274404872433
115,745.6,1.0094814628199136
116,754.24,0.9986308717216406
117,764.73,0.9854547483481125
118,775.37,0.9720948717052394
119,784.34,0.9608328547664076
120,795.26,0.9471178603060906
121,804.46,0.9355649272329297
122,815.66,0.9214979075351687
123,825.1,0.9096515606870555
124,831.763771,0.9012622962731378
125,834.65,0.8985446467449816
126,844.3199999999999,0.8894990844336614
127,854.1,0.8803217725916027
128,865.9799999999999,0.8691800519718009
129,876.01,0.8597778108871535
130,884.11,0.8521931548872888
131,894.35,0.8425929579348671
132,904.7099999999999,0.8328681249580029
133,915.1800000000001,0.8231916110504
134,925.78,0.815854229424651
135,934.34,0.8117311884144235
136,945.1600000000001,0.8084989084271967
137,953.9100000000001,0.806608348936602
138,954.992586,0.805922255484715
139,964.9499999999999,0.7998137431701864
140,973.88,0.7718976337341819
141,985.1600000000001,0.7791139354465972
142,994.28,0.7722673897247204
143,1005.79,0.7724787671963429
144,1015.1,0.7629257421885935
145,1024.49,0.7353274632710033
146,1033.97,0.7364896599548417
147,1045.94,0.7483278849448782
148,1055.6200000000001,0.7395388018541142
149,1065.3899999999999,0.7215661343647791
150,1075.24,0.7204450929656027
151,1085.19,0.7024277866791252
152,1095.23,0.7057859659940766
153,1096.4782,0.7045005851968963
154,1105.37,0.6968250828933944
155,1115.6000000000001,0.6880309476975646
156,1125.92,0.6763206499633555
157,1133.72,0.6826314633037787
158,1144.21,0.6703376052192966
159,1154.8,0.6663886698699483
160,1165.49,0.6610659172557335
161,1176.27,0.6362081521031389
162,1184.42,0.6464252100165296
163,1195.38,0.6206222397871758
164,1203.67,0.6035747815297539
165,1214.81,0.5847803862236405
166,1226.05,0.5978191036526606
167,1234.55,0.6136518361390192
168,1245.97,0.6124931684912799
169,1254.6,0.6037880995333124
170,1258.92541,0.5971906431418078
171,1266.21,0.5876534289810642
172,1274.99,0.6011963555016964
173,1283.83,0.6010025065088022
174,1295.7099999999998,0.5786610348305689
175,1304.69,0.5736937663061128
176,1313.7299999999998,0.5860893022681306
177,1325.89,0.5767736815267737
178,1335.08,0.5636786737049755
179,1344.33,0.5729653303696506
180,1353.65,0.5662085672685448
181,1366.1799999999998,0.5513973091937752
182,1375.6499999999999,0.5509981623088535
183,1385.18,0.5477615099104052
184,1394.78,0.5331466377461762
185,1404.4499999999998,0.5317512558161664
186,1414.1899999999998,0.5284909441203757
187,1423.99,0.5259980469110586
188,1433.8600000000001,0.5208983299359604
189,1440.48,0.5223806049435442
190,1445.43977,0.5210719209642438
191,1447.13,0.5208997444558229
192,1453.8100000000002,0.5165863644343942
193,1463.8799999999999,0.5070317828452049
194,1474.03,0.5036064467647406
195,1484.25,0.5018619605044112
196,1494.54,0.5001478540642166
197,1504.9,0.49260937744415656
198,1511.8400000000001,0.4814499853260855
199,1515.33,0.4857390306442314
200,1525.83,0.4798363836644409
201,1536.41,0.4667301121933758
202,1543.4999999999998,0.47181733540416493
203,1554.2,0.4640818621961879
204,1564.97,0.46155587880834564
205,1575.82,0.46290933092922887
206,1586.74,0.4632931628702467
207,1594.07,0.463075952607212
208,1605.12,0.4577645584999087
209,1616.24,0.4543792442127401
210,1623.6999999999998,0.4475651379013842
211,1634.96,0.449153663254485
212,1646.29,0.4467381184277207
213,1653.89,0.43758002175663413
214,1659.58691,0.4396094105064341
215,1665.36,0.44231359302805473
216,1673.0400000000002,0.4309745258002573
217,1676.9,0.4403431572717029
218,1684.64,0.4428691652999384
219,1696.3200000000002,0.4344029951409967
220,1704.15,0.42926009105328145
221,1715.96,0.4223926289490776
222,1723.88,0.4205095227454115
223,1735.83,0.4234169962386176
224,1743.8400000000001,0.4196641579190008
225,1755.93,0.4230695370096168
226,1764.03,0.41314764657404923
227,1776.26,0.4130234612620752
228,1784.46,0.4129902062532291
229,1796.8300000000002,0.4163844665386649
230,1805.1200000000001,0.41398263941386804
231,1813.46,0.40495487000243197
232,1826.03,0.40403302114131057
233,1834.45,0.39860409207125147
234,1842.92,0.3894866707145532
235,1855.7,0.3871139402495467
236,1864.26,0.38788283677689755
237,1872.8700000000001,0.39306881101760915
238,1885.8500000000001,0.3828325514060455
239,1894.5500000000002,0.3775234335308063
240,1903.3,0.38054781336892796
241,1905.46072,0.379538740548318
242,1916.4900000000002,0.3751607776943738
243,1925.3400000000001,0.3722368815093414
244,1934.22,0.37298928998130887
245,1943.1499999999999,0.3761754295482762
246,1956.6200000000001,0.36827489054122686
247,1965.6499999999999,0.3751914922981937
248,1974.73,0.37643909515016044
249,1983.8400000000001,0.36967463265912703
250,1993.0,0.3657266912630935
251,2006.81,0.36593461170204294
252,2016.0800000000002,0.3615062307150089
253,2025.3799999999999,0.36416368438497493
254,2034.7299999999998,0.3581385291499406
255,2044.1200000000001,0.36034024679090615
256,2053.56,0.35474123552687153
257,2063.04,0.3537939071388368
258,2072.56,0.3588115116268019
259,2077.34,0.35395597030878434
260,2086.93,0.35581361232974934
261,2096.56,0.348908167226714
262,2106.2400000000002,0.3481723032186785
263,2115.96,0.3476726420866429
264,2125.7200000000003,0.34742222383060706
265,2135.54,0.33898633488857116
266,2145.39,0.3401976006035351
267,2155.3,0.34196579563249874
268,2165.24,0.3370638753184623
269,2175.24,0.3346831143184257
270,2185.28,0.33208029619438884
271,2187.7616199999998,0.332792076698373
272,2195.37,0.335447258179396
273,2205.5,0.3315680376399885
274,2215.68,0.3257588062094684
275,2225.9100000000003,0.3220462138878356
276,2236.1800000000003,0.32757853085331284
277,2246.5,0.32218932692767754
278,2256.87,0.3173752221109296
279,2267.29,0.3181730464030692
280,2272.52,0.3203608931926939
281,2283.01,0.3219480962372758
282,2293.54,0.3153926985689677
283,2304.13,0.3148620698313244
284,2314.77,0.30955529020256867
285,2325.45,0.29007841986092275
286,2336.18,0.3009739486281643
287,2346.97,0.2966128063260708
288,2352.38,0.3032907099076902
289,2363.23,0.2946519265362616
290,2374.14,0.2963302420954979
291,2385.1,0.28855132676362166
292,2396.11,0.29261987054063276
293,2407.17,0.2880568634265313
294,2412.72,0.2894321945130356
295,2423.86,0.293788595973154
296,2435.04,0.2890370567203824
297,2446.28,0.2927006763982757
298,2457.58,0.29014015500683393
299,2463.24,0.28897427413289056
300,2474.6099999999997,0.2843854214938911
301,2486.0299999999997,0.2849077179637792
302,2497.51,0.27895666336433206
303,2503.2700000000004,0.28769988070816344
304,2511.88643,0.2790269882144226
305,2514.8199999999997,0.2761714236789111
306,2520.62,0.2773591726898409
307,2526.4300000000003,0.2736644229576861
308,2532.25,0.2744342744824468
309,2543.94,0.272496503816545
310,2555.6800000000003,0.2777200094352201
311,2567.4799999999996,0.2742917825953879
312,2573.4,0.2791064866893024
313,2585.2799999999997,0.2770668999047932
314,2597.2099999999996,0.27482108940486094
315,2603.2,0.27112964229718334
316,2615.21,0.2689253318525742
317,2627.28,0.2720265989494575
318,2633.34,0.27506394064018763
319,2645.49,0.28228212779239414
320,2657.7099999999996,0.2839453237430084
321,2663.83,0.2735548829752309
322,2676.13,0.2768629989811683
323,2682.3,0.2769452844979678
324,2694.68,0.2706907705592284
325,2707.12,0.27260333416198135
326,2713.36,0.2668467584771886
327,2725.88,0.2651615821352647
328,2732.1600000000003,0.2696433614781336
329,2744.78,0.25560909770536366
330,2757.4500000000003,0.25675634021717075
331,2763.8,0.2600855383584474
332,2776.56,0.26316831218249304
333,2782.96,0.25669480660834665
334,2795.7999999999997,0.2383900604877155
335,2802.25,0.24303527119814605
336,2815.18,0.2588581463897534
337,2828.1800000000003,0.2630285603797685
338,2834.7,0.25914739988860697
339,2847.7799999999997,0.2549363539339453
340,2854.35,0.2501955297273606
341,2867.52,0.2590858250849375
342,2874.1299999999997,0.25936228590601446
343,2884.0315,0.25801933652707887
344,2887.4,0.25765832384714904
345,2894.06,0.257411069732951
346,2907.4100000000003,0.2655389090085452
347,2927.5699999999997,0.2600623316898919
348,2947.86,0.2571328602218623
349,2968.29,0.25787391043911995
350,2988.8700000000003,0.25713959817632803
351,3009.5899999999997,0.2574087075988233
352,3030.4500000000003,0.25641203870660556
353,3051.45,0.2554064914996751
354,3072.61,0.2549099976473584
355,3086.79,0.254918851200012
356,3108.18,0.25415722154495274
357,3129.73,0.2513076452445073
358,3151.4199999999996,0.25051849062934917
359,3173.2700000000004,0.2499813893688047
360,3187.92,0.24355558715063652
361,3210.0099999999998,0.24628726592201294
362,3232.27,0.23961831388266655
363,3247.1800000000003,0.24649442336574584
364,3269.69,0.2497456671929837
365,3292.3599999999997,0.24754816437483537
366,3307.55,0.24617651722848888
367,3311.31121,0.245972071826501
368,3322.82,0.24557616528299445
369,3330.48,0.24795515700297152
370,3338.16,0.2420552795107292
371,3345.8500000000004,0.24575221741237713
372,3353.57,0.2401761014956961
373,3361.2999999999997,0.24191970097290533
374,3369.05,0.24070363123789515
375,3376.81,0.23351597689677533
376,3384.6,0.2361864687373264
377,3392.3999999999996,0.24470397597176782
378,3400.22,0.2497409139939898
379,3408.06,0.24028568280399243
380,3415.91,0.24179436700788537
381,3423.79,0.24850179739344924
382,3431.68,0.24721014317290343
383,3439.59,0.24592371974013819
384,3447.52,0.23315872709515362
385,3455.47,0.23889066523794966
386,3463.4300000000003,0.231811218774636
387,3471.42,0.23971471849299328
388,3479.4199999999996,0.23020293360524088
389,3487.44,0.23612657950526905
390,3495.4800000000005,0.23488935619307785
391,3503.54,0.2402694636686673
392,3511.62,0.23759980193203736
393,3519.7099999999996,0.23773575558929777
394,3527.8199999999997,0.23079484003433873
395,3535.96,0.23799657066105062
396,3544.1099999999997,0.24244861668165285
397,3552.2799999999997,0.24348339349003573
398,3560.47,0.24100280108619918
399,3568.6800000000003,0.23186273947014321
400,3576.9,0.22796489324797764
401,3585.1499999999996,0.22214899320748296
402,3593.4100000000003,0.22736650856087856
403,3601.7,0.23940777009594513
404,3609.33,0.16194483563425127
405,3612.07,0.19708206356019603
406,3614.8,0.20133158609225055
407,3617.5299999999997,0.23369713862430508
408,3620.27,0.21719715655024985
409,3623.0,0.23877185908230433
410,3625.7400000000002,0.23968027700824912
411,3628.47,0.2396176795403036
412,3631.2100000000005,0.2192013974662484
413,3633.94,0.22776309999830285
414,3636.67,0.25472630253035733
415,3639.4100000000003,0.24929492045630214
416,3642.14,0.2505586229883566
417,3644.8799999999997,0.24752984091430147
418,3647.61,0.23550984344635595
419,3650.35,0.22443306137230074
420,3653.0800000000004,0.2543751639043552
421,3655.81,0.2652076664364097
422,3658.5499999999997,0.2478742843623545
423,3661.28,0.24815898689440896
424,3664.02,0.2382557048203538
425,3666.7499999999995,0.2034040473524083
426,3669.48,0.24299820988446275
427,3672.22,0.25402392781040756
428,3674.9500000000003,0.23093533034246203
429,3677.69,0.24579404826840684
430,3680.4199999999996,0.23495455080046135
431,3683.16,0.24082786872640616
432,3685.89,0.25458367125846065
433,3688.6200000000003,0.23716827379051508
434,3691.36,0.2427915917164599
435,3694.0899999999997,0.2319450942485144
436,3696.83,0.23879061217445918
437,3699.56,0.2150423147065137
438,3702.3,0.24006693263245843
439,3705.03,0.23502563516451294
440,3707.7599999999998,0.24413593769656747
441,3710.5,0.24004475562251226
442,3713.23,0.23505895815456673
443,3715.9700000000003,0.2315787760805115
444,3718.7,0.236946378612566
445,3721.4399999999996,0.2872953965385108
446,3724.17,0.3748374990705653
447,3726.9,0.4492282016026198
448,3729.6400000000003,0.42407541952856453
449,3732.37,0.38790482206061905
450,3735.1099999999997,0.2652874399865639
451,3737.84,0.24049074251861835
452,3740.58,0.24900966044456316
453,3743.3100000000004,0.2545369629766176
454,3746.04,0.2354688655086721
455,3748.7799999999997,0.23473158343461692
456,3751.51,0.2482443859666714
457,3754.25,0.2435490038926162
458,3756.9799999999996,0.23942430642467072
459,3759.72,0.2634767243506155
460,3762.45,0.25743552688266996
461,3765.1800000000003,0.24185332941472443
462,3767.92,0.25208734734066923
463,3770.6499999999996,0.2630032498727238
464,3773.39,0.26087006779866856
465,3776.12,0.273952470330723
466,3778.86,0.2858875882566678
467,3781.59,0.28890829078872227
468,3784.3199999999997,0.29140119332077685
469,3787.06,0.2912331112467216
470,3789.79,0.2804979137787761
471,3792.53,0.2653865317047208
472,3795.2599999999998,0.24655463423677537
473,3798.0000000000005,0.24280365216272015
474,3800.73,0.26320485469477467
475,3801.8939600000003,0.2608037725743382
476,3803.46,0.25759526795157395
477,3806.2000000000003,0.27441599663446037
478,3808.93,0.31422916937324863
479,3811.6699999999996,0.30546829805613507
480,3814.4,0.30132647079492336
481,3817.13,0.27816524353371164
482,3819.8700000000003,0.276126072216598
483,3822.6,0.2803170449553863
484,3825.3399999999997,0.2764724736382727
485,3828.07,0.263150746377061
486,3830.81,0.2427172750599474
487,3833.5399999999995,0.2399155477987357
488,3836.27,0.22855882053752397
489,3839.0099999999998,0.2464142492204104
490,3841.7400000000002,0.27372832195919866
491,3844.48,0.28898655064208506
492,3847.2099999999996,0.28136582338087335
493,3849.95,0.2930825520637597
494,3852.68,0.29037122480254807
495,3855.4100000000003,0.2839517975413363
496,3858.15,0.2919258262242227
497,3860.8799999999997,0.286936798963011
498,3863.62,0.3005701276458974
499,3866.35,0.3074692003846857
500,3869.09,0.32258832906757207
501,3871.82,0.29511500180636036
502,3874.5499999999997,0.27335647454514866
503,3877.29,0.2721159032280351
504,3880.02,0.26144677596682336
505,3882.76,0.28384340464970975
506,3885.49,0.272056277388498
507,3888.2299999999996,0.26526760607138444
508,3890.96,0.2871792788101727
509,3893.69,0.286176151548961
510,3896.4300000000003,0.28473418023184743
511,3899.16,0.2876473529706357
512,3901.8999999999996,0.3016833816535221
513,3904.63,0.2930419543923104
514,3907.37,0.3053072830751968
515,3910.1000000000004,0.31009535581398506
516,3912.83,0.29794022855277336
517,3915.5699999999997,0.2905820572356598
518,3918.3,0.30409862997444803
519,3921.04,0.29814315865733443
520,3923.77,0.30102163139612276
521,3926.5099999999998,0.28042146007900914
522,3929.24,0.24751783281779743
523,3931.9700000000003,0.2437995055565857
524,3934.71,0.23133773423947213
525,3937.44,0.2535480069782604
526,3940.18,0.2796665356611468
527,3942.91,0.28203110839993506
528,3945.65,0.27529793708282146
529,3948.38,0.2971194098216098
530,3951.1099999999997,0.29727588256039805
531,3953.85,0.28268911124328444
532,3956.58,0.28462318398207276
533,3959.32,0.28399371266495915
534,3962.0499999999997,0.26563068540374746
535,3964.7799999999997,0.24033755814253574
536,3967.52,0.23915968682542213
537,3970.25,0.24820425956421044
538,3972.9900000000002,0.2466721882470968
539,3975.72,0.2775554609858851
540,3978.4599999999996,0.30485438966877154
541,3981.19,0.2892759624075598
542,3983.92,0.30484793514634806
543,3986.6600000000003,0.3054821638292345
544,3989.39,0.31920713656802274
545,3992.1299999999997,0.32734766525090914
546,3994.86,0.3089570379896974
547,3997.6,0.31853496667258385
548,4000.3300000000004,0.32664923941137214
549,4003.06,0.31932021215016043
550,4005.7999999999997,0.3276969408330468
551,4008.53,0.3356445135718351
552,4011.27,0.3333066422547215
553,4014.0,0.3424487149935098
554,4016.74,0.34630484367639625
555,4019.47,0.3440796164151845
556,4022.2000000000003,0.35092328915397275
557,4024.94,0.3303784178368592
558,4027.67,0.32573669057564747
559,4030.41,0.3313149192585339
560,4033.14,0.31259789199732213
561,4035.88,0.32816152068020854
562,4038.61,0.3401226934189968
563,4041.34,0.3452094661577851
564,4044.08,0.3359901948406715
565,4046.81,0.3314526675794598
566,4049.55,0.3229208962623462
567,4052.2799999999997,0.3215289690011345
568,4055.0199999999995,0.32325329768402095
569,4057.75,0.32000037042280916
570,4060.48,0.32950344316159746
571,4063.2200000000003,0.32116607184448387
572,4065.95,0.33278004458327215
573,4068.6899999999996,0.32937287326615855
574,4071.42,0.3175025460049469
575,4074.15,0.3083334187437351
576,4076.8900000000003,0.3122520474266215
577,4079.62,0.3083255201654098
578,4082.3599999999997,0.31869514884829625
579,4085.09,0.3175878215870845
580,4087.83,0.3083964502699709
581,4090.56,0.3167398230087592
582,4093.29,0.31640329574754744
583,4096.03,0.30663552443043385
584,4098.76,0.30293819716922216
