,lambda (Angstroms),Total Flux (erg/s/cm^2/Angstrom)
0,102.00000000000001,0.08511854156439286
1,103.9,0.09963292200515338
2,104.712855,0.10584248168888673
3,106.08,0.09712906288374105
4,108.05,0.08457369674262877
5,110.06,0.07176426628590504
6,113.91999999999999,0.04716436758190339
7,117.92999999999999,0.02160894368360881
8,120.22644299999999,0.006997349761180286
9,120.95,0.006791941448506101
10,124.92,0.005633854149200115
11,126.95,0.00504060816184718
12,128.12,0.00469977646164869
13,131.1,0.0038295168017414283
14,132.01,0.0035757079060314933
15,133.85,0.0030397666311894234
16,136.97,0.002148015417326783
17,138.038426,0.0018374103421793205
18,140.16,0.0018242447308727027
19,143.09,0.002054497367923281
20,147.10000000000002,0.002672494231258715
21,150.87,0.002727580933197514
22,155.1,0.0028037272778131963
23,158.489319,0.0028869438673716397
24,159.07999999999998,0.0028981459416402657
25,162.04,0.002948377349851144
26,165.80999999999997,0.0030571825859845936
27,170.07000000000002,0.003125885903207006
28,172.82999999999998,0.003203008094646879
29,176.85,0.003291981351744085
30,180.14,0.003353112467627122
31,181.81,0.003409278927665016
32,181.970086,0.0034129247040783654
33,186.04,0.003591707215884265
34,190.82,0.00382847149075679
35,193.92,0.003995952669021398
36,197.98,0.00418375490249053
37,202.12,0.004396987140560039
38,204.93999999999997,0.0045534493027233275
39,208.929613,0.004633121343828589
40,210.19,0.004691218968560807
41,216.07999999999998,0.005316517242204802
42,220.1,0.005669667782111231
43,223.16,0.005860445073681796
44,226.79000000000002,0.00622084126270178
45,229.94,0.008721705327553831
46,234.21999999999997,0.013294568434717888
47,239.88329199999998,0.016069771756116315
48,240.22000000000003,0.016215564644047817
49,245.82,0.015411840101644023
50,252.13,0.01620499360832832
51,256.81,0.013930111312176578
52,259.78999999999996,0.015748956644968847
53,264.01,0.01637068547194313
54,268.92,0.016279557614228373
55,273.92,0.0161528810585107
56,275.42287,0.016124797392231906
57,279.01,0.0162488494742865
58,284.2,0.016393315217004857
59,290.15,0.01589052546154709
60,296.21999999999997,0.016323316416903627
61,301.03000000000003,0.016291859908710044
62,308.05,0.01668549149134643
63,316.227766,0.017130960719809005
64,318.14000000000004,0.017144002081177535
65,327.81,0.01688445736800691
66,337.77000000000004,0.0164856399281745
67,348.03000000000003,0.016050598288347137
68,356.96,0.015709482601830728
69,363.078055,0.01556667576449154
70,366.10999999999996,0.015604664925152409
71,374.64,0.015484692089751569
72,385.14,0.015000435867980314
73,395.02000000000004,0.015372140661208886
74,405.15000000000003,0.015473216496776236
75,413.63,0.01530601745290764
76,416.86938299999997,0.015235860169344372
77,422.29999999999995,0.015084088238753443
78,430.15,0.014899937651291563
79,441.17999999999995,0.014836318201647674
80,451.46,0.014574103011952371
81,459.84999999999997,0.014330446957327509
82,469.47999999999996,0.014159869459587651
83,478.630092,0.014118185070925533
84,480.42,0.014071003542050122
85,490.47,0.013470896995094519
86,499.59000000000003,0.013335454367409433
87,506.53999999999996,0.012935974218022226
88,512.41,0.01358049345875562
89,519.54,0.013316506744348311
90,530.42,0.01286306325868891
91,540.28,0.012219926974810079
92,549.5408739999999,0.012215210894189159
93,550.3199999999999,0.012221314930685541
94,560.55,0.01244381801634931
95,569.6600000000001,0.012627950324306
96,580.25,0.012178194017089902
97,589.68,0.012502907975820043
98,600.64,0.012124192014810749
99,610.4,0.01151123836340101
100,620.3199999999999,0.012759888537378
101,630.4,0.012746875536741715
102,630.957344,0.012740638771643834
103,640.64,0.012723818727542765
104,649.56,0.013107106954495002
105,658.59,0.013315722143887236
106,664.69,0.013616976424650538
107,675.49,0.013490617282395402
108,684.8799999999999,0.013101226167045798
109,694.4100000000001,0.014858514822074367
110,705.69,0.014234560606830112
111,715.51,0.015582473071927757
112,724.43596,0.015800408303510864
113,725.47,0.015823236505418465
114,735.56,0.016046391951884117
115,745.7900000000001,0.017136169684029173
116,754.43,0.017723007885958136
117,764.9200000000001,0.017794658434364945
118,775.56,0.01916548214599969
119,784.54,0.019867700184578636
120,795.46,0.020435918467572187
121,804.67,0.020971606689767292
122,815.86,0.021399638666571127
123,825.31,0.02282982794993093
124,831.763771,0.02023627539314096
125,834.87,0.018957486189428822
126,844.53,0.02319778038857163
127,854.3100000000001,0.023425146813790747
128,864.1999999999999,0.024711552779579815
129,874.21,0.026029760971445194
130,884.34,0.027842581389386875
131,894.5699999999999,0.02899000866239215
132,904.9300000000001,0.028254020846980088
133,915.41,0.04448080525764434
134,926.01,0.3235928018943849
135,934.58,0.7009042133733345
136,945.4,1.355756279091215
137,954.15,2.0047013789092794
138,954.992586,2.005790382615145
139,965.1999999999999,2.0190408467564227
140,974.13,0.27138614555192436
141,985.4100000000001,1.372475344030453
142,994.53,1.6729046406726675
143,1006.04,2.8406523944393216
144,1015.35,2.854220488928249
145,1024.75,1.2790544876603562
146,1034.23,1.7571244012752896
147,1043.8,3.8875642191334028
148,1055.89,3.8089153558005493
149,1065.6599999999999,2.7037269608657284
150,1075.52,3.4197054701740877
151,1085.47,2.4443718837256263
152,1095.51,3.657393201520345
153,1096.4782,3.640987101350304
154,1105.6499999999999,3.485550629141668
155,1115.88,3.2163305630698056
156,1126.2,2.7956971972964317
157,1134.01,3.930922189865225
158,1144.5,3.4801532579889956
159,1155.09,3.816638993111085
160,1165.78,3.9063263952314955
161,1173.8600000000001,2.431792488695753
162,1184.72,3.7664733247133073
163,1195.6799999999998,2.239366827729181
164,1203.97,1.4104182218899108
165,1215.11,1.200888125502761
166,1226.36,2.5197806628137633
167,1234.86,4.162558357670965
168,1246.28,4.596818328879111
169,1254.9199999999998,4.24166255753396
170,1258.92541,3.8912315518778
171,1263.6200000000001,3.4805213314209693
172,1275.31,4.872020100336808
173,1284.15,5.185525194196177
174,1296.03,3.64702700811578
175,1305.02,3.572914137504436
176,1314.06,4.9211732787361875
177,1326.2199999999998,4.636408158977129
178,1335.4199999999998,3.8395273381067883
179,1344.67,5.004378529079544
180,1353.99,4.802166736632634
181,1366.52,4.088462704512484
182,1375.99,4.401908947594862
183,1385.5300000000002,4.4332982072575735
184,1395.14,3.78291748350062
185,1404.81,3.925688773955381
186,1414.55,3.9628170809904772
187,1424.3500000000001,4.169597402237288
188,1434.22,4.084899740064433
189,1440.84,4.38775030809034
190,1445.43977,4.465987605895431
191,1447.4899999999998,4.500859805177759
192,1454.1699999999998,4.308826133133555
193,1464.25,3.850084136994996
194,1474.3999999999999,3.8597411547721414
195,1484.6200000000001,3.996293186464991
196,1494.92,4.090131234061503
197,1505.28,3.7829632935857616
198,1512.23,3.227958675216418
199,1515.71,3.564047367025725
200,1526.22,3.3810084563693503
201,1533.26,2.8127708558916265
202,1543.8899999999999,3.2524799690907447
203,1554.5900000000001,3.0362240962055678
204,1565.3700000000001,3.057907239224053
205,1576.22,3.2924093961582432
206,1583.49,3.5283708414035484
207,1594.47,3.594653024181189
208,1605.52,3.538017220874534
209,1616.65,3.563444433471542
210,1624.11,3.2957139164880447
211,1635.37,3.581230154928503
212,1646.71,3.6402204092726245
213,1654.31,3.282598920120536
214,1659.58691,3.4555238957922545
215,1665.78,3.6584799600799895
216,1673.47,3.11456112417857
217,1677.32,3.659460713486702
218,1685.07,3.9126469646913824
219,1696.75,3.6107559213456635
220,1704.58,3.4251062886918118
221,1716.39,3.1681724340759776
222,1724.32,3.1541079465989603
223,1736.27,3.4273502952306942
224,1744.28,3.326871923895145
225,1756.37,3.6319304757744475
226,1764.48,3.230339249615733
227,1776.71,3.321621004742604
228,1784.91,3.3995029092430404
229,1793.15,3.719541871814211
230,1805.58,3.677861917294751
231,1813.9099999999999,3.3014050105250727
232,1826.49,3.3947162737708645
233,1834.9199999999998,3.2127835121780204
234,1843.39,2.897317808655911
235,1856.17,2.8781153622553717
236,1864.73,3.000337789392413
237,1873.34,3.3437792891178715
238,1886.33,3.0156461475886847
239,1895.03,2.8870837779732943
240,1903.78,3.086962480946321
241,1905.46072,3.0667993368169606
242,1916.98,2.928567364409045
243,1925.82,2.8824078217143803
244,1934.71,2.970372185452438
245,1943.64,3.1181214743366734
246,1957.12,2.8907302485986555
247,1966.15,3.251482350348336
248,1975.23,3.343046358530739
249,1984.34,3.127728310572776
250,1993.5,3.022219169047535
251,2002.7,3.128937952668472
252,2016.5900000000001,2.9684779596787783
253,2025.8899999999999,3.1521415561651605
254,2035.2500000000002,2.9423880403708096
255,2044.64,3.109970468436092
256,2054.08,2.943459802934097
257,2063.56,2.93048006257828
258,2073.08,3.191670247368641
259,2077.86,3.0273653023369107
260,2082.65,3.1849523385917244
261,2097.09,2.9731703163619776
262,2106.77,2.966911201737051
263,2116.4900000000002,3.0018680122583015
264,2126.26,3.044282729212275
265,2136.08,2.7643353525989713
266,2145.94,2.881819901131845
267,2155.84,3.011160374810897
268,2165.79,2.8895997549226715
269,2175.79,2.857102041467168
270,2185.83,2.799039253157843
271,2187.7616199999998,2.8282827390735505
272,2195.92,2.951822810812328
273,2206.06,2.85225693979178
274,2216.24,2.662553128451625
275,2226.4700000000003,2.55507339171196
276,2236.75,2.788960729572785
277,2247.0699999999997,2.6318801271140035
278,2257.44,2.4661905992557114
279,2262.65,2.5460633726268105
280,2273.09,2.6276999492092057
281,2283.58,2.7182056003920905
282,2294.12,2.5409813261754657
283,2304.71,2.533339126559332
284,2315.35,2.3626610015436884
285,2326.04,1.714682951128535
286,2336.77,2.117569960393774
287,2347.56,2.0395670591796016
288,2352.9700000000003,2.2613011309526625
289,2363.83,2.009476334179176
290,2374.74,2.088295612006181
291,2385.71,1.898878979353774
292,2396.72,2.0566444063817593
293,2402.24,1.9499286422758986
294,2413.33,2.0217171886646685
295,2424.47,2.1947858096539288
296,2435.66,2.09446850524368
297,2446.9,2.2425672754339203
298,2452.54,2.205902690369237
299,2463.86,2.174092579920263
300,2475.24,2.0700225589918775
301,2486.66,2.1215455977438835
302,2492.39,1.9884501469600828
303,2503.9,2.2654173199929724
304,2511.88643,2.0346324627072163
305,2515.46,1.9313591722773096
306,2527.07,1.8903224681167399
307,2532.89,1.9380671073747486
308,2544.5800000000004,1.8881333570184125
309,2556.33,2.0828535720152517
310,2562.2200000000003,1.9884511708519652
311,2574.0499999999997,2.1386983396530383
312,2585.9300000000003,2.0884434795817572
313,2597.87,2.0392945848636517
314,2603.85,1.9467751317301283
315,2615.8700000000003,1.9097921908162563
316,2627.95,2.03053921525556
317,2634.0099999999998,2.1400607159262703
318,2646.1600000000003,2.3770786999442786
319,2652.26,2.470856177517106
320,2664.5099999999998,2.135671103790406
321,2676.81,2.2707930011913526
322,2682.98,2.259401438342884
323,2695.36,2.1264592895480647
324,2707.8,2.2144541061064205
325,2714.04,2.056390502836657
326,2726.5699999999997,2.0406202674247753
327,2732.8599999999997,2.165438635282658
328,2745.47,1.7833203536750106
329,2758.14,1.8402690374205384
330,2764.4999999999995,1.9349703648571255
331,2777.2599999999998,2.0430939966324164
332,2783.66,1.8841013009711203
333,2796.5099999999998,1.4582508807761743
334,2802.96,1.5798201562425243
335,2815.9,1.9914146840773412
336,2822.3900000000003,2.1574309364458077
337,2835.41,2.068192418084859
338,2841.95,1.9971816415809718
339,2855.07,1.8795270654753151
340,2868.25,2.1608414547228336
341,2874.86,2.179715637797651
342,2884.0315,2.150923442985185
343,2888.1299999999997,2.1380592933074087
344,2894.79,2.122452214602296
345,2908.15,2.373668056719366
346,2928.31,2.2430648184768613
347,2948.6099999999997,2.1890665785798946
348,2969.04,2.2524283371466414
349,2989.62,2.249314093940751
350,3010.35,2.287839848962223
351,3031.2099999999996,2.274118602447409
352,3052.23,2.2656813540417815
353,3073.38,2.2781751040998675
354,3087.57,2.302188936408343
355,3108.97,2.293622683512033
356,3130.52,2.2485254288430854
357,3152.22,2.2502441724015
358,3166.77,2.248059000455645
359,3188.72,2.0998217410596633
360,3210.83,2.1953124797728685
361,3233.08,2.045843216831612
362,3248.0,2.2201280405132504
363,3270.52,2.3104677743812454
364,3293.1899999999996,2.2751975064766032
365,3308.39,2.272857326849318
366,3311.31121,2.2634841682176523
367,3323.66,2.223858502653354
368,3331.3199999999997,2.264123772208081
369,3338.9999999999995,2.116826037244675
370,3346.7000000000003,2.2773762977631344
371,3354.42,2.1787595537634603
372,3362.1499999999996,2.0699998075047192
373,3369.9,2.0881050567278447
374,3377.6699999999996,2.1208643014328357
375,3385.45,2.1640885438787603
376,3393.26,2.2751727795474834
377,3401.0800000000004,2.43089401295714
378,3408.9199999999996,2.190610241848663
379,3416.7799999999997,2.1843574662220515
380,3424.65,2.3230826883363735
381,3432.5499999999997,2.3978089036734946
382,3440.46,2.288743116751549
383,3448.39,2.0958883253114693
384,3456.34,2.1384825293532552
385,3464.31,2.027230728876908
386,3472.2999999999997,2.2419259238824263
387,3480.3,2.0578061166288784
388,3488.3199999999997,2.1634463048571964
389,3496.36,2.1277104885673803
390,3504.4199999999996,2.22679666775943
391,3512.5,2.1500228424333465
392,3520.6,2.2603300125891286
393,3528.7200000000003,2.0228441782267774
394,3536.8500000000004,2.2166373416053586
395,3545.0,2.3144725004658064
396,3553.1800000000003,2.3344346525490534
397,3561.37,2.274819802373233
398,3569.58,2.0688619476792796
399,3577.81,2.0392160884671915
400,3586.05,1.910969226996037
401,3594.3199999999997,2.0843083587476814
402,3602.61,2.289330485981192
403,3610.91,2.096318610955636
404,3619.2400000000002,2.2039767291528785
405,3627.5800000000004,2.3064858450910544
406,3635.9399999999996,2.0640219565110964
407,3643.5099999999998,2.4281972463974264
408,3646.19,2.308979640967488
409,3648.8599999999997,2.477496037796616
410,3651.53,2.5926494346257445
411,3654.21,1.9680488291958056
412,3656.88,2.243290226024934
413,3659.5499999999997,2.4907576228540624
414,3662.22,2.4322490196831903
415,3664.8999999999996,2.185398414253252
416,3667.57,2.3390908110823796
417,3670.2400000000002,2.157474207911508
418,3672.91,2.0368646047406362
419,3675.59,2.4273999993106976
420,3678.2599999999998,2.328167396139826
421,3680.93,2.0799247929689546
422,3683.61,2.1615201875390158
423,3686.28,2.368418584368144
424,3688.95,2.354534981197272
425,3691.62,2.2086483780264006
426,3694.2999999999997,2.140297772596462
427,3696.97,2.31162216942559
428,3699.6400000000003,2.4484645662547186
429,3702.31,2.1510719630838464
430,3704.9900000000002,2.220184357653908
431,3707.66,2.092397754483036
432,3710.33,2.0860031513121644
433,3713.0,2.2939945481412924
434,3715.6800000000003,2.302098942711354
435,3718.3500000000004,2.092708339540482
436,3721.02,3.0819467363696105
437,3723.7,3.858342130939672
438,3726.37,5.042618527768799
439,3729.04,5.884254924597928
440,3731.7099999999996,4.830898321427057
441,3734.3900000000003,3.797488715997118
442,3737.06,3.168846112826246
443,3739.73,2.440498509655374
444,3742.4,2.3084989064845027
445,3745.08,2.478874301054564
446,3747.7500000000005,2.253568697883692
447,3750.42,2.0775690947128207
448,3753.1,1.916380489282882
449,3755.77,2.4576528861120104
450,3758.44,2.404293282941138
451,3761.1099999999997,2.388536679770267
452,3763.79,2.638956074340328
453,3766.4599999999996,2.294599471169456
454,3769.13,2.5258398679985845
455,3771.8,2.2409302648277127
456,3774.48,2.3950786593977744
457,3777.15,2.6420790562269025
458,3779.8199999999997,2.6965364530560305
459,3782.4999999999995,3.065848847626092
460,3785.17,3.1686772444552203
461,3787.84,2.8124626412843483
462,3790.51,2.7152590381134765
463,3793.19,2.482294432683538
464,3795.8599999999997,2.4643538295126666
465,3798.5299999999997,2.1449612263417945
466,3801.2000000000003,2.503211623170923
467,3801.8939600000003,2.461836690803693
468,3803.88,2.3434261112245816
469,3806.55,2.4978996337315436
470,3809.22,2.7336651562385055
471,3811.89,3.0026656787454677
472,3814.5699999999997,2.7414581994640663
473,3817.2400000000002,2.8350807219710283
474,3819.9100000000003,2.9196532444779906
475,3822.59,2.5492247651965894
476,3825.2599999999998,2.2533942877035513
477,3827.93,2.276801810210513
478,3830.6,2.232023332717475
479,3833.28,2.370725853436074
480,3835.9500000000003,2.180995375943036
481,3838.62,2.262757898449998
482,3841.29,2.31565542095696
483,3843.97,2.502414941675559
484,3846.64,2.4279904641825207
485,3849.3100000000004,2.9542859866894826
486,3851.9900000000002,2.7665695074080814
487,3854.66,3.2613460299150434
488,3857.33,3.1925405524220056
489,3860.0,3.1101600749289675
490,3862.68,3.770624595647566
491,3865.3500000000004,3.6584431181545285
492,3868.02,3.9138706406614903
493,3870.69,4.051963163168453
494,3873.37,3.746751683887051
495,3876.04,3.370722206394013
496,3878.71,3.223121728900975
497,3881.3799999999997,2.7881112514079374
498,3884.06,2.7873197721265357
499,3886.73,2.284748294633498
500,3889.4,2.61678481714046
501,3892.08,2.7604783378590585
502,3894.75,2.6153728603660205
503,3897.4199999999996,2.846146382872983
504,3900.09,2.796530905379945
505,3902.77,3.0895454260985433
506,3905.44,3.367595948605506
507,3908.11,3.343726471112468
508,3910.7799999999997,3.42533599361943
509,3913.4600000000005,3.715070514338028
510,3916.13,3.7542390368449907
511,3918.8,3.284434559351953
512,3921.48,3.324834080070551
513,3924.15,3.1580416025775135
514,3926.8199999999997,3.0895481250844754
515,3929.49,2.9151086475914374
516,3932.1699999999996,3.0915681683100362
517,3934.84,2.775609690816998
518,3937.51,2.92087721332396
519,3940.18,2.774524735830922
520,3942.86,2.943338256549521
521,3945.5299999999997,3.270226779056483
522,3948.2,3.3856933015634447
523,3950.8700000000003,3.3012838240704068
524,3953.55,3.3744503447890057
525,3956.22,3.2558708672959678
526,3958.89,3.08268038980293
527,3961.5699999999997,2.7433029105215283
528,3964.24,2.7816894330284905
529,3966.9100000000003,2.6882299555354523
530,3969.58,2.7855964780424145
531,3972.26,2.589923998761013
532,3974.93,2.6142675212679753
533,3977.6,2.721464043774937
534,3980.27,2.706019566281899
535,3982.9500000000003,3.005277087000498
536,3985.6200000000003,3.21685760950746
537,3988.29,3.249472132014422
538,3990.97,3.4866256527330206
539,3993.64,3.4548001752399826
540,3996.31,3.3295106977469446
541,3998.9799999999996,3.4089352202539067
542,4001.6600000000003,3.4268657409725054
543,4004.33,3.4616642634794674
544,4007.0,3.3992557859864294
545,4009.67,3.509730308493392
546,4012.35,3.2034288292119903
547,4015.0200000000004,3.3887973517189525
548,4017.69,3.4368588742259143
549,4020.36,3.5972633967328767
550,4023.04,3.740173917451475
551,4025.71,3.6682474399584373
552,4028.3799999999997,3.4259359624653993
553,4031.0600000000004,3.4192134831839978
554,4033.73,3.48100600569096
555,4036.4,3.5365575281979225
556,4039.07,3.3939490507048844
557,4041.75,3.2783175714234827
558,4044.42,3.443558093930445
559,4047.0899999999997,3.400965616437407
560,4049.76,3.432020138944369
561,4052.44,3.4604046596629674
562,4055.11,3.73689518216993
563,4057.78,3.593663704676892
564,4060.46,3.52811722539549
565,4063.1299999999997,3.7448477479024525
566,4065.8,3.7612352704094145
567,4068.4700000000003,3.7651407929163767
568,4071.15,3.5265573136349753
569,4073.82,3.6311008361419375
570,4076.49,3.6292333586488996
571,4079.16,3.6605998811558615
572,4081.8399999999997,3.73173540187446
573,4084.51,3.5811709243814223
574,4087.1800000000003,3.6454594468883843
575,4089.85,3.774189969395346
576,4092.5299999999997,3.634684490113945
577,4095.2,3.365848012620907
578,4097.87,3.405795535127869
579,4100.55,3.1667450558464676
580,4103.22,3.17470557835343
581,4105.889999999999,3.1900001008603915
582,4108.56,3.3284036233673535
583,4111.24,3.3332281440859526
584,4113.91,3.2904796665929146
585,4116.58,3.3146681890998764
586,4119.25,3.3862907116068386
587,4121.929999999999,3.8008512323254373
588,4124.6,3.672598754832399
589,4127.27,3.528898277339361
590,4129.95,3.46054379805796
