,lambda (Angstroms),Total Flux (erg/s/cm^2/Angstrom)
0,100.02000000000001,5.239072e-12
1,102.12,7.43413e-12
2,104.01,9.824164e-12
3,104.712855,1.1076197290324742e-11
4,105.95,1.327999e-11
5,107.92,1.795479e-11
6,109.92,2.865712e-11
7,114.05,4.844522e-11
8,118.06,7.695217e-11
9,120.22644299999999,1.643258386366958e-10
10,121.09,1.991535e-10
11,125.05000000000001,3.091865e-10
12,127.08000000000001,3.804278e-10
13,127.96,4.229419e-10
14,130.95000000000002,5.638676e-10
15,131.85,6.519825e-10
16,134.0,7.838195e-10
17,137.12,1.074579e-09
18,138.038426,1.17675757260418e-09
19,139.98999999999998,1.393878e-09
20,142.92,2.270953e-09
21,146.92000000000002,3.674805e-09
22,151.04,4.991671e-09
23,154.91,6.718607e-09
24,158.489319,8.713753585002503e-09
25,158.89000000000001,8.937097e-09
26,161.84,1.097066e-08
27,165.98999999999998,1.429717e-08
28,169.86,1.837509e-08
29,173.02,2.203932e-08
30,177.04999999999998,2.78122e-08
31,179.92000000000002,3.298061e-08
32,181.970086,3.676052717792348e-08
33,182.01,3.683412e-08
34,185.82000000000002,4.552309e-08
35,191.02999999999997,5.864342e-08
36,194.13,6.81149e-08
37,198.19,8.227324e-08
38,201.88000000000002,9.867757e-08
39,205.16,1.127784e-07
40,208.929613,1.31752486790251e-07
41,209.94,1.368382e-07
42,215.82,1.779186e-07
43,219.82999999999998,2.076054e-07
44,222.89,2.318572e-07
45,227.03,2.68687e-07
46,230.19000000000003,6.565144e-07
47,233.93,1.009797e-06
48,239.88329199999998,1.328692031487332e-06
49,239.93,1.331194e-06
50,246.09,1.483359e-06
51,251.82,1.722753e-06
52,257.09,1.679812e-06
53,260.07,1.973529e-06
54,264.3,2.183828e-06
55,269.21,2.383609e-06
56,274.21000000000004,2.595708e-06
57,275.42287,2.6459764673294103e-06
58,279.31,2.807082e-06
59,283.85,3.035507e-06
60,289.79,3.222925e-06
61,295.86,3.566618e-06
62,300.67,3.717423e-06
63,307.67,4.132763e-06
64,316.227766,4.680708776523609e-06
65,317.75,4.778176e-06
66,328.15999999999997,5.360801e-06
67,338.14,5.987089e-06
68,347.61,6.656382e-06
69,357.35,7.365921e-06
70,363.078055,7.958668668405047e-06
71,365.67,8.226887e-06
72,375.04999999999995,9.020297e-06
73,384.67,9.959832e-06
74,395.45,1.151381e-05
75,404.66,1.306877e-05
76,414.09000000000003,1.479853e-05
77,416.86938299999997,1.5369156485595567e-05
78,421.78000000000003,1.637734e-05
79,429.63,1.833264e-05
80,440.65,2.193987e-05
81,450.90999999999997,2.571731e-05
82,460.35,2.946003e-05
83,469.99,3.525717e-05
84,478.630092,4.1433834793731714e-05
85,479.83,4.229163e-05
86,489.88,5.026231e-05
87,500.14000000000004,6.140699e-05
88,505.93,0.0002345494
89,511.79,0.0008958651
90,520.1,0.0009294926
91,529.77,0.0009845768
92,539.62,0.0009621393
93,549.5408739999999,0.0012589065343657155
94,549.66,0.00126247
95,559.87,0.001542551
96,570.28,0.001750839
97,579.55,0.00173476
98,590.32,0.00206656
99,599.92,0.002139118
100,609.66,0.002507352
101,619.5699999999999,0.002925585
102,629.6400000000001,0.003171213
103,630.957344,0.0031944183429302043
104,639.87,0.003351417
105,650.27,0.00373447
106,657.8000000000001,0.003946713
107,665.4100000000001,0.004268277
108,674.67,0.004552431
109,685.63,0.004605091
110,695.17,0.005549114
111,704.84,0.005473046
112,716.29,0.006565096
113,724.43596,0.0068696601265315965
114,726.26,0.006937858
115,734.6700000000001,0.007365984
116,744.89,0.008076858
117,755.25,0.008614779
118,765.7600000000001,0.009188138
119,774.62,0.009936585
120,785.4,0.0107953
121,794.49,0.01140894
122,805.5500000000001,0.01202903
123,814.87,0.01265439
124,824.3100000000001,0.0137162
125,831.763771,0.013121243507965997
126,835.78,0.01280067
127,845.4599999999999,0.01500496
128,855.25,0.01582089
129,865.15,0.01691339
130,875.17,0.01804
131,885.3,0.01928551
132,895.55,0.02038145
133,905.9200000000001,0.02109772
134,914.3,0.03042575
135,924.89,0.176295
136,935.6,0.3708846
137,944.26,0.736595
138,954.992586,0.9823070006328982
139,955.19,0.9868266
140,964.03,1.225283
141,975.1899999999999,0.3674845
142,984.2199999999999,1.328113
143,995.61,1.306883
144,1004.83,1.538967
145,1014.12,1.419837
146,1025.87,0.6126868
147,1035.3600000000001,1.208477
148,1044.94,1.816498
149,1054.61,1.804
150,1064.3700000000001,1.615241
151,1074.21,1.795732
152,1084.1499999999999,1.607821
153,1094.18,1.858814
154,1096.4782,1.8416909353405726
155,1104.31,1.783339
156,1114.53,1.787461
157,1124.84,1.656683
158,1135.25,1.858792
159,1145.75,1.758883
160,1153.69,1.8249
161,1164.37,1.863101
162,1175.1399999999999,1.490156
163,1186.02,1.837521
164,1194.24,1.607789
165,1205.29,1.312916
166,1213.64,0.6780001
167,1224.87,1.426401
168,1236.21,1.803986
169,1244.77,1.884692
170,1256.29,1.86739
171,1258.92541,1.8456991536073473
172,1265.0,1.795702
173,1273.77,1.937471
174,1285.56,1.955388
175,1294.47,1.771058
176,1306.44,1.795727
177,1315.5,1.955387
178,1324.62,1.893376
179,1333.8,1.812305
180,1346.14,1.915278
181,1355.47,1.910887
182,1364.87,1.837514
183,1374.33,1.846008
184,1383.8600000000001,1.863085
185,1393.45,1.668145
186,1406.3400000000001,1.718834
187,1416.0900000000001,1.812317
188,1425.9099999999999,1.795704
189,1435.7900000000002,1.820672
190,1442.42,1.850254
191,1445.43977,1.8425399429608436
192,1445.74,1.841773
193,1455.7600000000002,1.820679
194,1465.85,1.767003
195,1476.0200000000002,1.766966
196,1486.25,1.762915
197,1496.5500000000002,1.758861
198,1503.46,1.703072
199,1510.4,1.611522
200,1517.3700000000001,1.652861
201,1524.37,1.660493
202,1534.9399999999998,1.538977
203,1545.58,1.560402
204,1556.29,1.517863
205,1563.47,1.567606
206,1574.31,1.626425
207,1585.22,1.637713
208,1596.21,1.656684
209,1603.58,1.61896
210,1614.7,1.611511
211,1625.89,1.596743
212,1633.39,1.637698
213,1644.72,1.626405
214,1656.1200000000001,1.600405
215,1659.58691,1.6242046110955493
216,1663.76,1.652852
217,1671.4399999999998,1.593054
218,1675.2900000000002,1.660501
219,1686.91,1.660477
220,1694.69,1.618968
221,1706.4399999999998,1.585744
222,1714.32,1.542507
223,1726.2,1.535447
224,1734.1699999999998,1.578446
225,1746.19,1.549663
226,1754.25,1.582093
227,1766.4099999999999,1.521363
228,1774.56,1.528379
229,1786.8600000000001,1.542517
230,1795.1100000000001,1.567599
231,1803.39,1.567609
232,1815.89,1.503961
233,1824.28,1.524889
234,1836.9199999999998,1.500497
235,1845.4,1.423088
236,1853.92,1.413294
237,1866.7700000000002,1.436267
238,1875.39,1.483331
239,1884.04,1.393908
240,1897.1,1.340418
241,1905.46072,1.4099856804566204
242,1905.8600000000001,1.413308
243,1914.66,1.365304
244,1923.49,1.337311
245,1936.83,1.381126
246,1945.77,1.410049
247,1954.75,1.331164
248,1968.3,1.397126
249,1977.3799999999999,1.432969
250,1981.94,1.374777
251,1995.68,1.349686
252,2004.89,1.374776
253,2014.15,1.368458
254,2023.44,1.397144
255,2032.78,1.343496
256,2046.8700000000001,1.349684
257,2056.32,1.300865
258,2065.81,1.322026
259,2075.35,1.377954
260,2080.13,1.318965
261,2084.9300000000003,1.343492
262,2094.55,1.30086
263,2104.22,1.32505
264,2113.93,1.32505
265,2123.69,1.34041
266,2133.4900000000002,1.312915
267,2143.34,1.294886
268,2153.23,1.31593
269,2163.17,1.30086
270,2173.1600000000003,1.291904
271,2183.19,1.283032
272,2187.7616199999998,1.289775026003972
273,2193.2599999999998,1.297885
274,2203.39,1.280072
275,2213.56,1.262504
276,2223.77,1.242329
277,2234.04,1.256715
278,2244.35,1.248048
279,2254.71,1.225279
280,2265.12,1.230931
281,2275.57,1.23372
282,2286.08,1.236094
283,2296.63,1.199209
284,2307.23,1.207084
285,2312.5499999999997,1.190304
286,2323.22,1.065363
287,2333.95,1.159678
288,2344.7200000000003,1.143312
289,2355.54,1.158802
290,2366.41,1.134617
291,2377.34,1.13678
292,2382.82,1.110689
293,2393.82,1.125703
294,2404.87,1.109848
295,2415.9700000000003,1.106867
296,2427.12,1.116678
297,2432.71,1.09357
298,2443.94,1.105793
299,2455.22,1.100267
300,2466.56,1.087255
301,2472.24,1.07706
302,2483.65,1.08161
303,2495.12,1.034883
304,2506.63,1.075787
305,2511.88643,1.044552165262975
306,2512.41,1.041441
307,2518.2,1.058151
308,2524.0099999999998,1.041024
309,2535.6600000000003,1.033415
310,2547.36,1.023539
311,2553.23,1.039954
312,2565.02,1.029996
313,2576.86,1.039091
314,2582.8,1.034103
315,2594.72,1.026549
316,2606.7000000000003,1.014363
317,2612.7099999999996,1.007173
318,2624.77,1.009083
319,2636.8799999999997,1.006321
320,2642.9599999999996,1.024813
321,2655.16,1.022018
322,2667.4199999999996,1.000641
323,2673.56,1.005027
324,2685.9100000000003,1.004603
325,2692.1,0.9860382
326,2704.5200000000004,0.9878791
327,2717.01,0.9739041
328,2723.27,0.9647624
329,2735.84,0.9732479
330,2742.15,0.9400063
331,2754.8,0.9395946
332,2767.52,0.9435049
333,2773.9,0.9542166
334,2786.7,0.9428703
335,2793.1299999999997,0.8940225
336,2806.02,0.9102413
337,2812.4900000000002,0.9376828
338,2825.47,0.9307868
339,2831.98,0.9135954
340,2845.06,0.9131741
341,2858.19,0.9064726
342,2864.78,0.9146392
343,2878.0,0.9079187
344,2884.0315,0.905829781402715
345,2884.63,0.9056225
346,2897.9500000000003,0.9010414
347,2911.33,0.9047579
348,2931.5099999999998,0.8896669
349,2951.83,0.8768249
350,2972.2900000000004,0.8741633
351,2992.8900000000003,0.8655267
352,3006.71,0.8591442
353,3027.55,0.8525853
354,3048.5299999999997,0.8441531
355,3069.6600000000003,0.8338555
356,3090.9399999999996,0.8255871
357,3112.37,0.8173911
358,3126.7299999999996,0.8076353
359,3148.41,0.8014437
360,3170.23,0.7934708
361,3192.2099999999996,0.7765889
362,3206.9399999999996,0.776179
363,3229.17,0.7649264
364,3251.55,0.7643175
365,3266.56,0.7621402
366,3289.2,0.7545345
367,3311.31121,0.7472286846748246
368,3312.0,0.7470011
369,3319.64,0.7571979
370,3327.29,0.7604768
371,3334.96,0.7585169
372,3342.6499999999996,0.7158848
373,3350.3500000000004,0.7581031
374,3358.08,0.708936
375,3365.8199999999997,0.7235636
376,3373.58,0.7134381
377,3381.3500000000004,0.7050736
378,3389.15,0.7347193
379,3396.96,0.7362119
380,3404.79,0.7142963
381,3412.6400000000003,0.7107989
382,3420.5099999999998,0.7288217
383,3428.39,0.7269428
384,3436.2999999999997,0.7334693
385,3444.2200000000003,0.7067351
386,3452.1600000000003,0.7381164
387,3460.12,0.7030902
388,3468.0899999999997,0.7028738
389,3476.09,0.7010594
390,3484.1,0.6896402
391,3492.13,0.712045
392,3500.18,0.7036791
393,3508.25,0.6843063
394,3516.34,0.6793892
395,3524.4500000000003,0.6934038
396,3532.5699999999997,0.6980296
397,3540.71,0.7042658
398,3548.8799999999997,0.7154917
399,3557.0600000000004,0.7152947
400,3565.26,0.7134385
401,3573.48,0.6890021
402,3581.71,0.6684828
403,3589.9700000000003,0.6545883
404,3598.25,0.6727114
405,3606.54,0.6771651
406,3614.85,0.684823
407,3623.19,0.6909325
408,3631.54,0.7216066
409,3633.6099999999997,0.6823269
410,3636.33,0.6612179
411,3639.0499999999997,0.722171
412,3641.7699999999995,0.6935529
413,3644.4900000000002,0.6276584
414,3647.21,0.6451222
415,3649.9300000000003,0.6921088
416,3652.65,0.6960709
417,3655.37,0.6894175
418,3658.0800000000004,0.7374352
419,3660.8,0.6083123
420,3663.52,0.6588457
421,3666.2400000000002,0.6558368
422,3668.96,0.6733496
423,3671.68,0.6183395
424,3674.4,0.6934303
425,3677.12,0.7040698
426,3679.8399999999997,0.6295655
427,3682.56,0.6211022
428,3685.28,0.6310326
429,3687.99,0.6622462
430,3690.71,0.6483528
431,3693.43,0.6630772
432,3696.15,0.6524124
433,3698.8700000000003,0.7207523
434,3701.59,0.6687752
435,3704.31,0.6975394
436,3707.03,0.6578656
437,3709.75,0.6524598
438,3712.47,0.6532177
439,3715.19,0.769547
440,3717.9,0.9978088
441,3720.62,1.87936
442,3723.34,3.353665
443,3726.06,4.441629
444,3728.7799999999997,4.259892
445,3731.5,2.87205
446,3734.22,1.613699
447,3736.94,1.011356
448,3739.6600000000003,0.8800564
449,3742.38,0.7811169
450,3745.1,0.6829602
451,3747.81,0.7130734
452,3750.53,0.6580877
453,3753.25,0.7811929
454,3755.9700000000003,0.7864514
455,3758.69,0.7789174
456,3761.41,0.7957208
457,3764.13,0.7522557
458,3766.85,0.7108451
459,3769.5699999999997,0.7283334
460,3772.29,0.7605463
461,3775.0099999999998,0.7611819
462,3777.72,0.7911731
463,3780.44,0.854132
464,3783.16,0.8790315
465,3785.8799999999997,0.8897689
466,3788.6,0.8142371
467,3791.32,0.7478043
468,3794.04,0.7413222
469,3796.76,0.7280402
470,3799.48,0.7225854
471,3801.8939600000003,0.7680841085735387
472,3802.2,0.7738524
473,3804.92,0.8054538
474,3807.63,0.8642588
475,3810.35,0.9113432
476,3813.07,0.8882039
477,3815.79,0.8926795
478,3818.5099999999998,0.8746768
479,3821.23,0.9069876
480,3823.95,0.8383535
481,3826.6699999999996,0.803914
482,3829.39,0.7349864
483,3832.11,0.683572
484,3834.8300000000004,0.6945051
485,3837.54,0.7073497
486,3840.2599999999998,0.7797745
487,3842.9799999999996,0.8546697
488,3845.7000000000003,0.8612734
489,3848.42,0.9341872
490,3851.1400000000003,0.9102652
491,3853.86,0.9083079
492,3856.58,0.9510629
493,3859.2999999999997,0.9856728
494,3862.02,1.017005
495,3864.74,1.097403
496,3867.4500000000003,1.097139
497,3870.17,1.082928
498,3872.89,0.9434583
499,3875.6099999999997,0.9004577
500,3878.33,0.8540818
501,3881.0499999999997,0.8047953
502,3883.7699999999995,0.8468899
503,3886.4900000000002,0.8308196
504,3889.21,0.8422907
505,3891.9300000000003,0.8129144
506,3894.65,0.7940067
507,3897.36,0.8109365
508,3900.0800000000004,0.8578252
509,3902.8,0.8868829
510,3905.52,0.8843143
511,3908.2400000000002,0.9244766
512,3910.96,0.9344558
513,3913.68,0.9309575
514,3916.4,0.8947815
515,3919.12,0.9007001
516,3921.8399999999997,0.8880786
517,3924.5600000000004,0.8825992
518,3927.27,0.8618371
519,3929.99,0.8227501
520,3932.71,0.8309438
521,3935.43,0.8318728
522,3938.15,0.8680483
523,3940.8700000000003,0.889132
524,3943.59,0.9372926
525,3946.31,0.9014099
526,3949.03,0.8886172
527,3951.75,0.896028
528,3954.47,0.887589
529,3957.1800000000003,0.8795214
530,3959.9,0.8020084
531,3962.62,0.7937161
532,3965.34,0.830185
533,3968.06,0.8146528
534,3970.7799999999997,0.7779141
535,3973.5,0.7997072
536,3976.22,0.7970408
537,3978.94,0.813404
538,3981.6600000000003,0.8631298
539,3984.38,0.8834798
540,3987.0899999999997,0.9261659
541,3989.81,0.9270217
542,3992.53,0.909288
543,3995.25,0.9387615
544,3997.9700000000003,0.9692622
545,4000.69,0.9493271
546,4003.41,1.004679
547,4006.13,1.02158
548,4008.85,0.9922525
549,4011.5699999999997,0.9547554
550,4014.29,0.9838864
551,4017.0,0.9783629
552,4019.72,0.9792186
553,4022.44,0.9709998
554,4025.16,0.9683821
555,4027.8799999999997,0.9407423
556,4030.6,0.9841576
557,4033.32,0.9826652
558,4036.04,0.9736147
559,4038.76,0.9807076
560,4041.48,1.002501
561,4044.2,0.9833483
562,4046.9100000000003,1.002749
563,4049.63,0.980246
564,4052.35,0.9788023
565,4055.07,0.9820549
566,4057.79,1.004655
567,4060.5099999999998,0.9956782
568,4063.23,0.9476634
569,4065.95,0.9902717
570,4068.6699999999996,0.9949186
571,4071.39,0.9739074
572,4074.11,0.9512329
573,4076.8199999999997,0.9088729
574,4079.54,0.9387133
575,4082.2599999999998,0.8793982
576,4084.9800000000005,0.8899155
577,4087.7000000000003,0.8664339
578,4090.42,0.84124
579,4093.1400000000003,0.8462784
580,4095.86,0.8508519
581,4098.58,0.9499862
582,4101.3,0.9637077
583,4104.0199999999995,0.924523
584,4106.7300000000005,0.859758
585,4109.45,0.8239484
586,4112.17,0.7992684
587,4114.89,0.8464996
588,4117.61,0.8500948
589,4120.33,0.903074
590,4123.05,0.9080635
591,4125.77,0.9253069
592,4128.49,0.9176262
593,4131.21,0.9017027
594,4133.93,0.9002835
595,4136.639999999999,0.9097045
596,4139.360000000001,0.9284648
597,4142.08,0.9103641
598,4144.8,0.8852438
599,4147.52,0.9144726
600,4150.24,0.8881535
601,4152.96,0.9118301
602,4155.68,0.9351886
603,4158.4,0.9222981
604,4161.12,0.9110706
605,4163.84,0.9056403
606,4166.55,0.9025624
607,4169.2699999999995,0.9151342
608,4171.99,0.9022434
609,4174.71,0.9006778
610,4177.429999999999,0.887518
611,4180.150000000001,0.9135427
612,4182.87,0.9048835
613,4185.59,0.8875414
614,4188.31,0.9086985
615,4191.03,0.9006754
616,4193.75,0.9029008
617,4196.46,0.8544501
618,4199.18,0.8950283
619,4201.9,0.8961531
620,4204.62,0.877979
621,4207.34,0.9085778
622,4210.0599999999995,0.9142275
623,4212.78,0.9182141
624,4215.5,0.8630573
625,4218.219999999999,0.8567707
626,4220.9400000000005,0.8797136
627,4223.66,0.8630805
628,4226.37,0.902342
629,4229.09,0.8857336
630,4231.8099999999995,0.880401
631,4234.530000000001,0.8525901
632,4237.25,0.8740652
633,4239.97,0.8800084
634,4242.6900000000005,0.8979616
635,4245.41,0.8651853
636,4248.13,0.8786133
637,4250.849999999999,0.8965906
638,4253.57,0.8755796
639,4256.28,0.8847557
640,4259.0,0.8821136
641,4261.72,0.8979385
642,4264.44,0.9101925
643,4267.16,0.9037835
644,4269.88,0.8748231
645,4272.599999999999,0.8870281
646,4275.320000000001,0.8690499
647,4278.04,0.8859022
648,4280.76,0.8751885
649,4283.4800000000005,0.8672388
650,4286.1900000000005,0.8730638
651,4288.91,0.853838
652,4291.63,0.8622031
653,4294.35,0.8330712
654,4297.07,0.8372291
655,4299.79,0.827029
656,4302.51,0.8141384
657,4305.23,0.8400897
658,4307.95,0.8049163
659,4310.67,0.8468888
660,4313.389999999999,0.8242877
661,4316.1,0.8189834
662,4318.82,0.8203774
663,4321.54,0.8267365
664,4324.26,0.8067772
665,4326.9800000000005,0.7790884
666,4329.7,0.7741471
667,4332.42,0.822259
668,4335.14,0.9595748
669,4337.86,1.183331
670,4340.58,1.298829
671,4343.3,1.128051
672,4346.01,0.8893052
673,4348.7300000000005,0.7599864
674,4351.45,0.7802874
675,4354.17,0.7846656
676,4356.89,0.8148483
677,4359.61,0.8634493
678,4362.33,0.8633266
679,4365.05,0.8706887
680,4365.15832,0.870075995088239
681,4367.77,0.8553032
682,4370.49,0.862983
683,4373.21,0.8262935
684,4375.92,0.8318248
685,4378.639999999999,0.8518079
686,4381.360000000001,0.8239481
687,4384.08,0.7833936
688,4386.8,0.8049913
689,4389.52,0.8244362
690,4392.24,0.8470609
691,4394.96,0.8305015
692,4397.68,0.8466933
693,4400.4,0.8507045
694,4403.12,0.8117889
695,4405.83,0.8387713
696,4408.55,0.8540094
697,4411.2699999999995,0.8586563
698,4413.99,0.8563077
699,4416.71,0.8476244
700,4419.429999999999,0.8418759
701,4422.150000000001,0.8552795
702,4424.87,0.8440765
703,4427.59,0.8614427
704,4430.31,0.8572841
705,4433.03,0.8466684
706,4435.740000000001,0.853765
707,4438.46,0.8553546
708,4441.18,0.8488724
709,4443.9,0.8550359
710,4446.62,0.874114
711,4449.34,0.8422918
712,4452.0599999999995,0.8294012
713,4454.78,0.8228213
714,4457.5,0.836078
715,4460.219999999999,0.8292288
716,4462.9400000000005,0.8424857
717,4465.65,0.8593663
718,4468.37,0.861763
719,4471.09,0.8825779
720,4473.8099999999995,0.8839716
721,4476.530000000001,0.8597808
722,4479.25,0.8419982
723,4481.97,0.8379131
724,4484.6900000000005,0.8563309
725,4487.41,0.8470113
726,4490.13,0.8199099
727,4492.849999999999,0.8560362
728,4495.56,0.8730392
729,4498.28,0.8609559
730,4501.0,0.8747018
731,4503.72,0.8807674
732,4506.44,0.8627159
733,4509.16,0.8526137
734,4511.88,0.8467186
735,4514.599999999999,0.8534202
736,4517.320000000001,0.8561105
737,4520.04,0.8559144
738,4522.76,0.8309654
739,4525.469999999999,0.807952
740,4528.1900000000005,0.8151184
741,4530.91,0.8051629
742,4533.63,0.8048203
743,4536.35,0.8155821
744,4539.07,0.8299885
745,4541.79,0.8407993
746,4544.51,0.8472564
747,4547.23,0.8427066
748,4549.95,0.8239212
749,4552.67,0.8214749
750,4555.38,0.8168309
751,4558.1,0.834686
752,4560.82,0.8392598
753,4563.54,0.8243146
754,4566.26,0.8167318
755,4568.9800000000005,0.8245585
756,4571.7,0.8299392
757,4574.42,0.8309173
758,4577.14,0.8428532
759,4579.86,0.8409696
760,4582.58,0.8184663
761,4585.29,0.8178092
762,4588.01,0.8328028
763,4590.7300000000005,0.8273478
764,4593.45,0.83674
765,4596.17,0.8270782
766,4598.89,0.8296461
767,4601.61,0.8343909
768,4604.33,0.8440521
769,4607.05,0.831871
770,4609.77,0.8448586
771,4612.49,0.837765
772,4615.2,0.8260032
773,4617.92,0.8358847
774,4620.639999999999,0.8397733
775,4623.360000000001,0.8317259
776,4626.08,0.8496544
777,4628.8,0.8401883
778,4631.52,0.8273465
779,4634.24,0.8153609
780,4636.96,0.8252423
781,4639.68,0.830403
782,4642.4,0.8269784
783,4645.11,0.8191545
784,4647.83,0.8152162
785,4650.55,0.8246818
786,4653.2699999999995,0.8459613
787,4655.99,0.8346361
788,4658.71,0.827567
789,4661.429999999999,0.8224057
790,4664.150000000001,0.8237263
791,4666.87,0.8009295
792,4669.59,0.7966244
793,4672.31,0.8107372
794,4675.0199999999995,0.807634
795,4677.74,0.8037934
796,4680.46,0.8056521
797,4683.18,0.8278367
798,4685.9,0.8165361
799,4688.62,0.8243383
