,lambda (Angstroms),Total Flux (erg/s/cm^2/Angstrom)
0,100.03,0.03773935809662598
1,101.89,0.045392128691948364
2,104.02,0.054155785341476956
3,104.712855,0.05700646296035234
4,105.96,0.05272505414185577
5,107.92,0.04599643695331058
6,109.92999999999999,0.03909617136866409
7,114.05999999999999,0.02491801372577179
8,118.07,0.011151812242785872
9,120.22644299999999,0.0037488126018370036
10,121.09,0.0036116375947157237
11,125.06,0.002981007752454541
12,127.09,0.002658544643823483
13,127.97,0.0025187576949086046
14,130.95000000000002,0.002045388240776183
15,131.85999999999999,0.001900835902646331
16,134.01,0.0015593109944674612
17,137.13,0.0010637029481417792
18,138.038426,0.0009194006291090507
19,140.0,0.000908396097914484
20,142.93,0.0008919612701080359
21,146.93,0.000869529572267332
22,151.05,0.000846420447440777
23,154.93,0.0008246594718339243
24,158.489319,0.0008046989125731108
25,158.9,0.0008011597920948939
26,161.85000000000002,0.0007757390851144246
27,166.01000000000002,0.0007398941136285091
28,169.86999999999998,0.0007066373768951839
29,173.03,0.0006794136899179016
30,177.06,0.0006446988640081084
31,179.94,0.0006198942256232438
32,181.970086,0.000602410287992683
33,182.01999999999998,0.0006025491162759376
34,185.82999999999998,0.0006131536269740929
35,191.04,0.0006276600328970299
36,194.14000000000001,0.0006363003918590459
37,198.20999999999998,0.0006476484704746607
38,201.89,0.0006579280612140862
39,205.17000000000002,0.0006670878604035744
40,208.929613,0.0006775881184352557
41,209.95,0.0006947961582202273
42,215.83,0.0007940396266959399
43,219.85000000000002,0.000861895291531376
44,222.91,0.0009135434516911852
45,227.04999999999998,0.0009834590868485742
46,230.21,0.001037457217893345
47,233.95,0.0011019190801108895
48,239.88329199999998,0.0012033970197664612
49,239.95,0.001202488559823276
50,246.11,0.0011174869733456831
51,251.84,0.0010392396375296755
52,257.11,0.0009657368804214103
53,260.09000000000003,0.0009258923928364705
54,263.71,0.0008768186612668471
55,269.23,0.0008012241177739387
56,274.23,0.0007328818070810875
57,275.42287,0.0007166207902322803
58,278.69,0.0007658222975265029
59,283.87,0.0008438248640820783
60,289.82,0.0009328643541796984
61,295.88,0.0010244209933547538
62,300.69,0.0010967497830135023
63,307.7,0.0012029567842209508
64,316.227766,0.0013323995882121111
65,317.78000000000003,0.001316120403289901
66,328.19,0.0012067052840417326
67,338.15999999999997,0.0011019791375187515
68,347.63,0.0010028932481834813
69,357.37,0.0009010653737668468
70,363.078055,0.000842274898426996
71,365.7,0.0008659280427469661
72,375.08,0.0009492380708948166
73,384.7,0.0010334453994003945
74,394.57,0.0011238940603619388
75,404.69,0.0012154052237794493
76,414.11999999999995,0.0012996691024184926
77,416.86938299999997,0.001324067024745268
78,421.81000000000006,0.0013511721440483166
79,429.65999999999997,0.001394815994731062
80,440.68,0.00145747246253028
81,450.94,0.0015145138149640345
82,460.39,0.001566101390626703
83,470.03000000000003,0.0016205123876307378
84,478.630092,0.0016698481985933833
85,479.87,0.001662399723962211
86,489.92,0.001598710400272161
87,500.17,0.001538308644021115
88,505.97,0.0015062388697522301
89,511.83,0.0015211339447150473
90,520.14,0.0014759311633056626
91,529.8100000000001,0.0014231605644815046
92,539.66,0.001358426113352451
93,549.5408739999999,0.001343804977792767
94,549.6899999999999,0.0013442544845365541
95,559.91,0.001367148146369816
96,570.32,0.0013861737937948902
97,579.5899999999999,0.001366852327669092
98,590.37,0.001416528731246642
99,599.96,0.0014198277461175794
100,609.7099999999999,0.0014670916014868855
101,619.61,0.001542458282323411
102,629.68,0.0015856874186894532
103,630.957344,0.0015866090263641252
104,639.9100000000001,0.0016386508570404613
105,650.3100000000001,0.0017824071050734362
106,657.8399999999999,0.0018758957298511572
107,665.4599999999999,0.0019673005250445486
108,674.72,0.00203433184781237
109,685.6800000000001,0.002082385478431736
110,695.22,0.0024286779424927537
111,704.89,0.002429917397154183
112,716.34,0.0027682578000366408
113,724.43596,0.0028814115136476977
114,726.3100000000001,0.0029052430417720486
115,734.7199999999999,0.0030287627008339126
116,744.94,0.0033341905683264518
117,755.3,0.0035544972696202578
118,765.81,0.0037599764357011366
119,774.68,0.004079158120110023
120,785.46,0.004395705322807633
121,794.55,0.004617236888904226
122,805.6,0.004863890128218565
123,814.93,0.005088973837974474
124,824.37,0.005570919488574236
125,831.763771,0.005147563726028057
126,835.84,0.004892607150902297
127,845.52,0.00595012802975893
128,855.31,0.006166177089057118
129,865.21,0.006625805328796855
130,875.23,0.007107896492654652
131,885.36,0.007729401836954001
132,895.62,0.008209271849047912
133,905.99,0.008303055041583376
134,914.37,0.012615154242494387
135,924.9599999999999,0.08561236879591295
136,935.67,0.1929736482734496
137,944.33,0.3778746502973027
138,954.992586,0.5428682395052005
139,955.26,0.5470070384354963
140,964.0999999999999,0.6278956725583695
141,975.26,0.09914800717502854
142,984.2900000000001,0.5469875024159274
143,995.6800000000001,0.5914535752280909
144,1004.9,0.8865214915870154
145,1014.1999999999999,0.8663637621008979
146,1025.94,0.37263623434100346
147,1035.43,0.6164142959729115
148,1045.01,1.2205882060291475
149,1054.68,1.2149646645097112
150,1064.44,0.9674866714146031
151,1074.29,1.1737434267438227
152,1084.23,0.9346570304973704
153,1094.26,1.2692439826752457
154,1096.4782,1.2610474150409043
155,1104.3899999999999,1.2318025210327672
156,1114.6100000000001,1.19824519060921
157,1124.9199999999998,1.087855698763136
158,1135.33,1.4108940275587103
159,1145.8300000000002,1.2927331949317682
160,1153.78,1.3946959359427975
161,1164.45,1.457028798406657
162,1175.23,1.0128694635763296
163,1186.1,1.4436389673234855
164,1194.32,0.9920964240669651
165,1205.3700000000001,0.7122805049690877
166,1213.73,0.47733451061087445
167,1224.96,1.008137268667964
168,1236.29,1.5682559473667013
169,1244.86,1.7514655763559492
170,1256.38,1.6880929142738184
171,1258.92541,1.6205154577271799
172,1265.0900000000001,1.4568651353247422
173,1273.86,1.92032225416998
174,1285.65,2.0387077582960176
175,1294.56,1.615860895001955
176,1303.53,1.6084320393624774
177,1315.5900000000001,2.04811657793415
178,1324.71,1.978749741431136
179,1333.89,1.7595169125827077
180,1346.24,2.125104488151543
181,1355.5700000000002,2.0766596784395785
182,1364.97,1.863721877657963
183,1374.43,1.9832380845309332
184,1383.9499999999998,2.0201782990584887
185,1393.55,1.7717015237921587
186,1406.4399999999998,1.8594561682522628
187,1416.19,1.9159464121223961
188,1426.01,1.9877266649228789
189,1435.8899999999999,1.9877519253779472
190,1442.52,2.1153567712096377
191,1445.43977,2.1540629475713216
192,1445.85,2.159501187628249
193,1455.87,2.1104622605055523
194,1465.96,1.956078340878006
195,1476.12,1.9650694287456107
196,1486.35,2.020203524108366
197,1496.6499999999999,2.0719826269662724
198,1503.56,1.974085366844732
199,1510.5,1.7595261099353994
200,1517.48,1.8940078573090096
201,1524.48,1.8466616068240913
202,1535.05,1.6121567385918654
203,1545.69,1.79636287785479
204,1556.4,1.7037330246128655
205,1563.59,1.747425794471928
206,1574.42,1.8810039540788335
207,1585.3400000000001,1.9877601233223614
208,1596.33,2.0481333000610404
209,1603.7,2.015499089193348
210,1614.8100000000002,2.038778278780857
211,1626.0,1.933687476934252
212,1633.51,2.0766772810568614
213,1644.83,2.1251524931298227
214,1656.23,1.9696117137686706
215,1659.58691,2.057334055463874
216,1663.88,2.1695234301366804
217,1671.56,1.9381574354230604
218,1675.4099999999999,2.199838445885634
219,1683.1499999999999,2.3033954980883133
220,1694.81,2.1746426154892498
221,1706.56,2.0958878032646355
222,1714.44,2.001681964938681
223,1726.3200000000002,2.00170125436605
224,1734.29,2.149653486414546
225,1746.3100000000002,2.110574885313281
226,1754.3700000000001,2.2667291877362263
227,1766.53,2.0816746961063277
228,1774.6899999999998,2.149657076723107
229,1786.99,2.1999176945645744
230,1795.2399999999998,2.3625051455558026
231,1803.5200000000002,2.351790620005181
232,1816.0200000000002,2.1846903942343148
233,1824.4099999999999,2.2407799546969094
234,1837.0500000000002,2.1597068383974096
235,1845.53,1.992606469234454
236,1854.05,2.0156811313490315
237,1866.8999999999999,2.0864441792565813
238,1875.52,2.266813919564992
239,1884.18,2.100895691150936
240,1892.8700000000001,2.02489548619503
241,1905.46072,2.1496340706786827
242,1905.99,2.1548767978858963
243,1914.7900000000002,2.0864539281264647
244,1923.63,2.0579170180499444
245,1936.97,2.1204145723009877
246,1945.9099999999999,2.230433561431747
247,1954.8899999999999,2.100870510245418
248,1968.4399999999998,2.3087978528317477
249,1977.5200000000002,2.3789617008526975
250,1982.08,2.256228104704628
251,1995.8200000000002,2.2049972557847886
252,2005.03,2.2771049727752013
253,2014.29,2.210060639369254
254,2023.5900000000001,2.319490265646218
255,2032.93,2.210029851606094
256,2047.02,2.303438649911731
257,2056.47,2.199835124999614
258,2065.96,2.2252355597704088
259,2075.5,2.395252944144843
260,2080.2799999999997,2.2822981262527877
261,2085.07,2.3679022982814613
262,2094.7,2.2510185919424464
263,2104.3700000000003,2.276991845286344
264,2114.08,2.3033760583131526
265,2123.8399999999997,2.351645220943601
266,2133.64,2.194705343256961
267,2143.4900000000002,2.256041415173961
268,2153.38,2.3461454467738725
269,2163.32,2.2822214279774236
270,2173.31,2.271649358784614
271,2183.34,2.240574249274716
272,2187.7616199999998,2.289256303061944
273,2193.42,2.351565339750339
274,2203.54,2.2980484723121064
275,2213.71,2.1997526450545144
276,2223.9300000000003,2.139758857977564
277,2234.2000000000003,2.2871171110812547
278,2244.51,2.193894396329459
279,2254.87,2.1188627217583034
280,2265.28,2.1728150873677894
281,2275.74,2.2331934931579163
282,2286.24,2.2898949310925563
283,2296.79,2.1714664092078375
284,2307.39,2.18086592750376
285,2312.71,2.0970242027239774
286,2323.39,1.6847567853089258
287,2334.11,1.9743174000383867
288,2344.89,1.920117062984617
289,2355.71,2.0712507580753603
290,2366.58,1.923679493346745
291,2377.5099999999998,1.9817632768348987
292,2382.9900000000002,1.849228680633168
293,2393.99,1.9718015203742196
294,2405.04,1.900166400295912
295,2416.14,1.9439683203982459
296,2427.29,2.053924280681221
297,2432.89,1.9794657809130287
298,2444.12,2.0865648054850294
299,2455.4,2.062150870237671
300,2466.73,2.0521959751709544
301,2472.42,1.9869185477279163
302,2483.83,2.046729716950225
303,2495.29,1.914187926353175
304,2506.81,2.132353183972894
305,2511.88643,1.955686960156102
306,2512.59,1.9312010446332735
307,2518.38,1.9850052438314103
308,2524.19,1.9086154368091608
309,2535.8399999999997,1.9302488134340818
310,2547.54,1.903310174508037
311,2553.42,2.020356345714435
312,2565.2000000000003,1.9877266819068442
313,2577.04,2.0903179994380947
314,2582.9800000000005,2.075670151983333
315,2594.9100000000003,2.056111441522845
316,2606.8799999999997,1.9996447186215833
317,2612.89,1.9765738493954697
318,2624.95,2.059627098502469
319,2637.07,2.10222232894831
320,2643.15,2.2521214379508443
321,2655.3500000000004,2.282790643515139
322,2667.61,2.1104188304182747
323,2673.76,2.1995349176494563
324,2686.1000000000004,2.193862079671047
325,2692.29,2.1094311544614555
326,2704.72,2.157889288491307
327,2717.2000000000003,2.074638406970192
328,2723.4599999999996,2.0791414599892484
329,2736.04,2.171368547366202
330,2742.3399999999997,1.9350965879444852
331,2755.0,1.9659696504398931
332,2767.7200000000003,2.0298686942741417
333,2774.1,2.1154697099708795
334,2786.9,2.0290907289235824
335,2793.33,1.6875387290693544
336,2806.22,1.7993827200303185
337,2812.69,2.1136947077353176
338,2825.67,2.1873816707045433
339,2832.19,2.108015642858576
340,2845.26,2.0736235778360625
341,2851.8199999999997,2.026127537549323
342,2864.9799999999996,2.1654714445350707
343,2878.21,2.1500283297494662
344,2884.0315,2.1584409134943856
345,2884.84,2.1596095140043263
346,2898.1600000000003,2.1390854292214545
347,2911.5299999999997,2.280978344120329
348,2931.71,2.212764215673005
349,2952.0400000000004,2.1914470862709186
350,2972.5,2.2209649560413722
351,2993.1000000000004,2.2252808249207146
352,3006.92,2.245006736955302
353,3027.7599999999998,2.2440346043070254
354,3048.75,2.243054470703986
355,3069.8799999999997,2.2473603362098356
356,3091.16,2.261820200760923
357,3112.59,2.2504760643572483
358,3126.9599999999996,2.2291649728910423
359,3148.63,2.2434408349597486
360,3170.46,2.2424646960100416
361,3192.43,2.1553105561692236
362,3207.1699999999996,2.2100194623479377
363,3229.4,2.1437653208521987
364,3251.78,2.2282091784016975
365,3266.79,2.2741270828618396
366,3289.44,2.2625889386927667
367,3311.31121,2.2616506396833866
368,3312.2400000000002,2.2616106864694707
369,3319.88,2.287409756866212
370,3327.53,2.297573826046195
371,3335.2,2.3614808927926614
372,3342.89,2.2289759571056114
373,3350.59,2.333727020201803
374,3358.32,2.2489070796477204
375,3366.06,2.2125541378768796
376,3373.82,2.132228193672522
377,3381.6000000000004,2.2170412470346483
378,3389.39,2.3104662991800167
379,3397.21,2.25749834767511
380,3405.0399999999995,2.2467423949534457
381,3412.89,2.2053164397982643
382,3420.75,2.2823224834263254
383,3428.64,2.2768415234041113
384,3436.54,2.2868115621651395
385,3444.4700000000003,2.143744597275893
386,3452.4100000000003,2.350123631169888
387,3460.36,2.2080566638471253
388,3468.3399999999997,2.2180126928740878
389,3476.34,2.1922137194675337
390,3484.35,2.2121477448442213
391,3492.38,2.227010767787393
392,3500.43,2.1609517882970484
393,3508.5,2.200816806373187
394,3516.59,2.145308822015809
395,3524.7000000000003,2.2203508352249153
396,3532.8199999999997,2.261202847217263
397,3540.97,2.2922698555593364
398,3549.1299999999997,2.334476862684651
399,3557.3100000000004,2.28093186737645
400,3563.81,2.483008076483624
401,3566.47,2.5389057528259453
402,3569.1299999999997,2.3706424291682664
403,3571.8,2.548282104293829
404,3574.46,2.52952478063615
405,3577.12,2.3958524569784703
406,3579.79,2.1310321321040333
407,3582.45,2.0772928084463538
408,3585.11,2.3514894847886745
409,3587.7799999999997,2.0878411599142375
410,3590.4399999999996,2.208818836256558
411,3593.1000000000004,2.410314512598879
412,3595.77,2.4149961877244417
413,3598.4300000000003,2.1609368640667626
414,3601.1,2.357924539192325
415,3603.7599999999998,2.595967215534646
416,3606.42,2.0415268918769667
417,3609.0899999999997,2.2291345670025295
418,3611.7500000000005,2.34170824334485
419,3614.4100000000003,2.097810919687171
420,3617.08,2.304571594812734
421,3619.7400000000002,2.3886112711550544
422,3622.4,2.173638947497375
423,3625.07,2.145292622622938
424,3627.73,2.2883542989652588
425,3630.39,2.3593009753075798
426,3633.0600000000004,2.3033976504331424
427,3635.7200000000003,2.2819043267754626
428,3638.38,2.283081003117784
429,3641.05,2.0913526782433465
430,3643.71,2.303011354585667
431,3646.37,2.232268030927988
432,3649.04,2.2701737060535505
433,3651.7,2.369262382395872
434,3654.37,2.3211770575214343
435,3657.03,2.147636733863755
436,3659.69,2.457402410206076
437,3662.36,2.222483085331638
438,3665.02,2.297729761673959
439,3667.68,2.25591043801628
440,3670.35,2.4953071131418425
441,3673.0099999999998,2.287566789484164
442,3675.6699999999996,2.3970134658264843
443,3678.34,2.287757140952047
444,3681.0,2.371406817294368
445,3683.6600000000003,2.2224904936366885
446,3686.33,2.198444168762251
447,3688.99,2.3510818451045723
448,3691.65,2.206269521446893
449,3694.3199999999997,2.3721841965724555
450,3696.9800000000005,2.2836568729147766
451,3699.65,2.1685385480403387
452,3702.31,2.39759022438266
453,3704.9700000000003,2.2613769007249807
454,3707.64,2.360453575850543
455,3710.3,2.1437222521928643
456,3712.96,2.423977928535185
457,3715.6299999999997,2.4241646036607474
458,3718.2900000000004,2.8490402800030683
459,3720.9500000000003,3.868621956345389
460,3723.6200000000003,5.640402631470952
461,3726.28,7.537875307813272
462,3728.94,7.883024984155593
463,3731.61,6.285136659281156
464,3734.27,4.531330335623477
465,3736.93,3.1992620119657973
466,3739.6000000000004,2.9018016870913605
467,3742.26,2.7732113634336812
468,3744.92,2.9151010397760015
469,3747.59,2.6362077149015644
470,3750.25,2.558820391243885
471,3752.92,2.5410270663694483
472,3755.58,2.848643742711769
473,3758.24,2.8345774190540896
474,3760.9100000000003,2.8926100941796524
475,3763.57,2.868577770521973
476,3766.23,2.729824446864294
477,3768.9,2.8105291219898567
478,3771.56,2.625848798332177
479,3774.22,2.633084474674498
480,3776.89,2.791767149800061
481,3779.5499999999997,3.0290278261423813
482,3782.2099999999996,3.3950805024847024
483,3784.88,3.398586177610265
484,3787.54,3.235991853952586
485,3790.2000000000003,3.063038530294907
486,3792.87,2.912544205420469
487,3795.5299999999997,2.69835388176279
488,3798.2,2.4571815568883526
489,3800.8599999999997,2.5474752332306734
490,3801.8939600000003,2.6669717304152667
491,3803.5200000000004,2.8548959507973457
492,3806.19,3.027844693614366
493,3808.85,3.1320154373946187
494,3811.51,3.401524181174871
495,3814.18,3.461900923991891
496,3816.84,3.4277056677721434
497,3819.5,3.208435411552396
498,3822.1699999999996,3.2344171543694165
499,3824.8300000000004,3.276244898149669
500,3827.4900000000002,2.996390641929921
501,3830.1600000000003,2.6928723847469413
502,3832.82,2.5429801285271942
503,3835.48,2.3330888723074468
504,3838.15,2.3395296151244667
505,3840.81,2.593597358904719
506,3843.47,2.913331102684972
507,3846.1400000000003,3.095073845501992
508,3848.8,3.4163715892822446
509,3851.4700000000003,3.379813332099265
510,3854.13,3.3102460758795176
511,3856.79,3.42242981965977
512,3859.46,3.40385256247679
513,3862.12,3.5686083062570426
514,3864.7799999999997,3.6161050500372953
515,3867.4500000000003,3.7685307928543152
516,3870.11,3.937977536634568
517,3872.77,3.5901122804148202
518,3875.44,3.478117023231841
519,3878.1,3.4685467670120933
520,3880.7599999999998,3.3348765107923457
521,3883.43,3.053442253609366
522,3886.0899999999997,2.976445997389618
523,3888.7500000000005,2.938537741169871
524,3891.42,2.9813274839868913
525,3894.08,3.1546812277671434
526,3896.7400000000002,3.213121971547396
527,3899.41,3.3753197143644162
528,3902.07,3.537144458144669
529,3904.74,3.688007200961689
530,3907.3999999999996,3.7063839447419413
531,3910.0600000000004,3.9198036885221943
532,3912.73,3.9072824313392145
533,3915.3900000000003,3.941881175119467
534,3918.05,3.987814918899719
535,3920.72,3.99679066171674
536,3923.38,3.928201405496992
537,3926.04,3.8766131492772447
538,3928.71,3.4495788920942645
539,3931.3700000000003,3.1370876358745177
540,3934.03,3.05559737965477
541,3936.7000000000003,3.24163912247179
542,3939.36,3.572121866252042
543,3942.02,3.6510836100322948
544,3944.69,3.6465763528493156
545,3947.35,3.6913360966295676
546,3950.02,3.648524839446588
547,3952.6800000000003,3.7235775832268403
548,3955.34,3.6270393270070933
549,3958.01,3.448988069824113
550,3960.67,3.1095268136043654
551,3963.33,2.972532557384618
552,3966.0,2.8077733002016387
553,3968.66,2.582834043981891
554,3971.3199999999997,2.607657787762143
555,3973.9900000000002,2.7041925305791636
556,3976.65,2.8666022743594164
557,3979.31,2.937941018139669
558,3981.98,3.277397760956689
559,3984.64,3.5257995047369413
560,3987.2999999999997,3.584044248517194
561,3989.97,3.700509991334214
562,3992.6299999999997,3.7771267351144666
563,3995.2900000000004,3.746254478894719
564,3997.96,3.68507122171174
565,4000.62,3.591268965491992
566,4003.29,3.6483237083090123
567,4005.95,3.6588834520892646
568,4008.61,3.822662195869517
569,4011.2799999999997,3.8240179386865374
570,4013.9399999999996,3.75660068246679
571,4016.6000000000004,3.7227964262470423
572,4019.27,3.7905991690640626
573,4021.9300000000003,3.857443912844315
574,4024.59,3.7843576566245676
575,4027.2599999999998,3.817178399441588
576,4029.92,3.83067014322184
577,4032.58,3.973733887002093
578,4035.25,4.077299629819112
579,4037.9100000000003,4.098609373599366
580,4040.57,3.943441117379618
581,4043.2400000000002,3.8545068601966386
