,lambda (Angstroms),Total Flux (erg/s/cm^2/Angstrom)
0,102.07000000000001,0.0006814747947564593
1,103.97,0.0007969561978944606
2,104.712855,0.0008421084986698316
3,105.9,0.0007819227481221064
4,108.12,0.0006693773685325812
5,109.87,0.0005806923484133606
6,114.0,0.0003713461986760007
7,118.0,0.00016860485876063987
8,120.22644299999999,5.634281685623562e-05
9,121.02999999999999,5.468666407590884e-05
10,125.0,4.569960790964537e-05
11,127.03,4.108775923520838e-05
12,127.91,3.9130839671905675e-05
13,130.89,3.237517051435782e-05
14,132.1,2.9900957614816554e-05
15,133.94,2.5766333437001748e-05
16,137.06,1.9156081439837517e-05
17,138.038426,1.6988124071483048e-05
18,139.93,1.7078326971907115e-05
19,142.86,2.2816633791994066e-05
20,146.85999999999999,3.6340968699962605e-05
21,150.97,3.838877831790027e-05
22,154.84,4.0960195841359826e-05
23,158.489319,4.342262880775312e-05
24,159.18,4.385797151218839e-05
25,162.14,4.593076848500372e-05
26,165.92,4.9389851443531393e-05
27,170.17999999999998,5.23630798571102e-05
28,172.94,5.5016541223654215e-05
29,176.97,5.827821369002103e-05
30,179.84,6.092310964001426e-05
31,181.93,6.28412167255494e-05
32,181.970086,6.287524422485904e-05
33,186.16,6.71370428409903e-05
34,190.94,7.293743989936118e-05
35,194.04000000000002,7.698900368198665e-05
36,198.10999999999999,8.16548504869175e-05
37,201.79,8.678489813855031e-05
38,205.07000000000002,9.073297691500563e-05
39,208.929613,9.319635455137413e-05
40,209.84,9.396662239138909e-05
41,216.22,0.00010707761731762918
42,220.23999999999998,0.00011395578691065192
43,222.79,0.00011766236724950962
44,226.93,0.00012512356474083156
45,230.09,0.0001854580227293768
46,233.83,0.0003038754938930348
47,239.83,0.0003757137888079941
48,239.88329199999998,0.0003756148512766288
49,245.98,0.0003615296396802886
50,252.29000000000002,0.0003857684133608476
51,256.97999999999996,0.00033111052961470205
52,259.95,0.00037914758489699367
53,264.18,0.0003990210848444999
54,269.09,0.00040070880889704266
55,274.09,0.00040146558613995785
56,275.42287,0.00040166072896772253
57,279.19,0.00040380874935312607
58,283.72,0.0004066335411445198
59,290.33,0.0003929332956127567
60,295.72999999999996,0.00040296136794686847
61,301.23,0.00039970622310198236
62,308.25,0.0004074614971363277
63,316.227766,0.00041713703028836696
64,318.34000000000003,0.00041889799658529134
65,328.02,0.00041732913146974365
66,337.98,0.00041209738637151486
67,348.25,0.0004059114527210319
68,357.19,0.00040264909898828435
69,363.078055,0.00040113837797703275
70,366.35,0.0004012326367715
71,374.88,0.00039784380901123403
72,385.39,0.00038269497211083594
73,395.27,0.0003899161244822981
74,405.41,0.0003886135019161671
75,413.90000000000003,0.00038289027030014624
76,416.86938299999997,0.00038037197985865494
77,421.6,0.0003761232924494944
78,430.41999999999996,0.00037027958982706013
79,441.46999999999997,0.0003662927629588177
80,450.71,0.0003591209840210294
81,460.15,0.000352126716361644
82,469.78,0.00034607690941674136
83,478.630092,0.00034275457669308485
84,479.62,0.0003422112483828274
85,489.66,0.000331101910338263
86,499.92,0.0003279518220576622
87,505.7,0.0003259901113108911
88,511.56,0.00037308022775101577
89,519.87,0.0003706548392898275
90,529.54,0.0003656736130058695
91,539.38,0.0003505997569940653
92,549.41,0.00037593350305113884
93,549.5408739999999,0.00037619382095117334
94,559.62,0.0003969109865171019
95,570.03,0.00041361525132882043
96,580.63,0.000398876930387823
97,590.0600000000001,0.000432698184871445
98,599.65,0.00043141851451067466
99,609.39,0.0004418040396082864
100,619.29,0.0004992040398615058
101,629.36,0.0005170767949675582
102,630.957344,0.000517756596216325
103,639.58,0.0005220747139573183
104,649.98,0.0005626168329785085
105,657.5,0.0005822121082707537
106,665.12,0.0006106125010535874
107,674.37,0.0006179424689330114
108,685.3299999999999,0.0006073936659014964
109,694.86,0.000732397322754568
110,704.53,0.0006990211240944631
111,715.9699999999999,0.0008188632450177723
112,724.43596,0.0008447752213419792
113,725.9300000000001,0.0008493202634004502
114,734.34,0.0008807061565357431
115,744.56,0.0009663800126407007
116,754.9100000000001,0.0010228967622186178
117,765.41,0.0010536646965730264
118,774.28,0.00116156158968956
119,785.0500000000001,0.0012267661566416532
120,794.14,0.0012926724540970411
121,805.1899999999999,0.0013591218992985855
122,814.51,0.0014128018467445937
123,825.84,0.001540453170195589
124,831.763771,0.0013930329677206497
125,835.4,0.001302256956872376
126,845.08,0.0016374085616164711
127,854.86,0.0016898438110376746
128,864.76,0.0018212336340714082
129,874.78,0.0019451890307176723
130,884.91,0.002101593536508755
131,895.15,0.0022144331514446576
132,905.52,0.002239263804460801
133,916.0,0.003170271566621763
134,924.48,0.019465963435240558
135,935.1800000000001,0.042764230415691155
136,946.01,0.082223810434222
137,954.7700000000001,0.1166743013079367
138,954.992586,0.11698546864444338
139,965.82,0.13212229773846398
140,974.7599999999999,0.021837482065315564
141,986.05,0.11271112650045585
142,995.17,0.11857254930368698
143,1004.38,0.1721719713451079
144,1016.01,0.16442107290229846
145,1025.4099999999999,0.06982819333545336
146,1034.9,0.11428031300679801
147,1044.47,0.21925693200097804
148,1054.1399999999999,0.21476075014870227
149,1063.8899999999999,0.1694148676192619
150,1076.21,0.20135156333590742
151,1086.17,0.15884277902890986
152,1096.22,0.21035619396010205
153,1096.4782,0.2100503402850795
154,1103.82,0.20135339727166615
155,1114.03,0.19273592678289275
156,1124.3400000000001,0.17296325364486595
157,1134.74,0.21925617812251105
158,1145.24,0.1985890999509028
159,1155.8400000000001,0.2103548191300411
160,1163.8500000000001,0.21674580692484277
161,1174.62,0.14995252160025027
162,1185.49,0.20890493362640433
163,1193.71,0.14386621585777384
164,1204.75,0.10374582338019715
165,1215.9,0.06854914798844168
166,1224.33,0.139943604656379
167,1235.6499999999999,0.21132260476089276
168,1244.22,0.23224207771987534
169,1255.7299999999998,0.22128407279080758
170,1258.92541,0.209997660606907
171,1264.44,0.19051989852797402
172,1276.14,0.24487152057541475
173,1284.98,0.2558275372334811
174,1293.89,0.2022770540234552
175,1305.8600000000001,0.19950327657968303
176,1314.9099999999999,0.24828489363347264
177,1324.03,0.23710721081917008
178,1336.28,0.21035353390302897
179,1345.54,0.2488526513525419
180,1354.87,0.2404008689339626
181,1364.26,0.21475848662844707
182,1373.72,0.22487340445483936
183,1386.4299999999998,0.22695832840552072
184,1396.04,0.19586174651457247
185,1405.71,0.202279364736688
186,1415.46,0.2089045831095553
187,1425.27,0.21376760159548638
188,1435.15,0.21229742021332523
189,1441.77,0.223330932688031
190,1445.43977,0.22504035814252243
191,1448.43,0.2264332443325458
192,1455.1100000000001,0.21976215489733159
193,1465.2,0.20274417085521915
194,1475.36,0.20227718692381552
195,1485.58,0.20556500308730521
196,1495.8799999999999,0.20842591937731925
197,1506.25,0.19721883577804214
198,1513.2,0.17577524676984774
199,1516.69,0.18747665228947386
200,1523.69,0.1819524633603572
201,1534.25,0.15847098006157548
202,1544.8899999999999,0.17137919688931816
203,1555.6000000000001,0.16216171382776964
204,1566.3799999999999,0.16631993087693
205,1573.61,0.17699154231157094
206,1584.52,0.1849044595663334
207,1595.5,0.18834377693180468
208,1606.56,0.18405729442380037
209,1613.9800000000002,0.1840560061589367
210,1625.1599999999999,0.17456332384071893
211,1636.43,0.1853309416648411
212,1643.9799999999998,0.18747735360557957
213,1655.3799999999999,0.17376017163530386
214,1659.58691,0.1792672325405498
215,1666.85,0.18877506217598708
216,1670.69,0.16902610652721264
217,1678.4099999999999,0.18964479569165565
218,1686.1499999999999,0.19676528508709465
219,1693.9399999999998,0.1849047750600236
220,1705.68,0.17740151065465587
221,1713.5500000000002,0.16824830155156867
222,1725.43,0.16709333876317273
223,1733.3899999999999,0.17740293069956733
224,1745.41,0.17296006952814316
225,1753.46,0.18321206250401964
226,1765.62,0.16864060294956723
227,1773.77,0.17217069708042354
228,1786.06,0.1749683390274449
229,1794.3100000000002,0.18533333431328106
230,1806.75,0.18363187799277214
231,1815.08,0.16980817420259217
232,1823.46,0.1729612709899021
233,1836.1,0.16632411697935287
234,1844.5800000000002,0.15309641492164267
235,1853.09,0.15380161321042635
236,1865.94,0.15774496162533477
237,1874.5500000000002,0.1694149610690983
238,1883.1999999999998,0.1562984609748538
239,1896.26,0.14960731181521986
240,1905.01,0.15847391287595516
241,1905.46072,0.1581621675178577
242,1913.8,0.15239399392799288
243,1927.07,0.14892089636664088
244,1935.9599999999998,0.15344956401393406
245,1944.8999999999999,0.15957443091683632
246,1953.88,0.14892039722422584
247,1967.42,0.16216399564316283
248,1976.5,0.16632346046177052
249,1985.62,0.15738242468486544
250,1994.79,0.1527441881635694
251,2004.0,0.15701725104676068
252,2013.25,0.1520402133344392
253,2027.2,0.15810820564937056
254,2036.56,0.14995296629938906
255,2045.96,0.1548662263538948
256,2055.4,0.1462032858128878
257,2064.89,0.14755774452748985
258,2074.42,0.15847110264657915
259,2079.2,0.15099093148280654
260,2084.0,0.15593786002127757
261,2093.62,0.1478977168004632
262,2103.2799999999997,0.14891897298413612
263,2112.99,0.1502963284234181
264,2122.74,0.15203848326718736
265,2137.46,0.14221536411849847
266,2147.32,0.14486291732460768
267,2157.23,0.14960426978632596
268,2167.19,0.1448631215036533
269,2177.19,0.14386527262546792
270,2187.2400000000002,0.14124092300289162
271,2187.7616199999998,0.1415495335177015
272,2197.34,0.1472167289319644
273,2207.48,0.14320244929322035
274,2212.57,0.13675910971124725
275,2222.78,0.13303323090339947
276,2233.04,0.14026635268904897
277,2243.35,0.1348849750681958
278,2253.7,0.1297054979221405
279,2264.11,0.13211652148828198
280,2274.56,0.13488514552922132
281,2285.06,0.13738847016365793
282,2295.6,0.13002979527289243
283,2306.2,0.13036892109432371
284,2316.85,0.1254027475092523
285,2327.54,0.10219937439897875
286,2332.9,0.11762323802189116
287,2343.67,0.11419126586121332
288,2354.49,0.1215509942940328
289,2365.36,0.1132162233203496
290,2376.28,0.1156212529401637
291,2387.25,0.10818628315347513
292,2392.75,0.11408724843818004
293,2403.79,0.1099926794823877
294,2414.89,0.11207471123879215
295,2426.04,0.11739244358869391
296,2437.23,0.11318257641339353
297,2442.85,0.118535443122492
298,2454.13,0.11667787701548679
299,2465.46,0.1156451115019789
300,2476.83,0.11175324646326887
301,2482.54,0.11358781424066251
302,2494.0,0.10531045027024764
303,2505.52,0.11738228701202956
304,2511.29,0.10633695550161999
305,2511.88643,0.10661979813406185
306,2517.08,0.10908263872204628
307,2522.88,0.10515481207695214
308,2534.5299999999997,0.10615785855706475
309,2546.23,0.10449690480747828
310,2552.1,0.1107081778408054
311,2563.88,0.10797442372370039
312,2575.71,0.1128368693768963
313,2587.6,0.11158541475445329
314,2593.56,0.11007428737432205
315,2605.54,0.10661273233842068
316,2617.56,0.10518897711876006
317,2623.6,0.10890274937111029
318,2635.71,0.1117347937379913
319,2647.87,0.11921583787517322
320,2653.98,0.12145380980594472
321,2666.23,0.1113137535296683
322,2672.37,0.11524752532262035
323,2684.71,0.11528776863288555
324,2697.1,0.11013701171345168
325,2703.32,0.1124613831388852
326,2715.7999999999997,0.10743752580599294
327,2722.06,0.1067163970476672
328,2734.62,0.11075963934725641
329,2747.2400000000002,0.09875143137120673
330,2753.58,0.10060215224536244
331,2766.29,0.1036934938558544
332,2772.6600000000003,0.10735676459219065
333,2785.46,0.10209050578922425
334,2791.88,0.08591718629586141
335,2804.77,0.09083119707943667
336,2817.71,0.10553405763331282
337,2824.2099999999996,0.10951372777243144
338,2837.25,0.10558546786690944
339,2843.79,0.10296673782226878
340,2856.91,0.09927564754922823
341,2863.5,0.10737934727488849
342,2876.72,0.10766738654244976
343,2883.35,0.10694625608435077
344,2884.0315,0.10693563875745904
345,2896.66,0.10673895176626012
346,2910.03,0.11389075050925455
347,2930.2,0.10957654861293424
348,2950.51,0.1073906467034516
349,2970.9600000000005,0.10869424478080657
350,2991.55,0.10826234284499917
351,3012.2900000000004,0.10857304089508925
352,3033.17,0.10838263893201697
353,3047.17,0.10792713761578077
354,3068.29,0.10823913563014444
355,3089.56,0.10805433363040556
356,3110.98,0.10811743161656417
357,3132.54,0.10596062958956041
358,3147.0,0.10600672823007645
359,3168.82,0.1060698261786283
360,3190.7799999999997,0.10112112411401782
361,3212.9,0.10377972203436461
362,3227.7299999999996,0.09914856064009439
363,3250.1000000000004,0.10460511853693696
364,3272.63,0.10735641641873686
365,3287.7400000000002,0.10641601499814192
366,3310.5299999999997,0.10526241285549741
367,3311.31121,0.10530191296830703
368,3325.81,0.10603498672423908
369,3333.4700000000003,0.10753547295737748
370,3341.1600000000003,0.10247655913659866
371,3348.86,0.10957704529784744
372,3356.58,0.10515253142315141
373,3364.32,0.09591824751251056
374,3372.0699999999997,0.09616062358389733
375,3379.85,0.10497348960136686
376,3387.64,0.10548117560086401
377,3395.45,0.10310496156441634
378,3403.27,0.10699834750999626
379,3411.1200000000003,0.10079793340165898
380,3418.98,0.10245921927534928
381,3426.86,0.10414930511309478
382,3434.77,0.10807679089692307
383,3442.6800000000003,0.10065357668075137
384,3450.62,0.10278196241066245
385,3458.57,0.10139774812260112
386,3466.5499999999997,0.10002443378062258
387,3474.54,0.10380251942067163
388,3482.5499999999997,0.10007070502477587
389,3490.58,0.10408519059293532
390,3498.62,0.09783284614312235
391,3506.69,0.10317976163939217
392,3514.77,0.0985596671176896
393,3522.8700000000003,0.1034624325600422
394,3530.99,0.09815017796645001
395,3539.14,0.1037445033189406
396,3547.29,0.10618488867143118
397,3555.47,0.10451217397000456
398,3563.67,0.10309845923263312
399,3571.88,0.0973542244772893
400,3580.12,0.09603857966802824
401,3588.3700000000003,0.08841969484079479
402,3596.64,0.09697349997761653
403,3604.9300000000003,0.10133398507849345
404,3613.24,0.09524882014342557
405,3617.0299999999997,0.1020377633318844
406,3619.77,0.10733825840744565
407,3622.5099999999998,0.10418875348300691
408,3625.2400000000002,0.08972323857654056
409,3627.98,0.09814421365210181
410,3630.7200000000003,0.12593373872766306
411,3633.45,0.09941332382119673
412,3636.19,0.10181262889675798
413,3638.9300000000003,0.08286486397231924
414,3641.66,0.0876525390658529
415,3644.3999999999996,0.09267045414141414
416,3647.14,0.0973249792169754
417,3649.87,0.11614030431050906
418,3652.61,0.12089859938607031
419,3655.35,0.10324859446163157
420,3658.0800000000004,0.09796554955516522
421,3660.82,0.10963958463072647
422,3663.56,0.10485787970628771
423,3666.29,0.10538307479982138
424,3669.0299999999997,0.10689986987538264
425,3671.77,0.10490976495094388
426,3674.5,0.09481049004447754
427,3677.24,0.10048015512003879
428,3679.98,0.10616715019560004
429,3682.71,0.10259714528913372
430,3685.4500000000003,0.08663718036469495
431,3688.19,0.0969615654402562
432,3690.9199999999996,0.08789474053378986
433,3693.6600000000003,0.09123996560935112
434,3696.4,0.09855926068491237
435,3699.13,0.08975200577844603
436,3701.87,0.09365670085400728
437,3704.6099999999997,0.10305820592956853
438,3707.34,0.10168000102310219
439,3710.08,0.10695169609866345
440,3712.82,0.1034907911742247
441,3715.55,0.09984007626775836
442,3718.2900000000004,0.10871098134331961
443,3721.03,0.13365117641888086
444,3723.7599999999998,0.2144025715124145
445,3726.5,0.2775377665879758
446,3729.24,0.28757916166353703
447,3731.9799999999996,0.22713685673909828
448,3734.71,0.15544835183263195
449,3737.45,0.1225306469081932
450,3740.19,0.11571854198375445
451,3742.92,0.09452762707728811
452,3745.6600000000003,0.09689807215284936
453,3748.4,0.09508100722841062
454,3751.1299999999997,0.10541172232194426
455,3753.8700000000003,0.09768825739750553
456,3756.61,0.11608761247306677
457,3759.3399999999997,0.09980523756660044
458,3762.08,0.09533494264216169
459,3764.8199999999997,0.09985680771772294
460,3767.55,0.11432889281125659
461,3770.29,0.10524998788681784
462,3773.03,0.1021927829623791
463,3775.76,0.12063897805591277
464,3778.5,0.12482047313147401
465,3781.2400000000002,0.10663406820703528
466,3783.97,0.10016286330056892
467,3786.7099999999996,0.11692995837613018
468,3789.45,0.12457225345169143
469,3792.18,0.11687244854522509
470,3794.92,0.11325584362078635
471,3797.66,0.1056823386963476
472,3800.3900000000003,0.11697053378988126
473,3801.8939600000003,0.11660315866792542
474,3803.13,0.11630122932831036
475,3805.87,0.13250882542993708
476,3808.6,0.11128912154579143
477,3811.3399999999997,0.12885801764741814
478,3814.0800000000004,0.11814681374904483
479,3816.81,0.12145800986489919
480,3819.5499999999997,0.1352430059665259
481,3822.29,0.10147750206815259
482,3825.02,0.11010089818400695
483,3827.76,0.09029952428563366
484,3830.5,0.09909541038726036
485,3833.2300000000005,0.08801557650311471
486,3835.9700000000003,0.08956123260474141
487,3838.71,0.08509093870636814
488,3841.44,0.10098187482222247
489,3844.18,0.11767977092384918
490,3846.9199999999996,0.12770416702547588
491,3849.65,0.12099656314133023
492,3852.39,0.11097165924295695
493,3855.13,0.12579495534458363
494,3857.86,0.12194245146043799
495,3860.6000000000004,0.1295674475620647
496,3863.34,0.11703354366369141
497,3866.0699999999997,0.13499523977954578
498,3868.81,0.12144043588117247
499,3871.55,0.13043813198279916
500,3874.2799999999997,0.13241702809865352
501,3877.02,0.11435162420028022
502,3879.7599999999998,0.11881012030190694
503,3882.4900000000002,0.10523851641776127
504,3885.23,0.09462541251938798
505,3887.9700000000003,0.11529740862101469
506,3890.7000000000003,0.11742620473686903
507,3893.44,0.11531490083849574
508,3896.1800000000003,0.11569539694012246
509,3898.91,0.11236189305597681
510,3901.6499999999996,0.1298788891576035
511,3904.39,0.12657938525923024
512,3907.12,0.11240228137508457
513,3909.86,0.11602437747671127
514,3912.6,0.12839627357833797
515,3915.34,0.12039026967996468
516,3918.07,0.12428976579581903
517,3920.81,0.13220886189744574
518,3923.55,0.11946735799907245
519,3926.2799999999997,0.1091547541149268
520,3929.0199999999995,0.10696275021655349
521,3931.76,0.0952710763181802
522,3934.49,0.08969382243403456
523,3937.23,0.10144863853566127
524,3939.97,0.11076363463728796
525,3942.7000000000003,0.11513613075314232
526,3945.44,0.11761612685476903
527,3948.18,0.11536642295639574
528,3950.9100000000003,0.11331341907225008
529,3953.65,0.11649711517387679
530,3956.3900000000003,0.1203210112755035
531,3959.12,0.11904670739135784
532,3961.8599999999997,0.10757990349298455
533,3964.6,0.09972385959461126
534,3967.33,0.0964134257104656
535,3970.07,0.1021580918120923
536,3972.81,0.10561868791371902
537,3975.54,0.10407318402957336
538,3978.28,0.10848548013120007
539,3981.02,0.12524107623282676
540,3983.75,0.13140737234868113
541,3986.49,0.12788296845030783
542,3989.2300000000005,0.13370256455193455
543,3991.96,0.1407398606677889
544,3994.7,0.14704965676941562
545,3997.44,0.14376755287104231
546,4000.17,0.13336264898689665
547,4002.91,0.14188744508852336
548,4005.65,0.14060094119015007
549,4008.38,0.13331073730600443
550,4011.1200000000003,0.13792483340763112
551,4013.86,0.13964342950925784
552,4016.5899999999997,0.14450052562511218
553,4019.33,0.14848592172673888
554,4022.0699999999997,0.14221591782836557
555,4024.8,0.14086671394421993
556,4027.54,0.14378511004584665
557,4030.28,0.13655190614747337
558,4033.01,0.13467200226332768
559,4035.75,0.1393841983649544
560,4038.4900000000002,0.14460959446658112
561,4041.22,0.13577939058243546
562,4043.9599999999996,0.13488518668406216
563,4046.7,0.14616118278568888
564,4049.43,0.1405898789015432
565,4052.17,0.1417951750031699
566,4054.91,0.14178917110479664
567,4057.6400000000003,0.13253786722065097
568,4060.38,0.13487946332227768
569,4063.12,0.1397126594239044
570,4065.85,0.14191645553975876
571,4068.59,0.13854775164138544
572,4071.3300000000004,0.13553094774301214
573,4074.06,0.1315399438588665
574,4076.7999999999997,0.12780793996049322
