,lambda (Angstroms),Total Flux (erg/s/cm^2/Angstrom)
0,102.00000000000001,0.005029252742845936
1,103.9,0.005886830619330641
2,104.712855,0.00625371823646082
3,106.08,0.0057388471523236815
4,108.05,0.0049969390075484685
5,110.06,0.0042399668509739185
6,113.93,0.0027825128900649827
7,117.92999999999999,0.0012761005725566582
8,120.22644299999999,0.0004112543149870459
9,120.95,0.00039864603941838756
10,124.92,0.00032946587983023767
11,126.95,0.00029409174392735246
12,128.12,0.0002737037035742856
13,131.1,0.0002217754204179617
14,132.01,0.00020591868294990982
15,133.85,0.00017385590364311237
16,136.97,0.00011948926262793406
17,138.038426,0.00010087167197101388
18,140.16,9.956759558610182e-05
19,143.09,9.777371546124186e-05
20,147.10000000000002,9.532029799868607e-05
21,150.88,9.300401049675072e-05
22,155.1,9.041952822797631e-05
23,158.489319,8.834683861824855e-05
24,159.07999999999998,8.779059000190989e-05
25,162.04,8.500540984818702e-05
26,165.80999999999997,8.146181268121571e-05
27,170.07000000000002,7.745807447301992e-05
28,172.82999999999998,7.487005719306216e-05
29,176.86,7.10919241831962e-05
30,180.14,6.801796553744928e-05
31,181.81,6.645979868001104e-05
32,181.970086,6.631014219411543e-05
33,186.05,6.759558812412833e-05
34,190.82,6.911180687337165e-05
35,193.92,7.010042580055284e-05
36,197.98,7.140277809550626e-05
37,202.12,7.273832406277403e-05
38,204.93999999999997,7.365774818685499e-05
39,208.929613,7.494527919709237e-05
40,210.19,7.729762949714564e-05
41,216.07999999999998,8.835995825906814e-05
42,220.1,9.591116642985399e-05
43,223.16,0.00010165947379716856
44,226.79000000000002,0.00010851444744466926
45,229.94,0.00011506761294043421
46,234.21999999999997,0.0001243276462934101
47,239.88329199999998,0.00013598297016497148
48,240.23,0.00013552803011352663
49,245.82,0.00012738023515767715
50,252.13,0.00011852020439177195
51,256.81,0.00011084818812640959
52,259.78999999999996,0.00010745202510701225
53,264.01,0.00010171327102585216
54,268.92,9.475452716838863e-05
55,273.92,8.767797120966818e-05
56,275.42287,8.554211774026188e-05
57,279.01,9.17346433715729e-05
58,284.2,0.0001007586712173497
59,290.15,0.00011074925108100517
60,296.21999999999997,0.00012147778689485202
61,301.03999999999996,0.0001294306895608721
62,308.05,0.00014188190231788475
63,316.227766,0.00015640521771530632
64,318.14000000000004,0.0001544170299092964
65,327.81,0.00014415929994290326
66,337.77000000000004,0.0001334642328213648
67,348.03000000000003,0.00012239112416002104
68,356.96,0.00011294420865848117
69,363.078055,0.00010653758561000482
70,366.12,0.00010979964682022346
71,374.64,0.00011879891099097315
72,385.14,0.00012916640042675626
73,395.02000000000004,0.00014013867498156935
74,405.15000000000003,0.0001509966716658058
75,413.64,0.00015995680318102464
76,416.86938299999997,0.00016326338430689105
77,422.29999999999995,0.0001668055519313181
78,430.15,0.0001720293146438209
79,441.17999999999995,0.00017989328413667513
80,451.46,0.00018696377184171067
81,459.84999999999997,0.00019268781344144293
82,469.47999999999996,0.00019958309359703553
83,478.630092,0.00020622184472110885
84,480.42,0.00020521449612110183
85,490.48,0.00019939000870868864
86,499.59999999999997,0.0001951917682711928
87,506.55,0.0002127324399991976
88,512.41,0.00031321731226194706
89,519.54,0.00031264846371815915
90,530.42,0.00031107697617869043
91,540.28,0.0002990598968460469
92,549.5408739999999,0.00033792234966650316
93,550.33,0.0003416228891464135
94,560.5600000000001,0.00038395219228512257
95,569.6600000000001,0.000414955509153378
96,580.26,0.0004069614936372799
97,589.68,0.0004577035862635399
98,600.65,0.0004623465520926346
99,610.41,0.0005190705627117745
100,620.3199999999999,0.0005867343900924789
101,630.4,0.0006200941764696234
102,630.957344,0.0006214257797841109
103,640.65,0.0006499972301750171
104,649.56,0.0007138348036275675
105,658.6,0.0007482887627758341
106,664.69,0.0008038064772905402
107,675.49,0.0008482611966269648
108,684.89,0.0008512719930864456
109,694.4200000000001,0.0010168618752416426
110,705.6999999999999,0.0009940684109930194
111,715.5200000000001,0.0011850632843155833
112,724.43596,0.0012417594339984603
113,725.47,0.0012481919244234786
114,735.56,0.0013108237954368293
115,745.7900000000001,0.0014352362087635467
116,754.43,0.0015233695343884576
117,764.9300000000001,0.0016108392078909536
118,775.57,0.001747425423706816
119,784.55,0.0018879667806641887
120,795.46,0.0019891362566558297
121,804.67,0.002091207575985162
122,815.8700000000001,0.0021942499610544904
123,825.31,0.0023831612427557824
124,831.763771,0.0022516543004749844
125,834.87,0.002186557233814958
126,844.54,0.0025891000995812486
127,854.3199999999999,0.00271216621407911
128,864.2099999999999,0.002904798577308543
129,874.22,0.0030918872118815078
130,884.34,0.0033140500951860438
131,894.5799999999999,0.0034987242498341117
132,904.94,0.0036130576758257116
133,915.42,0.005129412373160843
134,926.02,0.02895428434183951
135,934.59,0.06163034572029009
136,945.41,0.12088928218643188
137,954.16,0.16644740197189778
138,954.992586,0.16940743441638798
139,965.1999999999999,0.2057005291197284
140,974.14,0.05306822709670655
141,985.4200000000001,0.22657015796698768
142,994.53,0.22605158525672717
143,1006.05,0.27616656103914194
144,1015.36,0.24614277575565946
145,1024.75,0.09964309544288816
146,1034.23,0.19825908947216697
147,1043.8,0.33353748784349596
148,1055.89,0.33817572779222815
149,1065.6599999999999,0.2979581135903351
150,1075.52,0.3373933937304922
151,1085.47,0.2965877682126994
152,1095.52,0.35004953640829567
153,1096.4782,0.34914757633188453
154,1105.6499999999999,0.34051287153081505
155,1115.88,0.33973195868069267
156,1126.21,0.3177846261546161
157,1134.02,0.3623381894625872
158,1144.51,0.33894062545498377
159,1155.1,0.3524644417714261
160,1165.79,0.3640094384119141
161,1173.8700000000001,0.2898214485948087
162,1184.73,0.35003201178617444
163,1195.69,0.27487205530158587
164,1203.98,0.2163539241649765
165,1215.12,0.10921733226367027
166,1226.36,0.23667002068640977
167,1234.86,0.3350437482302964
168,1246.29,0.36990229926872276
169,1254.9299999999998,0.36990199926627343
170,1258.92541,0.35495603759433186
171,1263.63,0.3373581789737429
172,1275.3200000000002,0.39726454257970856
173,1284.16,0.41122676629884775
174,1296.04,0.3682045325639352
175,1305.03,0.364825658382381
176,1314.07,0.4140818849005957
177,1326.23,0.404651855084389
178,1335.4199999999998,0.38290388370191036
179,1344.68,0.4179072132991082
180,1354.0,0.4121740437360286
181,1366.53,0.39001561909811167
182,1376.0,0.40002445163433875
183,1385.5400000000002,0.4065218851502424
184,1395.14,0.3724697195058686
185,1404.82,0.38289845498112507
186,1414.55,0.39453469115615036
187,1424.3600000000001,0.39544582845080595
188,1434.23,0.3954491665851842
189,1440.85,0.40933595923458477
190,1445.43977,0.4112980983808263
191,1447.5,0.4121788476699757
192,1454.1799999999998,0.40746272613443724
193,1464.26,0.3918195445359002
194,1474.4099999999999,0.39002086375959555
195,1484.63,0.3918186838055233
196,1494.92,0.39544780467368346
197,1505.29,0.3855518264815377
198,1512.23,0.3623229080000053
199,1515.72,0.37678194899416256
200,1526.23,0.3699040724464816
201,1533.27,0.3420583551395669
202,1543.9,0.35899838000142714
203,1554.6,0.34522040568551976
204,1565.38,0.3500206323093065
205,1576.23,0.36735565975532575
206,1583.5,0.3759187451500317
207,1594.48,0.38467497412305385
208,1605.53,0.37247380391830837
209,1616.66,0.3724734346532571
210,1624.1200000000001,0.3614897222797366
211,1635.3799999999999,0.37505455454168835
212,1646.72,0.37678358774333415
213,1654.32,0.35817477701427847
214,1659.58691,0.3695281753822531
215,1665.79,0.3829000709822052
216,1673.48,0.3573468306314093
217,1677.33,0.38202646088491204
218,1685.08,0.39002112568092406
219,1696.76,0.3759171275928493
220,1704.59,0.3665203992512717
221,1716.3999999999999,0.35818331231461387
222,1724.33,0.3557128925510494
223,1736.28,0.37076241762360984
224,1744.29,0.36316620472245575
225,1756.3799999999999,0.3776626418042345
226,1764.49,0.3549033374810935
227,1776.72,0.3656858865720905
228,1784.92,0.3682159899691613
229,1793.16,0.3794047967974372
230,1805.59,0.37766656304446033
231,1813.92,0.3640120775929481
232,1826.5,0.3656887567069908
233,1834.9299999999998,0.3590145798334916
234,1843.4,0.3397199063911976
235,1856.18,0.3412884026612664
236,1864.74,0.34683013693918424
237,1873.35,0.36067637550610854
238,1886.34,0.3428652897900048
239,1895.04,0.3327560360771408
240,1903.79,0.34603888665328336
241,1905.46072,0.3450423695460449
242,1916.99,0.33816335515758716
243,1925.8400000000001,0.33352257659943424
244,1934.73,0.3397212936184195
245,1943.65,0.35165610732025854
246,1957.1299999999999,0.3350590168158628
247,1966.16,0.3516522183548321
248,1975.24,0.35819051436522437
249,1984.35,0.3452328070584702
250,1993.51,0.338154694223139
251,2002.71,0.3428562769649461
252,2016.6000000000001,0.3381498411262179
253,2025.9099999999999,0.34602181170515517
254,2035.2600000000002,0.3365977778612309
255,2044.65,0.3412786395944448
256,2054.09,0.32667149579908167
257,2063.57,0.33197624758085675
258,2073.1,0.34681319383405473
259,2077.87,0.337371066407796
260,2082.66,0.3428475367701064
261,2097.1,0.33120834011702965
262,2106.78,0.33504156978449623
263,2116.5,0.3358136950291011
264,2126.27,0.3397025147451288
265,2136.09,0.3259064289325794
266,2145.9500000000003,0.3296784386971683
267,2155.85,0.3350361440388954
268,2165.7999999999997,0.32741184385204547
269,2175.8,0.32590253813661835
270,2185.84,0.32366052799832956
271,2187.7616199999998,0.3253871262950821
272,2195.9300000000003,0.3327281356287734
273,2206.07,0.3259039295495126
274,2216.25,0.3170280269965664
275,2226.48,0.3112437288515133
276,2236.76,0.3236617351143535
277,2247.08,0.31484934490350824
278,2257.46,0.30838755998213474
279,2262.66,0.3105320184030267
280,2273.1,0.315576338771125
281,2283.6,0.3192276644286952
282,2294.14,0.30772339361258
283,2304.73,0.309198427204358
284,2315.36,0.30291686432245046
285,2326.05,0.26693950673001476
286,2336.79,0.2940945535454723
287,2347.5699999999997,0.2848246038872444
288,2352.9900000000002,0.2975814817028663
289,2363.85,0.28424543909726746
290,2374.7599999999998,0.2895884008995619
291,2385.7200000000003,0.2759730671097494
292,2396.73,0.28572673772783014
293,2402.2599999999998,0.27924652524081717
294,2413.34,0.28123820202994837
295,2424.48,0.28983788410855144
296,2435.67,0.28200057059504763
297,2446.92,0.2899557623710157
298,2452.56,0.2873230595813677
299,2463.88,0.2847463575283863
300,2475.25,0.278965759883298
301,2486.68,0.2835522675276816
302,2492.41,0.2714479726722413
303,2503.91,0.2895767864876754
304,2511.88643,0.27800787115843195
305,2515.4700000000003,0.2728098674033955
306,2527.08,0.26912047127699507
307,2532.91,0.26914527236080954
308,2544.6000000000004,0.26796397350485596
309,2556.3399999999997,0.2780754729429316
310,2562.2400000000002,0.27428297163838705
311,2574.0600000000004,0.2826745683469097
312,2585.94,0.2814373630082673
313,2597.88,0.2789093556224602
314,2603.87,0.27259245124716835
315,2615.8900000000003,0.270147741131808
316,2627.9599999999996,0.27586032931047705
317,2634.0200000000004,0.2790859225468262
318,2646.1800000000003,0.2936388076547478
319,2652.28,0.2957098995263204
320,2664.5200000000004,0.2824640819046889
321,2676.8199999999997,0.2877706622358926
322,2682.9900000000002,0.28912925171910614
323,2695.38,0.28001582897956256
324,2707.82,0.28331830453404827
325,2714.06,0.2743651916289028
326,2726.5899999999997,0.2725315641126412
327,2732.87,0.2801979498427192
328,2745.49,0.2597581192557103
329,2758.16,0.2628219869627306
330,2764.52,0.2689693699632555
331,2777.2799999999997,0.27528993459952855
332,2783.68,0.26720421623527685
333,2796.5299999999997,0.23386317780080262
334,2802.98,0.24490615773058017
335,2815.91,0.2729514165665528
336,2822.4,0.27741639513155375
337,2835.43,0.271784550555585
338,2841.97,0.26624332741461526
339,2855.09,0.2602409797678992
340,2868.26,0.2731936304152124
341,2874.88,0.27385170454468954
342,2884.0315,0.2738929774892641
343,2888.15,0.2739116894250792
344,2894.8,0.2733155847816402
345,2908.17,0.2849405754458839
346,2928.33,0.277914061368932
347,2948.6200000000003,0.27419714720120614
348,2969.06,0.275561332928741
349,2989.64,0.2750249185585193
350,3010.37,0.27638690408355826
351,3031.2299999999996,0.2758501895178233
352,3052.24,0.27595247484734914
353,3073.4,0.2741521600721358
354,3087.59,0.274216650163805
355,3108.99,0.2736843352210088
356,3130.54,0.27003202017347344
357,3152.2400000000002,0.26950950502119886
358,3166.79,0.27019949486149397
359,3188.74,0.26233097953465395
360,3210.8399999999997,0.26730736410307476
361,3233.1,0.2601184485597737
362,3248.02,0.26932733814171206
363,3270.54,0.274440422416863
364,3293.2099999999996,0.27265400658727473
365,3308.41,0.2708489959736999
366,3311.31121,0.27062622585850565
367,3323.68,0.26967632884842047
368,3331.3399999999997,0.27033182660220345
369,3339.02,0.25583752408902494
370,3346.7200000000003,0.2691590213088851
371,3354.43,0.25886521839526444
372,3362.17,0.25476061508120185
373,3369.92,0.2501436116336584
374,3377.6800000000003,0.24674560805263435
375,3385.47,0.26139620407116815
376,3393.28,0.2675187998227405
377,3401.1000000000004,0.27315449544083226
378,3408.9399999999996,0.25613519079196256
379,3416.7999999999997,0.2633434858761315
380,3424.67,0.2751546808268197
381,3432.5699999999997,0.27774127537706583
382,3440.48,0.2714550697938312
383,3448.4100000000003,0.25513066394363515
384,3456.36,0.25341025782647775
385,3464.33,0.251121651442359
386,3472.3199999999997,0.26419934479127877
387,3480.32,0.2546829380067179
388,3488.3399999999997,0.2600460309551956
389,3496.38,0.26008082363671187
390,3504.4399999999996,0.2607208160512667
391,3512.52,0.2583661081988602
392,3520.62,0.26624890007949226
393,3528.7400000000002,0.2525507916931629
394,3536.87,0.2638796831733529
395,3545.02,0.27193637438658147
396,3553.2000000000003,0.27385826519936796
397,3561.39,0.2688959558786737
398,3569.6,0.2544787462910181
399,3577.8300000000004,0.25102313643640106
400,3586.07,0.23920982644830333
401,3594.3399999999997,0.25283031605976347
402,3602.63,0.26908360540426224
403,3607.45,0.2999538410665643
404,3610.18,0.2504004046263329
405,3612.92,0.21893626805262076
406,3615.65,0.27556813161238936
407,3618.3900000000003,0.27967649503867725
408,3621.12,0.2766079585984458
409,3623.8599999999997,0.2681655220247337
410,3626.59,0.2819042855845023
411,3629.33,0.26318364901079017
412,3632.06,0.2748069125705588
413,3634.8,0.2593736759968467
414,3637.5299999999997,0.23652503955661527
415,3640.27,0.2648069029829031
416,3643.0,0.28411586654267174
417,3645.7400000000002,0.2731521299689596
418,3648.47,0.2696117935287282
419,3651.2099999999996,0.27079805695501613
420,3653.94,0.27724672051478466
421,3656.68,0.27284758394107256
422,3659.4100000000003,0.3002938475008412
423,3662.15,0.26448701092712906
424,3664.8799999999997,0.26216927448689764
425,3667.62,0.27731673791318556
426,3670.35,0.2861853014729541
427,3673.09,0.281786064899242
428,3675.82,0.2961031284590106
429,3678.56,0.2566132918852985
430,3681.29,0.2438600554450671
431,3684.0299999999997,0.25281341887135494
432,3686.76,0.27074758243112357
433,3689.5,0.2852558458574114
434,3692.23,0.26820070941718005
435,3694.9700000000003,0.2552432728434679
436,3697.7,0.2581762364032365
437,3700.44,0.28101459982952437
438,3703.17,0.285926063389293
439,3705.91,0.27426722681558086
440,3708.6400000000003,0.2866919903753495
441,3711.38,0.2575969538016374
442,3714.11,0.2640049173614059
443,3716.85,0.27417578078769383
444,3719.58,0.28953784434746244
445,3722.32,0.3318822077737503
446,3725.0499999999997,0.46537707133351885
447,3727.7900000000004,0.7577841347598068
448,3730.52,1.2107137983195753
449,3733.2599999999998,1.3506267617458632
450,3735.9900000000002,1.0557807253056317
451,3738.73,0.6300432887319197
452,3741.4599999999996,0.3788091522916883
453,3744.2,0.3255456157179762
454,3746.93,0.3250644792777448
455,3749.67,0.2969332427040327
456,3752.4,0.2698486062638013
457,3755.1400000000003,0.2730134696900892
458,3757.87,0.28910603324985773
459,3760.6099999999997,0.3209895966761456
460,3763.34,0.3157093602359142
461,3766.08,0.3297711236622021
462,3768.8100000000004,0.33200918722197076
463,3771.55,0.3074950506482586
464,3774.2799999999997,0.31100641420802716
465,3777.02,0.3181484776343151
466,3779.75,0.3311465411940837
467,3782.4900000000002,0.35112360462037157
468,3785.2200000000003,0.3893554681801401
469,3787.96,0.409159731606428
470,3790.69,0.38438369516619664
471,3793.43,0.3687321585924845
472,3796.1600000000003,0.33444902215225314
473,3798.9,0.309670985578541
474,3801.6299999999997,0.2855643491383096
475,3801.8939600000003,0.2883915209857625
476,3804.3700000000003,0.31491141945103257
477,3807.1,0.3235364906035573
478,3809.8399999999997,0.3557294616504137
479,3812.57,0.38464713280293844
480,3815.31,0.4193055038497948
481,3818.04,0.3992880750023195
482,3820.7799999999997,0.40613564604917585
483,3823.5099999999998,0.3880409172017006
484,3826.25,0.36024938824855696
485,3828.98,0.3619194594010816
486,3831.7200000000003,0.340986830447938
487,3834.45,0.3094329016004627
488,3837.1899999999996,0.3031718726473191
489,3839.92,0.28677634379984385
490,3842.66,0.2939946148467001
491,3845.3900000000003,0.3351585859992249
492,3848.13,0.3819518570460812
493,3850.8599999999997,0.39001902819860595
494,3853.6,0.3982668992454623
495,3856.33,0.421492570397987
496,3859.07,0.4115989414448433
497,3861.8,0.4270222125973681
498,3864.5400000000004,0.42923288364422446
499,3867.27,0.4545082547967492
500,3870.0099999999998,0.4518537258436055
501,3872.7400000000002,0.46433979699613026
502,3875.48,0.4625274680429866
503,3878.2100000000005,0.4286909391955113
504,3880.9500000000003,0.4103506102423677
505,3883.68,0.3738658813948924
506,3886.42,0.3518577524417487
507,3889.15,0.3324337235942735
508,3891.89,0.35935069464112984
509,3894.62,0.36205546579365455
510,3897.36,0.34941743684051085
511,3900.09,0.3529441079930356
512,3902.83,0.374432879039892
513,3905.56,0.39583215019241674
514,3908.3,0.404937221239273
515,3911.0299999999997,0.40902719239179774
516,3913.7699999999995,0.4278523634386541
517,3916.5,0.43195763459117886
518,3919.24,0.43164190563803523
519,3921.9700000000003,0.42878677679055993
520,3924.71,0.4330166478374162
521,3927.4399999999996,0.426879218989941
522,3930.18,0.4091425900367973
523,3932.91,0.3795470611893221
524,3935.65,0.3551749322361784
525,3938.38,0.36211080338870316
526,3941.1200000000003,0.38698317443555946
527,3943.85,0.39873344558808427
528,3946.5899999999997,0.40510411663494056
529,3949.32,0.40299988778746526
530,3952.06,0.41615335883432164
531,3954.7900000000004,0.42027372998684637
532,3957.53,0.41608730103370273
533,3960.2599999999998,0.3961814721862274
534,3963.0,0.37628884323308376
535,3965.73,0.3380791143856085
536,3968.4700000000003,0.30932898543246484
537,3971.2,0.30456605658498964
538,3973.94,0.30272882763184594
539,3976.67,0.3265325987843707
540,3979.41,0.329707469831227
541,3982.1400000000003,0.36878644098375174
542,3984.88,0.3942980120306081
543,3987.6099999999997,0.4095435831831328
544,3990.35,0.41817695422998913
545,3993.08,0.4265740253825139
546,3995.8199999999997,0.44163999642937024
547,3998.55,0.437080367581895
548,4001.2799999999997,0.4495206387344197
549,4004.02,0.45947290978127603
550,4006.75,0.4545074809338008
551,4009.49,0.45140655198065716
552,4012.2200000000003,0.44616722313318186
553,4014.96,0.4533850941800382
554,4017.69,0.46891496533256294
555,4020.43,0.46599173637941926
556,4023.16,0.456318307531944
557,4025.9,0.46752367857880034
558,4028.63,0.47172534973132507
559,4031.3700000000003,0.47284012077818144
560,4034.1,0.4802581919307062
561,4036.8399999999997,0.4730835629775625
562,4039.57,0.4641966341300872
563,4042.31,0.46762480517694355
564,4045.04,0.4712888763294683
565,4047.78,0.47199284737632463
566,4050.5099999999998,0.4644045185288494
567,4053.25,0.4850913895757057
568,4055.98,0.48474256072823046
569,4058.7200000000003,0.46539253177508677
570,4061.45,0.46018350292761157
571,4064.1899999999996,0.4599337739744679
