,lambda (Angstroms),Total Flux (erg/s/cm^2/Angstrom)
0,100.08,4.158708201310374
1,101.94,4.147138879984661
2,104.07,4.13389014100893
3,104.712855,4.129891541024088
4,106.00999999999999,4.087509800791992
5,107.98,4.023143806251397
6,109.98,3.9577976196433244
7,114.11,3.8228577439402884
8,118.11999999999999,3.691838640553511
9,120.22644299999999,3.6230146540185286
10,120.87,3.6053857305889845
11,125.12,3.4889656714629247
12,126.86,3.4413019317744333
13,128.04,3.408978246293885
14,131.02,3.32734724438202
15,131.93,3.3024196707337916
16,134.07,3.243798752645191
17,136.88,3.166824584086019
18,138.038426,3.135091879850486
19,140.07,3.0953136018338547
20,143.0,3.0379444744280715
21,147.0,2.9596253352143687
22,151.12,2.878955876716303
23,155.0,2.8029857004895615
24,158.489319,2.734665086631488
25,158.98,2.727401654950313
26,161.92999999999998,2.683733554448551
27,166.08,2.6223022416948676
28,169.95,2.5650157356408005
29,173.11,2.5182391931685766
30,177.15,2.4584363283152784
31,180.02,2.415952685315977
32,181.970086,2.3870862270895983
33,182.11,2.3855061830554916
34,185.92000000000002,2.342480087343424
35,191.13000000000002,2.2836439082805655
36,193.79,2.253604947686863
37,197.85,2.2077558033103686
38,201.99,2.161003370474657
39,204.8,2.1292705922002977
40,208.929613,2.0826350916747662
41,210.04999999999998,2.0731228463111555
42,215.94,2.0231175761767677
43,219.95000000000002,1.9890730373455456
44,223.01000000000002,1.9630936870389026
45,227.16,1.9278607661757436
46,229.79,1.90554425133791
47,234.06,1.8693176921288035
48,239.88329199999998,1.8198948353624336
49,240.07,1.8186738615612095
50,246.22000000000003,1.7784368736496563
51,251.96,1.7408920919768736
52,257.23,1.7064013324129246
53,260.21,1.6869190374130827
54,263.83,1.6632428116458917
55,268.74,1.6311226808723265
56,273.73,1.5984785551853424
57,275.42287,1.5874040664457267
58,278.82,1.5703492508649233
59,284.01,1.5442936849665152
60,289.95,1.514466745987413
61,296.03000000000003,1.4839451343199137
62,300.84,1.459795914375725
63,307.84,1.4246547542559072
64,316.227766,1.3825469390414529
65,317.93,1.3761648001083313
66,328.34000000000003,1.3371316030890232
67,338.32,1.299709550038524
68,347.8,1.264161774254082
69,356.72,1.2307140095476239
70,363.078055,1.2068735325297917
71,365.87,1.199034025131646
72,375.26,1.1726651974102071
73,384.88,1.1456450880702451
74,394.76,1.117906104583257
75,404.88000000000005,1.089488257068245
76,414.31,1.063005582508802
77,416.86938299999997,1.0558176569235382
78,422.02000000000004,1.0447712831425275
79,429.86,1.0279570611300417
80,440.89000000000004,1.0043037432780368
81,451.16,0.9822770425119363
82,459.55,0.9642826728478094
83,470.25,0.9413342027067894
84,478.630092,0.9233627062723068
85,480.09999999999997,0.9209384155814783
86,490.15000000000003,0.9043584395030232
87,500.41,0.887437772824123
88,506.21,0.8778711694927759
89,512.07,0.8682337703755871
90,520.39,0.8545121404388961
91,530.0699999999999,0.8385452692231308
92,539.92,0.8222925532974809
93,549.5408739999999,0.8064391537634136
94,549.96,0.8059124758743711
95,560.18,0.7930715198493834
96,570.6,0.7799759251520864
97,579.87,0.7683077541955661
98,590.65,0.7547683667281131
99,600.25,0.7426893522572828
100,610.0,0.730425530007221
101,619.91,0.7180112952593121
102,629.98,0.7053562314135559
103,630.957344,0.704127938291523
104,640.2199999999999,0.6949027623027112
105,650.62,0.6845611167432268
106,658.16,0.6770546499601009
107,664.25,0.6710126982468066
108,675.04,0.6602706398450918
109,684.4300000000001,0.6508960106590765
110,695.5500000000001,0.6399130656600894
111,705.23,0.6302276944401081
112,716.6899999999999,0.6189207487530226
113,724.43596,0.611226094935673
114,726.66,0.6095885502873389
115,735.07,0.6034014411970899
116,745.3,0.595901019110854
117,755.67,0.5882838304556959
118,764.42,0.5818245007980648
119,775.0500000000001,0.5740821945149084
120,785.83,0.566151752107907
121,794.93,0.5595074431279706
122,804.14,0.5527707856438814
123,815.3199999999999,0.5445678420399597
124,824.76,0.537710095592641
125,831.763771,0.5323598416234144
126,834.3100000000001,0.5308908800537709
127,845.92,0.5248255351216101
128,855.7199999999999,0.5194722929850749
129,865.63,0.5141427566786395
130,875.6500000000001,0.5087377762023043
131,885.7900000000001,0.5032920455406238
132,893.98,0.498895478890805
133,904.34,0.49321592488932475
134,914.8100000000001,0.4882011287179446
135,925.4,0.4962644863612192
136,933.96,0.5109987131399188
137,944.7800000000001,0.5368606564279482
138,954.992586,0.5573530532912284
139,955.72,0.5588213665544493
140,964.56,0.5670605046945416
141,975.7299999999999,0.47105470191454535
142,984.76,0.5402510364173773
143,993.87,0.5410954272834679
144,1005.38,0.5804542190473213
145,1014.6800000000001,0.5711433462761515
146,1024.07,0.48835844441364795
147,1035.93,0.5199336052667582
148,1045.51,0.6048630997669943
149,1055.19,0.5965656397213035
150,1064.95,0.5529477560388716
151,1074.81,0.5766524178105132
152,1084.75,0.5354863559454135
153,1094.79,0.5768582395343872
154,1096.4782,0.5747994428868961
155,1104.92,0.5653330829936978
156,1115.14,0.5545918253362347
157,1125.46,0.5322583285627496
158,1135.87,0.5715866265848445
159,1143.75,0.5506657042422995
160,1154.33,0.5578710257671569
161,1165.01,0.559603008175992
162,1175.79,0.492004451468805
163,1183.94,0.5465688135130002
164,1194.9,0.48256134639697335
165,1205.95,0.44048207407652656
166,1214.31,0.4047464539770754
167,1225.55,0.4683289073361865
168,1234.04,0.5332613163859066
169,1245.46,0.5493261893361778
170,1254.09,0.5361968236234669
171,1258.92541,0.5222321214890101
172,1265.6999999999998,0.5035294913171748
173,1274.47,0.5554093155417735
174,1286.26,0.5638799595107609
175,1295.1799999999998,0.5088600708087565
176,1304.16,0.5046008169361107
177,1316.2199999999998,0.5514507176372123
178,1325.35,0.5381880508379633
179,1334.53,0.5091488797298466
180,1343.79,0.5468799217275415
181,1356.22,0.535297370543022
182,1365.62,0.5070078604758872
183,1375.09,0.5152419243763375
184,1384.6200000000001,0.5155399231061466
185,1394.2199999999998,0.478504195803541
186,1403.88,0.4827355033302939
187,1413.61,0.4908004848246321
188,1423.4099999999999,0.4929596402865556
189,1436.5800000000002,0.48932398533079324
190,1443.21,0.49925093397493125
191,1445.43977,0.5011948066349866
192,1446.54,0.5022589886817107
193,1456.5700000000002,0.4938562508869512
194,1466.6599999999999,0.4739916751791623
195,1473.43,0.47301349732567055
196,1483.6399999999999,0.47544964579182264
197,1493.93,0.47689734370726866
198,1504.28,0.4631310037096854
199,1511.23,0.43847621211710525
200,1518.2,0.45060330788684866
201,1525.2099999999998,0.4432912783812391
202,1535.78,0.4148261993692144
203,1546.43,0.4262093698064836
204,1553.57,0.4155080581559769
205,1564.34,0.41960225276718727
206,1575.1799999999998,0.43038130314652995
207,1586.1,0.4375795029751666
208,1593.42,0.44093537758557144
209,1604.46,0.4345141015881492
210,1615.5900000000001,0.4325490687211827
211,1626.78,0.4199379979411869
212,1634.29,0.43141595249366504
213,1645.6200000000001,0.4324543932499337
214,1653.22,0.41599649093286767
215,1659.58691,0.42451640466806195
216,1664.68,0.4316684269986569
217,1672.36,0.40744975863085015
218,1676.22,0.43300608390432227
219,1683.9499999999998,0.44035428917995434
220,1695.6299999999999,0.4248269122872482
221,1703.45,0.41606511012107006
222,1715.2600000000002,0.40362574470130475
223,1723.18,0.40146268982200406
224,1735.12,0.41315883587517954
225,1743.1299999999999,0.4074705735540686
226,1755.21,0.4187162858088726
227,1763.32,0.40047427077463926
228,1775.54,0.40295494923107167
229,1783.73,0.4056484720263403
230,1796.1,0.4171190714130891
231,1804.3899999999999,0.41477704149523525
232,1816.8999999999999,0.3965628070836126
233,1825.28,0.39973096972394845
234,1833.71,0.3905592060077231
235,1846.42,0.3728179661698554
236,1854.9399999999998,0.3728449950118199
237,1863.4999999999998,0.3774509427685353
238,1876.42,0.3903279522331104
239,1885.0800000000002,0.3727307472767033
240,1893.78,0.3641682612350473
241,1905.46072,0.3725055719787701
242,1906.91,0.37359985648464655
243,1915.7099999999998,0.365680743689459
244,1924.55,0.360202101290657
245,1933.4399999999998,0.36503889688733687
246,1946.84,0.3728671796764831
247,1955.8300000000002,0.35843515126412673
248,1964.85,0.37517592564905955
249,1973.92,0.3800868380294742
250,1983.03,0.36781592080627434
251,1996.78,0.3610882695637938
252,2006.0,0.36568669593065417
253,2015.2600000000002,0.3589957926939
254,2024.56,0.36598405985353133
255,2033.8999999999999,0.3550369974095482
256,2043.2900000000002,0.36099137296104694
257,2052.7200000000003,0.3479114189089312
258,2066.95,0.3490113124230768
259,2071.71,0.3640530895929527
260,2076.49,0.35486760196102124
261,2086.0699999999997,0.36144936189535115
262,2095.7000000000003,0.34942445982516296
263,2105.38,0.35018719575045665
264,2115.1,0.35143790207213593
265,2124.86,0.35270917879020064
266,2134.67,0.33908219350374724
267,2144.52,0.3420524786136794
268,2154.42,0.3479297017190934
269,2164.3599999999997,0.340263395220893
270,2174.35,0.3382175267181744
271,2184.39,0.33480259621093766
272,2187.7616199999998,0.3372021460171926
273,2194.4700000000003,0.3422221484094632
274,2204.6,0.3363247645617512
275,2214.78,0.32655725009287573
276,2225.0,0.3210064711270695
277,2235.27,0.33169096154009986
278,2245.59,0.32376092133196677
279,2255.95,0.31524601662690294
280,2266.37,0.31783471517644296
281,2276.83,0.3213679492290522
282,2287.34,0.3254419526604981
283,2292.61,0.314122405189872
284,2303.19,0.31501014575168906
285,2313.82,0.3066392556923426
286,2324.5,0.27343843501183285
287,2335.23,0.29384058371015953
288,2346.01,0.2877006017873228
289,2356.84,0.2988360892433227
290,2367.7200000000003,0.2852778460781591
291,2373.18,0.289367542247112
292,2384.13,0.2771089362123196
293,2395.14,0.2850135334321311
294,2406.19,0.27862956615501183
295,2417.3,0.28106270213249646
296,2422.87,0.29015007093488976
297,2434.05,0.2835055440427455
298,2445.29,0.29077832040520524
299,2456.5699999999997,0.2879285322707342
300,2462.24,0.28592273983080063
301,2473.6,0.27930502270246804
302,2485.02,0.2799311088287394
303,2496.4900000000002,0.26698926433384723
304,2502.2499999999995,0.2863568767758195
305,2511.88643,0.27025596786220596
306,2513.7999999999997,0.2670960746739272
307,2519.5899999999997,0.27035216552112273
308,2525.4,0.26500881471321364
309,2537.06,0.26681632978718606
310,2542.9,0.2643520664966199
311,2554.6400000000003,0.2746099149501736
312,2566.4300000000003,0.26945820926596564
313,2572.35,0.2770164793549808
314,2584.22,0.2740273070503541
315,2596.1499999999996,0.27107520978041333
316,2602.14,0.2655637840765621
317,2614.15,0.26234642018620263
318,2626.21,0.2685833021580815
319,2632.27,0.2746966806613639
320,2644.42,0.2872891251852717
321,2656.62,0.2920972155714178
322,2662.75,0.27370459828183386
323,2675.0400000000004,0.28014725122000883
324,2687.39,0.28065337919286987
325,2693.58,0.2707514369379719
326,2706.0099999999998,0.27513499829041416
327,2712.25,0.2654677018977545
328,2724.7700000000004,0.2632350258022257
329,2737.35,0.2697642247413829
330,2743.66,0.24854543255585682
331,2756.3199999999997,0.25197826487459535
332,2762.6800000000003,0.2577095185513075
333,2775.43,0.262932213422075
334,2781.83,0.25227088378857787
335,2794.67,0.22523284121137424
336,2807.5699999999997,0.2320809736688566
337,2814.04,0.2580572482424931
338,2827.0299999999997,0.2665167432520044
339,2833.54,0.26032323451543155
340,2846.6200000000003,0.25430969207697174
341,2853.19,0.24565965837508486
342,2866.35,0.2622743493162064
343,2872.96,0.26424363230411013
344,2884.0315,0.2619619369822526
345,2886.22,0.2615476130884088
346,2892.88,0.26244832092897585
347,2912.9300000000003,0.27639282246101343
348,2933.1200000000003,0.2676060800137236
349,2946.66,0.2634040265844862
350,2967.09,0.26579590874406367
351,2987.65,0.2649449500656942
352,3008.36,0.26532074426661684
353,3029.21,0.264868094488212
354,3050.21,0.2644093975890993
355,3071.35,0.26519775671065915
356,3092.64,0.26431596871151103
357,3106.92,0.2658201828201143
358,3128.46,0.261173716286453
359,3150.1400000000003,0.2602830057734642
360,3171.98,0.261452144998387
361,3186.62,0.25071144601729123
362,3208.71,0.25621710670770076
363,3230.9500000000003,0.24576092027740226
364,3253.34,0.2585039867263959
365,3268.36,0.26556376837284
366,3291.0099999999998,0.2628897531459399
367,3306.21,0.2605430782475344
368,3311.31121,0.26047518677626674
369,3321.4700000000003,0.2604594410892853
370,3329.12,0.26633039381390616
371,3336.7999999999997,0.2678779898825451
372,3344.49,0.25638400039919007
373,3352.2000000000003,0.25406043981184706
374,3359.93,0.26017820812051623
375,3367.6699999999996,0.2586648908771914
376,3375.44,0.2397801169778847
377,3383.2200000000003,0.243833757526584
378,3391.02,0.26055262697129544
379,3398.83,0.26118811086401283
380,3406.67,0.25580723810074846
381,3414.52,0.25684587978549006
382,3422.3900000000003,0.2671325503662437
383,3430.28,0.2606957498430095
384,3438.19,0.26309437821578735
385,3446.12,0.2384629354845773
386,3454.06,0.25739120720137326
387,3462.02,0.24308510781418133
388,3469.9999999999995,0.25140903732300146
389,3478.0,0.23790609572783367
390,3486.0200000000004,0.24640278302867796
391,3494.06,0.24413919922553434
392,3502.11,0.2555388298703968
393,3510.18,0.25105528941127125
394,3518.2799999999997,0.2458523922961639
395,3526.39,0.24278150962906253
396,3534.52,0.2537200558579733
397,3542.6600000000003,0.26311241653489004
398,3550.83,0.26197492055582494
399,3559.02,0.25470675347277194
400,3567.22,0.25275250083772494
401,3575.4399999999996,0.23658377709869005
402,3583.69,0.2302119967036733
403,3591.95,0.22551443075666255
404,3600.23,0.2552166937056639
405,3608.5299999999997,0.24196588555067733
406,3616.85,0.2449901062917028
407,3625.1800000000003,0.2549158414807343
408,3633.54,0.25293282001378403
409,3641.92,0.2610656274428458
410,3650.31,0.24690934931991357
411,3658.73,0.26791451454099946
412,3667.16,0.2653394942100914
413,3675.61,0.2678859027751954
414,3684.0899999999997,0.24928775468431758
415,3692.58,0.25335002104144577
416,3701.09,0.257963216294586
417,3709.6200000000003,0.2330132404437384
418,3718.18,0.26475190793690884
419,3726.75,0.2309474898780854
420,3735.3399999999997,0.238623400715274
421,3743.95,0.2819197404484747
422,3752.58,0.20748560907768737
423,3761.23,0.2824175066029122
424,3769.9,0.26414413302414913
425,3778.59,0.27343378834139814
426,3787.3,0.3311835725546592
427,3796.03,0.2808728856639323
428,3801.8939600000003,0.2604948151059094
429,3804.7799999999997,0.25048932944400765
430,3813.55,0.33048993224399964
431,3822.35,0.3111152268437635
432,3831.1600000000003,0.2716233187101181
433,3839.99,0.19741970510965393
434,3848.84,0.30314428604237104
435,3857.7099999999996,0.32890536150826943
436,3866.6099999999997,0.3337189287739397
437,3875.52,0.31112049330620073
438,3884.45,0.29738205237164295
439,3893.41,0.2078320032368571
440,3902.3799999999997,0.30707745136866194
441,3911.3799999999997,0.33464239130023865
442,3920.4,0.3494656257649966
443,3929.43,0.33808925749634533
444,3938.4900000000002,0.23213398102746585
445,3947.57,0.32943619909176775
446,3956.67,0.33878831168925083
447,3965.79,0.27869311881991526
448,3974.93,0.18718652048376097
449,3984.1,0.3298941139473786
450,3993.28,0.3629959046775868
451,3994.6,0.3585247438675514
452,3997.35,0.35709519217997765
453,4000.09,0.38042544322581323
454,4002.8399999999997,0.37969699153823944
455,4005.59,0.3799012398506657
456,4008.33,0.37453929089650123
457,4011.0800000000004,0.38381703920892746
458,4013.82,0.39103989025476305
459,4016.5699999999997,0.39171923856718927
460,4019.31,0.38766088961302486
461,4022.06,0.3875291379254511
462,4024.81,0.37062928623787733
463,4027.5499999999997,0.36122303728371286
464,4030.3,0.38109248559613906
465,4033.04,0.3805859366419747
466,4035.7900000000004,0.3978595849544009
467,4038.53,0.4025793360002365
468,4041.2799999999997,0.38128748431266274
469,4044.03,0.3754196326250889
470,4046.77,0.38777598367092453
471,4049.52,0.3785474319833507
472,4052.2599999999998,0.39993678302918634
473,4055.01,0.3976438313416125
474,4057.75,0.3693950823874481
475,4060.5,0.35980163069987436
476,4063.25,0.3584937790123005
477,4065.99,0.37456983005813616
478,4068.7400000000002,0.37615887837056233
479,4071.48,0.375698729416398
480,4074.23,0.3650854777288241
481,4076.98,0.36055602604125037
482,4079.72,0.380392477087086
483,4082.4700000000003,0.35966272539951216
484,4085.21,0.35822907644534774
485,4087.96,0.35799882475777395
486,4090.7,0.3486445758036095
487,4093.4500000000003,0.34525662411603575
488,4096.2,0.331335072428462
489,4098.94,0.31289562347429756
490,4101.6900000000005,0.3053476717867238
491,4104.43,0.3065732228325594
492,4107.18,0.3190090711449856
493,4109.92,0.33246032219082117
494,4112.67,0.3456840705032474
495,4115.42,0.35630041881567365
496,4118.16,0.3575608698615092
497,4120.91,0.36755151817393544
498,4123.65,0.373059169219771
499,4126.4,0.36664081753219724
500,4129.14,0.3664180685780328
501,4131.889999999999,0.36230581689045904
502,4134.64,0.36564476520288525
503,4137.38,0.3679541162487208
504,4140.13,0.36624646456114707
505,4142.87,0.3790720156069826
506,4145.62,0.3827179639194089
507,4148.36,0.37539181496524443
508,4151.11,0.3705784632776707
509,4153.86,0.3671209115900969
510,4156.599999999999,0.3655713626359325
511,4159.35,0.3758806109483587
512,4162.09,0.3734735619941943
513,4164.84,0.3731854103066205
514,4167.59,0.36673805861904674
515,4170.33,0.3700497096648823
516,4173.08,0.36261745797730854
517,4175.82,0.3595441090231441
518,4178.57,0.36641165733557035
519,4181.3099999999995,0.3627240083814059
520,4184.06,0.36141615669383215
521,4186.81,0.3642800050062583
522,4189.55,0.36742945605209393
523,4192.3,0.3759947043645201
524,4195.04,0.37733635541035576
525,4197.79,0.36445190372278197
526,4200.53,0.36294865476861754
527,4203.28,0.3727248030810438
528,4206.03,0.37248305139346993
529,4208.77,0.3738769024393055
530,4211.52,0.36981675075173176
531,4214.26,0.36783850179756733
532,4217.01,0.36847155010999355
533,4219.75,0.3628314011558292
534,4222.5,0.3655097494682554
535,4225.25,0.35921319778068156
536,4227.99,0.3609545488265172
537,4230.74,0.3606895971389434
538,4233.4800000000005,0.36105214818477893
539,4236.2300000000005,0.3694434964972052
540,4238.98,0.3840403448096314
541,4241.72,0.371852895855467
542,4244.47,0.3710606441678932
543,4247.21,0.36575069521372877
544,4249.96,0.355149143526155
545,4252.7,0.3659524945719906
546,4255.45,0.3616896428844168
547,4258.2,0.36534729119684306
548,4260.94,0.35970704224267863
549,4263.69,0.36657469055510483
550,4266.43,0.3647063416009404
551,4269.18,0.35050078991336664
552,4271.92,0.3457529409592022
553,4274.67,0.3524408892716285
554,4277.42,0.35403583758405466
555,4280.16,0.35771828862989025
556,4282.91,0.3450655369423165
557,4285.65,0.34424598798815204
558,4288.4,0.3473243363005783
559,4291.14,0.34452318734641385
560,4293.89,0.3351672356588401
561,4296.64,0.32074168397126634
562,4299.38,0.31987563501710187
563,4302.13,0.3248718833295281
564,4304.87,0.33514203437536366
565,4307.62,0.3382666826877899
566,4310.36,0.3359059337336255
567,4313.11,0.3611291820460517
568,4315.860000000001,0.3580194303584779
569,4318.6,0.36247248140431354
570,4321.35,0.3518244297167398
571,4324.09,0.3325738807625753
572,4326.84,0.33230902907500154
573,4329.59,0.3410944773874277
574,4332.33,0.3424824284332634
575,4335.08,0.34302287674568954
576,4337.82,0.35301512779152516
577,4340.570000000001,0.3368743761039513
578,4343.31,0.341327327149787
579,4346.0599999999995,0.3427890754622132
580,4348.81,0.3428313237746394
581,4351.55,0.35363467482047495
582,4354.3,0.36164952313290116
583,4357.04,0.3595667741787368
584,4359.79,0.36440642249116295
585,4362.53,0.3807432735369986
586,4365.15832,0.37586601796918817
587,4365.280000000001,0.3756409505944812
588,4368.03,0.3715220687368315
589,4370.7699999999995,0.3641715297223005
590,4373.52,0.36062624786465075
591,4376.26,0.35886710885011974
592,4379.01,0.3578596269924701
593,4381.75,0.3360469879779391
594,4384.5,0.33778010612028936
595,4387.25,0.3567970242626396
596,4389.99,0.36349148524810865
