,lambda (Angstroms),Total Flux (erg/s/cm^2/Angstrom)
0,102.08999999999999,0.013524234315893693
1,103.99000000000001,0.015811881327036384
2,104.712855,0.016682216632593266
3,105.92,0.015469501351494771
4,107.89,0.013490410933290124
5,109.89999999999999,0.011471135940135815
6,114.02000000000001,0.007332124513378301
7,118.02999999999999,0.0033036206815108267
8,120.22644299999999,0.0010970424612004744
9,121.06,0.0010582945233684406
10,125.02,0.0008742136716491114
11,127.06,0.0007793841560111626
12,127.94,0.0007384773264752674
13,130.92,0.00059995190867309
14,132.13,0.0005437051077487584
15,133.97,0.00045817270212312225
16,137.09,0.00031313972626496536
17,138.038426,0.0002690522109458682
18,139.96,0.0002658977989706295
19,142.89,0.000261092249805065
20,146.89000000000001,0.00025454086248748544
21,151.01,0.0002477843868751285
22,154.88,0.0002414410587273078
23,158.489319,0.00023552773810080535
24,158.85,0.00023461914546443844
25,162.18,0.00022623139532635113
26,165.96,0.0002167174449728466
27,169.82,0.00020700511747037911
28,172.98000000000002,0.00019905654289633826
29,177.01000000000002,0.0001889258981598242
30,179.88,0.00018171679617327459
31,181.97000000000003,0.0001764685599841146
32,181.970086,0.00017646834411703884
33,186.20999999999998,0.00017996270011858055
34,190.98,0.00018391505417003206
35,194.09,0.00018649990300798058
36,198.15,0.00018988098569642782
37,201.82999999999998,0.00019297249600467553
38,205.11,0.0001957216103337659
39,208.929613,0.00019892496421625578
40,209.89000000000001,0.0002036850763083156
41,215.76999999999998,0.00023294984775861123
42,219.78,0.0002529126818680818
43,222.84,0.0002681385839167051
44,226.98,0.00028879437127660716
45,230.14,0.0003055088285947933
46,233.88,0.00032636624987644405
47,239.88,0.00035817484405021525
48,239.88329199999998,0.00035819143835315136
49,246.03,0.00033391508624443364
50,251.76,0.0003124108694663744
51,257.04,0.0002904355363096285
52,260.01,0.0002804578224089592
53,264.24,0.0002648890993686117
54,269.15000000000003,0.0002463132046338348
55,274.15,0.00022740220217479552
56,275.42287,0.00022260485804554794
57,279.25,0.0002403139540547796
58,283.79,0.00026162389606182196
59,289.72999999999996,0.0002884529845908594
60,295.8,0.000317263467582654
61,301.3,0.0003427185717762074
62,308.31,0.00037611844857562716
63,316.227766,0.0004144553635885227
64,317.67999999999995,0.0004105791928989417
65,328.09,0.00038199274424629035
66,338.06,0.0003548635987163254
67,348.33000000000004,0.0003269237206027106
68,357.27000000000004,0.0003031616876099437
69,363.078055,0.00028836280792397963
70,365.59000000000003,0.0002961648827533337
71,374.97,0.000324061766484541
72,384.59,0.0003513166377952245
73,395.36,0.0003857576066742334
74,404.57,0.00041491690128664464
75,413.99,0.0004432374612810979
76,416.86938299999997,0.00045182839613118014
77,421.69,0.0004614320844566391
78,429.53,0.000477367474675756
79,440.54999999999995,0.000500697663657219
80,450.81,0.0005210264709847878
81,460.25000000000006,0.0005396482957384187
82,469.89000000000004,0.0005595654235588634
83,478.630092,0.0005782517499251526
84,479.73,0.0005768232841214865
85,489.77,0.0005608740994535078
86,500.03,0.0005481586808585412
87,505.82,0.0005389825197800952
88,511.66999999999996,0.0005383531767215617
89,519.99,0.0005268130754827585
90,529.66,0.000512457579691986
91,539.5,0.0004950318349576323
92,549.53,0.0004834873472863348
93,549.5408739999999,0.000483477622471713
94,559.75,0.00048777360799705753
95,570.16,0.0004913988985075629
96,579.42,0.00048807585951882897
97,590.19,0.0004926965001334439
98,599.78,0.000489354348740144
99,609.53,0.0004759338640597816
100,619.43,0.0005012628919227982
101,629.5000000000001,0.000502213040668311
102,630.957344,0.0005024475855060315
103,639.73,0.0005169303905923706
104,650.12,0.000537690690245178
105,657.6500000000001,0.0005517689026980788
106,665.26,0.0005692548455621658
107,674.52,0.0005834677656569682
108,685.48,0.0005928396319894773
109,695.0099999999999,0.000636161104722033
110,704.6800000000001,0.0006401524306741647
111,716.13,0.0006842865332751892
112,724.43596,0.0007020694020183416
113,726.0999999999999,0.0007050185492358215
114,734.5,0.000720727500343499
115,744.7199999999999,0.0007536926175245066
116,755.08,0.000778260870557309
117,765.59,0.0007871965262884627
118,774.45,0.0008370846523377512
119,785.2199999999999,0.0008652689460793804
120,794.32,0.0008937740764460312
121,805.37,0.0009231799418912498
122,814.6899999999999,0.0009490414428821492
123,824.13,0.0009988587460317295
124,831.763771,0.0009533686691008197
125,835.5899999999999,0.0009246461745918453
126,845.2700000000001,0.0010267628409358583
127,855.05,0.0010388560077586324
128,864.96,0.0010756524452037947
129,874.97,0.0011157457831277174
130,885.1,0.001168765501626153
131,895.35,0.001204648800699101
132,905.72,0.0012037530803465615
133,914.1,0.0016530856404666887
134,924.68,0.009004998311119547
135,935.39,0.01995321205239479
136,944.0500000000001,0.03915127383385545
137,954.98,0.05749793715618397
138,954.992586,0.05750603816511844
139,966.04,0.06462660115549965
140,974.98,0.010076076921003038
141,984.0,0.053920529270537775
142,995.39,0.059913039172001255
143,1004.5999999999999,0.09264954465861044
144,1013.9,0.0913773450522549
145,1025.64,0.03939738625885554
146,1035.1299999999999,0.06329532478957445
147,1044.71,0.12955556822732864
148,1054.3700000000001,0.12866644824911416
149,1064.1299999999999,0.1001636415009389
150,1073.97,0.12344636133679497
151,1083.91,0.09588106440269022
152,1093.94,0.13377931237562074
153,1096.4782,0.13279345314340033
154,1104.06,0.12984590726555384
155,1114.28,0.12514604310014477
156,1124.5900000000001,0.11284363169648842
157,1134.99,0.14971347305458488
158,1145.5,0.13655245667704577
159,1156.1000000000001,0.14867429306125945
160,1164.11,0.15530408885725488
161,1174.8799999999999,0.1055452360136682
162,1185.75,0.15387633068314013
163,1193.97,0.10219491625655867
164,1205.02,0.07124586644953614
165,1216.17,0.050257414155572215
166,1224.6,0.10723333950641384
167,1235.9299999999998,0.17023379273595543
168,1244.5,0.19010349460507914
169,1256.01,0.18196885335812624
170,1258.92541,0.17290665731001204
171,1264.72,0.15489813948160103
172,1276.42,0.20842207628493759
173,1285.27,0.2212677066874614
174,1294.18,0.17061833933000228
175,1306.15,0.16983338621341584
176,1315.21,0.22126982445599955
177,1324.32,0.21229046456526415
178,1333.5,0.18620060728788207
179,1345.8400000000001,0.23009706798473448
180,1355.17,0.22382651630739514
181,1364.56,0.19859606687007295
182,1374.02,0.21229392004610406
183,1383.55,0.21673347583548844
184,1396.3500000000001,0.18922875370580536
185,1406.03,0.19905021509523252
186,1415.77,0.2032193787246768
187,1425.59,0.21229304534081056
188,1435.47,0.21180981419696143
189,1442.0900000000001,0.22643076134551599
190,1445.42,0.23115968566646558
191,1445.43977,0.23114829201832376
192,1455.44,0.2253849997489862
193,1465.53,0.20746391590624946
194,1475.69,0.2089045342568733
195,1485.91,0.21475665448752054
196,1496.21,0.22076727722486558
197,1506.59,0.20890690246890845
198,1513.54,0.18450002023828205
199,1517.03,0.1999749295929747
200,1524.0300000000002,0.19408004892903444
201,1534.6000000000001,0.16789978012648465
202,1545.23,0.1892337132039582
203,1555.94,0.17906524878812963
204,1566.73,0.18323168687899885
205,1573.96,0.19723691342181485
206,1584.87,0.2093956552727308
207,1595.8600000000001,0.21525199963034458
208,1603.22,0.21279373024654455
209,1614.34,0.2152515786775423
210,1625.53,0.20322272930190066
211,1636.79,0.21925188211961963
212,1644.35,0.22435401900256416
213,1655.75,0.2065237762070043
214,1659.58691,0.21783590060877314
215,1663.3899999999999,0.22904906667112865
216,1671.0700000000002,0.20275792404183912
217,1678.78,0.23117318827727898
218,1686.53,0.24373746166569127
219,1694.31,0.2290573419188329
220,1706.0600000000002,0.22027223060449022
221,1713.9299999999998,0.20844743145181988
222,1725.8100000000002,0.20892714988463768
223,1733.78,0.22540857361439842
224,1745.8000000000002,0.2207911240826198
225,1753.86,0.2382105684065686
226,1766.01,0.21777104862195043
227,1774.1599999999999,0.22489981354008723
228,1786.46,0.23067102807911577
229,1794.7099999999998,0.24943251587968365
230,1802.9899999999998,0.2482953105449809
231,1815.4899999999998,0.22855807084887172
232,1823.87,0.2349575883966001
233,1836.51,0.22594958073589444
234,1844.99,0.20704582116605397
235,1853.51,0.20895507074918593
236,1866.35,0.21729310885334255
237,1874.97,0.23878758131890562
238,1883.6200000000001,0.21930306064919802
239,1896.68,0.21187074909470316
240,1905.4299999999998,0.22596705130742667
241,1905.46072,0.2259385519223639
242,1914.23,0.21779857177565964
243,1923.06,0.21431856730461568
244,1936.39,0.22030973552669766
245,1945.3300000000002,0.23389099861037455
246,1954.31,0.21980214989576813
247,1967.86,0.2437680532272918
248,1976.94,0.251167875016977
249,1986.0700000000002,0.23822138205880813
250,1995.23,0.23226668025192673
251,2004.44,0.2404183636971912
252,2013.7,0.23225813239460147
253,2022.99,0.24375279224329927
254,2037.01,0.2327866569449939
255,2046.4199999999998,0.24431078139884171
256,2055.86,0.23385689700397702
257,2065.35,0.2354727978612582
258,2074.88,0.25404518692025607
259,2079.67,0.24826547407582789
260,2084.46,0.2617581612313997
261,2094.08,0.24712092374426012
262,2103.75,0.2482587715092663
263,2113.46,0.2534495074759892
264,2123.21,0.25579473164442873
265,2133.0099999999998,0.23708724106501414
266,2142.86,0.2482477357377454
267,2152.75,0.2587469186121933
268,2162.69,0.24938278673878705
269,2172.67,0.2488123430670975
270,2182.7,0.2488100846475538
271,2187.7616199999998,0.25499789236910697
272,2192.77,0.261123269492962
273,2202.9,0.25401265173544013
274,2213.06,0.23816934103293055
275,2223.28,0.23328324444044554
276,2233.54,0.2557857572546436
277,2243.85,0.24484208182719538
278,2254.21,0.230096018158101
279,2264.61,0.2356089638956896
280,2275.06,0.24526182139163202
281,2285.57,0.257673092997599
282,2296.12,0.241294174010249
283,2306.71,0.24660436442958206
284,2317.36,0.23307276895893964
285,2322.7,0.18147642475112458
286,2333.42,0.21193774574217747
287,2344.2,0.20169658084325492
288,2355.02,0.2280961253510154
289,2365.89,0.2026007816171297
290,2376.81,0.21334614964159776
291,2382.29,0.1929120383571733
292,2393.28,0.2093138228433367
293,2404.33,0.2015087214395246
294,2415.4300000000003,0.2097717317940663
295,2426.57,0.23291195155529104
296,2437.7799999999997,0.22525998777821113
297,2443.39,0.24260100706550652
298,2454.67,0.24175425975012188
299,2466.0,0.23761452419309104
300,2477.39,0.22717910274608474
301,2483.1,0.22626694555008772
302,2494.56,0.21682814056477676
303,2506.07,0.2520877473378195
304,2511.85,0.20983580660351786
305,2511.88643,0.2098548946753177
306,2517.64,0.21286769150459114
307,2523.45,0.20576456270250346
308,2535.0899999999997,0.21569040327801112
309,2546.79,0.21494543839256777
310,2552.66,0.24351070412952908
311,2564.45,0.23068533105265926
312,2576.28,0.24974595433515542
313,2582.2200000000003,0.24420371370100727
314,2594.14,0.23891952879207695
315,2606.12,0.22843343842219566
316,2612.12,0.2238859923270965
317,2624.18,0.24237949467594722
318,2636.29,0.26850789247400536
319,2642.37,0.30631303909763824
320,2654.57,0.33238412870427003
321,2666.8199999999997,0.27938641376010925
322,2672.9700000000003,0.3002164540126326
323,2685.3100000000004,0.30756113087704534
324,2697.7000000000003,0.28149420319066554
325,2703.92,0.30109643707207945
326,2716.4,0.27243220119427325
327,2722.66,0.2670040314350531
328,2735.23,0.28840798736582035
329,2747.85,0.23152753874579515
330,2754.19,0.24708246170530707
331,2766.9,0.26688610489385534
332,2773.28,0.2828633242127333
333,2786.0800000000004,0.24896565920985506
334,2792.5,0.18945567488809897
335,2805.39,0.20606320169379427
336,2811.86,0.2780710128212457
337,2824.84,0.31669893143551453
338,2837.8799999999997,0.30774164458883235
339,2844.4199999999996,0.2900400493451743
340,2857.5499999999997,0.25824645430706566
341,2864.14,0.3252623545126151
342,2877.36,0.34178745128307997
343,2883.9900000000002,0.3311582478479954
344,2884.0315,0.33119338281614175
345,2897.2999999999997,0.34242801935613504
346,2910.67,0.3963477944523725
347,2930.85,0.37316865686389616
348,2951.17,0.3653624190146474
349,2971.62,0.3824238809232529
350,2992.22,0.38669444255245944
351,3012.96,0.39828830392089354
352,3026.87,0.4034094780112946
353,3047.85,0.4107550389326904
354,3068.98,0.4221043995746872
355,3090.25,0.4288120599559116
356,3111.67,0.44372212005773704
357,3133.24,0.43448297988016343
358,3147.7,0.4370639529461016
359,3169.52,0.45227131230286305
360,3191.4900000000002,0.41810797138022554
361,3213.62,0.44888953015956246
362,3228.45,0.4109084025363165
363,3250.83,0.47708216084998845
364,3273.36,0.5169655188842613
365,3288.47,0.5129313907394707
366,3311.2599999999998,0.5104464482894521
367,3311.31121,0.5104725264173637
368,3318.9,0.5143367779809184
369,3326.5499999999997,0.5099672055882744
370,3334.22,0.5544040324834928
371,3341.9,0.5177748590226423
372,3349.61,0.5654876844935854
373,3357.33,0.5454153096084596
374,3365.07,0.4677941340111964
375,3372.82,0.4585243580578643
376,3380.6000000000004,0.5452953810363257
377,3388.39,0.5507251036587182
378,3396.2,0.5202887255689732
379,3404.03,0.5682469467670905
380,3411.88,0.5138724672530701
381,3419.7499999999995,0.5249937870269122
382,3427.6299999999997,0.5388364064446856
383,3435.5299999999997,0.559442025150321
384,3443.4500000000003,0.48315454314381906
385,3451.39,0.5563738604251794
386,3459.34,0.544096777350471
387,3467.3199999999997,0.5382529932075562
388,3475.31,0.5537210087085723
389,3483.3199999999997,0.547766823497451
390,3491.35,0.5532274375741919
391,3499.3999999999996,0.49571605093879534
392,3507.47,0.5748027635912611
393,3515.55,0.524612475887658
394,3523.6600000000003,0.5638156871158485
395,3531.7799999999997,0.5564855979879701
396,3539.9199999999996,0.5939606081479541
397,3548.08,0.6195319175958006
398,3556.2599999999998,0.5839595263315094
399,3564.46,0.5993616343550806
400,3572.68,0.5176360416665141
401,3580.91,0.5386797486218787
402,3589.17,0.449446454509037
403,3597.44,0.5661825600401263
404,3605.7400000000002,0.5771184645030094
405,3611.02,0.44930897649867474
406,3613.7200000000003,0.6081627803600945
407,3616.42,0.5509424842215143
408,3619.12,0.572558688082934
409,3621.82,0.5715957919443538
410,3624.52,0.5237759958057736
411,3627.22,0.44800549966719333
412,3629.9199999999996,0.4646545035286131
413,3632.62,0.43549010739003285
414,3635.32,0.41770831125145264
415,3638.02,0.4502134151128724
416,3640.7200000000003,0.6872077189742921
417,3643.42,0.6850475228357119
418,3646.12,0.6212906266971316
419,3648.8199999999997,0.5970611305585515
420,3651.52,0.6078287344199712
421,3654.2200000000003,0.561974938281391
422,3656.92,0.5573229421428108
423,3659.62,0.5496696460042305
424,3662.32,0.45975004986565027
425,3665.02,0.51195425372707
426,3667.72,0.5358517575884898
427,3670.4199999999996,0.6453971614499096
428,3673.1200000000003,0.6994050653113294
429,3675.82,0.45889176917274915
430,3678.52,0.6053028730341689
431,3681.2200000000003,0.7082225768955887
432,3683.92,0.6505817807570085
433,3686.62,0.5590684846184282
434,3689.3199999999997,0.547515988479848
435,3692.0199999999995,0.5337629923412677
436,3694.7200000000003,0.6704337962026875
437,3697.42,0.7574486000641072
438,3700.12,0.6619713039255269
439,3702.82,0.6035054077869467
440,3705.52,0.6972187116483666
441,3708.21,0.5441523158658551
442,3710.91,0.5993661197272749
443,3713.61,0.6728388235886946
444,3716.31,0.6234010274501145
445,3719.0099999999998,0.6539727313115341
446,3721.7099999999996,0.686752935172954
447,3724.4100000000003,0.8079401390343738
448,3727.11,1.0602006428957935
449,3729.81,1.2732085467572134
450,3732.51,1.2210274506186332
451,3735.21,1.0415923544800527
452,3737.91,0.7927461583414726
453,3740.6099999999997,0.6515038622028922
454,3743.3100000000004,0.5635094660643121
455,3746.01,0.5398219699257318
456,3748.71,0.5055124737871517
457,3751.41,0.6118058776485714
458,3754.11,0.5906019815099911
459,3756.81,0.6227754853714109
460,3759.5099999999998,0.6690900892328308
461,3762.2100000000005,0.5502003930942505
462,3764.9100000000003,0.7272966969556701
463,3767.61,0.65011050081709
464,3770.31,0.5710071046785098
465,3773.0099999999998,0.5251533085399296
466,3775.71,0.6110844124013493
467,3778.41,0.7429014162627691
468,3781.1099999999997,0.7671546201241888
469,3783.8100000000004,0.7443732239856086
470,3786.51,0.7351101278470284
471,3789.21,0.6233235317084481
472,3791.91,0.7352473355698679
473,3794.61,0.7116892394312877
474,3797.31,0.6297463432927075
475,3800.0099999999998,0.5800741471541271
476,3801.8939600000003,0.5863115925270027
477,3802.71,0.5890133570698438
478,3805.4100000000003,0.6361126809628816
479,3808.11,0.7438781048559194
480,3810.81,0.7467580287489572
481,3813.5099999999998,0.794722952641995
482,3816.21,0.7044392765350328
483,3818.91,0.7984197004280706
484,3821.6099999999997,0.7833155243211084
485,3824.2999999999997,0.7215770484960238
486,3827.0,0.6580304723890615
487,3829.7,0.6917248962820994
488,3832.4,0.6233646201751373
489,3835.1000000000004,0.561775744068175
490,3837.8,0.4664841679612128
491,3840.5,0.5172645918542506
492,3843.2,0.5832703157472884
493,3845.9,0.6696141396403261
494,3848.6,0.759937963533364
495,3851.2999999999997,0.7825815874264018
496,3854.0,0.7700339113194395
497,3856.7000000000003,0.8256682352124773
498,3859.4,0.7687150591055152
499,3862.1,0.804512782998553
500,3864.7999999999997,0.8060254068915907
501,3867.5,0.7883892307846285
502,3870.2,0.8638519546776663
503,3872.9,0.8665214785707042
504,3875.6000000000004,0.8422513024637419
505,3878.3,0.8238061263567796
506,3881.0,0.7006935502498175
507,3883.7,0.6564252741428553
508,3886.3999999999996,0.6148105980358931
509,3889.1,0.6120275219289308
510,3891.8,0.6044147458219686
511,3894.5,0.6637865697150065
512,3897.2000000000003,0.7114925936080443
513,3899.9,0.784067217501082
514,3902.6,0.8254225413941199
515,3905.2999999999997,0.8170089652871577
516,3908.0,0.8832651891801955
517,3910.7,0.8736380130732332
518,3913.4,0.8183837369662711
519,3916.1000000000004,0.8214576608593088
520,3918.8,0.8670036847523467
521,3921.5,0.8525226086453844
522,3924.2,0.9100417325384222
523,3926.8999999999996,0.8083675564314601
524,3929.6,0.7578943803244979
525,3932.3,0.6416827042175356
526,3935.0,0.5692779281105734
527,3937.7000000000003,0.6321849520036112
528,3940.39,0.5889714761785266
529,3943.09,0.5860023000715644
530,3945.79,0.7738345239646022
531,3948.4900000000002,0.71602354785764
532,3951.19,0.8572980717506778
533,3953.89,0.8351314956437156
534,3956.5899999999997,0.8416031195367534
535,3959.29,0.7843909434297912
536,3961.9900000000002,0.7968411673228291
537,3964.69,0.7043245912158668
538,3967.39,0.6095184151089046
539,3970.09,0.5693517390019424
540,3972.79,0.6129239628949802
541,3975.49,0.5403409867880179
542,3978.1899999999996,0.6925934106810557
543,3980.8900000000003,0.7362384345740935
544,3983.59,0.8415205584671314
545,3986.29,0.9265454823601691
546,3988.9900000000002,0.902194706253207
547,3991.69,0.8823742301462447
548,3994.39,0.9782396540392826
549,3997.0899999999997,1.0042884779323205
550,3999.7899999999995,0.9495200018253581
551,4002.4900000000002,0.9506524257183959
552,4005.19,1.0181222496114337
553,4007.89,1.1280641735044714
554,4010.59,1.0847020973975094
555,4013.29,0.9973305212905471
556,4015.99,1.0657709451835848
557,4018.6899999999996,1.0958658690766228
558,4021.3900000000003,1.1167367929696606
559,4024.09,1.1707777168626983
560,4026.79,1.151280640755736
561,4029.4900000000002,1.158075564648774
562,4032.19,1.1122064885418117
563,4034.89,1.0883404124348495
564,4037.5899999999997,1.0734543363278872
565,4040.2900000000004,1.102983260220925
566,4042.9900000000002,1.0645551841139629
567,4045.69,1.0775801080070007
568,4048.39,1.0632610319000384
569,4051.09,1.0726449557930762
570,4053.79,1.015610879686114
571,4056.49,1.0327608035791518
572,4059.18,1.1080837277540672
573,4061.88,1.0693326516471051
574,4064.58,1.007039575540143
575,4067.2799999999997,1.0146444994331805
576,4069.9800000000005,1.0067154233262186
