,lambda (Angstroms),Total Flux (erg/s/cm^2/Angstrom)
0,100.08,43.27216329115327
1,101.94,43.151782261334134
2,104.08000000000001,43.013279356056586
3,104.712855,42.97232035788964
4,106.00999999999999,42.531330149045026
5,107.98,41.86158951763689
6,109.99,41.17825009190721
7,114.12,39.77417455548927
8,118.13000000000001,38.41089540323686
9,120.22644299999999,37.69816797175671
10,120.88,37.51188525061852
11,125.13,36.3005118403211
12,126.87,35.80456131591344
13,128.04,35.47107734271903
14,131.03,34.61884052287346
15,131.93,34.36231439729287
16,134.07999999999998,33.74950196997874
17,136.89,32.94857039522381
18,138.038426,32.621235642668985
19,140.07,32.20733476012363
20,143.01,31.60835674559611
21,147.01000000000002,30.79342104370373
22,151.13,29.954036810182213
23,155.01,29.163548831086178
24,158.489319,28.454693268842234
25,158.98,28.379115336986718
26,161.94,27.923196603807927
27,166.08999999999997,27.283986308387835
28,169.96,26.68790351516269
29,173.12,26.201179636511075
30,177.16,25.578912484461032
31,180.03000000000003,25.13685645322801
32,181.970086,24.838031818450542
33,182.11999999999998,24.82041580618025
34,185.92999999999998,24.37271257339243
35,191.14,23.76049903319484
36,193.8,23.447929656587682
37,197.86,22.97084988316775
38,202.0,22.48436976132576
39,204.81,22.15417451968334
40,208.929613,21.670089656426967
41,210.07000000000002,21.569343715548683
42,215.95,21.049885264548756
43,219.97,20.694745090696458
44,223.03,20.42441426925068
45,227.17000000000002,20.058673369347567
46,229.8,19.826345616467208
47,234.08,19.448264626118146
48,239.88329199999998,18.93560522791248
49,240.08,18.922214510095444
50,246.24,18.502853712450918
51,251.97,18.11278076946373
52,257.25,17.753313968096993
53,260.23,17.550462217890388
54,263.84999999999997,17.30403187106358
55,268.75,16.970456459796345
56,273.75,16.63007229331345
57,275.42287,16.5161889851392
58,278.84,16.337660053845763
59,284.02,16.06702949675135
60,289.96999999999997,15.756161469464521
61,296.03999999999996,15.439035897633419
62,300.85,15.187734097417172
63,307.86,14.821498472522606
64,316.227766,14.38432726375047
65,317.95,14.317124001992164
66,328.35999999999996,13.910910563516838
67,338.34000000000003,13.521475008690537
68,347.82,13.151550482167758
69,356.73999999999995,12.803479645380925
70,363.078055,12.55616211750656
71,365.89000000000004,12.473991519764363
72,375.28,12.199589273557974
73,384.90999999999997,11.918163001905095
74,394.78,11.629751118505725
75,404.90999999999997,11.333733447130996
76,414.34,11.058160620666857
77,416.86938299999997,10.984242642724599
78,422.03999999999996,10.868850746444702
79,429.89,10.693667854673969
80,440.92,10.447527598060695
81,451.19,10.21833669433809
82,459.57,10.031320452543602
83,470.28000000000003,9.792311384684295
84,478.630092,9.605973719179401
85,480.13,9.580231840650342
86,490.18,9.407727522431918
87,500.44,9.231648727463558
88,506.24,9.132086177874816
89,512.1,9.03156849362895
90,520.42,8.888769989240963
91,530.1,8.722623510791477
92,539.95,8.553541283796804
93,549.5408739999999,8.388950334310541
94,549.99,8.383070977394693
95,560.22,8.249170815585577
96,570.63,8.112912171042575
97,579.9,7.991527237047511
98,589.33,7.868107067833437
99,600.28,7.7247261049887825
100,610.0400000000001,7.596913841829251
101,619.95,7.467291183358153
102,630.02,7.3354670748680455
103,630.957344,7.323195932819589
104,640.26,7.226656790595859
105,650.66,7.1187657144901255
106,658.2,7.04053982740097
107,664.29,6.977376902136653
108,675.08,6.865389858233207
109,684.4699999999999,6.767903206988225
110,695.5899999999999,6.6526976309867125
111,705.2700000000001,6.552173204776761
112,716.73,6.4334053106439075
113,724.43596,6.353463566304414
114,726.6999999999999,6.3360326986299675
115,735.1199999999999,6.271214906401469
116,745.34,6.192633698261889
117,755.71,6.112842514296386
118,764.46,6.045476621450854
119,775.0999999999999,5.963707187798692
120,785.88,5.880780043308997
121,794.98,5.810783228869646
122,804.1800000000001,5.740022180546345
123,815.37,5.653904090532461
124,824.81,5.581429186487684
125,831.763771,5.527472493417014
126,834.36,5.512378966621508
127,845.97,5.4462037682816895
128,855.77,5.389855665001739
129,865.6800000000001,5.333045838751298
130,875.6999999999999,5.275615932530372
131,885.8399999999999,5.217592021432545
132,894.04,5.170617114177894
133,904.3900000000001,5.110968685045497
134,914.86,5.053510424036204
135,925.46,5.040765925243605
136,934.02,5.059274567358261
137,944.8299999999999,5.1179808355310925
138,954.992586,5.175044700237045
139,955.78,5.179564061552193
140,964.62,5.138343275847702
141,975.79,4.748728437485806
142,984.82,4.910045093581784
143,993.93,4.921472688856908
144,1005.4399999999999,5.091684459506378
145,1014.7399999999999,5.048393026581969
146,1024.13,4.680790753984099
147,1035.99,4.715085014792328
148,1045.58,5.109703765142322
149,1055.25,5.049678024671458
150,1065.02,4.767692995674527
151,1074.87,4.872138075856741
152,1084.82,4.610589367512885
153,1094.85,4.828388968348174
154,1096.4782,4.814271688747175
155,1104.98,4.749239992006608
156,1115.21,4.648947962803623
157,1125.53,4.514538912229351
158,1135.94,4.734889940283789
159,1143.81,4.600837138150116
160,1154.4,4.63943582346198
161,1165.08,4.621408387402559
162,1175.86,4.229500894263929
163,1184.01,4.517281692308471
164,1194.97,4.101555556427266
165,1206.02,3.8528164991747746
166,1214.38,3.765607047352979
167,1225.6200000000001,4.045552011649992
168,1234.12,4.427073459917308
169,1245.53,4.493778617179666
170,1254.17,4.371256365536088
171,1258.92541,4.272244375189167
172,1265.77,4.138800313946673
173,1274.5500000000002,4.481111639892649
174,1286.34,4.532765063002337
175,1295.26,4.105643437653602
176,1304.24,4.065157276035705
177,1316.3,4.394298485934163
178,1325.4299999999998,4.296428483643362
179,1334.61,4.058923034461591
180,1343.8700000000001,4.356045470254272
181,1356.3,4.268780973159566
182,1365.7,4.049079957657535
183,1375.17,4.112895716508149
184,1384.7,4.101503139089601
185,1394.3,3.8966403360236983
186,1403.96,3.9128831966886333
187,1413.7,3.8964469423280192
188,1423.49,3.9316012410764363
189,1433.36,3.8826284247993046
190,1443.3000000000002,3.9436893828748163
191,1445.43977,3.9617670405175547
192,1446.6200000000001,3.97291033781417
193,1456.6499999999999,3.8991912919870613
194,1463.3799999999999,3.7561131136803363
195,1473.5200000000002,3.74339853893588
196,1483.73,3.7659942639712956
197,1494.02,3.778776331612277
198,1504.37,3.6699196562074325
199,1511.32,3.4895492200660168
200,1518.29,3.5761522695759904
201,1525.3,3.5110682903887485
202,1535.8700000000001,3.3159488571492126
203,1546.5200000000002,3.434041166515242
204,1553.66,3.3566851440620455
205,1564.43,3.3429596673364257
206,1575.27,3.396352290390676
207,1586.19,3.4533330560504933
208,1593.51,3.4600144044598213
209,1604.56,3.4241367268536838
210,1615.6799999999998,3.4170403490274164
211,1623.14,3.3180292969964853
212,1634.39,3.3901344759042633
213,1645.72,3.3885899974176086
214,1653.3200000000002,3.2611385449464185
215,1659.58691,3.3175117946444423
216,1664.78,3.367797600508025
217,1672.46,3.1796880460714774
218,1676.32,3.3548336111593584
219,1684.05,3.429547662488198
220,1695.73,3.3180375692826143
221,1703.55,3.2455639109891505
222,1715.36,3.144680792773574
223,1723.2800000000002,3.131946346010884
224,1735.22,3.2106912027853136
225,1743.23,3.1712010464003204
226,1755.32,3.2561917204709117
227,1763.42,3.112721854463615
228,1775.64,3.129646503524212
229,1783.84,3.14874984904769
230,1796.2,3.243221394251371
231,1804.5,3.2238789513056227
232,1817.0,3.0738203926523875
233,1825.39,3.1011902400843354
234,1833.82,3.0281587721285943
235,1846.5300000000002,2.899803557689984
236,1855.05,2.8813393801119394
237,1863.61,2.9137428871462037
238,1876.53,3.02453901692222
239,1885.1899999999998,2.8940487354872584
240,1893.89,2.833267138664606
241,1905.46072,2.88745518567245
242,1907.0200000000002,2.8954274787924748
243,1915.82,2.829282570392235
244,1924.67,2.806560747739722
245,1933.55,2.8384615765358436
246,1946.95,2.874684556926388
247,1955.9399999999998,2.7844767743675076
248,1964.97,2.9106948604068066
249,1974.04,2.9426178150442874
250,1983.1499999999999,2.8507866382799483
251,1996.9,2.797356218904574
252,2006.1100000000001,2.8373432136356866
253,2015.37,2.7677582941145262
254,2024.68,2.831976460341091
255,2034.02,2.743203278016291
256,2043.4099999999999,2.7988771814392175
257,2052.84,2.7262119534603246
258,2067.07,2.709439957263119
259,2071.84,2.8072995375961716
260,2076.61,2.7352931179292232
261,2086.2,2.784723364343053
262,2095.83,2.6965944793550642
263,2105.5,2.690526462965255
264,2115.22,2.697885532323173
265,2124.98,2.7082794702792707
266,2134.79,2.591243493983095
267,2144.65,2.6258706034346444
268,2154.55,2.670664581484375
269,2164.4900000000002,2.6156934281322863
270,2174.48,2.5933623605279235
271,2184.52,2.560685378671287
272,2187.7616199999998,2.5773517069807226
273,2194.6,2.6151164948576833
274,2204.73,2.569449192295896
275,2214.91,2.4921770313799048
276,2225.13,2.44502098378055
277,2235.4,2.5292570778269905
278,2245.72,2.4651223135192275
279,2256.09,2.3943546908572593
280,2266.5,2.421674181511929
281,2276.96,2.4501788138123937
282,2287.4700000000003,2.4825655877586534
283,2292.75,2.4079275455546822
284,2303.33,2.3988715178050564
285,2313.96,2.3239266317012266
286,2324.64,2.0507383872431926
287,2335.37,2.216685684430954
288,2346.15,2.179067623264511
289,2356.98,2.260386203743864
290,2362.41,2.1593285864772795
291,2373.3199999999997,2.1824799935899057
292,2384.27,2.100154214019168
293,2395.2799999999997,2.161817004423386
294,2406.33,2.1104106081442398
295,2417.44,2.1328538818400493
296,2423.0099999999998,2.1976261611816925
297,2434.2,2.1474997615107747
298,2445.4300000000003,2.205160575156493
299,2456.72,2.182167558777167
300,2462.38,2.1663519930812427
301,2473.75,2.118138903335189
302,2485.17,2.1339770552349315
303,2496.64,2.06785264878047
304,2502.4,2.181577866376137
305,2511.88643,2.062977385219415
306,2513.95,2.037597724560455
307,2519.74,2.066233412891543
308,2525.5499999999997,2.0183394220804245
309,2537.2099999999996,2.032644382173773
310,2543.06,2.00905973307824
311,2554.79,2.0835448161738643
312,2566.59,2.042241722271764
313,2572.5,2.1048228357496104
314,2584.38,2.0795475252786826
315,2596.31,2.054571316952237
316,2602.29,2.013057553432359
317,2614.3,1.9931434285370861
318,2626.37,2.0372700662151924
319,2632.4199999999996,2.07935772569759
320,2644.57,2.175237846806868
321,2656.78,2.205042630489525
322,2662.91,2.0617925734030953
323,2675.2,2.116266940516925
324,2687.55,2.1034745702041335
325,2693.7400000000002,2.0462810756910828
326,2706.17,2.0795290888094637
327,2712.4100000000003,2.009760996440895
328,2724.93,1.9972787534193452
329,2737.51,2.0474924729711734
330,2743.82,1.8802483036048812
331,2756.49,1.897654567016779
332,2762.8399999999997,1.9364626393660724
333,2775.59,1.9798065862091418
334,2781.99,1.9116445607029182
335,2794.83,1.7145392514060567
336,2807.73,1.7672853046825743
337,2814.2099999999996,1.9438053626075227
338,2827.2000000000003,2.0053314597441085
339,2833.71,1.9598796989557468
340,2846.79,1.924870039952402
341,2853.3599999999997,1.871804541737419
342,2866.5299999999997,1.989076126594143
343,2873.1299999999997,1.9942400096658495
344,2884.0315,1.9754962769890854
345,2886.39,1.9718526511265724
346,2893.0499999999997,1.9616749382703134
347,2913.1,2.0647554363531966
348,2933.2999999999997,2.0045930129753535
349,2946.83,1.9785964972178178
350,2967.2599999999998,2.0006155942668604
351,2987.8300000000004,1.993187964619225
352,3008.54,2.0083686082749117
353,3029.3900000000003,1.99576252523392
354,3050.39,1.985602520732202
355,3071.54,1.9855635947697572
356,3092.83,1.9880719421106343
357,3107.1,1.9811850138135143
358,3128.64,1.9554144920531806
359,3150.33,1.9500180488321206
360,3172.17,1.9445306841503334
361,3186.81,1.8706595495834213
362,3208.9,1.9115663158004232
363,3231.1400000000003,1.8351121605566987
364,3253.54,1.9077098890881996
365,3268.56,1.947217353487447
366,3291.21,1.9256562129177364
367,3306.4,1.9182633663281603
368,3311.31121,1.9116840801895667
369,3321.67,1.8990744013429746
370,3329.32,1.9438844151860204
371,3337.0,1.911783515357863
372,3344.69,1.8804196443059706
373,3352.3999999999996,1.8598318308066095
374,3360.13,1.9007360748597786
375,3367.87,1.8874693476892135
376,3375.64,1.7878777068474447
377,3383.4199999999996,1.8018070947819411
378,3391.22,1.9025555402689684
379,3399.04,1.9264850433085268
380,3406.8700000000003,1.8707195751243502
381,3414.7300000000005,1.88083919326897
382,3422.6,1.9396758401898557
383,3430.49,1.9068815446632716
384,3438.3999999999996,1.9174793066892186
385,3446.32,1.764958097491431
386,3454.27,1.8769369746224396
387,3462.23,1.7880478805297138
388,3470.21,1.8477028439895187
389,3478.21,1.7558938650018545
390,3486.23,1.8164689435667212
391,3494.27,1.8010770796841185
392,3502.3199999999997,1.8567872445777813
393,3510.39,1.8305564670239751
394,3518.4900000000002,1.8098177757989649
395,3526.6,1.7918811133502204
396,3534.73,1.8581015084540065
397,3542.88,1.9147429611103235
398,3551.04,1.908949442542906
399,3559.23,1.8812770103042848
400,3567.43,1.854123606841929
401,3575.66,1.7496812897083696
402,3583.8999999999996,1.7227900013510753
403,3592.16,1.7198187705463117
404,3600.4399999999996,1.8634395972940792
405,3608.74,1.7746404815943775
406,3617.0600000000004,1.7892854234472066
407,3625.3999999999996,1.8515754228525672
408,3633.7599999999998,1.8458264798104578
409,3642.13,1.8920385655446141
410,3650.53,1.8131887376075664
411,3658.9500000000003,1.93418896722305
412,3664.5899999999997,1.8225671970367465
413,3667.33,1.9270130817334716
414,3670.07,2.0198279664301966
415,3672.8100000000004,1.9360838511269214
416,3675.55,1.8334927358236466
417,3678.29,1.8540206205203718
418,3681.03,1.9188265052170965
419,3683.77,1.7490253899138217
420,3686.51,1.7975622746105464
421,3689.25,1.8471421593072717
422,3691.99,1.8058650440039965
423,3694.73,1.8133629287007216
424,3697.47,1.8887838133974466
425,3700.21,1.9427536980941715
426,3702.94,1.9077395540146311
427,3705.6800000000003,1.8562014387113561
428,3708.42,1.8159933234080814
429,3711.16,1.820254208104806
430,3713.9,1.870438092801531
431,3716.64,2.001493977498256
432,3719.38,2.104815862194981
433,3722.12,2.200619746891706
434,3724.8599999999997,2.5623606315884313
435,3727.6,2.9537835162851565
436,3730.3399999999997,3.112738400981881
437,3733.08,2.908343285678606
438,3735.82,2.5051961703753314
439,3738.5600000000004,2.169398055072056
440,3741.3,1.983794939768781
441,3744.04,1.935137824465506
442,3746.78,1.901128709162231
443,3749.52,1.8718395938589563
444,3752.26,1.865648478555681
445,3755.0,1.893034363252406
446,3757.74,1.9508992479491312
447,3760.48,1.9885731326458562
448,3763.22,2.027866017342581
449,3765.96,1.9903739020393059
450,3768.7,1.960288786736031
451,3771.43,1.9561096426564906
452,3774.17,1.8936535273532153
453,3776.91,1.9193124120499405
454,3779.65,2.0852082967466656
455,3782.39,2.1032131814433908
456,3785.13,2.1644250661401156
457,3787.87,2.1783689508368402
458,3790.6099999999997,2.1447168355335657
459,3793.35,2.0519747202302905
460,3796.0899999999997,1.9357776049270154
461,3798.8300000000004,1.8986964896237404
462,3801.57,1.9544483743204655
463,3801.8939600000003,1.955539301899426
464,3804.3100000000004,1.9638834596679775
465,3807.05,1.9772134620544581
466,3809.79,2.161341464440939
467,3812.53,2.2096764668274194
468,3815.27,2.2489304692139003
469,3818.01,2.2330444716003806
470,3820.75,2.093627473986861
471,3823.49,2.100840476373342
472,3826.23,2.0635294787598224
473,3828.97,1.931684481146303
474,3831.71,1.8221974835327834
475,3834.45,1.8131154859192642
476,3837.1899999999996,1.7850494883057446
477,3839.93,1.7775854906922253
478,3842.66,1.8743206025590473
479,3845.4,1.9766436049455276
480,3848.14,2.1176746073320087
481,3850.8799999999997,2.219448609718489
482,3853.62,2.2275936121049695
483,3856.3599999999997,2.28714861449145
484,3859.1,2.4032436168779308
485,3861.84,2.4486976192644114
486,3864.5800000000004,2.485345621650892
487,3867.32,2.7197036240373724
488,3870.06,2.7587936264238526
489,3872.8,2.7094396288103333
490,3875.54,2.576194631196814
491,3878.28,2.4571606335832947
492,3881.02,2.304246635969775
493,3883.7599999999998,2.183155638356256
494,3886.5,2.1286436407427365
495,3889.24,2.028785643129217
496,3891.98,2.0496606455156976
497,3894.72,2.058738647902178
498,3897.46,2.1027386502886585
499,3900.2,2.1676976526751393
500,3902.9399999999996,2.19161665506162
501,3905.6800000000003,2.2487576574481003
502,3908.42,2.3466356598345812
503,3911.15,2.328483771701403
504,3913.89,2.3668057740878834
505,3916.6299999999997,2.3890787764743644
506,3919.37,2.3334697788608447
507,3922.1099999999997,2.2760227812473253
508,3924.85,2.272070783633806
509,3927.59,2.1256577860202865
510,3930.3300000000004,2.087084788406767
511,3933.07,1.9481617907932476
512,3935.81,1.814917793179728
513,3938.55,1.8378497955662088
514,3941.29,1.9502947979526892
515,3944.03,2.0733578003391697
516,3946.77,2.13867380272565
517,3949.5099999999998,2.195319805112131
518,3952.25,2.2777538074986117
519,3954.99,2.339695809885092
520,3957.73,2.3178568122715726
521,3960.47,2.292698814658053
522,3963.2099999999996,2.232288817044534
523,3965.95,2.1068908194310145
524,3968.69,2.005056821817495
525,3971.4300000000003,1.8913998242039756
526,3974.17,1.9141398265904563
527,3976.9100000000003,2.0587098289769368
528,3979.65,2.1477818313634174
529,3982.3799999999997,2.246603943230239
530,3985.12,2.35902194561672
531,3987.8599999999997,2.4190979480032007
532,3990.6000000000004,2.4743739503896807
533,3993.34,2.562375952776162
534,3996.0800000000004,2.599353955162642
535,3998.82,2.594001957549123
536,4001.56,2.6403069599356033
537,4004.3,2.648972962322084
538,4007.04,2.6251309647085646
539,4009.78,2.639887967095045
540,4012.52,2.7008699694815257
541,4015.2599999999998,2.7239659718680063
542,4018.0,2.711453974254487
543,4020.74,2.8057659766409673
544,4023.48,2.769442979027448
545,4026.22,2.7831849814139287
546,4028.9599999999996,2.7379719838004095
547,4031.7,2.7011279861868895
548,4034.44,2.6475759885733705
549,4037.1800000000003,2.6719339909598507
550,4039.92,2.7290479933463314
551,4042.6600000000003,2.717742995732812
552,4045.4,2.6952729981192927
553,4048.14,2.6614460005057734
554,4050.88,2.6642690028922535
555,4053.61,2.694812114759076
556,4056.3500000000004,2.6528641171455565
557,4059.09,2.626060119532037
558,4061.8300000000004,2.5969511219185173
559,4064.57,2.554894124304998
560,4067.31,2.603092126691479
561,4070.05,2.6015531290779594
562,4072.79,2.6475011314644394
563,4075.53,2.5757891338509205
564,4078.27,2.5629211362374007
565,4081.0099999999998,2.5515071386238817
566,4083.75,2.5357031410103623
567,4086.49,2.5077191433968427
568,4089.23,2.496359145783323
569,4091.97,2.497811148169804
570,4094.7099999999996,2.4420101505562846
571,4097.45,2.3413561529427653
572,4100.1900000000005,2.2441591553292453
573,4102.93,2.264731157715726
574,4105.67,2.2465691601022066
575,4108.41,2.274109162488687
576,4111.15,2.275808164875168
577,4113.89,2.363042167261648
578,4116.63,2.397907169648129
579,4119.37,2.3985911720346094
580,4122.11,2.47279517442109
581,4124.84,2.4607612862879122
582,4127.58,2.4287712886743926
583,4130.32,2.427864291060873
584,4133.06,2.4381492934473536
585,4135.8,2.4355412958338345
586,4138.54,2.506453298220315
587,4141.28,2.5720153006067954
588,4144.0199999999995,2.538051302993276
589,4146.76,2.5456203053797566
590,4149.5,2.511464307766237
591,4152.24,2.483013310152718
592,4154.98,2.4214793125391987
593,4157.719999999999,2.4846553149256794
594,4160.46,2.5093153173121596
595,4163.2,2.5544673196986403
596,4165.9400000000005,2.5522153220851207
597,4168.68,2.517730324471601
598,4171.42,2.554570326858082
599,4174.16,2.5357213292445624
600,4176.9,2.5275443316310433
601,4179.64,2.5145393340175235
602,4182.38,2.560651336404004
603,4185.12,2.577739338790485
604,4187.86,2.5528283411769657
605,4190.599999999999,2.616937343563446
606,4193.33,2.6091554554302676
607,4196.07,2.5925294578167484
608,4198.81,2.613211460203229
