,lambda (Angstroms),Total Flux (erg/s/cm^2/Angstrom)
0,100.09,0.005799602210899247
1,101.96000000000001,0.00697430431969355
2,104.09,0.008312324814337859
3,104.712855,0.00870359569758154
4,106.03,0.008013292657126397
5,108.0,0.006980857896579081
6,110.0,0.005932784332761501
7,113.86999999999999,0.0039047060850974894
8,117.87,0.0018085593153623217
9,120.22644299999999,0.0005760525393865432
10,120.9,0.0005604484458106597
11,125.14000000000001,0.0004589935078068161
12,126.88,0.0004174450942344846
13,128.06,0.000389289094926811
14,131.04,0.0003180449282684497
15,131.95,0.00029756162596337955
16,134.09,0.00024648816720200544
17,136.9,0.0001815430012489865
18,138.038426,0.00015454958897952284
19,140.09,0.00015390184694379539
20,143.02,0.0001812320362833982
21,147.03,0.00025329498142053375
22,151.15,0.00026293890909260317
23,155.03,0.00027559140214299864
24,158.489319,0.00028856123955543734
25,159.0,0.0002902412487341958
26,161.95999999999998,0.00029960381357493085
27,166.11999999999998,0.00031670564794569354
28,169.98,0.0003318510899339493
29,173.14,0.0003448178496963556
30,177.18,0.0003609422071141155
31,180.06,0.000374631053986182
32,181.970086,0.00038364745625168984
33,182.14000000000001,0.00038474509033641964
34,185.96,0.0004109102479142486
35,191.17,0.00044534536597196826
36,193.82,0.0004697650323544937
37,197.88,0.0004981262291518722
38,202.03,0.0005304036406565816
39,204.83999999999997,0.0005550001665188067
40,208.929613,0.0005691547127741873
41,210.09,0.0005756637994316726
42,215.98,0.0006602993614271271
43,219.99,0.000706531520272929
44,223.04999999999998,0.0007332718594420446
45,227.20000000000002,0.0007848654717138845
46,229.83,0.0011353367325030264
47,234.1,0.0018602874619971844
48,239.88329199999998,0.0022921045892906116
49,240.11,0.0023079686979742215
50,246.26999999999998,0.0022226324010721187
51,252.01000000000002,0.002377691897140613
52,257.28000000000003,0.002049127113914301
53,260.26,0.0023450778209324397
54,263.88,0.002468017652947762
55,268.79,0.0024845165494105335
56,273.78,0.0024905899614979534
57,275.42287,0.0024941708876730796
58,278.87,0.0025167843502854823
59,284.06,0.002550797363444414
60,290.01,0.0024710513843106273
61,296.08,0.0025501268274464115
62,300.89,0.0025555333367517034
63,307.90000000000003,0.0026214859209991244
64,316.227766,0.002701445753767898
65,317.99,0.0027114605255081007
66,327.65000000000003,0.0027129913723302253
67,338.38,0.0026893345023924816
68,347.85999999999996,0.002662111563248976
69,356.79,0.0026355798336549353
70,363.078055,0.0026292277206141842
71,365.94,0.0026347786884106036
72,375.33,0.0026238681594003637
73,384.95,0.002540956025313196
74,394.83,0.0026037760767912404
75,404.96,0.0026056033836204494
76,414.39,0.0025844285754663965
77,416.86938299999997,0.002573593113030942
78,422.09000000000003,0.002548077614534794
79,429.94,0.0025218946281606765
80,440.96999999999997,0.0025038306791534772
81,451.23999999999995,0.0024596261237315427
82,459.63,0.0024252250682310532
83,470.34,0.002393329863891334
84,478.630092,0.0023789426486315202
85,480.19,0.0023734385815517693
86,490.24,0.00229552785038316
87,500.51,0.002270834338034741
88,506.3,0.002222826824257005
89,512.16,0.002273231107376602
90,520.49,0.0022316159381592375
91,530.16,0.002166386738119392
92,540.02,0.0020803552725151644
93,549.5408739999999,0.0020378171081713043
94,550.06,0.0020358538937754996
95,560.2900000000001,0.0020367270336733266
96,569.39,0.002033698284217826
97,579.97,0.0019708385491365955
98,589.4,0.001955176546129412
99,600.36,0.001874470003928062
100,610.11,0.0016838460580828826
101,620.03,0.0018600238301050183
102,630.0999999999999,0.0018138569414218435
103,630.957344,0.0018122868321952853
104,640.3399999999999,0.0018023972454929192
105,650.7400000000001,0.0017768343961090554
106,658.28,0.001739424230305754
107,664.37,0.0017568159810030875
108,675.1600000000001,0.0017397141747673285
109,684.5600000000001,0.0016693280609011436
110,695.6800000000001,0.0017165035219445508
111,705.36,0.001634227362133416
112,716.8199999999999,0.0016906465531008118
113,724.43596,0.0016782526720029536
114,726.79,0.0016739690012327081
115,735.21,0.0016623949283999255
116,745.43,0.0016514768946290178
117,755.8,0.0016406689474466002
118,764.56,0.0015336842042143937
119,775.19,0.001629022273785358
120,784.17,0.0016019063908829364
121,795.0799999999999,0.0016111455554190812
122,804.28,0.0016102365328464444
123,815.4699999999999,0.0016001427923477698
124,824.92,0.0016154492474226157
125,831.763771,0.0015095785079765648
126,834.4699999999999,0.0014655289557170222
127,844.13,0.001578315789169483
128,855.87,0.0015560932658498035
129,865.78,0.0015631747150748436
130,875.8100000000001,0.001573517739870722
131,885.9499999999999,0.0015872148756065352
132,894.15,0.0015923988729471333
133,904.5,0.001557639765931913
134,914.9699999999999,0.001972708234487531
135,925.57,0.0075954257432448895
136,934.13,0.015374364467298002
137,944.9499999999999,0.02823048519793523
138,954.992586,0.039027728672359784
139,955.89,0.039992997739936816
140,964.74,0.043138333441327836
141,975.91,0.0075773311627445284
142,984.9399999999999,0.03374696611568926
143,994.05,0.03733017906932454
144,1005.5600000000001,0.05707865204367602
145,1014.8699999999999,0.055911637499037645
146,1024.26,0.024707765955089816
147,1036.12,0.03749743830746241
148,1045.71,0.07485355926524093
149,1055.38,0.07315585322370999
150,1065.15,0.05552384843304222
151,1075.0,0.06749702664306499
152,1084.95,0.05123333610395094
153,1094.99,0.07116073769061375
154,1096.4782,0.07071389480047087
155,1105.12,0.06811752108334142
156,1115.35,0.06445921978051292
157,1125.67,0.057062323832791494
158,1136.08,0.07535816324017716
159,1143.96,0.067638405442886
160,1154.54,0.07279725829880726
161,1165.22,0.07466207377151417
162,1176.01,0.049589069122685285
163,1184.1599999999999,0.07212352739071537
164,1195.1100000000001,0.04692406892874351
165,1206.17,0.03226878034523587
166,1214.53,0.023509321108515807
167,1225.77,0.048338083235222325
168,1234.27,0.07568049566200216
169,1245.69,0.08334780849892284
170,1254.32,0.07850691532752402
171,1258.92541,0.07357175273889495
172,1265.93,0.06606768065014389
173,1274.7,0.08828139146783183
174,1283.54,0.09286143364894489
175,1295.4199999999998,0.07014072504166244
176,1304.4,0.0688602699496257
177,1316.46,0.08971533484829353
178,1325.5900000000001,0.08528601267788201
179,1334.7800000000002,0.07344191167612059
180,1344.03,0.09075269184300924
181,1356.4699999999998,0.08727183414312763
182,1365.87,0.07655022723164151
183,1375.34,0.0810794416835805
184,1384.87,0.08183064730416958
185,1394.4699999999998,0.07062828428818377
186,1404.14,0.07327357263562305
187,1413.8700000000001,0.07446358215171243
188,1423.6699999999998,0.0772565430312269
189,1433.5400000000002,0.07637644527416648
190,1443.48,0.08126659888053116
191,1445.43977,0.08226920107707471
192,1446.8,0.08296507928799733
193,1453.48,0.08015629848774136
194,1463.5600000000002,0.07294179326819344
195,1473.7,0.07277336902948155
196,1483.92,0.07464015609855101
197,1494.2,0.07637824414845651
198,1504.5600000000002,0.07177528350614339
199,1511.5,0.06267156695617684
200,1518.48,0.06776515106010102
201,1525.49,0.06607312565444319
202,1536.06,0.05677164844505613
203,1546.71,0.06517107254345045
204,1553.85,0.06054592926293734
205,1564.62,0.0609687853230037
206,1575.47,0.06668809269085142
207,1586.39,0.07095860120300784
208,1593.71,0.07344622086500281
209,1604.76,0.07144918150230395
210,1615.88,0.0711226432839138
211,1623.3400000000001,0.06577550523452615
212,1634.59,0.0711233491412807
213,1645.9199999999998,0.07378540435581663
214,1653.52,0.06531902859504636
215,1659.58691,0.06998362864464337
216,1664.98,0.07413071160508777
217,1672.67,0.06209947964521453
218,1676.52,0.07888092926218307
219,1684.26,0.08354652327136136
220,1695.94,0.07568448764180095
221,1703.76,0.07278135120146172
222,1715.57,0.07096683109143533
223,1723.49,0.07096770658919917
224,1735.44,0.07762446319251709
225,1743.45,0.07516605943457369
226,1755.53,0.08279385155742561
227,1763.6399999999999,0.07195920973758531
228,1775.86,0.07691900857378152
229,1784.0600000000002,0.077275227498234
230,1796.43,0.08689322424158483
231,1804.72,0.08414153391033007
232,1813.05,0.07871708835431653
233,1825.6200000000001,0.07889847897387353
234,1834.0400000000002,0.07415085416215277
235,1846.75,0.06701723149505408
236,1855.28,0.0695274398152467
237,1863.84,0.07364106171687025
238,1876.76,0.07800297411978803
239,1885.4299999999998,0.07297167915332496
240,1894.1299999999999,0.07247133776829282
241,1902.8700000000001,0.0743279811585019
242,1905.46072,0.07412779346167474
243,1916.06,0.07330587938726672
244,1924.9099999999999,0.07147681751849595
245,1933.79,0.06779202103322089
246,1947.19,0.07763848899463013
247,1956.1799999999998,0.07398185558217261
248,1965.21,0.08223324601437601
249,1974.28,0.08280134029124034
250,1983.3999999999999,0.0792574668739308
251,1997.14,0.0769202525149579
252,2006.3600000000001,0.07691863370930069
253,2015.62,0.07414260874830439
254,2024.93,0.07551654609313424
255,2034.27,0.0749967088214598
256,2043.6599999999999,0.07979593385561151
257,2053.1,0.07551231119558936
258,2067.33,0.07464717143371277
259,2072.09,0.08278601894836263
260,2076.87,0.08373881338534293
261,2086.46,0.08628100764279925
262,2096.0899999999997,0.0810843057449165
263,2105.76,0.07869738769169467
264,2115.48,0.08015657194429898
265,2125.25,0.08126598850272947
266,2135.06,0.07210400890582086
267,2144.91,0.07850499315357318
268,2154.81,0.08088914970715165
269,2164.76,0.07618879856655628
270,2174.75,0.07566879127062184
271,2184.79,0.07724632628051355
272,2187.7616199999998,0.07848317137872435
273,2194.87,0.0814437811254685
274,2205.0,0.07832058397663699
275,2215.18,0.07111290296231272
276,2225.41,0.06981657808249568
277,2235.68,0.07923165811028446
278,2246.0,0.07429154427258049
279,2256.37,0.06807729656938376
280,2266.7799999999997,0.06918388377379282
281,2277.2400000000002,0.07260933711270914
282,2282.4900000000002,0.07761336123597021
283,2293.03,0.07128563439009812
284,2303.61,0.07365069245183183
285,2314.25,0.06862537787497423
286,2324.93,0.05035055820572244
287,2335.66,0.059316084670977896
288,2346.44,0.05377082727074061
289,2357.27,0.06587309600501057
290,2362.7000000000003,0.05432314221249771
291,2373.6099999999997,0.05932065076197927
292,2384.57,0.04996355544596806
293,2395.5699999999997,0.05557351503756266
294,2406.6299999999997,0.05348189199056595
295,2417.74,0.0562942750780765
296,2423.31,0.06614630846218394
297,2434.5,0.06394759136490609
298,2445.73,0.06951081917523402
299,2457.02,0.06940529434697065
300,2462.69,0.0673806000000926
301,2474.06,0.06337127498704083
302,2485.47,0.061833544881594864
303,2496.95,0.059234373364459046
304,2502.7,0.07203927883279258
305,2511.88643,0.059386336994383275
306,2514.2599999999998,0.05611669320987233
307,2520.0499999999997,0.05524052827568093
308,2525.8599999999997,0.0531431823918032
309,2537.52,0.056713408724675084
310,2543.37,0.056865520941424705
311,2555.1099999999997,0.06823088347555128
312,2566.8999999999996,0.06256738363546206
313,2572.82,0.06973021252830953
314,2584.7,0.06756898841463184
315,2596.6299999999997,0.06487809192673832
316,2602.61,0.06113820797052682
317,2614.6200000000003,0.058701077683888006
318,2626.69,0.0669641245481902
319,2632.75,0.0776071367932334
320,2644.9,0.0924978298587903
321,2657.1099999999997,0.10504695007528822
322,2663.2299999999996,0.08197198947127243
323,2675.5299999999997,0.08952367541418188
324,2687.88,0.09316147898287552
325,2694.07,0.0815586250549576
326,2706.5099999999998,0.08989434435006277
327,2712.75,0.07779516804792903
328,2725.27,0.0741847935442889
329,2737.85,0.08233437619158979
330,2744.16,0.06108625656555391
331,2756.83,0.06748215493926633
332,2763.1800000000003,0.0750402734138578
333,2775.94,0.08045416751398175
334,2782.33,0.06589621408920056
335,2795.18,0.04330488391573605
336,2808.08,0.04850154136805573
337,2814.55,0.07736737414452922
338,2827.54,0.09242718732326043
339,2834.06,0.08891851772551813
340,2847.1400000000003,0.08005670663066086
341,2853.71,0.06912451465870274
342,2866.88,0.09221640929025701
343,2873.4900000000002,0.10184457541892623
344,2884.0315,0.09879943367786263
345,2886.75,0.09801426222122951
346,2893.3999999999996,0.10409486575891089
347,2906.7599999999998,0.12755975277596704
348,2926.91,0.1167461331946558
349,2947.2,0.11214361347729572
350,2967.63,0.11729929362388683
351,2988.2,0.11879977363442913
352,3008.9100000000003,0.12059365350892262
353,3029.77,0.12412393323764953
354,3050.77,0.1262956128303276
355,3071.92,0.13332379227723912
356,3093.21,0.1337920715881018
357,3107.49,0.1431441577111229
358,3129.0299999999997,0.13719333677904127
359,3150.7200000000003,0.1389589157011931
360,3172.56,0.1456871944775783
361,3187.2,0.13056578025075963
362,3209.2900000000004,0.1413673587842005
363,3231.54,0.12587833716215707
364,3246.46,0.15533242266324074
365,3268.96,0.17290360079825295
366,3291.62,0.17075447877778085
367,3306.81,0.16586396401648468
368,3311.31121,0.16501403916432963
369,3322.0699999999997,0.16298235978017217
370,3329.73,0.17592061748313081
371,3337.4100000000003,0.16730727481455673
372,3345.1,0.16777063196021627
373,3352.81,0.15736918873434305
374,3360.5400000000004,0.1722206451369371
375,3368.29,0.17190360116799838
376,3376.0499999999997,0.14504965701329334
377,3383.84,0.14544901230128912
378,3391.6400000000003,0.17492626740351855
379,3399.46,0.17907752213421524
380,3407.29,0.16992367667914557
381,3415.15,0.16805553066677675
382,3423.02,0.1908158844686416
383,3430.91,0.17857573789897366
384,3438.82,0.18114189095777303
385,3446.75,0.13655314364503962
386,3454.69,0.1771817961465398
387,3462.6600000000003,0.15193444809074091
388,3470.64,0.16936349984917565
389,3478.64,0.14390185123607765
390,3486.66,0.16301740225144687
391,3494.6899999999996,0.15291585308104977
392,3502.75,0.18138920335335348
393,3510.83,0.1798085532541245
394,3518.9199999999996,0.16596740296912912
395,3527.0299999999997,0.15568445231260103
396,3535.16,0.17881610128454015
397,3543.31,0.19750854988494657
398,3551.48,0.1944398981138202
399,3559.6699999999996,0.18621004597116114
400,3567.8700000000003,0.17588289364273565
401,3576.1,0.15611724075701106
402,3584.3399999999997,0.13387148768552012
403,3592.6000000000004,0.1506124342424964
404,3600.89,0.1976994802421736
405,3609.19,0.1699195260560844
406,3617.5099999999998,0.18298837149846248
407,3625.85,0.18950851656930778
408,3633.65,0.16903417167153723
409,3636.4,0.1699080205857848
410,3639.15,0.18261576950003236
411,3641.89,0.18972911860004626
412,3644.6400000000003,0.19139266751429385
413,3647.39,0.19417861642854137
414,3650.1299999999997,0.1868803655285553
415,3652.88,0.20203611444280287
416,3655.62,0.1950987635428168
417,3658.3700000000003,0.21053091245706435
418,3661.12,0.2018496613713119
419,3663.8599999999997,0.21582191047132585
420,3666.61,0.2196175593855734
421,3669.3599999999997,0.21085160829982097
422,3672.1,0.21221735739983488
423,3674.85,0.21182760631408246
424,3677.59,0.19927805541409638
425,3680.3399999999997,0.19433080432834393
426,3683.09,0.20112155324259148
427,3685.83,0.20326000234260544
428,3688.5800000000004,0.18509125125685297
429,3691.33,0.20095770017110054
430,3694.0699999999997,0.20926124927111447
431,3696.82,0.21362659818536203
432,3699.56,0.21452414728537597
433,3702.31,0.22088619619962352
434,3705.06,0.21750134511387106
435,3707.8,0.187522394213885
436,3710.55,0.18681694312813257
437,3713.2999999999997,0.19660849204238012
438,3716.04,0.22372324114239406
439,3718.79,0.2072523900566416
440,3721.54,0.21240733897088915
441,3724.2799999999997,0.2199042880709031
442,3727.03,0.23285453698515063
443,3729.77,0.26620788608516455
444,3732.5199999999995,0.2640639349994121
445,3735.27,0.22915968391365968
446,3738.0099999999998,0.1995530330136736
447,3740.76,0.17212828192792118
448,3743.5099999999998,0.18979963084216872
449,3746.25,0.18145787994218265
450,3749.0,0.17365652885643024
451,3751.7400000000002,0.17012607795644413
452,3754.49,0.1895405268706917
453,3757.2400000000002,0.2023158757849393
454,3759.98,0.2072013248849532
455,3762.73,0.21238447379920075
456,3765.48,0.2132808227134483
457,3768.22,0.21189397181346223
458,3770.9700000000003,0.2085881207277098
459,3773.71,0.22016316982772374
460,3776.46,0.24026561874197128
461,3779.21,0.24747376765621884
462,3781.95,0.2604365167562328
463,3784.7,0.26166566567048033
464,3787.45,0.25819041458472786
465,3790.19,0.2512025636847418
466,3792.94,0.22399201259898938
467,3795.6800000000003,0.21055126169900332
468,3798.43,0.19917941061325084
469,3801.1800000000003,0.20015485952749842
470,3801.8939600000003,0.19922758420028877
471,3803.92,0.19659621646963157
472,3806.6699999999996,0.22376067602820401
473,3809.42,0.23545303558677644
474,3812.16,0.24717489529240858
475,3814.9100000000003,0.24327675485098102
476,3817.65,0.23093591455661316
477,3820.4,0.21586387411518557
478,3823.15,0.200684733673758
479,3825.8900000000003,0.19602059337939018
480,3828.64,0.19101135293796256
481,3831.39,0.173875012496535
482,3834.13,0.16805447220216713
483,3836.8799999999997,0.16279143176073957
484,3839.6200000000003,0.16595629146637172
485,3842.37,0.17296145102494412
486,3845.1200000000003,0.19235331058351657
487,3847.86,0.2135285702891487
488,3850.6099999999997,0.22458362984772112
489,3853.36,0.22683928940629355
490,3856.1,0.2233767491119257
491,3858.85,0.2239008086704981
492,3861.5899999999997,0.21556476837613028
493,3864.34,0.22705412793470267
494,3867.09,0.23040978749327512
495,3869.8300000000004,0.23998254719890727
496,3872.58,0.24058550675747967
497,3875.3300000000004,0.2294449663160521
498,3878.07,0.22235542602168426
499,3880.8199999999997,0.22583518558025667
500,3883.56,0.21961434528588883
501,3886.31,0.20766720484446125
502,3889.06,0.20569256440303366
503,3891.8,0.21134502410866582
504,3894.55,0.21974898366723822
505,3897.3,0.23232134322581066
506,3900.04,0.2530906029314428
507,3902.79,0.25579756249001523
508,3905.5299999999997,0.25476612219564737
509,3908.28,0.26596208175421976
510,3911.0299999999997,0.2651436413127922
511,3913.7699999999995,0.2847454010184244
512,3916.52,0.2804862605769968
513,3919.2700000000004,0.2780038201355692
514,3922.01,0.25980817984120136
515,3924.7599999999998,0.25004383939977376
516,3927.5,0.2270761991054059
517,3930.25,0.20288335866397836
518,3933.0,0.17431921822255075
519,3935.74,0.16088957792818293
520,3938.4900000000002,0.17345073748675535
521,3941.24,0.19119549704532776
522,3943.9800000000005,0.2112539567509599
523,3946.73,0.23674311630953235
524,3949.47,0.25363167601516445
525,3952.2200000000003,0.26625473557373686
526,3954.97,0.26671669513230933
527,3957.71,0.2699383548379415
528,3960.46,0.2557630143965139
529,3963.2099999999996,0.2263696739550863
530,3965.95,0.19067683366071847
531,3968.7,0.1671665932192909
532,3971.44,0.15745405292492304
533,3974.19,0.17064701248349545
534,3976.94,0.20436017204206788
535,3979.68,0.24067473174770002
536,3982.4300000000003,0.26901809130627247
537,3985.18,0.2875410508648448
538,3987.9199999999996,0.302935010570477
539,3990.67,0.3076950701290494
540,3993.4199999999996,0.31482972968762185
541,3996.1600000000003,0.320341489393254
542,3998.91,0.32712644895182647
543,4001.65,0.3284417086574586
544,4004.4,0.332671368216031
545,4007.15,0.3377754277746034
546,4009.89,0.34222688748023555
547,4012.64,0.34436394703880796
548,4015.39,0.35233340659738044
549,4018.1299999999997,0.3550588663030126
550,4020.88,0.353659325861585
551,4023.62,0.35175938556721714
552,4026.3700000000003,0.34942914512578954
553,4029.12,0.34836810468436197
554,4031.8599999999997,0.3390903643899941
555,4034.61,0.33425012394856657
556,4037.3599999999997,0.33858708350713895
557,4040.1,0.34334304321277115
558,4042.85,0.34866140277134355
559,4045.59,0.3444263624769757
560,4048.34,0.3294387220355481
561,4051.09,0.3307128815941205
562,4053.83,0.33385564129975265
563,4056.5800000000004,0.3384577008583251
564,4059.33,0.3359638604168975
565,4062.0699999999997,0.32648872012252966
566,4064.82,0.3282422796811021
567,4067.56,0.32453743938673424
568,4070.31,0.32850209894530663
569,4073.06,0.3305207585038791
