,lambda (Angstroms),Total Flux (erg/s/cm^2/Angstrom)
0,100.08,12.053667801285728
1,101.94,12.020135190186416
2,104.07,11.98173492183321
3,104.712855,11.97014535594625
4,106.00999999999999,11.847305513800954
5,107.98,11.660746240300691
6,109.99,11.470399128005873
7,114.11,11.080234732955399
8,118.11999999999999,10.700487485504727
9,120.22644299999999,10.501011742512608
10,120.88,10.44912331765606
11,125.12,10.11248600250649
12,126.86,9.97433776291868
13,128.04,9.880651104929361
14,131.02,9.64405226201989
15,131.93,9.571804654736095
16,134.07,9.401898259779365
17,136.88,9.178800740778188
18,138.038426,9.086827195241964
19,140.07,8.971535012259684
20,143.0,8.805308894541803
21,147.01000000000002,8.577877178637909
22,151.13,8.34408416523461
23,155.0,8.12448348485724
24,158.489319,7.926486680844768
25,158.98,7.905437716216127
26,161.94,7.77846150044292
27,166.08999999999997,7.600443139204811
28,169.96,7.43443230812903
29,173.12,7.298879876668444
30,177.15,7.126007220942762
31,180.03000000000003,7.002467938544507
32,181.970086,6.919246597065248
33,182.11,6.914668170902066
34,185.92999999999998,6.789668682828549
35,191.14,6.619182227642679
36,193.79,6.532476213661575
37,197.85,6.399622686984486
38,202.0,6.263828974231056
39,204.81,6.171884250680904
40,208.929613,6.0370559768763545
41,210.06,6.009243155620081
42,215.94,5.864648745026428
43,219.96,5.765775275095052
44,223.01999999999998,5.690496261805499
45,227.16,5.588674574831395
46,229.8,5.524258161691387
47,234.07,5.420283980070996
48,239.88329199999998,5.277847751560711
49,240.07,5.274327033022938
50,246.23,5.157377740161107
51,251.97,5.048752265085309
52,257.24,4.948323387198644
53,260.22,4.892240523573927
54,263.84000000000003,4.823772774989538
55,268.75,4.73067751020519
56,273.74,4.6360575251758815
57,275.42287,4.604149545630378
58,278.83000000000004,4.554573879578343
59,284.01,4.479193769954328
60,289.96000000000004,4.392446668507824
61,296.03000000000003,4.304176806413659
62,300.84,4.234157370119932
63,307.85,4.132175789619093
64,316.227766,4.010301876267021
65,317.94000000000005,3.9917005394415424
66,328.35,3.878541767387742
67,338.33000000000004,3.7700159752756446
68,347.81,3.666918092235296
69,356.73,3.569923899235306
70,363.078055,3.5009081937502278
71,365.88000000000005,3.4780937248010617
72,375.27,3.40159843572443
73,384.89000000000004,3.3231339315341
74,394.77,3.242748956041328
75,404.89,3.1603285670386105
76,414.32,3.0834962353769875
77,416.86938299999997,3.0627211246665538
78,422.03,3.030595595643347
79,429.86999999999995,2.9818002196021003
80,440.9,2.913174417799173
81,451.16999999999996,2.849247747224734
82,459.55999999999995,2.7970238147418187
83,470.26,2.7304404196038927
84,478.630092,2.678368404102568
85,480.10999999999996,2.671285988815133
86,490.15999999999997,2.6231363240862717
87,500.42999999999995,2.5740030556489177
88,506.22,2.54626076036632
89,512.0799999999999,2.518284166221929
90,520.4,2.478463278791668
91,530.08,2.4321005066179975
92,539.93,2.3849058453514034
93,549.5408739999999,2.3388977313155324
94,549.97,2.3373300393538163
95,560.2,2.300007151840641
96,570.61,2.2620225255061195
97,579.88,2.2281345607067906
98,590.66,2.188791042295058
99,600.26,2.1536883961565945
100,610.02,2.117855335065823
101,619.93,2.0819024154572636
102,630.0,2.0451135608963953
103,630.957344,2.0416196746067388
104,640.24,2.014759214084902
105,650.64,1.9846485598173205
106,658.17,1.9628284309678115
107,664.26,1.9452197783245833
108,675.06,1.9139585402774788
109,684.45,1.886725702453191
110,695.5699999999999,1.8546059005824687
111,705.25,1.826529014918027
112,716.71,1.7934290732347107
113,724.43596,1.7710657670763033
114,726.68,1.766242357064132
115,735.09,1.7481727972556336
116,745.32,1.726197286627698
117,755.68,1.7039429976555174
118,764.43,1.685039500023608
119,775.07,1.662296931079206
120,785.85,1.6391235131486934
121,794.9499999999999,1.6195961390515081
122,804.16,1.5998217778938066
123,815.3399999999999,1.5758121042886926
124,824.78,1.5555622173680954
125,831.763771,1.5404603527102823
126,834.3399999999999,1.5362857375726893
127,845.94,1.517794857106844
128,855.74,1.5020553918339743
129,865.65,1.4861709889937569
130,875.6700000000001,1.4701138405861902
131,885.81,1.4538680208324255
132,894.01,1.4407238031755347
133,904.36,1.4240906790659227
134,914.8299999999999,1.4077455346101126
135,925.42,1.396508749808104
136,933.99,1.3907291213337678
137,944.8,1.3865399373970622
138,954.992586,1.381463386651898
139,955.74,1.3811170280049272
140,964.59,1.3706642840753973
141,975.75,1.3167201633066339
142,984.78,1.3295957520259951
143,993.9000000000001,1.3187519095698017
144,1005.4000000000001,1.3206114515822769
145,1014.71,1.3048007105332462
146,1024.1,1.2581644195503892
147,1035.95,1.2528364231023748
148,1045.54,1.275669177284952
149,1055.21,1.2587522615337026
150,1064.98,1.225631993365171
151,1074.83,1.2223258352628132
152,1084.78,1.190264464743172
153,1094.81,1.1945564342897048
154,1096.4782,1.191451783520407
155,1104.94,1.1781110259753276
156,1115.17,1.161214044029574
157,1125.49,1.1405041201898694
158,1135.8999999999999,1.145406634456214
159,1143.78,1.1277168730747338
160,1154.36,1.1190727548747263
161,1165.04,1.107428173459218
162,1175.8200000000002,1.0681494388282082
163,1183.97,1.080509381764876
164,1194.92,1.0415378446675148
165,1205.98,1.0127509630331026
166,1214.34,0.9928002482172179
167,1225.58,1.003619432794904
168,1234.07,1.0197788807988677
169,1245.49,1.0127615515886517
170,1254.12,0.9969146610909144
171,1258.92541,0.9857929165789352
172,1265.73,0.9725550036752799
173,1274.5,0.986264114132116
174,1286.3,0.9801344321470152
175,1295.21,0.9495949116989433
176,1304.19,0.9403753607984175
177,1316.26,0.9496791984967086
178,1325.3799999999999,0.9369945866912748
179,1334.57,0.9171197544333869
180,1343.82,0.9254946332162528
181,1356.25,0.9107496571590661
182,1365.6499999999999,0.8916799935438164
183,1375.12,0.8872987694761127
184,1384.65,0.8793407664491624
185,1394.25,0.8581959129697585
186,1403.9099999999999,0.8518655705311082
187,1413.6499999999999,0.8459050261467962
188,1423.45,0.8394572928032378
189,1436.6200000000001,0.8270246662486803
190,1443.25,0.8254609262519669
191,1445.43977,0.8244823261220146
192,1446.5700000000002,0.8242899270342704
193,1456.6000000000001,0.8149751721142111
194,1463.32,0.8037656060660757
195,1473.47,0.7976215631808711
196,1483.68,0.7928629013130938
197,1493.97,0.7877275308018863
198,1504.3200000000002,0.776336321308106
199,1511.26,0.7633522789905378
200,1518.2399999999998,0.7639226973512543
201,1525.25,0.7570337812206843
202,1535.82,0.7406195454574713
203,1546.47,0.7388941410508278
204,1553.6,0.7311771569551128
205,1564.37,0.7262823745833242
206,1575.22,0.7238283135681054
207,1586.14,0.7205011887398851
208,1593.4599999999998,0.7171390828660235
209,1604.5,0.708927380072658
210,1615.63,0.7019720338054335
211,1626.82,0.6911417685556365
212,1634.33,0.691003600903628
213,1645.6599999999999,0.6849324780278282
214,1653.26,0.6748582669019606
215,1659.58691,0.6742535138629403
216,1664.72,0.6747463666075535
217,1672.4,0.6627606278555584
218,1676.26,0.6706133758005193
219,1683.99,0.6703431428509199
220,1695.6699999999998,0.6603736782905941
221,1703.49,0.6540365057853075
222,1715.3,0.6449248963112107
223,1723.22,0.6410701954107157
224,1735.16,0.6406725310228483
225,1743.17,0.6356121405666658
226,1755.2599999999998,0.6350567635859862
227,1763.36,0.6254436235741162
228,1775.58,0.6212589516796657
229,1783.7800000000002,0.6193937132725875
230,1796.1399999999999,0.6190362876248454
231,1804.4299999999998,0.6147883796620799
232,1816.94,0.6030581414215253
233,1825.33,0.6011187050635515
234,1833.75,0.594718612187015
235,1846.46,0.5833045871560439
236,1854.99,0.5803775470447786
237,1863.55,0.5789933604149508
238,1876.47,0.5785502197540423
239,1885.1299999999999,0.5690152047290061
240,1893.83,0.5631312843458867
241,1905.46072,0.5614978756925533
242,1906.96,0.5614667324415571
243,1915.76,0.5560671635376653
244,1924.6,0.5513414959569374
245,1933.48,0.5499442496993736
246,1946.89,0.5499785407901474
247,1955.8700000000001,0.542595302840494
248,1964.9,0.5465631040447958
249,1973.9699999999998,0.5452985265722617
250,1983.0800000000002,0.5392535704228917
251,1996.83,0.5332584177605606
252,2006.05,0.5320478977498919
253,2015.3,0.5270361812315965
254,2024.6100000000001,0.526459421698047
255,2033.9499999999998,0.5207521656568709
256,2043.34,0.5208178787696497
257,2052.77,0.5124979232055927
258,2067.0,0.5087788964212311
259,2071.77,0.5140712517085533
260,2076.54,0.5140988669958756
261,2086.13,0.5163198267244751
262,2095.76,0.5085105577762387
263,2105.4300000000003,0.5051578601511665
264,2115.15,0.5041584016800496
265,2124.9100000000003,0.5002181645320966
266,2134.72,0.49202090653809893
267,2144.57,0.49321669986726524
268,2154.47,0.49274807235038687
269,2164.42,0.4854345239874635
270,2174.41,0.4823348969477045
271,2184.44,0.48104688123110934
272,2187.7616199999998,0.4808837107695747
273,2194.53,0.4812697687893296
274,2204.65,0.4769490552812431
275,2214.83,0.468084808491488
276,2225.05,0.46598719951395384
277,2235.32,0.47164144780169603
278,2245.6400000000003,0.4661882533547144
279,2256.0099999999998,0.4574184661730092
280,2266.42,0.4559494468035248
281,2276.88,0.45673982469931673
282,2287.39,0.459888839860385
283,2292.66,0.4521839616205019
284,2303.25,0.4537677624060121
285,2313.88,0.44614516100374324
286,2324.56,0.42949396686675073
287,2335.29,0.4329421099950344
288,2346.07,0.42591348038859433
289,2356.9,0.4337621680474305
290,2362.33,0.42278688105643153
291,2373.23,0.42421561488665444
292,2384.19,0.4140236454352089
293,2395.19,0.4161836537959843
294,2406.25,0.41220758887509124
295,2417.36,0.41265182121947447
296,2422.9300000000003,0.42122302657124894
297,2434.1099999999997,0.417446435087019
298,2445.35,0.4207106403211204
299,2456.64,0.41897831282049813
300,2462.3,0.4143727632497698
301,2473.66,0.40833804192053436
302,2485.08,0.4007351073096303
303,2496.5499999999997,0.39449165996400254
304,2502.31,0.4085085249238267
305,2511.88643,0.3917408744518169
306,2513.86,0.3883970073450026
307,2519.65,0.387178324237453
308,2525.46,0.3858226421381675
309,2537.12,0.3894415999561246
310,2542.97,0.3889518798733673
311,2554.7,0.4006387562202487
312,2566.5,0.39104726109605437
313,2572.41,0.3972440540380892
314,2584.2900000000004,0.3921082629469511
315,2596.2200000000003,0.38709257937647334
316,2602.2000000000003,0.3821971908474324
317,2614.21,0.3779076713100109
318,2626.2799999999997,0.38378572479738166
319,2632.33,0.3985732447972651
320,2644.48,0.41347390231769204
321,2656.69,0.4291882628629113
322,2662.81,0.39929554139171897
323,2675.1000000000004,0.40590723596999445
324,2687.4500000000003,0.40991153357306226
325,2693.65,0.3941471861349263
326,2706.08,0.4026840077710504
327,2712.3199999999997,0.38597725234944263
328,2724.84,0.37846912352275497
329,2737.42,0.3851707477208597
330,2743.7299999999996,0.3604959308281762
331,2756.3900000000003,0.366388369059337
332,2762.7400000000002,0.3752084341831816
333,2775.5,0.378430047455663
334,2781.8900000000003,0.3592526145960357
335,2794.74,0.3365998974057055
336,2807.6299999999997,0.33917041223190336
337,2814.11,0.36718434890946444
338,2827.1000000000004,0.3854254987769826
339,2833.6099999999997,0.3818941219669399
340,2846.69,0.3688050113716465
341,2853.25,0.34918619208226387
342,2866.43,0.3827730665282909
343,2873.0299999999997,0.3955831992554364
344,2884.0315,0.3870104409053336
345,2886.2900000000004,0.38536030632933216
346,2892.9500000000003,0.39375340428470185
347,2913.0,0.4193695188500415
348,2933.19,0.40341267481384235
349,2946.73,0.3964564643507351
350,2967.16,0.40204997699761236
351,2987.72,0.40083339951448926
352,3008.4300000000003,0.402355794958289
353,3029.29,0.4032550633290115
354,3050.29,0.4049409730981951
355,3071.43,0.40897922426584005
356,3092.72,0.4078378483604077
357,3106.9999999999995,0.41654967100345264
358,3128.5299999999997,0.40786955178109663
359,3150.2200000000003,0.40515533701412487
360,3172.05,0.41124706364561436
361,3186.7000000000003,0.3917209528417353
362,3208.7900000000004,0.40325579921322424
363,3231.0299999999997,0.37934241851163597
364,3253.42,0.41407981073697037
365,3268.44,0.4338380664861674
366,3291.1000000000004,0.4271043099799627
367,3306.29,0.42123300171300565
368,3311.31121,0.42070410062985075
369,3321.5499999999997,0.4199745756493115
370,3329.21,0.43608369686256
371,3336.8799999999997,0.42607559042726184
372,3344.57,0.42070992869487034
373,3352.28,0.40902511166538547
374,3360.0099999999998,0.43038183933880725
375,3367.76,0.4258553117151357
376,3375.52,0.38480985644291743
377,3383.3,0.39243304587360583
378,3391.1000000000004,0.4281911800072009
379,3398.92,0.4374138588437027
380,3406.75,0.42558601003165775
381,3414.61,0.4245326782739728
382,3422.48,0.4443445188677412
383,3430.37,0.4279639041644162
384,3438.28,0.43361263416399787
385,3446.2,0.3772643365150329
386,3454.15,0.4262919559204278
387,3462.11,0.39577974767727614
388,3470.09,0.4156734841370311
389,3478.0899999999997,0.38388856529969273
390,3486.11,0.404971091165261
391,3494.14,0.3961521893822826
392,3502.2,0.4270501046536642
393,3510.27,0.4228627922764991
394,3518.3599999999997,0.4078888246022407
395,3526.47,0.3960921016308889
396,3534.6,0.42270292336244375
397,3542.75,0.4455361897969053
398,3550.92,0.4404395009342734
399,3559.1,0.431050984423095
400,3567.3100000000004,0.4204082849662764
401,3575.53,0.3894109578609112
402,3583.77,0.3728941754584527
403,3592.0400000000004,0.36902351011035417
404,3600.32,0.4387238171137089
405,3608.6200000000003,0.4024463688199703
406,3616.94,0.41026856522913846
407,3625.27,0.42644733398975987
408,3633.63,0.4199594198047413
409,3641.28,0.4209525686665364
410,3644.04,0.4028772376676547
411,3646.79,0.4106445343173196
412,3649.54,0.36705943096698457
413,3652.2900000000004,0.37618052761664944
414,3655.05,0.4040697966177677
415,3657.7999999999997,0.43797129326743267
416,3660.55,0.4228175899170976
417,3663.2999999999997,0.43357778656676255
418,3666.05,0.41469168321642746
419,3668.81,0.4156665522175457
420,3671.56,0.40243454886721064
421,3674.31,0.4318427455168756
422,3677.06,0.4185238421665405
423,3679.81,0.4072653388162054
424,3682.57,0.40457320781732364
425,3685.32,0.4099021044669886
426,3688.07,0.38594360111665355
427,3690.82,0.4266355977663185
428,3693.5800000000004,0.4071657667674367
429,3696.33,0.4100970634171017
430,3699.08,0.4046885600667666
431,3701.83,0.43026925671643157
432,3704.58,0.3984709533660965
433,3707.34,0.3960071223672147
434,3710.0899999999997,0.41279941901687967
435,3712.84,0.42051231566654457
436,3715.5899999999997,0.42932621231620954
437,3718.3500000000004,0.40770338131732775
438,3721.1,0.4437170779669927
439,3723.8500000000004,0.4561274746166576
440,3726.6,0.5068420712663226
441,3729.3500000000004,0.5042770679159875
442,3732.11,0.5007309369171058
443,3734.8599999999997,0.4396398335667707
444,3737.61,0.3957585302164356
445,3740.3599999999997,0.41094692686610057
446,3743.11,0.4457348235157655
447,3745.87,0.4191997925168838
448,3748.62,0.3944284891665487
449,3751.37,0.3843552858162136
450,3754.1200000000003,0.3971460824658785
451,3756.88,0.4229830514669968
452,3759.63,0.4159679481166617
453,3762.38,0.44750994476632666
454,3765.1299999999997,0.4261094414159916
455,3767.88,0.4245093380656565
456,3770.6400000000003,0.42186050706677475
457,3773.39,0.44002830371643975
458,3776.14,0.42544810036610464
459,3778.89,0.4570907970157696
460,3781.64,0.4731736936654345
461,3784.4,0.49020546266655274
462,3787.15,0.48478625931621766
463,3789.9,0.4825201559658826
464,3792.65,0.43809785261554757
465,3795.4100000000003,0.42088692161666574
466,3798.16,0.41380111826633076
467,3800.9100000000003,0.4116791149159956
468,3801.8939600000003,0.4151926380852342
469,3803.66,0.421541204072565
470,3806.41,0.43610801247393827
471,3809.17,0.4720742332694983
472,3811.9199999999996,0.5055117416708717
473,3814.67,0.48333195007224483
474,3817.42,0.4786310584736181
475,3820.17,0.4775455668749914
476,3822.93,0.4437180876705515
477,3825.6800000000003,0.44396459607192473
478,3828.43,0.422469604473298
479,3831.1800000000003,0.4107172128746712
480,3833.94,0.38651843367023136
481,3836.6899999999996,0.38770814207160464
482,3839.44,0.37866055047297786
483,3842.1899999999996,0.3848736588743512
484,3844.94,0.42598786727572435
485,3847.7,0.4610571880712845
486,3850.4500000000003,0.46812669647265776
487,3853.2,0.48022520487403103
488,3855.9500000000003,0.4931121132754043
489,3858.71,0.4731590340709644
490,3861.46,0.4800926424723376
491,3864.21,0.4839274508737109
492,3866.96,0.5082585592750842
493,3869.71,0.5041828676764575
494,3872.4700000000003,0.5026873884720175
495,3875.22,0.4863790968733908
496,3877.9700000000003,0.465014805274764
497,3880.72,0.4686320136761374
498,3883.47,0.4420864220775106
499,3886.23,0.43617924287307064
500,3888.98,0.418960251274444
501,3891.73,0.40683545967581725
502,3894.48,0.43090286807719047
503,3897.2400000000002,0.4467561888727506
504,3899.99,0.4659494972741239
505,3902.7400000000002,0.4869642056754971
506,3905.49,0.49098921407687046
507,3908.2400000000002,0.4997986224782437
508,3911.0,0.5136073432738038
509,3913.7499999999995,0.533752251675177
510,3916.5,0.5136926600765503
511,3919.2500000000005,0.5114382684779235
512,3922.0,0.5043452768792968
513,3924.7599999999998,0.48368539767485697
514,3927.51,0.4636259060762301
515,3930.2599999999998,0.42221631447760344
516,3933.01,0.3857486228789767
517,3935.77,0.3696696436745368
518,3938.52,0.39230435207591
519,3941.27,0.4422123604772833
520,3944.0199999999995,0.4651842688786566
521,3946.77,0.4764400772800299
522,3949.53,0.4796745980755899
523,3952.28,0.5105569064769632
524,3955.0299999999997,0.5173275148783365
525,3957.78,0.5091471232797098
526,3960.5299999999997,0.480198531681083
527,3963.29,0.43391285247664313
528,3966.04,0.3941397608780164
529,3968.79,0.3540457692793896
530,3971.54,0.3486787776807629
531,3974.3,0.36931929847632294
532,3977.0499999999997,0.4143668068776962
533,3979.8,0.46579981527906944
534,3982.55,0.4887174236804428
535,3985.2999999999997,0.5125864320818161
536,3988.06,0.5431673528773762
537,3990.8100000000004,0.5443110612787494
538,3993.56,0.5483904696801226
539,3996.31,0.5522796780814959
540,3999.07,0.5554866988770559
541,4001.8199999999997,0.5637252072784293
542,4004.57,0.5656572156798025
543,4007.3199999999997,0.5607117240811759
544,4010.07,0.563649532482549
545,4012.83,0.5746581532781091
546,4015.5800000000004,0.5823529616794825
547,4018.33,0.5939079700808557
548,4021.0800000000004,0.592659478482229
549,4023.83,0.5816249868836023
550,4026.5899999999997,0.5766768076791623
551,4029.34,0.5708071160805356
552,4032.0899999999997,0.5697761244819088
553,4034.84,0.5735837328832821
554,4037.6,0.5762742536788422
555,4040.35,0.5804352620802155
556,4043.1,0.5838351704815887
557,4045.85,0.5758451788829619
558,4048.6,0.5669037872843353
559,4051.36,0.5753571080798954
560,4054.11,0.5833782164812686
561,4056.86,0.5653847248826419
562,4059.61,0.5691379332840152
563,4062.3599999999997,0.5659594416853885
564,4065.12,0.5609026624809486
565,4067.87,0.5639490708823218
566,4070.62,0.560634679283695
567,4073.37,0.5655840876850683
568,4076.13,0.5558246084806284
569,4078.8799999999997,0.5474812168820017
570,4081.63,0.559008925283375
571,4084.38,0.5648281336847483
572,4087.13,0.5661077420861215
573,4089.89,0.5624372628816815
574,4092.6400000000003,0.5569481712830548
575,4095.39,0.5362633796844282
576,4098.14,0.5009538880858013
577,4100.900000000001,0.4815717088813614
578,4103.65,0.47072731728273476
579,4106.4,0.48217342568410804
580,4109.15,0.5067492340854812
581,4111.9,0.5278727424868546
582,4114.66,0.5445356632824147
583,4117.41,0.5552750716837879
584,4120.16,0.5600340800851611
585,4122.91,0.5678104884865344
586,4125.66,0.5638708968879076
587,4128.42,0.5576180176834677
588,4131.17,0.552645426084841
589,4133.92,0.5646624344862143
590,4136.67,0.5720855428875875
591,4139.43,0.5739060636831476
592,4142.179999999999,0.571162472084521
593,4144.93,0.5668150804858941
594,4147.68,0.5635005888872675
595,4150.43,0.5636656972886407
596,4153.19,0.5686940180842008
