,lambda (Angstroms),Total Flux (erg/s/cm^2/Angstrom)
0,102.08999999999999,30.666933366895364
1,103.99000000000001,30.579521974089307
2,104.712855,30.546266309696417
3,105.92,30.25454430449609
4,107.89,29.778468646440302
5,109.89999999999999,29.292726477563114
6,114.02000000000001,28.29707586275217
7,118.02999999999999,27.328008152713853
8,120.22644299999999,26.797209652000344
9,121.06,26.62832361628238
10,125.02,25.8259925201584
11,127.06,25.41267044035099
12,127.94,25.234374641238727
13,130.92,24.630600230590787
14,132.13,24.385443506901115
15,133.97,24.01264319972252
16,137.09,23.380503548653362
17,138.038426,23.188344035606075
18,139.96,22.910058801901446
19,142.89,22.485731804062286
20,146.89000000000001,21.906445809275652
21,151.01,21.309781226098753
22,154.88,20.749322021281767
23,158.489319,20.226615032618497
24,158.85,20.187124896566928
25,162.18,19.82253082939855
26,165.96,19.408667300973438
27,169.82,18.986044759050017
28,172.98000000000002,18.640063613189664
29,177.01000000000002,18.198828170816547
30,179.88,17.884598469242988
31,181.97000000000003,17.655769175966515
32,181.970086,17.6557597600244
33,186.20999999999998,17.301605431024743
34,190.98,16.903173750626223
35,194.09,16.64339964409969
36,198.15,16.304273325187527
37,201.82999999999998,15.996887920150781
38,205.11,15.72291396582099
39,208.929613,15.403866870951616
40,209.89000000000001,15.343556464238954
41,215.76999999999998,14.974304198825669
42,219.78,14.722484206550797
43,222.84,14.530322309601605
44,226.98,14.270338622707873
45,230.14,14.071897916181555
46,233.88,13.837035623451321
47,239.88,13.460249544101883
48,239.88329199999998,13.460042813281667
49,246.03,13.162587493403178
50,251.76,12.88529889281446
51,257.04,12.629784723965798
52,260.01,12.486060387399426
53,264.24,12.281360731825899
54,269.15000000000003,12.043753771430948
55,274.15,11.80179149535699
56,275.42287,11.740194207793149
57,279.25,11.598058530277282
58,283.79,11.42944789533685
59,289.72999999999996,11.208841739270827
60,295.8,10.983408896573994
61,301.3,10.779144550609153
62,308.31,10.518801313123424
63,316.227766,10.224745315301865
64,317.67999999999995,10.184461965420919
65,328.09,9.89569938615583
66,338.06,9.619142198568433
67,348.33000000000004,9.334263335902154
68,357.27000000000004,9.086277816349572
69,363.078055,8.92516955823382
70,365.59000000000003,8.872988334094755
71,374.97,8.678134151201123
72,384.59,8.478293004424437
73,395.36,8.25456625144852
74,404.57,8.063245308957471
75,413.99,7.867560496094998
76,416.86938299999997,7.807746043584692
77,421.69,7.731273177947552
78,429.53,7.606902015273011
79,440.54999999999995,7.4320853173148445
80,450.81,7.269323550950689
81,460.25000000000006,7.119569952656649
82,469.89000000000004,6.966644509408925
83,478.630092,6.8279955068706215
84,479.73,6.814576204294561
85,489.77,6.692081415000561
86,500.03,6.56690606018737
87,505.82,6.4962641664732
88,511.66999999999996,6.4248988743174325
89,519.99,6.323390924882564
90,529.66,6.205411391711749
91,539.5,6.085354943389741
92,549.53,5.962986549669341
93,549.5408739999999,5.96285388706531
94,559.75,5.867842708596214
95,570.16,5.770961342059549
96,579.42,5.684775980181018
97,590.19,5.584545119363546
98,599.78,5.495288456210943
99,609.53,5.404532608222424
100,619.43,5.312419472400237
101,629.5000000000001,5.218699782039888
102,630.957344,5.205136638916199
103,639.73,5.140414763247987
104,650.12,5.063764243545601
105,657.6500000000001,5.008211936925006
106,665.26,4.952072691316811
107,674.52,4.883754271626812
108,685.48,4.802886143125258
109,695.0099999999999,4.7326044118146005
110,704.6800000000001,4.6612502436006364
111,716.13,4.576801003687517
112,724.43596,4.515526333731839
113,726.0999999999999,4.506414543444431
114,734.5,4.460419452624587
115,744.7199999999999,4.404472611353777
116,755.08,4.347750526555968
117,765.59,4.290191187736378
118,774.45,4.241710637056399
119,785.2199999999999,4.182746403072385
120,794.32,4.132929875117553
121,805.37,4.072433169379545
122,814.6899999999999,4.0214089530394315
123,824.13,3.9697513953618935
124,831.763771,3.9278921065970698
125,835.5899999999999,3.9122032053338174
126,845.2700000000001,3.8726865405625013
127,855.05,3.832670567359458
128,864.96,3.792147227015167
129,874.97,3.7512178986391476
130,885.1,3.7098103547250534
131,895.35,3.6678945324728858
132,905.72,3.625450789282644
133,914.1,3.591602044523799
134,924.68,3.5556516113669274
135,935.39,3.5227654088688083
136,944.0500000000001,3.5065193955211234
137,954.98,3.4801312157532025
138,954.992586,3.4800878041605694
139,966.04,3.442960040409089
140,974.98,3.352602037512868
141,984.0,3.360318586335697
142,995.39,3.3206906060853654
143,1004.5999999999999,3.316538198990937
144,1013.9,3.278016608830438
145,1025.64,3.179014301100948
146,1035.1299999999999,3.1649018400231936
147,1044.71,3.192791205879367
148,1054.3700000000001,3.1532107834545906
149,1064.1299999999999,3.085616143178628
150,1073.97,3.069486604621712
151,1083.91,3.0021085182136096
152,1093.94,2.9998334987394375
153,1096.4782,2.9886813596035045
154,1104.06,2.960873344048468
155,1114.28,2.922662440274933
156,1124.5900000000001,2.8765538822607293
157,1134.99,2.87932247000586
158,1145.5,2.8316995136790637
159,1156.1000000000001,2.8090643031116
160,1164.11,2.789429575692225
161,1174.8799999999999,2.7043562515590573
162,1185.75,2.717044978269592
163,1193.97,2.638410457621993
164,1205.02,2.5712288258511937
165,1216.17,2.513679894924098
166,1224.6,2.5430141310482766
167,1235.9299999999998,2.5688638916398463
168,1244.5,2.5606328489452084
169,1256.01,2.514757301055444
170,1258.92541,2.496135572719274
171,1264.72,2.464579695892862
172,1276.42,2.490749825045164
173,1285.27,2.4829047547885716
174,1294.18,2.4114244108353238
175,1306.15,2.3826544083526793
176,1315.21,2.412909180157795
177,1324.32,2.382631257215698
178,1333.5,2.3350791816275036
179,1345.8400000000001,2.3501255580154865
180,1355.17,2.3220420981856553
181,1364.56,2.2748584646591694
182,1374.02,2.2664394784865856
183,1383.55,2.248598539667905
184,1396.3500000000001,2.1911682843815337
185,1406.03,2.178358561321216
186,1415.77,2.159756264564243
187,1425.59,2.145871436211731
188,1435.47,2.122289434162563
189,1442.0900000000001,2.121433269631643
190,1445.42,2.118376879467298
191,1445.43977,2.118319264898023
192,1455.44,2.0962365012060413
193,1465.53,2.06184944941512
194,1475.69,2.046709866144975
195,1485.91,2.0358838701783526
196,1496.21,2.0250858239497607
197,1506.59,1.9962862274591995
198,1513.54,1.9605375734505865
199,1517.03,1.9703171182721606
200,1524.0300000000002,1.9529988703498162
201,1534.6000000000001,1.909569316987077
202,1545.23,1.9135560509278602
203,1555.94,1.885909834606674
204,1566.73,1.8724679680235181
205,1573.96,1.8746744880980113
206,1584.87,1.8690290961219014
207,1595.8600000000001,1.8569507538838206
208,1603.22,1.8424816297826137
209,1614.34,1.8267926433688328
210,1625.53,1.796502725475829
211,1636.79,1.794156576103601
212,1644.35,1.7869214763474695
213,1655.75,1.750487464016795
214,1659.58691,1.7555380981232152
215,1663.3899999999999,1.7624036822808935
216,1671.0700000000002,1.72733298696473
217,1678.78,1.7469344033856136
218,1686.53,1.7506391021225587
219,1694.31,1.7270651125965495
220,1706.0600000000002,1.7048477429396593
221,1713.9299999999998,1.6840261886247896
222,1725.8100000000002,1.6709250364950998
223,1733.78,1.6782953879703837
224,1745.8000000000002,1.6599370239469098
225,1753.86,1.668142510633333
226,1766.01,1.6338134641370592
227,1774.1599999999999,1.6316253860346204
228,1786.46,1.6233355982235782
229,1794.7099999999998,1.632665925911294
230,1802.9899999999998,1.6220632653360558
231,1815.4899999999998,1.5880363891053217
232,1823.87,1.5848561343202379
233,1836.51,1.5613984461957193
234,1844.99,1.532800597200789
235,1853.51,1.524970030521921
236,1866.35,1.518629753977711
237,1874.97,1.5302700930889965
238,1883.6200000000001,1.5008971439373286
239,1896.68,1.4785350201314578
240,1905.4299999999998,1.482628576769944
241,1905.46072,1.4825649591741337
242,1914.23,1.467082703732142
243,1923.06,1.456209584791336
244,1936.39,1.4510399131626905
245,1945.3300000000002,1.4571359618228488
246,1954.31,1.4355284077924488
247,1967.86,1.4481492713657311
248,1976.94,1.4479466606089344
249,1986.0700000000002,1.4273558714889394
250,1995.23,1.4137317553510256
251,2004.44,1.4141721608499136
252,2013.7,1.3982587879856034
253,2022.99,1.4019751881033742
254,2037.01,1.3792704950625934
255,2046.4199999999998,1.3829158871086886
256,2055.86,1.3645581521368644
257,2065.35,1.3582283388018426
258,2074.88,1.3688215227762617
259,2079.67,1.3590312755818723
260,2084.46,1.368513428387483
261,2094.08,1.3458216313081457
262,2103.75,1.3388630558656098
263,2113.46,1.3359238777325155
264,2123.21,1.3301056969088625
265,2133.0099999999998,1.3031929377220117
266,2142.86,1.3061063001719622
267,2152.75,1.3083248599313544
268,2162.69,1.2906382413275483
269,2172.67,1.2817118200331836
270,2182.7,1.273311720375621
271,2187.7616199999998,1.2752615738432178
272,2192.77,1.2785477498424835
273,2202.9,1.2656945351989246
274,2213.06,1.244091620906866
275,2223.28,1.2334119073178063
276,2233.54,1.2500981275307472
277,2243.85,1.2333098149961874
278,2254.21,1.2126907697141274
279,2264.61,1.2123080582340668
280,2275.06,1.2160369140065064
281,2285.57,1.2224901704819455
282,2296.12,1.2001305607593844
283,2306.71,1.199437384838823
284,2317.36,1.179868409621261
285,2322.7,1.1252448721882304
286,2333.42,1.149629131124168
287,2344.2,1.1332768907631054
288,2355.02,1.1535426842040426
289,2365.89,1.1218852448974799
290,2376.81,1.1264401728434164
291,2382.29,1.1028995037173848
292,2393.28,1.1130711658168209
293,2404.33,1.099001928619257
294,2415.4300000000003,1.1009724586741925
295,2426.57,1.1177975225311279
296,2437.7799999999997,1.103790720541563
297,2443.39,1.1179514862720306
298,2454.67,1.110710218435965
299,2466.0,1.1001476178523995
300,2477.39,1.0832553179718334
301,2483.1,1.0791062182073001
302,2494.56,1.0631708524802337
303,2506.07,1.0919055540056668
304,2511.85,1.0463769883946337
305,2511.88643,1.046375424659468
306,2517.64,1.0469595533016804
307,2523.45,1.0374039363632135
308,2535.0899999999997,1.0424163583660107
309,2546.79,1.0367326480079966
310,2552.66,1.0628200987087197
311,2564.45,1.0450179898094905
312,2576.28,1.059084992669721
313,2582.2200000000003,1.0510353889494988
314,2594.14,1.0407195932685138
315,2606.12,1.0251765652267188
316,2612.12,1.018096429145686
317,2624.18,1.0314992246228105
318,2636.29,1.0525158097992595
319,2642.37,1.0877544972371465
320,2654.57,1.1086757838723802
321,2666.8199999999997,1.0505071602069387
322,2672.9700000000003,1.0687411932238797
323,2685.3100000000004,1.0708769710172228
324,2697.7000000000003,1.0395800385098903
325,2703.92,1.0565567171058865
326,2716.4,1.0226244860573386
327,2722.66,1.0145538764127946
328,2735.23,1.0306518468230312
329,2747.85,0.9684443069325926
330,2754.19,0.9813230208069679
331,2766.9,0.9957615823753139
332,2773.28,1.009045708009149
333,2786.0800000000004,0.9697449710362792
334,2792.5,0.9075250084295746
335,2805.39,0.9186914729154894
336,2811.86,0.9879682000081091
337,2824.84,1.0211170659528084
338,2837.8799999999997,1.0066553995366978
339,2844.4199999999996,0.9861931722083723
340,2857.5499999999997,0.9488572072510457
341,2864.14,1.0130913696220447
342,2877.36,1.0240361061235026
343,2883.9900000000002,1.0106082802539615
344,2884.0315,1.0106258974497053
345,2897.2999999999997,1.0179041723531341
346,2910.67,1.0678373208464498
347,2930.85,1.0386409712275353
348,2951.17,1.0247757765666656
349,2971.62,1.0357395186525524
350,2992.22,1.0338676339077733
351,3012.96,1.0392773041210392
352,3026.87,1.0402508360239577
353,3047.85,1.0413406433081585
354,3068.98,1.0463895237616931
355,3090.25,1.0467549591732732
356,3111.67,1.0552780677541873
357,3133.24,1.0396072495044357
358,3147.7,1.0378765830282461
359,3169.52,1.0465777200607178
360,3191.4900000000002,1.0058634302625236
361,3213.62,1.0300463318449529
362,3228.45,0.9876432391864541
363,3250.83,1.0471437960511065
364,3273.36,1.080309226085093
365,3288.47,1.071769643342685
366,3311.2599999999998,1.062489246870184
367,3311.31121,1.0625000553534933
368,3318.9,1.0647617849325184
369,3326.5499999999997,1.0587767648622273
370,3334.22,1.101593920687177
371,3341.9,1.0633429644597474
372,3349.61,1.1094276720751792
373,3357.33,1.087725067638232
374,3365.07,1.0084694390965256
375,3372.82,0.9975630985024397
376,3380.6000000000004,1.0826912217512155
377,3388.39,1.0864759329476117
378,3396.2,1.054390320039249
379,3404.03,1.1006950830261275
380,3411.88,1.0446629219082468
381,3419.7499999999995,1.0541223366856078
382,3427.6299999999997,1.0663009394105887
383,3435.5299999999997,1.085238318030811
384,3443.4500000000003,1.0072783725462742
385,3451.39,1.0788210029569782
386,3459.34,1.0648651213153033
387,3467.3199999999997,1.0573362035164897
388,3475.31,1.0711169736652968
389,3483.3199999999997,1.0634713197093446
390,3491.35,1.0672362416486338
391,3499.3999999999996,1.008024939483164
392,3507.47,1.0854075132129353
393,3515.55,1.0335109748903268
394,3523.6600000000003,1.0710016004105802
395,3531.7799999999997,1.0619568138784543
396,3539.9199999999996,1.0977129032415693
397,3548.08,1.1215610684999255
398,3556.2599999999998,1.0842613096535225
399,3564.46,1.0979318267023608
400,3572.68,1.01447041964644
401,3580.91,1.03377620053814
402,3589.17,0.9427986452727012
403,3597.44,1.057788377954883
404,3605.7400000000002,1.0669715744799266
405,3611.02,0.9380471108235688
406,3613.7200000000003,1.096330756681113
407,3616.42,1.0385403025386575
408,3619.12,1.0595863483962016
409,3621.82,1.058053294253746
410,3624.52,1.0096633401112902
411,3627.22,0.9333226859688346
412,3629.9199999999996,0.9494015318263789
413,3632.62,0.919666977683923
414,3635.32,0.9013150235414673
415,3638.02,0.9332499693990116
416,3640.7200000000003,1.1696741152565557
417,3643.42,1.1669437611141003
418,3646.12,1.1026167069716444
419,3648.8199999999997,1.0778170528291888
420,3651.52,1.088014498686733
421,3654.2200000000003,1.0415905445442772
422,3656.92,1.0363683904018215
423,3659.62,1.028144936259366
424,3662.32,0.9376551821169101
425,3665.02,0.9892892279744545
426,3667.72,1.0126165738319988
427,3670.4199999999996,1.1215918196895431
428,3673.1200000000003,1.1750295655470873
429,3675.82,0.9339461114046316
430,3678.52,1.079787057262176
431,3681.2200000000003,1.18213660311972
432,3683.92,1.1239256489772644
433,3686.62,1.0318421948348089
434,3689.3199999999997,1.0197195406923532
435,3692.0199999999995,1.0053963865498974
436,3694.7200000000003,1.1414970324074416
437,3697.42,1.227941678264986
438,3700.12,1.13189422412253
439,3702.82,1.0728581699800743
440,3705.52,1.1660013158376188
441,3708.21,1.0123668737475424
442,3710.91,1.0670105196050867
443,3713.61,1.1399130654626308
444,3716.31,1.0899051113201752
445,3719.0099999999998,1.1199066571777196
446,3721.7099999999996,1.1521167030352641
447,3724.4100000000003,1.272733748892808
448,3727.11,1.5244240947503525
449,3729.81,1.7368618406078968
450,3732.51,1.684110586465441
451,3735.21,1.5041053323229852
452,3737.91,1.2546889781805297
453,3740.6099999999997,1.1128765240380738
454,3743.3100000000004,1.024311969895618
455,3746.01,1.0000543157531623
456,3748.71,0.9651746616107069
457,3751.41,1.0708979074682512
458,3754.11,1.0491238533257952
459,3756.81,1.0807271991833396
460,3759.5099999999998,1.126471645040884
461,3762.2100000000005,1.007011790898428
462,3764.9100000000003,1.1835379367559722
463,3767.61,1.1057815826135167
464,3770.31,1.026108028471061
465,3773.0099999999998,0.9796840743286054
466,3775.71,1.0650450201861497
467,3778.41,1.196291866043694
468,3781.1099999999997,1.2199749119012382
469,3783.8100000000004,1.1966233577587824
470,3786.51,1.1867901036163266
471,3789.21,1.0744333494738711
472,3791.91,1.1857869953314153
473,3794.61,1.1616587411889596
474,3797.31,1.079145687046504
475,3800.0099999999998,1.0289033329040482
476,3801.8939600000003,1.0347429431387825
477,3802.71,1.0373223659532989
478,3805.4100000000003,1.0840169024995434
479,3808.11,1.1913775390457881
480,3810.81,1.193852675592033
481,3813.5099999999998,1.2414128121382775
482,3816.21,1.1507243486845222
483,3818.91,1.244299985230767
484,3821.6099999999997,1.2287910217770115
485,3824.2999999999997,1.1666492578175296
486,3827.0,1.1026978943637742
487,3829.7,1.135987530910019
488,3832.4,1.0672224674562636
489,3835.1000000000004,1.0052288040025081
490,3837.8,0.9095324405487529
491,3840.5,0.9599080770949975
492,3843.2,1.0255090136412424
493,3845.9,1.1114480501874868
494,3848.6,1.2013670867337316
495,3851.2999999999997,1.2236059232799765
496,3854.0,1.210653459826221
497,3856.7000000000003,1.2658829963724658
498,3859.4,1.2085250329187105
499,3862.1,1.2439179694649551
500,3864.7999999999997,1.2450258060111998
501,3867.5,1.2269848425574446
502,3870.2,1.3020427791036893
503,3872.9,1.304307515649934
504,3875.6000000000004,1.2796325521961784
505,3878.3,1.2607825887424233
506,3881.0,1.137265225288668
507,3883.7,1.0925921618349128
508,3886.3999999999996,1.0505726983811574
509,3889.1,1.047384834927402
510,3891.8,1.0393672714736466
511,3894.5,1.0983343080198913
512,3897.2000000000003,1.1456355445661361
513,3899.9,1.2178053811123808
514,3902.6,1.2587559176586256
515,3905.2999999999997,1.2499375542048703
516,3908.0,1.3157889907511149
517,3910.7,1.3057570272973595
518,3913.4,1.2500979638436043
519,3916.1000000000004,1.2527671003898488
520,3918.8,1.2979083369360938
521,3921.5,1.2830224734823386
522,3924.2,1.340136810028583
523,3926.8999999999996,1.238057846574828
524,3929.6,1.1871798831210725
525,3932.3,1.0705634196673173
526,3935.0,0.9977538562135619
527,3937.7000000000003,1.0602560927598064
528,3940.39,1.0166393288003244
529,3943.09,1.013265365346569
530,3945.79,1.2006928018928138
531,3948.4900000000002,1.1424770384390583
532,3951.19,1.2833467749853031
533,3953.89,1.260775411531548
534,3956.5899999999997,1.2668422480777926
535,3959.29,1.2092252846240372
536,3961.9900000000002,1.2212707211702818
537,3964.69,1.1283493577165267
538,3967.39,1.0331383942627714
539,3970.09,0.9925669308090159
540,3972.79,1.0357343673552606
541,3975.49,0.9627466039015053
542,3978.1899999999996,1.11459424044775
543,3980.8900000000003,1.1578344769939948
544,3983.59,1.2627118135402393
545,3986.29,1.3473319500864842
546,3988.9900000000002,1.322576386632729
547,3991.69,1.3023511231789735
548,3994.39,1.3978117597252182
549,3997.0899999999997,1.4234557962714631
550,3999.7899999999995,1.3682825328177077
551,4002.4900000000002,1.3690101693639523
552,4005.19,1.436075205910197
553,4007.89,1.5456123424564416
554,4010.59,1.5018454790026863
555,4013.29,1.414069115548931
556,4015.99,1.4821047520951758
557,4018.6899999999996,1.5117948886414205
558,4021.3900000000003,1.5322610251876652
559,4024.09,1.58589716173391
560,4026.79,1.5659952982801546
561,4029.4900000000002,1.5723854348263993
562,4032.19,1.5261115713726439
563,4034.89,1.5018407079188887
564,4037.5899999999997,1.4865498444651335
565,4040.2900000000004,1.515673981011378
566,4042.9900000000002,1.4768411175576228
567,4045.69,1.4894612541038676
568,4048.39,1.474737390650112
569,4051.09,1.4837165271963568
570,4053.79,1.4262776637426016
571,4056.49,1.443022800288846
572,4059.18,1.517942436329364
573,4061.88,1.4787865728756087
574,4064.58,1.4160887094218535
575,4067.2799999999997,1.4232888459680981
576,4069.9800000000005,1.4149549825143428
577,4072.6800000000003,1.4250671190605875
578,4075.38,1.4320242556068323
579,4078.08,1.4143063921530767
580,4080.7799999999997,1.4749805286993216
581,4083.48,1.4995736652455665
582,4086.18,1.5496498017918112
583,4088.8799999999997,1.4170549383380557
584,4091.5800000000004,1.5286960748843001
585,4094.28,1.436066211430545
586,4096.9800000000005,1.3554895479767897
587,4099.68,1.3372056845230345
588,4102.38,1.2992636210692792
589,4105.08,1.1979366576155237
590,4107.78,1.2356757941617686
591,4110.4800000000005,1.318354330708013
592,4113.18,1.341976367254258
593,4115.88,1.4003853038005025
594,4118.58,1.3461013403467472
595,4121.28,1.408959576892992
596,4123.98,1.4756197134392368
597,4126.679999999999,1.4274848499854815
598,4129.38,1.4669629865317262
