,lambda (Angstroms),Total Flux (erg/s/cm^2/Angstrom)
0,101.98,0.0007636660773890374
1,104.11,0.0009099106751617546
2,104.712855,0.0009513023591981106
3,106.05,0.0008746998964482526
4,108.02000000000001,0.0007618423891488231
5,110.03,0.0006466933589056082
6,113.9,0.00042498850967955567
7,117.9,0.00019583621089768217
8,120.22644299999999,6.255877247656155e-05
9,120.92,6.072028548935587e-05
10,124.88000000000001,5.0223081752095216e-05
11,126.91,4.484193982522136e-05
12,128.09,4.171398556700091e-05
13,131.07,3.38145764752704e-05
14,131.98,3.140234308710304e-05
15,134.12,2.5729614275496118e-05
16,136.93,1.8280850509703475e-05
17,138.038426,1.5342628138809202e-05
18,140.12,1.5147757973888833e-05
19,143.06,1.4872602104351645e-05
20,147.06,1.4498381371162273e-05
21,150.84,1.4144651931467314e-05
22,155.06,1.3749791226383527e-05
23,158.489319,1.3428990044035663e-05
24,159.04000000000002,1.3349817744727471e-05
25,162.0,1.2924309526559252e-05
26,166.15,1.2327837382228808e-05
27,170.02,1.1771745734995358e-05
28,173.18,1.1317756019329285e-05
29,176.80999999999997,1.0796489008893264e-05
30,180.10000000000002,1.032405073650358e-05
31,181.970086,1.0055615506801391e-05
32,182.18,1.0065396061796982e-05
33,185.99999999999997,1.0243657522129453e-05
34,191.20999999999998,1.0487095139873476e-05
35,193.87,1.0611947880330118e-05
36,197.93,1.0802448064395522e-05
37,202.07,1.0997225222038563e-05
38,204.88,1.1129995911453287e-05
39,208.929613,1.1320801017300332e-05
40,210.14000000000001,1.166204996049104e-05
41,216.03,1.3326626028740826e-05
42,220.04,1.4460497325359097e-05
43,223.1,1.532564230322741e-05
44,227.25,1.6500877200924628e-05
45,229.88000000000002,1.727568692262191e-05
46,234.16,1.8555876178463852e-05
47,239.88329199999998,2.0238091880264405e-05
48,240.16,2.0177563124084374e-05
49,245.76000000000002,1.8911567746696172e-05
50,252.06,1.7519431559634453e-05
51,256.75,1.642036966482184e-05
52,259.71999999999997,1.581153101949275e-05
53,263.94,1.489652767831807e-05
54,268.84999999999997,1.381903626903664e-05
55,273.85,1.272277148565431e-05
56,275.42287,1.2379343708511959e-05
57,278.94,1.3295367847728318e-05
58,284.12,1.4649332376322074e-05
59,290.07,1.6179681690247337e-05
60,296.15,1.7797574713384402e-05
61,300.96000000000004,1.9060355054221474e-05
62,307.97,2.094069228171998e-05
63,316.227766,2.317603464810119e-05
64,318.06,2.2887241222053088e-05
65,327.72,2.1372339980654867e-05
66,337.68,1.9813588644803296e-05
67,347.94,1.8218621214498364e-05
68,356.87000000000006,1.6863435469603317e-05
69,363.078055,1.5943398407079225e-05
70,366.02000000000004,1.6455936499032965e-05
71,375.40999999999997,1.8060522402762003e-05
72,385.03999999999996,1.9653957741730124e-05
73,394.92,2.1503973825738968e-05
74,405.05,2.3331974654788515e-05
75,413.53000000000003,2.4868375366569373e-05
76,416.86938299999997,2.5444173411606684e-05
77,422.19,2.6060792766606675e-05
78,430.04,2.7023460873960254e-05
79,441.07,2.8434648302509284e-05
80,451.34000000000003,2.9678842044231735e-05
81,459.73,3.073280850801473e-05
82,470.44,3.206368891053151e-05
83,478.630092,3.314741437286829e-05
84,480.29,3.304174972050594e-05
85,490.35,3.22535638150127e-05
86,499.46999999999997,3.176446652096715e-05
87,506.42,3.1343805085263566e-05
88,512.28,3.256179248623869e-05
89,519.41,3.22932983802579e-05
90,530.28,3.1713765458517195e-05
91,540.14,3.0879435853331976e-05
92,549.5408739999999,3.148776577740811e-05
93,550.18,3.157705447635346e-05
94,560.41,3.2963740869202605e-05
95,569.52,3.423660676742897e-05
96,580.11,3.4162345819264e-05
97,589.53,3.6375813729394884e-05
98,600.49,3.699212356963209e-05
99,610.25,3.835990787991631e-05
100,620.16,4.213035413144466e-05
101,630.24,4.404336858304968e-05
102,630.957344,4.4116797884942255e-05
103,640.4799999999999,4.590065611806604e-05
104,649.39,5.015778808856865e-05
105,658.43,5.310528119893267e-05
106,664.52,5.600363921244118e-05
107,675.3199999999999,5.8367521600929175e-05
108,684.71,5.9681057010920134e-05
109,694.24,7.069503134076185e-05
110,705.52,7.088631716873821e-05
111,715.33,8.185627933828148e-05
112,724.43596,8.610113112195771e-05
113,725.28,8.647684462433293e-05
114,735.37,9.086044402919101e-05
115,745.6,0.00010104464887673296
116,754.24,0.00010844363619665108
117,764.73,0.00011522720686632019
118,775.37,0.00012676428051029343
119,784.34,0.00013745232637368064
120,795.26,0.0001457508909030216
121,804.46,0.00015456651999367518
122,815.66,0.00016271915540838383
123,825.1,0.00017973184525792401
124,831.763771,0.00016490718257392923
125,834.65,0.00015823155992539543
126,844.3199999999999,0.00019549589412086118
127,854.1,0.00020433137296591334
128,865.9799999999999,0.00022124369512125286
129,876.01,0.00023996964816991068
130,884.11,0.000263472472366733
131,894.35,0.0002814911197464196
132,904.7099999999999,0.00028758720674383685
133,915.1800000000001,0.0004453230383908406
134,925.78,0.003064297404623719
135,934.34,0.006981483497355175
136,945.1600000000001,0.013912200852887227
137,953.9100000000001,0.020240331450013426
138,954.992586,0.020571088149818253
139,964.9499999999999,0.023613830726767655
140,973.88,0.0039047423286449217
141,985.1600000000001,0.021487807457331996
142,994.28,0.023022900242227928
143,1005.79,0.03381242017141128
144,1015.1,0.03281565113932587
145,1024.49,0.0138471513421957
146,1033.97,0.023721840684390157
147,1045.94,0.04656096621456606
148,1055.6200000000001,0.04666818364414859
149,1065.3899999999999,0.037674530213055744
150,1075.24,0.04560602601691813
151,1085.19,0.03673316086447454
152,1095.23,0.049318494851355595
153,1096.4782,0.04918025892085892
154,1105.37,0.04819532677743114
155,1115.6000000000001,0.04709868058692798
156,1125.92,0.043153591702666735
157,1133.72,0.055333458243632075
158,1144.21,0.05093272427116109
159,1154.8,0.05495215730562557
160,1165.49,0.05767301734702549
161,1176.27,0.040926584694667326
162,1184.42,0.05727605075990675
163,1195.38,0.0397198527200324
164,1203.67,0.02891014459498146
165,1214.81,0.018497961167590924
166,1226.05,0.03999413474713585
167,1234.55,0.062222630336649355
168,1245.97,0.06965685852867808
169,1254.6,0.06744537022720769
170,1258.92541,0.06410253709264632
171,1266.21,0.05847297627340237
172,1274.99,0.0767257349655593
173,1283.83,0.08127390378545307
174,1295.7099999999998,0.0653051890773465
175,1304.69,0.06515503819529289
176,1313.7299999999998,0.0823998774409761
177,1325.89,0.07960721332897477
178,1335.08,0.07144197289400009
179,1344.33,0.08569058258676222
180,1353.65,0.08393332242855067
181,1366.1799999999998,0.07584349910425983
182,1375.6499999999999,0.08052431926539036
183,1385.18,0.08239981955425774
184,1394.78,0.07293464999215142
185,1404.4499999999998,0.07672652057907142
186,1414.1899999999998,0.07869101131501771
187,1423.99,0.08145510217870085
188,1433.8600000000001,0.08164992319141029
189,1440.48,0.08668334728504115
190,1445.43977,0.08803521960521257
191,1447.13,0.08849592086423892
192,1453.8100000000002,0.08668375280008683
193,1463.8799999999999,0.08089971079319892
194,1474.03,0.08127486892925528
195,1484.25,0.0833570871903879
196,1494.54,0.08549589557659677
197,1504.9,0.08183654408788188
198,1511.8400000000001,0.07327571648829874
199,1515.33,0.07887153272424324
200,1525.83,0.07690043148568086
201,1536.41,0.06775566039006276
202,1543.4999999999998,0.07549761305850017
203,1554.2,0.07176857217729851
204,1564.97,0.07327523142117308
205,1575.82,0.07869128080799195
206,1586.74,0.08316392031988708
207,1594.07,0.08569130341715733
208,1605.12,0.08451739316133693
209,1616.24,0.08529577303059276
210,1623.6999999999998,0.0812749363601475
211,1634.96,0.08707957647955583
212,1646.29,0.08890635672404042
213,1653.89,0.08259395030374765
214,1659.58691,0.08675644974389611
215,1665.36,0.0909746758142803
216,1673.0400000000002,0.08164975602823507
217,1676.9,0.0920307063961863
218,1684.64,0.09658659739306258
219,1696.3200000000002,0.09118360980178547
220,1704.15,0.08809419197304404
221,1715.96,0.08432400607809688
222,1723.88,0.08451798942373774
223,1735.83,0.09055945535560746
224,1743.8400000000001,0.08890730987563061
225,1755.93,0.09548339763431721
226,1764.03,0.08768580332872263
227,1776.26,0.09076904291422612
228,1784.46,0.09288630991350075
229,1796.8300000000002,0.09952471132582114
230,1805.1200000000001,0.09929700949947803
231,1813.46,0.09245647832556954
232,1826.03,0.09483122234762834
233,1834.45,0.0916105122176152
234,1842.92,0.08471442274003667
235,1855.7,0.08569335950232078
236,1864.26,0.08870719119912453
237,1872.8700000000001,0.09615121354836288
238,1885.8500000000001,0.0893190729203854
239,1894.5500000000002,0.08629160644400603
240,1903.3,0.09161075062006128
241,1905.46072,0.09116834559376681
242,1916.4900000000002,0.08890978330314293
243,1925.3400000000001,0.08768651444694649
244,1934.22,0.09014531508615276
245,1943.1499999999999,0.09504745488436359
246,1956.6200000000001,0.0897353283201866
247,1965.6499999999999,0.0983871464364065
248,1974.73,0.10137957371163094
249,1983.8400000000001,0.0963657004822581
250,1993.0,0.0941779564118898
251,2006.81,0.0970396241289437
252,2016.0800000000002,0.09439257820838538
253,2025.3799999999999,0.0988371317832298
254,2034.7299999999998,0.09460868451707874
255,2044.1200000000001,0.09861479657813133
256,2053.56,0.09482978779818844
257,2063.04,0.0957041483454492
258,2072.56,0.10255112821991358
259,2077.34,0.09861411782074758
260,2086.93,0.10231458651781834
261,2096.56,0.09725965454209272
262,2106.2400000000002,0.09838391172537163
263,2115.96,0.09975205823585417
264,2125.7200000000003,0.10137713407354035
265,2135.54,0.09482826890203197
266,2145.39,0.09793232322592632
267,2155.3,0.10160483654062612
268,2165.24,0.09861299935072863
269,2175.24,0.0981538511516366
270,2185.28,0.0974803322797482
271,2187.7616199999998,0.09866898405964031
272,2195.37,0.1023134925704513
273,2205.5,0.0997514884176795
274,2215.68,0.09526597493542711
275,2225.9100000000003,0.09288360212369409
276,2236.1800000000003,0.09975133984837659
277,2246.5,0.09570405824357847
278,2256.87,0.09223837730929975
279,2267.29,0.09439112704554041
280,2272.52,0.0972590371818685
281,2283.01,0.10021026785683632
282,2293.54,0.09502409906821964
283,2304.13,0.09587050108422622
284,2314.77,0.0919472537707522
285,2325.45,0.07385911699369369
286,2336.18,0.08614988088715457
287,2346.97,0.0831917755852387
288,2352.38,0.0905731481354366
289,2363.23,0.083345203638144
290,2374.14,0.08644215994547469
291,2385.1,0.08008838692332475
292,2396.11,0.0855885745716942
293,2407.17,0.08246371289058305
294,2412.72,0.08456071731823522
295,2423.86,0.09036566670995509
296,2435.04,0.08706787663809047
297,2446.28,0.0921930473708491
298,2457.58,0.09110187890823103
299,2463.24,0.09067197481102586
300,2474.6099999999997,0.08756157728713491
301,2486.0299999999997,0.08956883043376336
302,2497.51,0.08511053438501506
303,2503.2700000000004,0.09460273162884868
304,2511.88643,0.0870502441489577
305,2514.8199999999997,0.08447885195278003
306,2520.62,0.08622844184977582
307,2526.4300000000003,0.08309650169486986
308,2532.25,0.08443013148806218
309,2543.94,0.08362476081493815
310,2555.6800000000003,0.08998550988230547
311,2567.4799999999996,0.0877003386382624
312,2573.4,0.0930885079124374
313,2585.2799999999997,0.0921997262531805
314,2597.2099999999996,0.09110956433441492
315,2603.2,0.0879983632452778
316,2615.21,0.08695745091129838
317,2627.28,0.09122792826590856
318,2633.34,0.09485229681345932
319,2645.49,0.10324744375285565
320,2657.7099999999996,0.10609438032893986
321,2663.83,0.09629677856508023
322,2676.13,0.1007963847259506
323,2682.3,0.10147635270258232
324,2694.68,0.09642107844823883
325,2707.12,0.09953869388248496
326,2713.36,0.09438658149580455
327,2725.88,0.09391420651483681
328,2732.1600000000003,0.09900432392054949
329,2744.78,0.08619254842056444
330,2757.4500000000003,0.08856712266107075
331,2763.8,0.0925114397034713
332,2776.56,0.09683026347686201
333,2782.96,0.09097672025975391
334,2795.7999999999997,0.07391577361793078
335,2802.25,0.07918579014131401
336,2815.18,0.0962611830323753
337,2828.1800000000003,0.10169089556012445
338,2834.7,0.09844132172019557
339,2847.7799999999997,0.0954973238327309
340,2854.35,0.09139292973329335
341,2867.52,0.10155899137871308
342,2874.1299999999997,0.1024757570716686
343,2884.0315,0.1020919572674541
344,2887.4,0.10196140532337371
345,2894.06,0.1021698046159614
346,2907.4100000000003,0.11121100319795026
347,2927.5699999999997,0.10711370105659411
348,2947.86,0.10557239890142962
349,2968.29,0.10771119673139459
350,2988.8700000000003,0.10838489454542685
351,3009.5899999999997,0.11007159234458859
352,3030.4500000000003,0.11050209012887979
353,3051.45,0.11093328789830048
354,3072.61,0.11188448565072627
355,3086.79,0.11286348414455413
356,3108.18,0.11356528187254976
357,3129.73,0.11219007958355051
358,3151.4199999999996,0.11288487727968073
359,3173.2700000000004,0.11384267495881605
360,3187.92,0.10841917340272142
361,3210.0099999999998,0.1126621710563644
362,3232.27,0.10751616869195033
363,3247.1800000000003,0.11541236710823902
364,3269.69,0.12020366471727043
365,3292.3599999999997,0.11955716230930692
366,3307.55,0.11922476069585455
367,3311.31121,0.11927764384493812
368,3322.82,0.11943943692797597
369,3330.48,0.12218962137449771
370,3338.16,0.11666190578040982
371,3345.8500000000004,0.12073149016601714
372,3353.57,0.11552947449071005
373,3361.2999999999997,0.11764765879509817
374,3369.05,0.11680714305887666
375,3376.81,0.10999552730235036
376,3384.6,0.11304351148490967
377,3392.3999999999996,0.12193899564716416
378,3400.22,0.12735487976880905
379,3408.06,0.11827956384984435
380,3415.91,0.12016864791057484
381,3423.79,0.12725793191039092
382,3431.68,0.1263486158899022
383,3439.59,0.12544549982880385
384,3447.52,0.11306478372709594
385,3455.47,0.1191819675847784
386,3463.4300000000003,0.11248825142215607
387,3471.42,0.12077893519861933
388,3479.4199999999996,0.1116548189547778
389,3487.44,0.11796710267032665
390,3495.4800000000005,0.11711948634526591
391,3503.54,0.12289016997959554
392,3511.62,0.1206120535733156
393,3519.7099999999996,0.12114003714673083
394,3527.8199999999997,0.11459212067953646
395,3535.96,0.1221883041514277
396,3544.1099999999997,0.12703528760301414
397,3552.2799999999997,0.12846597101399096
398,3560.47,0.12638225438435818
399,3568.6800000000003,0.1176400377141158
400,3576.9,0.11414052102356861
401,3585.1499999999996,0.10872440427210701
402,3593.4100000000003,0.11434218750034063
403,3601.7,0.12678517066765982
404,3609.33,0.04969197517509596
405,3612.07,0.08496197961158024
406,3614.8,0.0893437940683693
407,3617.5299999999997,0.12184163852515839
408,3620.27,0.10547443296164265
409,3623.0,0.12718142741843175
410,3625.7400000000002,0.128222621854916
411,3628.47,0.12829231631170507
412,3631.2100000000005,0.10800881074818934
413,3633.94,0.1167028052049784
414,3636.67,0.1437982996617675
415,3639.4100000000003,0.13849969409825175
416,3642.14,0.13989568855504084
417,3644.8799999999997,0.1369996829915251
418,3647.61,0.1251119774483142
419,3650.35,0.11416797188479845
420,3653.0800000000004,0.14424236634158752
421,3655.81,0.1552071607983766
422,3658.5499999999997,0.13800655523486086
423,3661.28,0.13842354969164994
424,3664.02,0.12865304412813422
425,3666.7499999999995,0.0939336785849233
426,3669.48,0.13366013304171237
427,3672.22,0.14481862747819665
428,3674.9500000000003,0.12186232193498571
429,3677.69,0.13685381637146998
430,3680.4199999999996,0.12614661082825906
431,3683.16,0.13215270526474332
432,3685.89,0.14604079972153242
433,3688.6200000000003,0.12875769417832147
434,3691.36,0.13451378861480576
435,3694.0899999999997,0.12379958307159482
436,3696.83,0.1307778775080791
437,3699.56,0.10716187196486818
438,3702.3,0.13231926640135241
439,3705.03,0.1274102608581415
440,3707.7599999999998,0.1366528553149306
441,3710.5,0.13269444975141487
442,3713.23,0.12784094420820394
443,3715.9700000000003,0.1244935386446882
444,3718.7,0.1299934331014773
445,3721.4399999999996,0.18047522753796155
446,3724.17,0.2681496219947506
447,3726.9,0.3426726164515397
448,3729.6400000000003,0.317652610888024
449,3732.37,0.281614305344813
450,3735.1099999999997,0.15912969978129732
451,3737.84,0.1344652942380864
452,3740.58,0.14311698867457068
453,3743.3100000000004,0.14877658313135975
454,3746.04,0.1298407775881488
455,3748.7799999999997,0.12923627202463306
456,3751.51,0.14288136648142216
457,3754.25,0.13831876091790643
458,3756.9799999999996,0.1343263553746955
459,3759.72,0.15851154981117976
460,3762.45,0.15260264426796885
461,3765.1800000000003,0.13715273872475794
462,3767.92,0.1475195331612422
463,3770.6499999999996,0.15856772761803126
464,3773.39,0.15656732205451554
465,3776.12,0.16978201651130462
466,3778.86,0.18184991094778888
467,3781.59,0.18500290540457795
468,3784.3199999999997,0.18762809986136705
469,3787.06,0.1875927942978513
470,3789.79,0.1769898887546404
471,3792.53,0.16201128319112465
472,3795.2599999999998,0.14331167764791372
473,3798.0000000000005,0.13969347208439797
474,3800.73,0.16022696654118707
475,3801.8939600000003,0.1578822882700964
476,3803.46,0.15472766166052807
477,3806.2000000000003,0.17164265725623712
478,3808.93,0.2115497528680202
479,3811.6699999999996,0.20288314846372923
480,3814.4,0.1988352440755123
481,3817.13,0.17576793968729537
482,3819.8700000000003,0.1738230352830044
483,3822.6,0.1781079308947875
484,3825.3399999999997,0.17435762649049652
485,3828.07,0.1611298221022796
486,3830.81,0.14079061769798862
487,3833.5399999999995,0.1380828133097717
488,3836.27,0.1268200089215548
489,3839.0099999999998,0.1447697045172638
490,3841.7400000000002,0.1721777001290469
491,3844.48,0.1875301957247559
492,3847.2099999999996,0.180003391336539
493,3849.95,0.191814386932248
494,3852.68,0.18919698254403108
495,3855.4100000000003,0.18287147815581417
496,3858.15,0.19093977375152318
497,3860.8799999999997,0.18604466936330627
498,3863.62,0.19977226495901532
499,3866.35,0.2067652605707984
500,3869.09,0.22197865616650742
501,3871.82,0.1945992517782905
502,3874.5499999999997,0.17293464739007355
503,3877.29,0.1717883429857826
504,3880.02,0.16121313859756567
505,3882.76,0.1837040341932747
506,3885.49,0.17201082980505777
507,3888.2299999999996,0.1653164254007668
508,3890.96,0.18732202101254988
509,3893.69,0.18641281662433296
510,3896.4300000000003,0.185065112220042
511,3899.16,0.18807220783182507
512,3901.8999999999996,0.2022025034275341
513,3904.63,0.19365499903931715
514,3907.37,0.2060145946350262
515,3910.1000000000004,0.21089659024680926
516,3912.83,0.19883538585859237
517,3915.5699999999997,0.1915714814543014
518,3918.3,0.20518197706608446
519,3921.04,0.1993207726617935
520,3923.77,0.20229316827357657
521,3926.5099999999998,0.18178726386928562
522,3929.24,0.14897755948106867
523,3931.9700000000003,0.14535315509285174
524,3934.71,0.1329856506885608
525,3937.44,0.15528984630034387
526,3940.18,0.18150264189605286
527,3942.91,0.18396113750783596
528,3945.65,0.17732223310354497
529,3948.38,0.19923762871532805
530,3951.1099999999997,0.19948802432711116
531,3953.85,0.18499551992282018
532,3956.58,0.18702351553460328
533,3959.32,0.18648831113031228
534,3962.0499999999997,0.16821920674209534
535,3964.7799999999997,0.14302000235387846
536,3967.52,0.14193639794958746
537,3970.25,0.15107489356137055
538,3972.9900000000002,0.14963708915707957
539,3975.72,0.18061428476886265
540,3978.4599999999996,0.2080074803645717
541,3981.19,0.19252297597635476
542,3983.92,0.20818887158813784
543,3986.6600000000003,0.20891736718384687
544,3989.39,0.22273626279562994
545,3992.1299999999997,0.23097105839133894
546,3994.86,0.21267435400312204
547,3997.6,0.22234654959883107
548,4000.3300000000004,0.23055474521061417
549,4003.06,0.22331964082239725
550,4005.7999999999997,0.23179063641810624
551,4008.53,0.23983213202988934
552,4011.27,0.23758852762559837
553,4014.0,0.24682452323738144
554,4016.74,0.2507749188330905
555,4019.47,0.24864361444487354
556,4022.2000000000003,0.2555812100566566
557,4024.94,0.23513060565236565
558,4027.67,0.23058280126414873
559,4030.41,0.23625529685985777
560,4033.14,0.21763219247164084
561,4035.88,0.23329008806734988
562,4038.61,0.24534518367913294
563,4041.34,0.250525879290916
