,lambda (Angstroms),Total Flux (erg/s/cm^2/Angstrom)
0,100.1,0.033156626433162965
1,101.96000000000001,0.03982919171420148
2,104.09,0.04747035477373084
3,104.712855,0.04970478534917258
4,106.03,0.04576223521032212
5,108.0,0.03986552451069168
6,110.01,0.03384908757363176
7,113.86999999999999,0.022295130425021847
8,117.88,0.010292186905148892
9,120.22644299999999,0.003268747225171221
10,120.9,0.003175476068797134
11,124.86,0.0026270498356311973
12,126.89,0.0023459134352991637
13,128.06,0.0021838807084910454
14,131.05,0.0017698001630369645
15,131.96,0.0016438031939639843
16,134.1,0.0013474440698440094
17,136.91,0.0009583486764065635
18,138.038426,0.0008020859083547949
19,140.1,0.0007920512899891691
20,143.03,0.0007782492378127957
21,147.04,0.0007596904485983731
22,151.16,0.0007399701946124827
23,155.03,0.000721577319834474
24,158.489319,0.0007052221284797214
25,159.01,0.0007013940399695264
26,161.97,0.0006796864872118231
27,166.11999999999998,0.0006493316419231513
28,169.99,0.0006211341699358836
29,173.15,0.0005981589272486057
30,177.18,0.0005689775505176786
31,180.06,0.0005482294871318051
32,181.970086,0.0005344843705357072
33,182.14999999999998,0.0005349770321361662
34,185.96,0.0005455883427009005
35,191.17,0.0005601383987933585
36,193.83,0.000567901203996034
37,197.89000000000001,0.0005795852277264333
38,202.03,0.0005916293382298453
39,204.85,0.0006000928869785464
40,208.929613,0.0006116261934161
41,210.10000000000002,0.0006292944144143598
42,215.99,0.0007205102770166816
43,220.0,0.0007823691267510297
44,223.06,0.000829345219291455
45,227.21,0.0008937348296649077
46,229.84,0.0009530391745280838
47,234.11,0.0010526390140207689
48,239.88329199999998,0.0011698088317612537
49,240.11999999999998,0.0011682722495614058
50,246.28,0.001097281266224298
51,252.01000000000002,0.0010451381698733842
52,257.28999999999996,0.000962587641298721
53,260.27000000000004,0.0009546080035804441
54,263.89,0.0009262903805803912
55,268.8,0.0008758031966217549
56,273.8,0.0008238258991078687
57,275.42287,0.0008067426859741226
58,278.89,0.0008569810707934906
59,284.07,0.000933673454877646
60,290.02,0.0010119682447040403
61,296.09,0.0011037374237370173
62,300.9,0.001165880666100876
63,307.90999999999997,0.001273941510585418
64,316.227766,0.001401429177478562
65,318.0,0.0013889315504442908
66,327.66,0.0013144178306452666
67,337.62,0.0012340862164425467
68,347.88,0.0011494546078361302
69,356.8,0.001080286207566224
70,363.078055,0.001033980248657017
71,365.95000000000005,0.0010611782353703494
72,375.34,0.0011408720252226467
73,384.97,0.0012119737780743646
74,394.84,0.0013100134939255015
75,404.96999999999997,0.0014016690613593435
76,414.40999999999997,0.0014796063726698538
77,416.86938299999997,0.0014992575150386445
78,422.11,0.0015256514444275222
79,429.96,0.0015641735365201168
80,440.99,0.0016294290483393936
81,451.26,0.001681867125255438
82,459.65,0.0017220246263582244
83,470.36,0.0017775950550603507
84,478.630092,0.0018256088482459572
85,480.2,0.0018186478745003626
86,490.26,0.0017601906924751235
87,500.53000000000003,0.0017199213903479657
88,506.32000000000005,0.0017659586503950696
89,512.18,0.002296743370408201
90,520.51,0.002285061206365433
91,530.1800000000001,0.002275191790243757
92,540.0400000000001,0.002176985636887011
93,549.5408739999999,0.0024656780216327084
94,550.08,0.0024841723484390196
95,560.31,0.0027486190325086155
96,569.41,0.002952418257829566
97,580.0,0.00286789127388988
98,589.42,0.0032535644609803585
99,600.38,0.003288117901586689
100,610.14,0.003687514235557291
101,620.05,0.004127809957857358
102,630.12,0.0043696641610421905
103,630.957344,0.004376244816188889
104,640.36,0.004491881669164997
105,649.27,0.004999777792369219
106,658.3,0.005268739748882588
107,664.39,0.005598695789321837
108,675.1899999999999,0.0057692197871451354
109,684.58,0.005759807243585949
110,695.7099999999999,0.007091886283009403
111,705.38,0.006841086350504894
112,715.2,0.008146658709636819
113,724.43596,0.008437123975550543
114,726.8199999999999,0.00850948162730535
115,735.23,0.008837772801971563
116,745.46,0.009822113122641644
117,755.8299999999999,0.010441206454542787
118,764.59,0.011030962157286666
119,775.2199999999999,0.011979476510045505
120,784.2,0.012904428230438204
121,795.11,0.013474998605659178
122,804.3100000000001,0.014069659343700695
123,815.5,0.014601445741383803
124,824.95,0.015944248999480794
125,831.763771,0.014407317878979555
126,834.5,0.013777509630890646
127,844.1600000000001,0.016897512029225716
128,855.91,0.01748872743092728
129,865.82,0.018709029518660256
130,875.8399999999999,0.01993757386972831
131,885.98,0.021537098871707364
132,894.18,0.022677146683958666
133,904.5400000000001,0.022945786212607875
134,915.01,0.034895938004592154
135,925.61,0.23156536883506335
136,934.17,0.5113497086000477
137,944.99,0.996194303957189
138,954.992586,1.3656991714278217
139,955.93,1.4003306149678694
140,964.77,1.6527251979547624
141,975.95,0.30697711173230374
142,984.98,1.5746970997833947
143,994.0899999999999,1.6039615478615166
144,1005.6,2.1833527967505595
145,1014.91,2.033040144896258
146,1024.3,0.8363458530689872
147,1036.16,1.4934895270762896
148,1045.75,2.7422867353165956
149,1055.42,2.7233819035839324
150,1065.19,2.2445260218850573
151,1075.04,2.625000100213213
152,1084.99,2.1584431285751573
153,1095.03,2.742289111967511
154,1096.4782,2.7289786726608813
155,1105.16,2.6491748113068283
156,1115.39,2.5947278131012066
157,1125.71,2.366455674148908
158,1136.1200000000001,2.8846543944499325
159,1144.0,2.6429360712964334
160,1154.5900000000001,2.786566510104104
161,1165.27,2.8845338081650973
162,1176.05,2.1091689498408943
163,1184.2,2.786566204447364
164,1195.16,1.9957810646298069
165,1206.22,1.4898497684270529
166,1214.58,0.8634986946246095
167,1225.82,1.8540011169285016
168,1234.31,2.7673548398253027
169,1245.74,3.0693409649973207
170,1254.37,2.9788134689548467
171,1258.92541,2.830351379373636
172,1265.9799999999998,2.6004521296906997
173,1274.75,3.2737781052283914
174,1283.59,3.4123510885525876
175,1295.47,2.8317114100335203
176,1304.45,2.7927974089307233
177,1313.49,3.373250414502073
178,1325.6399999999999,3.251275766016663
179,1334.83,2.951589788273378
180,1344.08,3.404541817204239
181,1356.52,3.3116382009772023
182,1365.9199999999998,3.0202552465934285
183,1375.3899999999999,3.1482022999961585
184,1384.92,3.1919743600730346
185,1394.52,2.8383324279364146
186,1404.1899999999998,2.9447875035862983
187,1413.9199999999998,3.0064285859103284
188,1423.72,3.055350676020862
189,1433.59,3.0413097739178996
190,1443.5300000000002,3.191976879601441
191,1445.43977,3.2174389715226583
192,1446.8600000000001,3.236374224627483
193,1453.5400000000002,3.162656848265863
194,1463.61,2.958409788391386
195,1473.76,2.9447997359856317
196,1483.97,2.9788286891814195
197,1494.26,3.0272626498459307
198,1504.6200000000001,2.8910306170455744
199,1511.5600000000002,2.624720264957305
200,1518.54,2.780079916603397
201,1525.55,2.7105715710502603
202,1536.12,2.4102715578553027
203,1546.77,2.6247305521290674
204,1553.91,2.4836152187126057
205,1564.68,2.5180412241894556
206,1575.53,2.6733942371350286
207,1586.45,2.7737242566157345
208,1593.77,2.8449169400038996
209,1604.8200000000002,2.7673389716212804
210,1615.9399999999998,2.7737390097737937
211,1623.4,2.6427937062322244
212,1634.65,2.786479756521413
213,1645.99,2.818753815212915
214,1653.5800000000002,2.618572523808021
215,1659.58691,2.7406837106396478
216,1665.0400000000002,2.851539802434601
217,1672.73,2.57671804535035
218,1676.59,2.858113677034978
219,1684.33,2.9516169540399058
220,1696.0,2.7928899104543126
221,1703.8300000000002,2.6980762488197634
222,1715.6399999999999,2.5886423006838712
223,1723.5600000000002,2.570790700409844
224,1735.5100000000002,2.716813847723654
225,1743.52,2.654958308810149
226,1755.6,2.8124765447558246
227,1763.7,2.588687067202842
228,1775.93,2.6673104054160555
229,1784.1299999999999,2.698132996041431
230,1796.49,2.8450284228865095
231,1804.79,2.8254690816902435
232,1813.1200000000001,2.6490557609474847
233,1825.69,2.685836330967116
234,1834.11,2.5946710715848798
235,1846.8300000000002,2.404873743872048
236,1855.3500000000001,2.42169355266817
237,1863.91,2.483756388735636
238,1876.83,2.6429561973795206
239,1885.5,2.4665411084431805
240,1894.2,2.3719770399603473
241,1902.9399999999998,2.489523998748858
242,1905.46072,2.475472368894642
243,1916.13,2.4159803408870544
244,1924.98,2.3775005632714383
245,1933.8600000000001,2.4272217592910237
246,1942.79,2.5355999113692778
247,1956.26,2.3883050735746623
248,1965.2900000000002,2.5708501377702544
249,1974.36,2.630783166812781
250,1983.47,2.500941160702243
251,1997.22,2.432688076836173
252,2006.4399999999998,2.4836829740547066
253,2015.7,2.421627836120175
254,2025.0000000000002,2.506646663032579
255,2034.3500000000001,2.404815446003651
256,2043.74,2.4721861938216585
257,2053.17,2.3718619064866013
258,2062.65,2.3882165752102122
259,2072.17,2.529753208780759
260,2076.95,2.4270890079894993
261,2086.54,2.4893435800421826
262,2096.17,2.3773381169418
263,2105.84,2.3937016186883535
264,2115.56,2.4102740764935753
265,2125.33,2.443845490357466
266,2135.14,2.2965448690682915
267,2144.99,2.339251212626052
268,2154.8900000000003,2.4047165122424814
269,2164.84,2.33923276791758
270,2174.83,2.317762988439614
271,2184.87,2.291189165020316
272,2187.7616199999998,2.317371976713343
273,2194.96,2.382562667562196
274,2205.09,2.317762765469765
275,2215.27,2.2287108984114288
276,2225.49,2.1681540593803685
277,2235.7599999999998,2.2916542553834023
278,2246.08,2.1991914864205317
279,2256.4500000000003,2.135014752491755
280,2266.87,2.1652010535970727
281,2277.33,2.2164253827296663
282,2282.58,2.257881061309601
283,2293.12,2.146934446496746
284,2303.7,2.152475859711167
285,2314.33,2.0800333079596824
286,2325.02,1.7267027982491114
287,2335.75,1.9739063165658162
288,2346.53,1.9118488699166154
289,2357.36,2.035036458301509
290,2362.79,1.9038962630041845
291,2373.7,1.9532879074436298
292,2384.6600000000003,1.8318965869171697
293,2395.66,1.9276322944179853
294,2406.72,1.8627500439597142
295,2412.27,1.8933019327442167
296,2423.4,1.9740007313336785
297,2434.59,1.9031815719640535
298,2445.83,1.9888314476285232
299,2457.1200000000003,1.9576413583270875
300,2462.7799999999997,1.9489533241865982
301,2474.15,1.8877062909397138
302,2485.57,1.9367002927269241
303,2497.04,1.833189329548229
304,2502.8,1.996461365475929
305,2511.88643,1.8720040954741988
306,2514.3500000000004,1.8382580640962185
307,2520.15,1.8770184912386465
308,2525.96,1.8052569156692513
309,2537.62,1.814137753683167
310,2543.47,1.789530167266478
311,2555.21,1.8830609835858068
312,2567.0,1.8535237863460183
313,2572.92,1.9322491809465656
314,2584.79,1.9195399620121902
315,2596.7200000000003,1.8981787268068742
316,2602.7099999999996,1.8424781024246575
317,2614.72,1.8219768455247545
318,2626.79,1.8822445723539107
319,2632.85,1.9087219289889303
320,2645.0,2.0317636341234997
321,2657.21,2.0464783229871286
322,2663.34,1.9190316606393842
323,2675.63,1.977979327808426
324,2687.98,1.9740619787065272
325,2694.18,1.8986002973760194
326,2706.6099999999997,1.9345019265795333
327,2712.85,1.8605812344017318
328,2725.37,1.8569048391988354
329,2737.9500000000003,1.9272094277249983
330,2744.26,1.737856716564433
331,2756.9300000000003,1.7625902806841856
332,2763.29,1.808090555964503
333,2776.04,1.8722370983896683
334,2782.44,1.8048363628226924
335,2795.28,1.519183880841447
336,2808.19,1.6096893798774379
337,2814.66,1.856916625327698
338,2827.65,1.9008121026691018
339,2834.1699999999996,1.840844334560245
340,2847.25,1.8037157874952383
341,2853.82,1.7670200058272645
342,2866.99,1.868016434355847
343,2873.6,1.8597686418405797
344,2884.0315,1.8602755876626336
345,2886.86,1.860413797304369
346,2893.52,1.8479027603426497
347,2906.87,1.949078686252717
348,2927.02,1.892607574424092
349,2947.3100000000004,1.8633264618184935
350,2967.74,1.8772373484359224
351,2988.31,1.873930234276378
352,3009.0299999999997,1.8835701192843624
353,3029.8799999999997,1.8802640035708718
354,3050.89,1.872646886969412
355,3072.03,1.8693627696464774
356,3093.3300000000004,1.8703966514355734
357,3107.61,1.8624855721843194
358,3129.15,1.8379544526414615
359,3150.8399999999997,1.8389763322661326
360,3172.68,1.8357952110583324
361,3187.32,1.7700841298091479
362,3209.42,1.8039920071583975
363,3231.6600000000003,1.7518188837306743
364,3246.58,1.8099118009275437
365,3269.08,1.8403636760568702
366,3291.7400000000002,1.828759550298228
367,3306.94,1.8210624659411507
368,3311.31121,1.8176791938895087
369,3322.2000000000003,1.8092502864797617
370,3329.86,1.839001473823128
371,3337.54,1.8225036590446755
372,3345.23,1.7978758432053132
373,3352.9399999999996,1.773555025244132
374,3360.67,1.7862062051611325
375,3368.4199999999996,1.7865383829563135
376,3376.18,1.6753625596905852
377,3383.9700000000003,1.7186697332421288
378,3391.77,1.8082989057327628
379,3399.59,1.850786076101578
380,3407.42,1.7356122454094836
381,3415.28,1.780478411534661
382,3423.1499999999996,1.847640576598929
383,3431.0400000000004,1.848020739541378
384,3438.9500000000003,1.823045900362008
385,3446.88,1.7017480590608192
386,3454.82,1.7905112166987212
387,3462.79,1.6868303711538946
388,3470.7700000000004,1.7424265245481585
389,3478.77,1.6643876758206035
390,3486.79,1.7311408249712297
391,3494.83,1.7156289720000373
392,3502.8900000000003,1.7681191169070256
393,3510.96,1.7242542607531046
394,3519.05,1.7405794024773649
395,3527.17,1.6934935410188967
396,3535.3,1.753366678499519
397,3543.4500000000003,1.8153438138583227
398,3551.61,1.8032079481562167
399,3559.8,1.7829520792713822
400,3568.0099999999998,1.766988208264729
401,3575.97,1.327074363780812
402,3578.6299999999997,1.5995100815788998
403,3581.3,1.9786087983160785
404,3583.96,1.8151725161141665
405,3586.63,1.616636232851345
406,3589.29,1.6436329506494332
407,3591.96,1.7168266673866115
408,3594.62,1.7096263851846998
409,3597.2900000000004,1.6909391019218782
410,3599.96,1.6092138186590568
411,3602.6200000000003,1.5705365364571449
412,3605.29,1.6291292531943233
413,3607.95,1.7477509709924113
414,3610.62,1.9451726877295898
415,3613.2799999999997,1.7636704055276777
416,3615.95,1.6779281222648563
417,3618.6099999999997,1.7738728400629447
418,3621.28,1.761944556800123
419,3623.94,1.9295362745982112
420,3626.61,1.7714019913353898
421,3629.27,1.5456917091334776
422,3631.94,1.5211174258706561
423,3634.6,1.6837141436687442
424,3637.2700000000004,1.8234538604059227
425,3639.94,1.8824495771431013
426,3642.6,1.6786302949411893
427,3645.27,1.8809610116783677
428,3647.93,1.871976729476456
429,3650.6,1.7205594462136344
430,3653.2599999999998,1.8062811640117225
431,3655.93,1.739942880748901
432,3658.5899999999997,1.927853598546989
433,3661.26,1.8267653152841676
434,3663.92,1.9446660330822556
435,3666.59,1.7776897498194342
436,3669.25,1.8200114676175223
437,3671.92,1.6886581843547006
438,3674.5899999999997,1.6582179010918792
439,3677.2500000000005,1.6973506188899674
440,3679.92,1.672607335627146
441,3682.58,1.6705500534252338
442,3685.25,1.6084847701624125
443,3687.91,1.6217084879605004
444,3690.58,1.719514204697679
445,3693.24,1.762834922495767
446,3695.91,1.6668686392329455
447,3698.5699999999997,1.7296363570310336
448,3701.2400000000002,1.7720120737682121
449,3703.9,1.8086157915663001
450,3706.57,1.7874845083034787
451,3709.24,1.8603592250406573
452,3711.9,1.8570909428387452
453,3714.5699999999997,1.920379659575924
454,3717.2300000000005,2.067015377374012
455,3719.9,2.4791430941111905
456,3722.56,3.9091098119092784
457,3725.23,5.729063528646456
458,3727.89,6.401978246444545
459,3730.56,5.548406963181724
460,3733.22,3.8704296809798113
461,3735.89,2.32654139771699
462,3738.5499999999997,1.997835115515078
463,3741.2200000000003,1.9517088322522567
464,3743.8900000000003,1.9758275489894352
465,3746.55,1.9843132667875232
466,3749.22,1.8662219835247018
467,3751.88,1.8644627013227897
468,3754.5499999999997,2.160544418059968
469,3757.2100000000005,2.173090135858056
470,3759.88,2.236845852595235
471,3762.54,2.247053570393323
472,3765.21,2.1418412871305015
473,3767.87,2.1699030049285897
474,3770.54,1.927900721665768
475,3773.2,1.933836439463856
476,3775.87,2.139079156201035
477,3778.5400000000004,2.325893872938213
478,3781.2000000000003,2.557567590736301
479,3783.87,2.70910030747348
480,3786.53,2.4404590252715677
481,3789.2,2.6081457420087464
482,3791.86,2.3405664598068343
483,3794.5299999999997,2.201773176544013
484,3797.1899999999996,1.8929388943421008
485,3799.86,1.9892356110792795
486,3801.8939600000003,1.987955376858452
487,3802.52,1.987561342716177
488,3805.19,2.459583118474537
489,3807.85,2.628557895072754
490,3810.52,2.5571386708311143
491,3813.19,2.5700974465894757
492,3815.85,2.813035223187692
493,3818.5200000000004,2.623443998946053
494,3821.1800000000003,2.8126107755442695
495,3823.85,2.3501215513026303
496,3826.51,2.3960353279008473
497,3829.18,2.0952671036592077
498,3831.84,1.9690458802574247
499,3834.5099999999998,1.856459656015785
500,3837.1699999999996,1.983711432614002
501,3839.84,1.9685102083723625
502,3842.5,2.0456029849705795
503,3845.17,2.17647976072894
504,3847.84,2.586033536487301
505,3850.5,2.7201533130855173
506,3853.17,2.805161088843878
507,3855.83,2.8189838654420947
508,3858.5000000000005,2.9760426412004555
509,3861.1600000000003,3.0232344177986725
510,3863.83,2.960953193557033
511,3866.4900000000002,2.9456579701552497
512,3869.16,3.0030367459136107
513,3871.82,2.9592615225118273
514,3874.49,2.7758332982701877
515,3877.1499999999996,2.6070860748684046
516,3879.8199999999997,2.587525850626765
517,3882.48,2.275525627224982
518,3885.15,2.240238402983343
519,3887.82,2.025378178741703
520,3890.48,2.1077209553399197
521,3893.15,2.1343897310982807
522,3895.81,2.2136715076964975
523,3898.4799999999996,2.603673283454858
524,3901.1400000000003,2.7297160600530748
525,3903.81,2.7435238358114358
526,3906.4700000000003,2.7397056124096526
527,3909.14,2.794959388168013
528,3911.8,2.7705251647662297
529,3914.47,2.9675409405245907
530,3917.1299999999997,3.024084717122807
531,3919.7999999999997,2.8355554928811677
532,3922.4700000000003,3.0514862686395285
533,3925.13,2.7764700452377453
534,3927.8,2.610895820996106
535,3930.46,2.6585115975943228
536,3933.13,2.266798373352683
537,3935.79,2.4015531499509
538,3938.4599999999996,2.832574925709261
539,3941.1200000000003,2.687842702307478
540,3943.79,2.878908478065838
541,3946.4500000000003,2.9526672546640547
542,3949.12,2.779441030422416
543,3951.7799999999997,2.8574508070206326
544,3954.45,2.762013582778993
545,3957.12,2.7902743585373537
546,3959.7799999999997,2.6916641351355706
547,3962.4500000000003,2.181566910893931
548,3965.11,1.962933687492148
549,3967.78,1.8781474632505084
550,3970.44,1.9443582398487254
551,3973.11,2.1666900156070863
552,3975.77,2.222592792205303
553,3978.4399999999996,2.3277945679636636
554,3981.1000000000004,2.5178093445618805
555,3983.77,2.757122120320241
556,3986.4300000000003,2.743313896918458
557,3989.1,3.030233672676818
558,3991.77,2.9892074484351787
559,3994.43,3.213868225033396
560,3997.1,2.9879320007917562
561,3999.7599999999998,2.912489777389973
562,4002.4300000000003,3.0733735531483335
563,4005.09,2.951384329746551
564,4007.76,2.8835781055049114
565,4010.42,3.041288882103128
566,4013.09,2.8912296578614884
567,4015.75,2.9603124344597056
568,4018.4199999999996,3.0448952102180664
569,4021.0800000000004,2.979228986816283
570,4023.75,3.0438337625746437
571,4026.42,3.110350538333004
572,4029.08,3.0132283149312213
573,4031.75,3.0440400906895815
574,4034.41,3.0166298672877985
575,4037.08,3.291859643046159
576,4039.74,3.151167419644376
577,4042.4100000000003,3.0608311954027365
578,4045.07,3.093357972000953
579,4047.7400000000002,3.0827237477593137
580,4050.4,2.976249524357531
581,4053.0699999999997,3.1541373001158917
582,4055.73,3.084220076714108
583,4058.3999999999996,3.097177852472469
584,4061.07,2.9492446282308293
585,4063.73,2.9909094048290465
586,4066.4,2.898448180587407
587,4069.06,2.9743319571856235
588,4071.73,2.936067732943984
589,4074.39,2.768807509542201
590,4077.06,2.811309285300562
