,lambda (Angstroms),Total Flux (erg/s/cm^2/Angstrom)
0,100.03,2.043906730998598
1,101.89,2.0382228833449094
2,104.02,2.0317130403524755
3,104.712855,2.0295957171973336
4,105.95,2.0097321764977805
5,107.92,1.9781023868345722
6,109.92999999999999,1.9458340781196746
7,114.05,1.8796850835556558
8,118.06,1.8153019454462822
9,120.22644299999999,1.7805597740557533
10,121.09,1.7689521455577681
11,125.06,1.7155218706332904
12,127.09,1.6881998859326381
13,127.97,1.6763575666525525
14,130.95000000000002,1.636248406313171
15,131.85999999999999,1.6240146030508102
16,134.0,1.595211320515147
17,137.12,1.5532365341584793
18,138.038426,1.5408759865425923
19,139.98999999999998,1.5221041064211782
20,142.93,1.4940132655873968
21,146.93,1.455877892278171
22,151.05,1.4162701311226682
23,154.92000000000002,1.379077248130242
24,158.489319,1.3447752424789599
25,158.9,1.3417926482912905
26,161.85000000000002,1.3203688772851343
27,166.0,1.2902367359578308
28,169.86999999999998,1.2621289255921286
29,173.03,1.2391809420397717
30,177.06,1.2099106757245828
31,179.92999999999998,1.18906814709317
32,181.970086,1.1742526632392278
33,182.01999999999998,1.1739762699124137
34,185.82999999999998,1.1528800087794564
35,191.02999999999997,1.1240802003670214
36,194.14000000000001,1.1068641908280452
37,198.20000000000002,1.0843807679829516
38,201.89,1.0639524317518196
39,205.17000000000002,1.045788074768591
40,208.929613,1.02492525999574
41,209.95,1.020668421016984
42,215.83,0.9962630117119122
43,219.84,0.979586773969848
44,222.9,0.9668378093212902
45,227.04,0.9496256792085355
46,230.2,0.9372789698132927
47,233.94000000000003,0.9233955026872775
48,239.88329199999998,0.8994886009088174
49,239.94000000000003,0.8993147699131969
50,246.1,0.8791961846685137
51,251.83,0.8609431253840921
52,257.11,0.8431002231743635
53,260.08,0.8341681256813912
54,263.7,0.8226963759694182
55,269.22,0.8048687593865198
56,274.23,0.7886814122216069
57,275.42287,0.7848225863466745
58,278.68,0.7767214677078541
59,283.86,0.7638743995964138
60,289.81,0.7489119290630025
61,295.88,0.7339334474768167
62,300.68,0.7219311533658295
63,307.69,0.7046037421995752
64,316.227766,0.6834950979184526
65,317.77,0.6806453122673616
66,328.18,0.661327837167809
67,338.15,0.6427991032396111
68,347.62,0.6251890466879527
69,357.35999999999996,0.6071202017129632
70,363.078055,0.596519980981821
71,365.69,0.5928867507072694
72,375.07,0.5798137741352405
73,384.69000000000005,0.5663118541775732
74,394.56,0.5526667650681996
75,404.67999999999995,0.5386066408071195
76,414.11,0.525481536404749
77,416.86938299999997,0.5216327521875835
78,421.8,0.5163639572628741
79,429.65000000000003,0.5079946131697074
80,440.67,0.4962870966860519
81,450.93,0.4853606826840278
82,460.37,0.4753143950700796
83,470.01,0.4650609324346497
84,478.630092,0.45591064324758274
85,479.86,0.4549044372141875
86,489.9,0.4466548038246587
87,500.15999999999997,0.4382840844086662
88,505.95,0.4335291636212785
89,511.80999999999995,0.42880658473456157
90,520.13,0.42200164464284057
91,529.8,0.4140733042069099
92,539.65,0.405986469658418
93,549.5408739999999,0.39789662060451697
94,549.6800000000001,0.3978095752219894
95,559.9,0.39146961116716206
96,570.31,0.38499708511425085
97,579.58,0.37918943204984273
98,590.35,0.37248584842161464
99,599.9399999999999,0.36647552362359176
100,609.69,0.3602746654587613
101,619.6,0.35425143192712333
102,629.67,0.3479671220286779
103,630.957344,0.3471675404304108
104,639.9000000000001,0.3427593805915559
105,650.3000000000001,0.3376132350198964
106,657.8299999999999,0.3338730407588776
107,665.44,0.33013667767038424
108,674.7,0.32556666864023354
109,685.66,0.32012741227625385
110,695.1999999999999,0.315442749849943
111,704.8699999999999,0.3106376712039865
112,716.33,0.3050194009182923
113,724.43596,0.3010223434801272
114,726.29,0.30034235480462856
115,734.6999999999999,0.2972564677469827
116,744.9200000000001,0.29350373936242363
117,755.28,0.28970544845478857
118,765.79,0.28579518865100045
119,774.66,0.28260099753181867
120,785.44,0.27864053835495506
121,794.53,0.27532109692808215
122,805.58,0.27128297937814316
123,814.91,0.2678674406974254
124,824.3499999999999,0.26441416941286217
125,831.763771,0.2616765379568913
126,835.82,0.2605514732130889
127,845.49,0.2579393612354821
128,855.2800000000001,0.255256503983179
129,865.1899999999999,0.25254633855617975
130,875.21,0.2498065192690422
131,885.34,0.2470355606217664
132,895.59,0.24423233439979444
133,905.9599999999999,0.24139240450312618
134,914.35,0.2391855325889461
135,924.9300000000001,0.23683410318655934
136,935.64,0.23453659749491834
137,944.3,0.23296149928767174
138,954.992586,0.23061558567294252
139,955.24,0.23056275768409834
140,964.07,0.22854627869135205
141,975.24,0.22346053495873883
142,984.26,0.2228100381666017
143,995.66,0.21973990920314673
144,1004.8700000000001,0.21806498861161866
145,1014.17,0.2154138317993265
146,1025.91,0.2104993696685405
147,1035.4099999999999,0.2090058086989948
148,1044.99,0.20801984186654748
149,1054.66,0.20533238181333616
150,1064.4099999999999,0.20203459989722347
151,1074.26,0.19985866840248384
152,1084.2,0.19644751068698016
153,1094.23,0.1945924717507124
154,1096.4782,0.19395398660933172
155,1104.3600000000001,0.1920957603407896
156,1114.58,0.18974041478663928
157,1124.89,0.1871248403156715
158,1135.3,0.18547667993712894
159,1145.8,0.182875182641769
160,1153.75,0.18125086598956786
161,1164.42,0.17897173885133058
162,1175.2,0.175586303814761
163,1186.07,0.17404754986137413
164,1194.29,0.1713859044587209
165,1205.34,0.1683811046716992
166,1213.7,0.16575760439844114
167,1224.93,0.1645202367777847
168,1236.26,0.16296513024955345
169,1244.83,0.1613411151703882
170,1256.35,0.15868993581776472
171,1258.92541,0.1580125630852403
172,1265.0600000000002,0.15678286585938903
173,1273.83,0.15606382266765556
174,1285.6100000000001,0.15433666423793818
175,1294.5300000000002,0.1522755945526174
176,1303.5,0.15082728503610093
177,1315.5600000000002,0.14952673035168743
178,1324.68,0.14794088134158367
179,1333.8600000000001,0.14616624913404505
180,1346.1999999999998,0.1446771391949354
181,1355.53,0.1431053584938095
182,1364.93,0.1413163262290096
183,1374.39,0.1399342107667748
184,1383.9199999999998,0.138453844740866
185,1393.51,0.13649194951752225
186,1406.4099999999999,0.13453016006902027
187,1416.1499999999999,0.13317668735208932
188,1425.97,0.13165850570524512
189,1435.85,0.1301090698609661
190,1442.4799999999998,0.12918448104441044
191,1445.43977,0.1287451889966765
192,1445.81,0.12870760651178786
193,1455.83,0.1275225670003091
194,1465.92,0.12621866161300155
195,1476.08,0.1250891943498654
196,1486.3100000000002,0.12399390621090046
197,1496.62,0.1228829749281314
198,1503.5200000000002,0.12198504402501721
199,1510.46,0.12097300705000096
200,1517.4399999999998,0.1203459810030826
201,1524.44,0.11951211542021314
202,1535.01,0.11805844117008032
203,1545.65,0.1170050590441188
204,1556.36,0.11572722804232859
205,1563.55,0.11500241436792413
206,1574.3799999999999,0.1139475161504276
207,1585.3,0.11283428252115128
208,1596.29,0.11167883501604627
209,1603.65,0.11080313978605782
210,1614.77,0.10957979779727098
211,1625.9599999999998,0.10825222093265545
212,1633.47,0.10754636868303406
213,1644.79,0.10633069133473669
214,1656.1899999999998,0.10493022284263505
215,1659.58691,0.10463490436747767
216,1663.8400000000001,0.10440331925077734
217,1671.52,0.10358015568417596
218,1675.37,0.10359301599649165
219,1683.1,0.10306680240797227
220,1694.77,0.10202536349231618
221,1706.52,0.10106447234159135
222,1714.39,0.10040562109170162
223,1726.28,0.09950265627960647
224,1734.25,0.09905636298588077
225,1746.27,0.09808560491679887
226,1754.3300000000002,0.09765756298362081
227,1766.49,0.09648231225316858
228,1774.64,0.09595421568053816
229,1786.9399999999998,0.0950904672887156
230,1795.19,0.09470004567224921
231,1803.48,0.09401258743824846
232,1815.98,0.09289706695875397
233,1824.36,0.09230280108530087
234,1837.01,0.09126446854005243
235,1845.4799999999998,0.09031710902714697
236,1854.0,0.0898367864923235
237,1866.86,0.08905116845501956
238,1875.47,0.08848910028074376
239,1884.1299999999999,0.08770385608454999
240,1892.8300000000002,0.08710316327082178
241,1905.46072,0.08618519532017617
242,1905.9499999999998,0.08615956321229311
243,1914.74,0.08566423588693553
244,1923.58,0.08499973703981822
245,1936.92,0.08397538123432675
246,1945.8600000000001,0.08409707734369003
247,1954.84,0.08351371643564554
248,1968.3899999999999,0.08311692803876326
249,1977.47,0.08250605408719935
250,1982.03,0.08235089010271351
251,1995.77,0.08157901612314433
252,2004.98,0.08099598561500515
253,2014.24,0.08050156758510627
254,2023.53,0.07977474004215156
255,2032.87,0.07959374497743713
256,2046.9699999999998,0.07905186584119803
257,2056.41,0.07835019573296417
258,2065.91,0.07775501159861865
259,2075.44,0.07759563195121733
260,2080.23,0.07890851836663679
261,2085.02,0.07946960178205628
262,2094.65,0.07848527609113551
263,2104.31,0.07771214088715893
264,2114.03,0.07769272465707068
265,2123.79,0.07660387440957467
266,2133.59,0.07570849914467086
267,2143.44,0.07627342135800738
268,2153.33,0.07575094955393612
269,2163.27,0.07447973622810512
270,2173.25,0.07401067988486638
271,2183.29,0.07451517651551597
272,2187.7616199999998,0.07429966890668328
273,2193.36,0.07413062965900152
274,2203.49,0.07349801589629794
275,2213.66,0.07185571112465966
276,2223.88,0.07207207584185307
277,2234.14,0.07330921855011183
278,2244.4500000000003,0.07253110374720223
279,2254.81,0.07066635743312433
280,2265.22,0.07000802760787808
281,2275.68,0.07010868227146351
282,2286.18,0.07131668592611426
283,2296.73,0.06977343206959669
284,2307.33,0.0705353777019108
285,2312.65,0.06932869351360052
286,2323.33,0.0676328101280453
287,2334.05,0.06677330573355539
288,2344.83,0.06508734032566352
289,2355.65,0.06719750290883697
290,2366.52,0.06455455798084209
291,2377.4500000000003,0.0651266550394452
292,2382.93,0.0632385148153963
293,2393.93,0.06347348935836376
294,2404.97,0.06303374289239656
295,2416.08,0.0632023919107937
296,2427.23,0.06537409692025617
297,2432.82,0.0651784021716369
298,2444.05,0.06596357716323005
299,2455.33,0.06594360164365488
300,2466.67,0.0645214241106777
301,2472.35,0.06346252584195546
302,2483.77,0.06089696029110894
303,2495.23,0.06119531373132776
304,2506.75,0.0634010661581446
305,2511.88643,0.05955661066848836
306,2512.53,0.059081095602667874
307,2518.32,0.05819797298669997
308,2524.1200000000003,0.05833867984462504
309,2535.77,0.059748922929940065
310,2547.4799999999996,0.059764832858612935
311,2553.35,0.06328865303378882
312,2565.1400000000003,0.060772459753605464
313,2576.98,0.06220495684288699
314,2582.92,0.0611032233353137
315,2594.84,0.05999853121573901
316,2606.82,0.058725983939522185
317,2612.83,0.05796293174919972
318,2624.89,0.05960099726412669
319,2637.0,0.06410207214851851
320,2643.08,0.06823600227544688
321,2655.2799999999997,0.07348414042487547
322,2667.54,0.06547204541766191
323,2673.69,0.06733319186184107
324,2686.0299999999997,0.06926662264577133
325,2692.2200000000003,0.06429166698552237
326,2704.65,0.06702973303448939
327,2717.1299999999997,0.06214985645292127
328,2723.4,0.05992541658381613
329,2735.96,0.0620804557933918
330,2742.27,0.05616644081985856
331,2754.93,0.058329870768363976
332,2767.6499999999996,0.06092417856022724
333,2774.03,0.061731272903944805
334,2786.83,0.05593514648695187
335,2793.25,0.051169195726241345
336,2806.15,0.051575451048178136
337,2812.6200000000003,0.059120482656932476
338,2825.6,0.06436233977001309
339,2832.11,0.06338772727433932
340,2845.19,0.05896877912634965
341,2851.74,0.05348470352624781
342,2864.91,0.0629301816432949
343,2878.1299999999997,0.06747327612980689
344,2884.0315,0.06536808546401066
345,2884.77,0.0651107325727634
346,2898.08,0.06849847642108611
347,2911.46,0.07610531343765695
348,2931.64,0.07182459965547457
349,2951.96,0.06963220220978843
350,2972.42,0.07068704110059855
351,2993.0299999999997,0.07065127820908323
352,3006.84,0.07088690611632115
353,3027.68,0.07185988649190683
354,3048.67,0.07282948508516707
355,3069.7999999999997,0.07453644001492356
356,3091.08,0.07365378316235462
357,3112.51,0.07727895452746023
358,3126.88,0.07462220778068318
359,3148.55,0.07394642429406809
360,3170.3700000000003,0.07670101902512758
361,3192.35,0.07152947385503991
362,3207.09,0.0748583267118601
363,3229.32,0.06889403857123004
364,3251.7000000000003,0.07958703864827454
365,3266.71,0.08579173229690895
366,3289.35,0.08434111128458938
367,3311.31121,0.08164783602086373
368,3312.1600000000003,0.08154864722660723
369,3319.7900000000004,0.078927444689685
370,3327.44,0.07920621149080492
371,3335.11,0.085089067629967
372,3342.8,0.08007890310717121
373,3350.5099999999998,0.08331822792241757
374,3358.23,0.08463835240668499
375,3365.97,0.07681620622899456
376,3373.7299999999996,0.06990212938934628
377,3381.5099999999998,0.07931301188774012
378,3389.31,0.08296646372417613
379,3397.1200000000003,0.0769310552296332
380,3404.95,0.08462854607313242
381,3412.7999999999997,0.07915809625467378
382,3420.67,0.08111132577425727
383,3428.55,0.08152621496286185
384,3436.46,0.08119799315852963
385,3444.38,0.0671978810232185
386,3452.3199999999997,0.0839317382259495
387,3460.2699999999995,0.07958824509770158
388,3468.25,0.07999342097651688
389,3476.25,0.0775277961933743
390,3484.26,0.08049777107925282
391,3492.29,0.07769427530317347
392,3500.34,0.07476426886513626
393,3508.4100000000003,0.0841391317651412
394,3516.5,0.07557205400318828
395,3524.61,0.0785457155792775
396,3532.73,0.0835510968243878
397,3540.88,0.08626955707656131
398,3549.04,0.08889435699775591
399,3557.22,0.08182988625699264
400,3565.42,0.08664357485427149
401,3573.6400000000003,0.07063195278959251
402,3581.88,0.07539686006295568
403,3590.13,0.06509117700533991
404,3598.4100000000003,0.08328080295478735
405,3606.7,0.07891908857325589
406,3615.02,0.0771189931987876
407,3623.3500000000004,0.0736331474933404
408,3631.71,0.09559798079495643
409,3640.08,0.08384580376559353
410,3648.47,0.08105303607427275
411,3656.88,0.09251096772099414
412,3665.31,0.09480764870575767
413,3673.7599999999998,0.08926439902856333
414,3682.23,0.08541713868941114
415,3690.7200000000003,0.07998321768830108
416,3699.22,0.08982640635621211
417,3707.75,0.08029650403118635
418,3716.3,0.09522307104420275
419,3724.8700000000003,0.06741353739526126
420,3733.45,0.08503359341534086
421,3742.06,0.07515924844248367
422,3750.6800000000003,0.06788771313864757
423,3759.3300000000004,0.09029878684187467
424,3768.0000000000005,0.08160851988314391
425,3776.68,0.08881451259343423
426,3785.3900000000003,0.09878304431078776
427,3794.1200000000003,0.08254177536618344
428,3801.8939600000003,0.07305894127702839
429,3802.86,0.0718844778892655
430,3811.6299999999997,0.0886075116647754
431,3820.42,0.07962941617865592
432,3829.22,0.06852898106172173
433,3838.05,0.061284657052343455
434,3846.8999999999996,0.08110517378133578
435,3855.77,0.08587340124869872
436,3864.65,0.07962312908524694
437,3873.56,0.07895009802935109
438,3882.4900000000002,0.07840015771182582
439,3884.16,0.07618555936577127
440,3885.9300000000003,0.09974086471156973
441,3887.7099999999996,0.0772813504265535
442,3889.48,0.07626136577235196
443,3891.26,0.08164434148733574
444,3893.04,0.08791954720231951
445,3894.8100000000004,0.08847555254811795
446,3896.5899999999997,0.08257211826310173
447,3898.36,0.0824714636089002
448,3900.1400000000003,0.07509655932388395
449,3901.9199999999996,0.07743990503886773
450,3903.69,0.0844659603846662
451,3905.47,0.10132298609964996
452,3907.2400000000002,0.09184423144544843
453,3909.0200000000004,0.0950049871604322
454,3910.7999999999997,0.08951432287541597
455,3912.57,0.10287105822121444
456,3914.35,0.09546134393619819
457,3916.1200000000003,0.09305837928199666
458,3917.9,0.09596988499698042
459,3919.68,0.0777401107119642
460,3921.4500000000003,0.08192512605776266
461,3923.2299999999996,0.08059120177274644
462,3925.0,0.0702630371185449
463,3926.78,0.06966889283352865
464,3928.56,0.06555562854851242
465,3930.3300000000004,0.058365943894310886
466,3932.1099999999997,0.05949521960929466
467,3933.88,0.06125209495509313
468,3935.6600000000003,0.05295637067007689
469,3937.44,0.07273860638506066
470,3939.21,0.06698555173085913
471,3940.99,0.07153207744584289
472,3942.76,0.07982585279164135
473,3944.5400000000004,0.08922649850662512
474,3946.3199999999997,0.0904601842216089
475,3948.09,0.09007037956740735
476,3949.87,0.08448290528239112
477,3951.6400000000003,0.08382209062818959
478,3953.42,0.09133316634317334
479,3955.2,0.09323154205815713
480,3956.9700000000003,0.0846479974039556
481,3958.7499999999995,0.07569178311893936
482,3960.52,0.06927114846473781
483,3962.3,0.07021834417972159
484,3964.08,0.07097234989470536
485,3965.8500000000004,0.053220815240503816
486,3967.6299999999997,0.05249714095548759
487,3969.4,0.05515707630128605
488,3971.1800000000003,0.06580650201626981
489,3972.96,0.07128861773125358
490,3974.73,0.08711650307705204
491,3976.5099999999998,0.09216178879203582
492,3978.28,0.09519163413783427
493,3980.0600000000004,0.10462676985281805
494,3981.8399999999997,0.09494424556780183
495,3983.61,0.09925525091360028
496,3985.39,0.11184228662858406
497,3987.1600000000003,0.11320548197438252
498,3988.94,0.11354121768936629
499,3990.72,0.10445638340435005
500,3992.4900000000002,0.11154946875014851
501,3994.27,0.11011893446513228
502,3996.04,0.11484044981093074
503,3997.82,0.11384945552591452
504,3999.6,0.10974407124089829
505,4001.3700000000003,0.11859312658669674
506,4003.1499999999996,0.12437504230168052
507,4004.92,0.11792810764747896
508,4006.7000000000003,0.11714616336246275
509,4008.48,0.12419580907744651
510,4010.25,0.12309863442324498
511,4012.0299999999997,0.11690530013822875
512,4013.8,0.12303351548402722
513,4015.5800000000004,0.12505822119901097
514,4017.3599999999997,0.12622208691399475
515,4019.13,0.13790695225979321
516,4020.91,0.130475317974777
517,4022.6800000000003,0.12917398332057545
518,4024.46,0.13112894903555922
519,4026.24,0.12300586475054298
520,4028.01,0.11581607009634143
521,4029.79,0.11732080581132522
522,4031.56,0.10627146115712369
523,4033.34,0.11305890687210744
524,4035.12,0.12626236258709123
525,4036.8900000000003,0.12262118793288967
526,4038.6699999999996,0.12315836364787346
527,4040.44,0.1298012389936719
528,4042.2200000000003,0.12530444470865568
529,4044.0,0.11134430042363945
530,4045.77,0.1162503357694379
531,4047.5499999999997,0.11600712148442167
532,4049.32,0.12300417683022014
533,4051.1000000000004,0.1220882025452039
534,4052.8799999999997,0.12397622826018767
535,4054.65,0.12044760360598614
536,4056.43,0.1134770393209699
537,4058.2000000000003,0.11598469466676836
538,4059.9800000000005,0.11805452038175213
539,4061.7599999999998,0.11910583609673592
540,4063.53,0.12108284144253438
541,4065.31,0.11531836715751814
542,4067.08,0.12141755250331661
543,4068.86,0.12563688821830038
544,4070.64,0.12226584393328413
545,4072.4100000000003,0.1151997692790826
546,4074.1899999999996,0.11640657499406638
547,4075.96,0.12093469033986483
548,4077.7400000000002,0.12550560605484862
549,4079.52,0.11856449176983237
550,4081.2900000000004,0.12247125711563082
551,4083.0699999999997,0.12482249283061461
552,4084.84,0.13116777817641306
553,4086.6200000000003,0.12893634389139683
554,4088.3999999999996,0.12829370960638062
555,4090.17,0.13185697495217907
556,4091.95,0.12397022066716283
557,4093.7200000000003,0.1230655260129613
558,4095.5000000000005,0.12611943172794507
559,4097.28,0.10991015744292884
560,4099.05,0.1119403027887273
561,4100.83,0.10198437850371106
562,4102.6,0.10789281384950952
563,4104.38,0.1202198595644933
564,4106.15,0.12326091491029177
565,4107.93,0.12302033062527552
566,4109.71,0.1198373663402593
567,4111.4800000000005,0.12732446168605777
568,4113.26,0.13131332740104154
569,4115.03,0.11590638274684001
570,4116.81,0.12339828846182375
571,4118.59,0.12258954417680754
572,4120.360000000001,0.12533580952260598
573,4122.14,0.12329142523758976
574,4123.91,0.11520150058338822
575,4125.6900000000005,0.12361813629837198
576,4127.469999999999,0.12074826201335576
