,lambda (Angstroms),Total Flux (erg/s/cm^2/Angstrom)
0,100.00999999999999,33.512961773641635
1,102.10000000000001,33.40821465684227
2,104.0,33.31298958823285
3,104.712855,33.27726263006668
4,105.94,32.954195155757844
5,107.89999999999999,32.438191165440664
6,109.91000000000001,31.909028515976402
7,114.03999999999999,30.82173605335235
8,118.04,29.76866866157667
9,120.22644299999999,29.193092798065592
10,121.07,29.00691801357509
11,125.03999999999999,28.130670035717188
12,127.07,27.68261348800169
13,127.95,27.48838419905359
14,130.93,26.830647454299804
15,132.14,26.563592870483674
16,133.98,26.157476189755833
17,137.1,25.468859935821666
18,138.038426,25.2617363907225
19,139.97,24.957011381302063
20,142.9,24.49495765435906
21,146.91,23.862648093039788
22,151.02,23.214318309041236
23,154.9,22.60229257594504
24,158.489319,22.036130088730467
25,158.86999999999998,21.99073671676398
26,161.82,21.638978200759478
27,165.97,21.14413690431247
28,169.84,20.682686351635382
29,173.0,20.305905574803447
30,177.03,19.82539147340069
31,179.89999999999998,19.483203063759028
32,181.970086,19.236384731161
33,181.99,19.234573531916574
34,185.79999999999998,18.888070229638448
35,191.0,18.415140527723416
36,194.11,18.13231152595308
37,198.17000000000002,17.763081608207887
38,201.85999999999999,17.427536876473955
39,205.14000000000001,17.12924877526601
40,208.929613,16.784559092570536
41,209.91,16.717527683689294
42,215.79000000000002,16.31576050022019
43,219.81,16.041031577797437
44,222.86,15.832546963441866
45,227.01,15.548935316876088
46,230.17,15.335257921399494
47,233.91,15.084391300284793
48,239.88329199999998,14.680060621689591
49,239.91,14.678671898285453
50,246.06,14.354182358407119
51,251.79,14.053600115300963
52,257.06,13.772557270088146
53,260.04,13.618790361561734
54,264.27,13.397208525499074
55,269.18,13.138764950376697
56,274.18,12.875490400231712
57,275.42287,12.810001075195812
58,279.28000000000003,12.654047929600281
59,283.82,12.470881906451703
60,289.76,12.230030710966558
61,295.83000000000004,11.984961805193016
62,301.33,11.761679445299364
63,308.35,11.478501199726008
64,316.227766,11.160725531069348
65,317.72,11.11581222949436
66,328.13,10.801586949119649
67,338.1,10.500351246003811
68,348.37,10.18999819521147
69,357.31,9.92020064045163
70,363.078055,9.746374270906287
71,365.63,9.688833610586743
72,375.01,9.47649898697565
73,384.63,9.257835358218859
74,395.4,9.01510505105559
75,404.60999999999996,8.807109492339368
76,414.04,8.593532631406257
77,416.86938299999997,8.529340557187027
78,421.74,8.444888620334124
79,429.58000000000004,8.30907344508707
80,440.6,8.118886625466846
81,450.86,7.941301145130779
82,460.3,7.777629057180243
83,469.94,7.610818558891773
84,478.630092,7.460677358999048
85,479.78,7.445398988143406
86,489.82,7.311189892752316
87,500.08,7.175165796167397
88,505.87,7.0976574542934525
89,511.73,7.0212969015851066
90,520.04,6.91042407967276
91,529.7099999999999,6.781227335834927
92,539.56,6.6491273355657805
93,549.5408739999999,6.515994580130618
94,549.59,6.515494152804413
95,559.8100000000001,6.412673039018278
96,570.22,6.307313334095222
97,579.48,6.212937202895652
98,590.26,6.10344121260069
99,599.85,6.005231843636989
100,609.59,5.904303741144138
101,619.5,5.806168001318249
102,629.56,5.70353700796321
103,630.957344,5.689398637567538
104,639.79,5.618591726772875
105,650.1899999999999,5.534467124289614
106,657.72,5.473343052991637
107,665.3299999999999,5.4125119696745605
108,674.59,5.338035358463502
109,685.5500000000001,5.248902021846528
110,695.09,5.1726248485686135
111,704.76,5.093702505759659
112,716.21,5.002412055525685
113,724.43596,4.936126033987531
114,726.17,4.925744928151372
115,734.5799999999999,4.875367237591925
116,744.8000000000001,4.813962184593404
117,755.16,4.751844549362029
118,765.67,4.687664805309734
119,774.53,4.635789148287534
120,785.3100000000001,4.570755766357589
121,794.4,4.516658867809983
122,805.45,4.450657338002386
123,814.78,4.394779881341311
124,824.2099999999999,4.338376788799624
125,831.763771,4.29244616227033
126,835.6800000000001,4.274534284241779
127,845.36,4.2321638636212136
128,855.15,4.188207091175417
129,865.05,4.143989436904385
130,875.0600000000001,4.099186070808119
131,885.2,4.053740894372941
132,895.45,4.00787113611253
133,905.8199999999999,3.961315436770046
134,914.2,3.9239113495386064
135,924.7800000000001,3.885023245802494
136,935.4899999999999,3.84567205172747
137,944.15,3.814426045304526
138,954.992586,3.7698154129066856
139,955.0799999999999,3.769464178872127
140,963.9200000000001,3.733719674065755
141,975.0799999999999,3.666022335916536
142,984.1,3.6400982753335636
143,995.5,3.5888009861488763
144,1004.71,3.553564703912826
145,1014.0,3.513220164664954
146,1025.75,3.4486597198035436
147,1035.24,3.4163327430261154
148,1044.8200000000002,3.3831938533603867
149,1054.48,3.339676626682836
150,1064.24,3.2922020412405075
151,1074.0900000000001,3.251691602909878
152,1084.03,3.20198878169095
153,1094.06,3.164845277583721
154,1096.4782,3.1538554649318837
155,1104.18,3.124944975614159
156,1114.3999999999999,3.087591173371392
157,1124.71,3.0472258386724747
158,1135.1200000000001,3.014217184577835
159,1145.62,2.974958148027048
160,1156.22,2.937087722080537
161,1164.23,2.9081127434832217
162,1175.01,2.861012942624413
163,1185.8799999999999,2.829193259309454
164,1194.1,2.7956377049811225
165,1205.1499999999999,2.752110146753864
166,1216.3,2.704953619130884
167,1224.73,2.6853092690715368
168,1236.06,2.6488210665362577
169,1244.63,2.6188729493228995
170,1256.15,2.5767977449357486
171,1258.92541,2.566494626304705
172,1264.85,2.5505781728860293
173,1273.6200000000001,2.530542786663935
174,1285.4099999999999,2.500599780009604
175,1294.32,2.473813705820452
176,1306.29,2.443402934637047
177,1315.3500000000001,2.4233384533403335
178,1324.46,2.3987566463411003
179,1333.64,2.3732188853583382
180,1345.98,2.3440267359762816
181,1355.3100000000002,2.319475957885958
182,1364.71,2.293494365812106
183,1374.17,2.269327218895229
184,1383.6899999999998,2.244935087135328
185,1396.5,2.2071164981495777
186,1406.1799999999998,2.1820406701416117
187,1415.9199999999998,2.16108151729062
188,1425.74,2.1353916213155952
189,1435.62,2.110770160497547
190,1442.25,2.094158660343329
191,1445.43977,2.0859024262280554
192,1445.57,2.0856655105340365
193,1455.59,2.0671065042263526
194,1465.68,2.047924043593165
195,1475.84,2.029798008634476
196,1486.07,2.0116751093502834
197,1496.37,1.9929825557405882
198,1503.28,1.9796443930373848
199,1513.7,1.959415036298256
200,1517.1899999999998,1.9538438877839033
201,1524.19,1.9412250752336244
202,1534.76,1.9199586220827045
203,1545.4,1.8999727446062813
204,1556.11,1.8805875328043558
205,1563.29,1.8690824905599275
206,1574.1299999999999,1.850710627867782
207,1585.04,1.831531840850134
208,1596.03,1.812048271746197
209,1603.39,1.7983184498076183
210,1614.5100000000002,1.7782858698134616
211,1625.6999999999998,1.7579250754938032
212,1633.1999999999998,1.7452167449042195
213,1644.52,1.7249349296943406
214,1655.9199999999998,1.7041494623981732
215,1659.58691,1.6979294114261971
216,1663.57,1.693294626027487
217,1671.24,1.6823157246568077
218,1675.1,1.6793100358053317
219,1686.7099999999998,1.6648007154515394
220,1694.4899999999998,1.6542232001498598
221,1706.24,1.6390349120657026
222,1714.1200000000001,1.6283879540994766
223,1726.0,1.6134043895514103
224,1733.96,1.6043702514535476
225,1745.98,1.5890094491751168
226,1754.04,1.5796182484127084
227,1766.2,1.5634461784039129
228,1774.3500000000001,1.5532027862434123
229,1786.6499999999999,1.538272638504253
230,1794.9,1.5287929736792067
231,1803.18,1.518432665054797
232,1815.68,1.5015042819865452
233,1824.0600000000002,1.4914988006975891
234,1836.71,1.4753191586325185
235,1845.1899999999998,1.4630005246790168
236,1853.7,1.4529298469261507
237,1866.55,1.437837069531988
238,1875.1699999999998,1.427764667848122
239,1883.82,1.4158749523648912
240,1896.8799999999999,1.399613618375182
241,1905.46072,1.3895613446503325
242,1905.64,1.3894109612613226
243,1914.43,1.3810193172995462
244,1923.27,1.3718361808465198
245,1936.6,1.35882416467923
246,1945.54,1.3535264332437031
247,1954.52,1.3444852938151766
248,1968.0700000000002,1.3342052986863857
249,1977.15,1.3254673842753586
250,1986.28,1.3174373573730813
251,1995.45,1.3091208824778042
252,2004.66,1.3006163095895267
253,2013.9099999999999,1.292429958708249
254,2023.21,1.2826564253357209
255,2037.2299999999998,1.2715632787891793
256,2046.63,1.264378810434151
257,2056.08,1.2541565495878728
258,2065.5699999999997,1.2454973407485945
259,2075.11,1.2393482994180658
260,2079.89,1.2434510292545518
261,2084.68,1.2439377645927876
262,2094.31,1.2325165427780085
263,2103.97,1.2228119374684798
264,2113.68,1.2176530596677007
265,2123.44,1.2052065193756714
266,2133.2400000000002,1.1950029210906419
267,2143.09,1.1924432703143624
268,2152.98,1.183235461545083
269,2162.92,1.1698315102845531
270,2172.9,1.1611364010310234
271,2182.93,1.1591535492862437
272,2187.7616199999998,1.1548401472604413
273,2193.0099999999998,1.1517036561506728
274,2203.13,1.1442762917441416
275,2213.3,1.1302726915055623
276,2223.52,1.1287874854349353
277,2233.7799999999997,1.1328362066986697
278,2244.09,1.1242393921303557
279,2254.4500000000003,1.1079283417299939
280,2264.85,1.0993321486639938
281,2275.31,1.0952242365995357
282,2285.81,1.1000372718694393
283,2296.36,1.0858722213072949
284,2306.96,1.0873571849131023
285,2317.61,1.0744423326868615
286,2322.95,1.0637628118241271
287,2333.67,1.0540308574330188
288,2344.45,1.0389903440434534
289,2355.27,1.049045897988249
290,2366.14,1.027525996100997
291,2377.06,1.0272326383816965
292,2382.54,1.012796013189227
293,2393.54,1.01022697013865
294,2404.58,1.003424114422434
295,2415.68,1.0005191797077608
296,2426.83,1.0120489991610395
297,2432.43,1.0086039259716546
298,2443.66,1.0106161600936563
299,2454.94,1.0067821083836097
300,2466.27,0.9919394608415153
301,2477.65,0.9784087974673725
302,2483.36,0.9576884694474821
303,2494.82,0.9567181907420625
304,2506.34,0.9677797830381851
305,2511.88643,0.9376677345959102
306,2512.12,0.9364364182156392
307,2517.91,0.9289153687738164
308,2523.71,0.9285026297992789
309,2535.3599999999997,0.9371659241866307
310,2547.07,0.9336911613776937
311,2552.94,0.9611435256741532
312,2564.72,0.9381577761362134
313,2576.56,0.9469652394019853
314,2582.5,0.9366321469694417
315,2594.42,0.9251535239734958
316,2606.39,0.9123000233139764
317,2612.4,0.9051942541524298
318,2624.46,0.9143374976984779
319,2636.58,0.9506116540482378
320,2642.65,0.9820942176904027
321,2654.8500000000004,1.0292239877784446
322,2667.1,0.9581152602029132
323,2673.25,0.9706299475833605
324,2685.59,0.9879880242133963
325,2697.9900000000002,0.9371971036471438
326,2704.21,0.9618944942985883
327,2716.69,0.915898077470618
328,2722.9500000000003,0.8911670899912034
329,2735.52,0.9082282073688008
330,2748.1499999999996,0.8588892275501101
331,2754.4800000000005,0.878197863341692
332,2767.2000000000003,0.8987348377285687
333,2773.58,0.9025386358565778
334,2786.38,0.8495587039817364
335,2792.7999999999997,0.8111254839788865
336,2805.69,0.8110369263096128
337,2812.1600000000003,0.870141688643189
338,2825.14,0.9109128451794829
339,2838.1800000000003,0.8941880545194882
340,2844.72,0.8498858701240617
341,2857.85,0.8023490336696347
342,2864.4399999999996,0.8792334816106346
343,2877.6600000000003,0.9259811993617748
344,2884.0315,0.907302638809459
345,2884.3,0.9065517882229911
346,2897.61,0.943477401055847
347,2910.99,1.0156016752634816
348,2931.16,0.9726222028246163
349,2951.48,0.945477904760276
350,2971.94,0.9475581294454926
351,2992.5400000000004,0.9460206768802658
352,3013.2799999999997,0.9389428470645961
353,3027.19,0.9535681573955519
354,3048.18,0.9617454182040905
355,3069.31,0.9802733017621856
356,3090.58,0.9634390080698375
357,3111.9999999999995,1.0075401887520143
358,3133.57,0.9722377438087162
359,3148.0399999999995,0.9670117451378992
360,3169.8599999999997,0.9967509908188096
361,3191.83,0.9448387108742449
362,3206.56,0.9742819544526047
363,3228.7900000000004,0.9155927167572167
364,3251.17,1.030948753436354
365,3273.71,1.0957586161149844
366,3288.82,1.082360221442141
367,3311.31121,1.0422960815145257
368,3311.6200000000003,1.0417752840669028
369,3319.2500000000005,1.002332812574312
370,3326.8999999999996,1.0081940393215838
371,3334.57,1.0513620643087176
372,3342.26,1.0193527875357133
373,3349.96,1.0523287098826404
374,3357.69,1.0646680295893607
375,3365.43,0.9139959484160121
376,3373.1800000000003,0.9115739663625942
377,3380.96,1.0160671816689697
378,3388.76,1.0367913952152077
379,3396.5699999999997,0.9721496078813765
380,3404.4,1.0970702187874073
381,3412.2400000000002,1.0124286288133693
382,3420.11,1.0239545361991245
383,3427.9900000000002,1.0423054427048108
384,3435.9,1.0570788465702905
385,3443.82,0.917936949555701
386,3451.7599999999998,1.0308799507809738
387,3459.7099999999996,1.0443383511261777
388,3467.69,1.0339524488311747
389,3475.68,1.034432145656103
390,3483.69,1.037109240720893
391,3491.73,1.0442554331454768
392,3499.78,0.9685693246899911
393,3507.8399999999997,1.096249315354437
394,3515.93,0.9955143033786757
395,3524.03,1.0476322905228457
396,3532.16,1.063328675026809
397,3540.3,1.093263058650703
398,3548.46,1.1225126405144594
399,3556.64,1.047703920618078
400,3564.84,1.0708888989615586
401,3573.06,0.9228552755449015
402,3581.3,0.9647072503681065
403,3589.55,0.8443189243112426
404,3597.16,0.97796045457879
405,3599.8999999999996,0.9519616134399043
406,3602.64,1.0360684723010185
407,3605.37,0.8749981320422018
408,3608.11,0.9079489909033159
409,3610.85,0.9706828497644302
410,3613.5899999999997,0.9425513086255446
411,3616.32,1.1809687683667276
412,3619.06,1.0493019272278419
413,3621.8,1.0111752860889562
414,3624.54,0.9725761449500705
415,3627.2700000000004,1.0005456046912538
416,3630.01,1.0299571635523679
417,3632.75,1.0272971224134824
418,3635.4900000000002,1.0718507812745965
419,3638.22,1.0764817410157799
420,3640.9599999999996,1.0815167998768942
421,3643.7000000000003,1.0406232587380084
422,3646.44,1.0132295175991226
423,3649.17,1.0528657773403058
424,3651.91,1.0933846362014201
425,3654.6499999999996,1.1203290950625344
426,3657.39,1.2184368539236488
427,3660.1299999999997,1.1944609127847632
428,3662.86,1.1086418725259461
429,3665.6,1.0583009313870604
430,3668.34,1.1375833902481747
431,3671.08,1.168135849109289
432,3673.81,1.1748885088504721
433,3676.55,1.0796911677115864
434,3679.29,1.0593756265727008
435,3682.03,1.085040285433815
436,3684.76,1.075860545174998
437,3687.5,1.0912767040361127
438,3690.2400000000002,1.1023985628972266
439,3692.98,1.112949621758341
440,3695.71,1.1364756814995243
441,3698.45,1.1530791403606386
442,3701.1899999999996,1.108467699221753
443,3703.93,1.0569740580828673
444,3706.66,0.9995773178240503
445,3709.4,1.0501950766851644
446,3712.14,1.0766898355462788
447,3714.8799999999997,1.0249310944073933
448,3717.62,1.0777330532685074
449,3720.35,1.0782370130096908
450,3723.09,1.083542871870805
451,3725.83,1.0583854307319192
452,3728.57,1.0700317895930334
453,3731.3,1.0886869493342166
454,3734.04,0.9955245081953309
455,3736.78,0.9241044670564451
456,3739.52,0.9220497259175595
457,3742.2499999999995,0.9861543856587427
458,3744.9900000000002,0.927432544519857
459,3747.73,0.9209165033809712
460,3750.4700000000003,0.9730558622420855
461,3753.2,1.0281052219832687
462,3755.94,1.0212373808443829
463,3758.68,1.0156549397054973
464,3761.4199999999996,0.9953162985666117
465,3764.15,0.9911740583077948
466,3766.89,1.051706117168909
467,3769.63,1.1506499760300233
468,3772.37,1.1088629348911376
469,3775.1099999999997,1.0685573937522521
470,3777.84,1.1662848534934351
471,3780.58,1.1821388123545493
472,3783.32,1.1200045712156637
473,3786.06,1.046636230076778
474,3788.7900000000004,1.085027589817961
475,3791.53,1.0384968486790753
476,3794.27,1.0416181075401896
477,3797.01,1.0461688664013038
478,3799.74,1.0562988261424873
479,3801.8939600000003,1.0516384576463127
480,3802.4799999999996,1.0504095928453063
481,3805.2200000000003,1.1074639984170052
482,3807.96,1.0361115039887043
483,3810.69,1.0080518431167111
484,3813.43,0.9669089486884102
485,3816.1699999999996,0.9396518542601093
486,3818.91,0.9280040598318083
487,3821.64,0.8981627989598151
488,3824.38,0.853849804531514
489,3827.12,0.8439601101032133
490,3829.86,0.8970029156749122
491,3832.6,0.7969916212466113
492,3835.33,0.801797960374618
493,3838.07,0.8637060659463172
494,3840.81,0.9470104715180162
495,3843.55,0.9964851770897152
496,3846.28,0.942048716217722
497,3849.0200000000004,1.055320721789421
498,3851.76,1.0092495273611202
499,3854.5,0.9278964329328192
500,3857.23,1.009729272060826
501,3859.97,0.9569544776325251
502,3862.7099999999996,1.020303383204224
503,3865.4500000000003,1.0150593887759232
504,3868.18,1.02862812790393
505,3870.92,0.9328644334756291
506,3873.66,0.9493685390473281
507,3876.3999999999996,0.9969468446190272
508,3879.13,1.0402987837470339
509,3881.87,0.9978357893187328
510,3884.61,1.0687298948904318
511,3887.35,1.044862100462131
512,3890.09,1.0205792060338301
513,3892.82,1.060242145161837
514,3895.56,1.108039450733536
515,3898.3,1.173878256305235
516,3901.04,1.112330361876934
517,3903.7699999999995,1.140880501004941
518,3906.51,1.1489629065766398
519,3909.25,1.147995812148339
520,3911.9900000000002,1.1889912177200381
521,3914.72,1.124105156848045
522,3917.46,1.1289597624197438
523,3920.2,1.120095767991443
524,3922.9399999999996,0.9884334735631422
525,3925.67,0.9260655126911488
526,3928.41,0.8487183182628479
527,3931.15,0.8127403238345468
528,3933.89,0.8398792294062459
529,3936.6200000000003,0.8935828685342526
530,3939.36,0.9761437741059517
531,3942.1,1.0578975796776509
532,3944.84,1.1134762852493498
533,3947.58,1.133836390821049
534,3950.3100000000004,1.1388688299490557
535,3953.05,1.1124819355207547
536,3955.79,1.1030992410924538
537,3958.53,1.0851857466641528
538,3961.2599999999998,0.9416478857921597
539,3963.9999999999995,0.8352840913638588
540,3966.7400000000002,0.8792484969355578
541,3969.48,0.930233402507257
542,3972.21,1.0256523416352636
543,3974.95,1.1275229472069628
544,3977.69,1.210999952778662
545,3980.43,1.264388158350361
546,3983.16,1.3167444974783675
547,3985.9,1.3580859030500667
548,3988.64,1.3671479086217657
549,3991.38,1.3906779141934646
550,3994.11,1.3788225533214715
551,3996.85,1.3809676588931705
552,3999.59,1.3814411644648696
553,4002.33,1.3830098700365687
554,4005.07,1.4265413756082679
555,4007.8,1.4288659147362746
556,4010.5400000000004,1.4628862203079738
557,4013.28,1.5102216258796726
558,4016.02,1.4975530314513716
559,4018.75,1.4685210705793785
560,4021.49,1.4967204761510777
561,4024.2299999999996,1.4540208817227769
562,4026.9700000000003,1.4505743872944756
563,4029.7,1.4346267264224826
564,4032.44,1.3921576319941815
565,4035.18,1.4227197375658807
566,4037.9199999999996,1.4581235431375799
567,4040.65,1.4349133822655864
568,4043.39,1.4111197878372854
569,4046.13,1.4024860934089847
570,4048.87,1.3850908989806836
571,4051.6000000000004,1.4037276381086903
572,4054.34,1.3866783436803893
573,4057.08,1.3623661492520884
574,4059.82,1.3575945548237875
575,4062.5499999999997,1.3513877939517944
576,4065.29,1.3659834995234934
577,4068.03,1.3868619050951925
578,4070.7700000000004,1.3597831106668914
579,4073.51,1.3730530162385906
580,4076.24,1.4103078553665973
581,4078.98,1.4729761609382965
582,4081.72,1.5382385665099956
583,4084.4599999999996,1.5151939720816947
584,4087.19,1.4944630112097013
585,4089.93,1.4656544167814003
586,4092.67,1.4356932223530994
587,4095.41,1.4104589279247985
588,4098.14,1.381195867052805
589,4100.88,1.3866266726245042
590,4103.62,1.4123469781962035
591,4106.36,1.4261356837679027
592,4109.09,1.4232147228959091
593,4111.83,1.4348129284676083
594,4114.570000000001,1.4684303340393072
595,4117.31,1.4882137396110062
596,4120.05,1.4464941451827054
597,4122.78,1.4293930843107123
598,4125.5199999999995,1.3923421898824113
599,4128.26,1.4280345954541103
600,4131.0,1.4257412010258093
601,4133.73,1.4508334401538163
602,4136.47,1.426636945725515
603,4139.21,1.4229027512972143
604,4141.95,1.4191683568689135
