,lambda (Angstroms),Total Flux (erg/s/cm^2/Angstrom)
0,100.1,0.0007211060923130019
1,101.96000000000001,0.0008668911118069266
2,104.10000000000001,0.0010332207949881077
3,104.712855,0.0010812095985459826
4,106.03,0.000999201928543093
5,108.01,0.0008769306968788162
6,110.01,0.0007587952930765167
7,113.88000000000001,0.000521877859369067
8,117.88,0.00027666172176446903
9,120.22644299999999,0.00022832147714369437
10,120.91,0.0002559215513219462
11,124.87,0.00027510090643584025
12,126.9,0.00028046641044624556
13,128.07,0.0002867497994571689
14,131.05,0.0002939500560832811
15,131.96,0.00033055984753622145
16,134.10999999999999,0.00033527463503492665
17,136.91,0.00038988171642858916
18,138.038426,0.0003939533101012762
19,140.1,0.000407275594774948
20,143.04000000000002,0.0009814454052018227
21,147.04,0.0021813457602043733
22,151.16,0.0022519972768570004
23,155.04,0.0023568078702094746
24,158.489319,0.0024568564465638583
25,159.01999999999998,0.002472219267998017
26,161.98000000000002,0.0025521400680443202
27,166.13,0.0026958388248659953
28,170.0,0.0027895785330346416
29,173.16000000000003,0.0028797982249759656
30,177.19,0.0029801822466606286
31,180.07,0.0030486398899489237
32,181.970086,0.003099588078014033
33,182.16,0.0031047206604658153
34,185.97,0.0032064754923570873
35,191.18,0.003326979650927567
36,193.83999999999997,0.003427614071618061
37,197.89999999999998,0.0035151638189877634
38,202.05,0.0036217032159297
39,204.86,0.0036977933859072523
40,208.929613,0.0036652661126021693
41,210.10999999999999,0.0036561409555068676
42,216.0,0.003945439839130786
43,220.01,0.004056983905910397
44,223.07,0.0040861419269442156
45,227.22,0.0042109639162547854
46,229.85,0.006306502032372087
47,234.13,0.010382565806889977
48,239.88329199999998,0.012395213476529873
49,240.13,0.01248137704152186
50,245.72,0.011542052360732328
51,252.03,0.011917221602989582
52,256.71,0.009846354102793695
53,260.28,0.011198539471234014
54,263.91,0.011562851333261561
55,268.81,0.011325024976218859
56,273.81,0.011041192775154878
57,275.42287,0.010961076718284151
58,278.90000000000003,0.010790215357624046
59,284.09,0.010595047387238581
60,290.03000000000003,0.009868198357548858
61,296.10999999999996,0.009801349956789008
62,300.92,0.009470817136451036
63,307.93,0.009321908342153904
64,316.227766,0.009167031273454225
65,318.02,0.00913272265089016
66,327.68,0.008761605321422939
67,337.64000000000004,0.008365488360605805
68,347.90000000000003,0.007951569768438756
69,356.82,0.007662766996301322
70,363.078055,0.007495853209227467
71,365.96999999999997,0.007419760374126975
72,375.36,0.007120604499140293
73,384.99,0.006602039480383983
74,394.86,0.006513495317858046
75,404.99,0.006294773166248345
76,414.43,0.0060271791779763235
77,416.86938299999997,0.005950491488043224
78,422.13,0.005784779810572067
79,429.98,0.005564274724797234
80,441.01,0.005340379590262659
81,451.28000000000003,0.005090493530274438
82,459.67,0.004874642549427196
83,470.38000000000005,0.004667938130491085
84,478.630092,0.0045282998303665615
85,480.23,0.004500870383425048
86,490.28000000000003,0.004259256323422927
87,500.55,0.004142684964594889
88,506.35,0.004001965268275256
89,512.21,0.0040474771268212825
90,520.53,0.003918619734859328
91,530.21,0.0037251485865189755
92,540.07,0.0035088141027756004
93,549.5408739999999,0.0033668171953674026
94,550.11,0.0033583319186396136
95,560.34,0.0033044967592112244
96,569.44,0.0032294232371390496
97,580.03,0.003077275538375937
98,589.4499999999999,0.002986891092450675
99,600.41,0.0028203514504824305
100,610.1700000000001,0.002458433272963263
101,620.08,0.002681261037387961
102,630.1600000000001,0.002560943936015706
103,630.957344,0.0025564012894572184
104,640.4,0.0025034997854714728
105,649.3000000000001,0.002408622295465535
106,658.34,0.0023119624269651215
107,664.4300000000001,0.0023017879624554404
108,675.22,0.002235095362774084
109,684.62,0.0021068530924307338
110,695.74,0.0020931204577266855
111,705.42,0.0019642484303943842
112,715.23,0.001969235480174356
113,724.43596,0.0019126125080967103
114,725.18,0.0019080186925278758
115,735.27,0.0018611662230162702
116,745.5,0.0017990480899039091
117,754.13,0.0017390203979430413
118,764.62,0.0015740293181435625
119,775.26,0.0016436958844861312
120,784.2399999999999,0.0015710490335233743
121,795.15,0.0015501459629216285
122,804.3599999999999,0.0015156992360433443
123,815.5500000000001,0.001478737838240087
124,824.99,0.001445975235446276
125,831.763771,0.001361764001197035
126,834.54,0.001326976582228043
127,844.2099999999999,0.001365867611866853
128,855.95,0.0013255388639826368
129,865.86,0.0013010946875318204
130,875.89,0.0012771044080361908
131,883.99,0.0012480184525113058
132,894.23,0.0012221649926872533
133,904.5799999999999,0.0011860641050721221
134,915.0600000000001,0.0013734804391584434
135,925.65,0.002676739345453686
136,934.22,0.004259767653003283
137,945.0400000000001,0.006392885028462633
138,954.992586,0.00792738754022013
139,955.98,0.008079684437728269
140,964.8199999999999,0.008877962088601875
141,976.0000000000001,0.0029511917647067325
142,985.03,0.007628474387714502
143,994.14,0.007698832156884023
144,1005.65,0.010166960310906107
145,1014.96,0.009777214945480008
146,1024.35,0.004897184726215663
147,1033.83,0.0074374835463832875
148,1045.8,0.012191321790835447
149,1055.48,0.011859558476407453
150,1065.24,0.00966488330814121
151,1075.1,0.011043529072577158
152,1085.05,0.008856348876445074
153,1095.09,0.011273945719744964
154,1096.4782,0.011204492125431868
155,1105.22,0.010766928888152569
156,1115.45,0.010353827160227452
157,1125.77,0.009293083425898305
158,1136.18,0.011272754685165125
159,1144.06,0.010305461457789768
160,1154.6399999999999,0.010716138038293414
161,1165.33,0.010864580944303242
162,1176.11,0.007730467843909035
163,1184.26,0.01032788859732158
164,1195.22,0.007606574484119305
165,1206.28,0.005852906030468107
166,1214.64,0.003979066768937906
167,1225.88,0.00726368830247864
168,1234.38,0.010114654364319943
169,1245.8,0.010861852885052613
170,1254.44,0.010396994270265417
171,1258.92541,0.009919115018533526
172,1266.04,0.009161375341982105
173,1274.8200000000002,0.011268572203608896
174,1283.66,0.01163739320779806
175,1295.53,0.009439704411386899
176,1304.5100000000002,0.009288786748221593
177,1313.56,0.011190994251379047
178,1325.71,0.010663413120258947
179,1334.8999999999999,0.009548876956061934
180,1344.15,0.01101261693442729
181,1353.47,0.010614529079115411
182,1365.99,0.009571029827129924
183,1375.46,0.00988415232822397
184,1385.0000000000002,0.00988414499564078
185,1394.6,0.008472501805619962
186,1404.26,0.00862995275816151
187,1414.0,0.00907769490078622
188,1423.8,0.009161742185973301
189,1433.6699999999998,0.009098850637483145
190,1443.61,0.009483318255315756
191,1445.43977,0.009531742064843238
192,1446.9299999999998,0.0095711795747167
193,1453.61,0.009267838895876259
194,1463.69,0.00859049399726673
195,1473.83,0.00853156221830834
196,1484.0500000000002,0.00861034359888479
197,1494.3400000000001,0.008669875119054232
198,1504.6899999999998,0.008204641758874807
199,1511.6399999999999,0.007380932618464469
200,1518.62,0.007799830537879698
201,1525.63,0.007570141517120493
202,1536.2,0.006609960595661891
203,1543.29,0.006984707734437532
204,1553.99,0.006625202072223054
205,1564.76,0.006794845549601566
206,1575.6100000000001,0.007196765186514922
207,1586.53,0.007449398963021268
208,1593.85,0.007570309560459588
209,1604.8999999999999,0.007364192596210057
210,1616.03,0.007330296791495372
211,1623.49,0.00695302666811967
212,1634.74,0.007330391102707252
213,1646.07,0.007398134696829679
214,1653.6699999999998,0.006857622852639956
215,1659.58691,0.007136740356592237
216,1665.1299999999999,0.007398293376984092
217,1672.82,0.006610372367713725
218,1676.67,0.007605545435894361
219,1684.41,0.007818431154782184
220,1696.0900000000001,0.007330903252535386
221,1703.9199999999998,0.007098996282107953
222,1715.73,0.0068743752730724495
223,1723.6499999999999,0.0068585766133297576
224,1735.59,0.007348502497505548
225,1743.61,0.007165020294079237
226,1755.69,0.007747857217097959
227,1763.8000000000002,0.00698645832435639
228,1776.0200000000002,0.007265150286218045
229,1784.22,0.0074172097041612164
230,1796.5900000000001,0.008187839850497442
231,1804.88,0.007910504579125358
232,1813.21,0.007400461890279824
233,1825.78,0.007537908949248809
234,1834.21,0.007249282716719657
235,1846.9199999999998,0.006462570814531575
236,1855.4499999999998,0.006907924038318801
237,1864.0100000000002,0.007452495699000942
238,1876.93,0.007731704855077258
239,1885.5900000000001,0.00733373897207578
240,1894.3,0.007504537817232491
241,1903.04,0.007643767099284117
242,1905.46072,0.0076309947433826275
243,1916.2299999999998,0.007573814190838459
244,1925.0800000000002,0.007052870057928951
245,1933.96,0.006316072361857039
246,1942.8899999999999,0.008058117727181117
247,1956.3600000000001,0.007802685867261225
248,1965.3899999999999,0.008813577355377288
249,1974.46,0.00855365109261014
250,1983.5700000000002,0.008813297078959791
251,1992.73,0.008752449126705432
252,2006.54,0.008533534884278278
253,2015.8000000000002,0.008494161054815902
254,2025.11,0.008038058286749517
255,2034.4599999999998,0.008832488767799924
256,2043.8500000000001,0.009484817497967125
257,2053.28,0.008913805477251121
258,2062.7599999999998,0.008710846517931106
259,2072.2799999999997,0.009772200807727885
260,2077.06,0.01326942407718467
261,2086.64,0.015093964240656638
262,2096.28,0.013957883277803796
263,2105.95,0.013238381751788552
264,2115.67,0.014249679287169296
265,2125.44,0.01317712588394603
266,2135.25,0.012073781729839562
267,2145.1,0.014480406824849884
268,2155.0099999999998,0.014715150793535397
269,2164.95,0.013116064199058504
270,2174.95,0.0133286164782568
271,2184.98,0.015337158194292693
272,2187.7616199999998,0.015415636430739873
273,2195.07,0.015622075360846501
274,2205.2,0.01495397697492646
275,2215.38,0.012184949337348375
276,2225.61,0.013146262448112244
277,2235.88,0.016547666157549674
278,2246.2,0.015622770615329061
279,2256.57,0.012555645821450401
280,2266.98,0.012213891626245305
281,2277.45,0.013452918329050554
282,2282.7,0.016434676904955765
283,2293.23,0.014119304505771358
284,2303.82,0.016314653004597297
285,2314.4500000000003,0.014233502102096802
286,2325.14,0.01084210209760665
287,2335.87,0.010276382691790063
288,2346.65,0.00768602703431543
289,2357.48,0.01279740612518275
290,2362.92,0.008169558544787387
291,2373.82,0.010156850683333446
292,2384.7799999999997,0.006710010719889847
293,2395.79,0.008077385504788204
294,2406.85,0.007924362038028513
295,2412.39,0.009198283954317061
296,2423.53,0.014261844684904499
297,2434.72,0.014218332163833891
298,2445.9500000000003,0.016499520241436846
299,2457.24,0.017263599217050146
300,2462.9100000000003,0.015417154079027776
301,2474.28,0.013826734251988205
302,2485.7000000000003,0.010316605173290586
303,2497.17,0.011250046842934923
304,2502.93,0.01662687305192807
305,2511.88643,0.01012220633947768
306,2514.48,0.008238555077962827
307,2520.2799999999997,0.0069474674811103275
308,2526.0899999999997,0.007491827826332218
309,2537.7499999999995,0.01051955728507357
310,2543.6,0.01116325339859303
311,2555.3399999999997,0.01767013539392952
312,2567.13,0.013740107099637968
313,2573.05,0.016854832807678174
314,2584.93,0.015184863992056156
315,2596.8599999999997,0.013711864886806096
316,2602.84,0.012022250247292657
317,2614.86,0.010906170620712127
318,2626.9300000000003,0.01462749070450356
319,2632.9799999999996,0.022847865659510865
320,2645.1400000000003,0.030720535221971827
321,2657.35,0.039718844494804756
322,2663.47,0.026357319044332802
323,2675.77,0.030096687795835256
324,2681.94,0.03352033205573527
325,2694.32,0.02582053034383286
326,2706.75,0.031015378342302415
327,2712.9900000000002,0.023358382196723173
328,2725.5099999999998,0.020469389673862255
329,2738.09,0.02452884680344769
330,2744.41,0.013761510194463589
331,2757.0699999999997,0.017996506860644162
332,2763.43,0.022852400019957628
333,2776.18,0.02486154616480773
334,2782.58,0.015540579092418766
335,2795.43,0.007219221658012793
336,2801.8700000000003,0.008633141353921396
337,2814.81,0.02225271239818495
338,2827.7999999999997,0.03213106715282047
339,2834.32,0.031168589385324214
340,2847.4,0.02543142361862926
341,2853.96,0.01630373561943057
342,2867.1400000000003,0.03293932927347954
343,2873.75,0.039948740984652814
344,2884.0315,0.03706708557851454
345,2887.0099999999998,0.03623230107534975
346,2893.6600000000003,0.04138870028701844
347,2907.02,0.054132078703243054
348,2927.17,0.04773586631453992
349,2947.46,0.045002533909240326
350,2967.8900000000003,0.047931181487344286
351,2988.47,0.04841607904766634
352,3009.1800000000003,0.0498124365925774
353,3030.04,0.05148821411970655
354,3051.04,0.05346462163023926
355,3072.19,0.05654725912299005
356,3093.49,0.05646228659795895
357,3107.7700000000004,0.06198828490512118
358,3129.31,0.058567082351639016
359,3151.0,0.05820783978037494
360,3172.84,0.06256052719132894
361,3187.4900000000002,0.05468363545462915
362,3209.5800000000004,0.060697282835946643
363,3231.83,0.05146264019829677
364,3246.75,0.06823257842958953
365,3269.25,0.07803498576230315
366,3291.9100000000003,0.0763102830760494
367,3307.1099999999997,0.07347116127414925
368,3311.31121,0.07303460384970344
369,3322.37,0.07188543571530132
370,3330.0299999999997,0.077695818356638
371,3337.71,0.07484429095265178
372,3345.4,0.07445974352600414
373,3353.11,0.0689722660540336
374,3360.84,0.07752171853674018
375,3368.59,0.07641503097412389
376,3376.36,0.061654393366184716
377,3384.14,0.06452130573558408
378,3391.94,0.0773492480596606
379,3399.76,0.08113499033841423
380,3407.6,0.07498277257184495
381,3415.45,0.07408189478261426
382,3423.33,0.08520300692539924
383,3431.22,0.08226423904552277
384,3439.13,0.08108870112032343
385,3447.06,0.06105622314980122
386,3454.9999999999995,0.07489796515661756
387,3462.9700000000003,0.06579929709544957
388,3470.95,0.07429477901162015
389,3478.9500000000003,0.06049662088246784
390,3486.97,0.07087084270799265
391,3495.01,0.06579918448819459
392,3503.0699999999997,0.08259252622307364
393,3511.14,0.07955876793529125
394,3519.2400000000002,0.07896583957952454
395,3527.3500000000004,0.0631246712010964
396,3535.4799999999996,0.07725384277734536
397,3543.6299999999997,0.08742786430827146
398,3551.8,0.08617787579387468
399,3559.9900000000002,0.081871077234155
400,3568.19,0.06759079865177389
401,3576.42,0.06801901000140845
402,3584.66,0.055255521328381574
403,3592.93,0.06354789258737038
404,3601.21,0.08867802382369776
405,3609.51,0.07287271501470223
406,3617.8300000000004,0.07875792616038382
407,3626.17,0.08472784726074256
408,3634.53,0.0709193783157784
409,3642.91,0.09494802932549136
410,3651.31,0.07451255028988144
411,3659.7200000000003,0.10021723123161008
412,3668.16,0.09653146210535439
413,3676.62,0.10125139293377583
414,3685.0899999999997,0.08612675373953582
415,3693.59,0.09415972447731151
416,3702.1,0.10082823519242574
417,3710.64,0.07216376583955565
418,3719.19,0.10352309646402413
419,3727.7599999999998,0.08428875704316972
420,3736.36,0.06060649755433099
421,3744.9700000000003,0.09082580804283083
422,3753.6000000000004,0.05860956848600778
423,3762.26,0.07579813886120042
424,3770.9300000000003,0.0780515692137316
425,3779.6200000000003,0.09573853952093991
426,3788.33,0.10834313978282534
427,3797.07,0.08175755997672646
428,3801.8939600000003,0.08828233810519025
429,3805.8199999999997,0.0935926120017562
430,3814.59,0.1032661862686749
431,3823.39,0.0784673904817746
432,3832.2000000000003,0.06507471467693465
433,3841.04,0.05625062881827573
434,3849.8900000000003,0.09095121294167713
435,3858.7599999999998,0.08943984702919923
436,3867.66,0.09577165106290235
437,3876.58,0.08335894506072614
438,3885.5099999999998,0.08311032904061028
439,3894.47,0.07680151296667545
440,3896.21,0.10239573984517471
441,3897.9799999999996,0.09323021666985498
442,3899.75,0.10011173349453527
443,3901.53,0.09250365030127589
444,3903.3,0.07820025712595617
445,3905.0699999999997,0.09445500395063645
446,3906.85,0.09612014075737707
447,3908.62,0.09606148758205736
448,3910.3900000000003,0.10536021440673764
449,3912.1699999999996,0.11854991121347826
450,3913.94,0.10059170803815855
451,3915.72,0.10026000484489916
452,3917.4900000000002,0.10086360166957946
453,3919.2599999999998,0.09893077849425974
454,3921.04,0.08362337530100036
455,3922.81,0.08899564212568065
456,3924.58,0.08092864895036092
457,3926.3599999999997,0.06981766575710155
458,3928.13,0.05837305258178183
459,3929.91,0.046682059388522455
460,3931.6800000000003,0.04308383621320274
461,3933.45,0.04003463303788302
462,3935.23,0.04787046984462364
463,3937.0,0.05550608666930393
464,3938.77,0.06243361349398421
465,3940.5499999999997,0.06740252030072483
466,3942.32,0.07170152712540512
467,3944.09,0.0843912139500854
468,3945.8700000000003,0.08971896075682602
469,3947.64,0.09596133758150631
470,3949.42,0.09837898438824692
471,3951.19,0.10140494121292722
472,3952.9599999999996,0.10725973803760748
473,3954.74,0.10358373484434812
474,3956.5099999999998,0.09658238166902838
475,3958.28,0.08934998849370868
476,3960.0600000000004,0.0799659053004493
477,3961.83,0.07456090212512957
478,3963.61,0.0665551689318702
479,3965.38,0.05233123575655049
480,3967.1499999999996,0.04312237258123077
481,3968.93,0.0502316293879714
482,3970.7,0.06559562621265168
483,3972.4700000000003,0.07861345303733196
484,3974.2499999999995,0.07825915984407258
485,3976.02,0.08535574666875287
486,3977.79,0.10404619349343315
487,3979.57,0.11224649030017377
488,3981.3399999999997,0.11676098712485405
489,3983.12,0.12024888393159468
490,3984.89,0.12213528075627496
491,3986.6600000000003,0.12052897758095524
492,3988.4399999999996,0.11889907438769587
493,3990.21,0.12731997121237612
494,3991.98,0.12958936803705642
495,3993.76,0.12283586484379705
496,3995.5299999999997,0.12446096166847734
497,3997.31,0.12751505847521794
498,3999.08,0.13594365529989824
499,4000.8500000000004,0.13804625212457852
500,4002.6299999999997,0.13414674893131914
501,4004.4,0.12936314575599944
502,4006.17,0.12572924258067972
503,4007.9500000000003,0.13101833938742033
504,4009.72,0.13731983621210062
505,4011.49,0.1394910330367809
506,4013.27,0.1426555298435215
507,4015.0400000000004,0.1478843266682018
508,4016.8199999999997,0.14931812347494244
509,4018.59,0.1430099202996227
510,4020.36,0.14374891712430302
511,4022.1400000000003,0.15253431393104364
512,4023.91,0.1478945107557239
513,4025.68,0.1471397075804042
514,4027.46,0.1399607043871448
515,4029.2299999999996,0.13652380121182509
516,4031.0099999999998,0.1388951980185657
517,4032.78,0.131550094843246
518,4034.55,0.13453999166792627
519,4036.3300000000004,0.14696228847466689
520,4038.1,0.1416877852993472
521,4039.87,0.15152878212402746
522,4041.65,0.13680317893076807
523,4043.4199999999996,0.13575137575544838
524,4045.19,0.13074187258012865
525,4046.97,0.13279176938686926
526,4048.7400000000002,0.14199616621154953
527,4050.5200000000004,0.1433864630182902
528,4052.29,0.14776815984297045
529,4054.06,0.14263035666765073
530,4055.84,0.13788385347439136
531,4057.6099999999997,0.13474535029907164
532,4059.38,0.13448604712375192
533,4061.16,0.13337964393049254
534,4062.9300000000003,0.12299044075517285
535,4064.7100000000005,0.12998883756191346
536,4066.48,0.13501733438659375
537,4068.25,0.13946773121127404
538,4070.03,0.14452892801801465
539,4071.7999999999997,0.12914762484269493
540,4073.57,0.1340446216673752
541,4075.35,0.13336691847411586
542,4077.1200000000003,0.13197561529879612
543,4078.8999999999996,0.13709081210553672
544,4080.67,0.14230150893021704
545,4082.44,0.1496727057548973
546,4084.2200000000003,0.13807650256163792
547,4085.99,0.14808099938631822
548,4087.7599999999998,0.1515927962109985
549,4089.54,0.14857859301773912
550,4091.3100000000004,0.14914128984241942
551,4093.08,0.1452225866670997
552,4094.86,0.1472750834738403
553,4096.63,0.1305206802985206
554,4098.41,0.12097207710526121
555,4100.18,0.1232055739299415
556,4101.95,0.11971537075462178
557,4103.73,0.12890056756136242
558,4105.5,0.1326996643860427
559,4107.27,0.13630816121072295
