,lambda (Angstroms),Total Flux (erg/s/cm^2/Angstrom)
0,102.00000000000001,3.8558443694960856
1,103.9,3.844855359891496
2,104.712855,3.8401540591576118
3,106.08,3.798618999139229
4,108.05,3.7387686773291406
5,110.06,3.677703120671409
6,113.93,3.5601291383426017
7,117.92999999999999,3.4386056424407014
8,120.22644299999999,3.3688376983136843
9,120.95,3.350407852934163
10,124.92,3.2492872956160497
11,126.95,3.1975808142681053
12,128.12,3.1677795417754924
13,131.1,3.0918754462549547
14,132.01,3.068696679387951
15,133.85,3.0218297214016703
16,136.97,2.9423596628879607
17,138.038426,2.915145599782953
18,140.16,2.8765194225216417
19,143.09,2.8231747433913044
20,147.10000000000002,2.7501671808088757
21,150.88,2.6813470808197355
22,155.1,2.604516176966854
23,158.489319,2.542808966224902
24,159.07999999999998,2.5346786250491844
25,162.04,2.4939361455429587
26,165.80999999999997,2.442044545321031
27,170.07000000000002,2.3834084139378673
28,172.82999999999998,2.3454188136435747
29,176.86,2.2899484922220275
30,180.14,2.2448014326588157
31,181.81,2.221814979382316
32,181.970086,2.219611500433302
33,186.05,2.1767688185610585
34,190.82,2.1266796406848627
35,193.92,2.094126928738941
36,197.98,2.0514933845450143
37,202.12,2.0080197780463114
38,204.93999999999997,1.9784073311501535
39,208.929613,1.9365129196580575
40,210.19,1.926562541495271
41,216.07999999999998,1.880062823625506
42,220.1,1.8483261751056497
43,223.16,1.8241684280976533
44,226.79000000000002,1.7955107445109184
45,229.94,1.7706431113223635
46,234.21999999999997,1.7368550641825935
47,239.88329199999998,1.692146154241257
48,240.23,1.690036945633132
49,245.82,1.6560291987388454
50,252.13,1.6176415425870103
51,256.81,1.5891690899294446
52,259.78999999999996,1.5710406838708968
53,264.01,1.5453679847949593
54,268.92,1.5154973352500796
55,273.92,1.4850791682653812
56,275.42287,1.4759362493173842
57,279.01,1.4591883041855522
58,284.2,1.4349567864872177
59,290.15,1.40717656063726
60,296.21999999999997,1.3788365977900456
61,301.03999999999996,1.3563321400722517
62,308.05,1.3236035127685295
63,316.227766,1.285422760949064
64,318.14000000000004,1.2787545445242825
65,327.81,1.2450337539559955
66,337.77000000000004,1.2103015586748436
67,348.03000000000003,1.1745231570324524
68,356.96,1.1433828871338898
69,363.078055,1.1220483632425733
70,366.12,1.1141044351749698
71,374.64,1.0918546296621006
72,385.14,1.064433371546029
73,395.02000000000004,1.0386324903936874
74,405.15000000000003,1.012178361020487
75,413.64,0.9900068924481209
76,416.86938299999997,0.9815733204204096
77,422.29999999999995,0.9707430922052842
78,430.15,0.9550880148448305
79,441.17999999999995,0.933091659529161
80,451.46,0.912590717845382
81,459.84999999999997,0.8958588716419671
82,469.47999999999996,0.8766544675824932
83,478.630092,0.8584071960120027
84,480.42,0.8556620188136302
85,490.48,0.8402328604516781
86,499.59999999999997,0.8262464748418766
87,506.55,0.8156087301827843
88,512.41,0.8067250464163988
89,519.54,0.7957932280126394
90,530.42,0.7791111522949815
91,540.28,0.7639824282571039
92,549.5408739999999,0.7498231245397411
93,550.33,0.7489036502557378
94,560.5600000000001,0.7369782095902887
95,569.6600000000001,0.7263633960240534
96,580.26,0.7139547801447027
97,589.68,0.7029853469583359
98,600.65,0.6901565161650831
99,610.41,0.6787953091010771
100,620.3199999999999,0.6672695613557593
101,630.4,0.6555106316716218
102,630.957344,0.6548599432568157
103,640.65,0.6458945694380478
104,649.56,0.6376906987230596
105,658.6,0.6293368156533072
106,664.69,0.6237413408339718
107,675.49,0.6137643309612589
108,684.89,0.6050449559090829
109,694.4200000000001,0.5963675312021425
110,705.6999999999999,0.5858778747195312
111,715.5200000000001,0.5769567601211939
112,724.43596,0.5687402176186427
113,725.47,0.5680344782314168
114,735.56,0.5611478487145758
115,745.7900000000001,0.5542265778773823
116,754.43,0.5483641048213361
117,764.9300000000001,0.5412199347948909
118,775.57,0.5340284594480933
119,784.55,0.5279842270426195
120,795.46,0.5205713785065702
121,804.67,0.51433026871766
122,815.8700000000001,0.5067195620894519
123,825.31,0.5004068849171052
124,831.763771,0.4958304878245415
125,834.87,0.4941679434031751
126,844.54,0.48959747368036205
127,854.3199999999999,0.4846909572595646
128,864.2099999999999,0.4797974371407827
129,874.22,0.4748366606241996
130,884.34,0.469854388409632
131,894.5799999999999,0.46477291479726335
132,904.94,0.4595593877870934
133,915.42,0.4556861693791223
134,926.02,0.47405975557335
135,934.59,0.5023285038303813
136,945.41,0.55602301462864
137,954.16,0.5970812522889696
138,954.992586,0.5996131088638553
139,965.1999999999999,0.6307668744913859
140,974.14,0.4736333734440332
141,985.4200000000001,0.6414559391024071
142,994.53,0.6363505740977782
143,1006.05,0.6806653471105855
144,1015.36,0.6459540715679846
145,1024.75,0.49472662181019467
146,1034.23,0.5885695323103174
147,1043.8,0.7190295330683527
148,1055.89,0.7175805810479394
149,1065.6599999999999,0.6724438712680028
150,1075.52,0.7069147417459785
151,1085.47,0.6610993924818667
152,1095.52,0.7095010879487691
153,1096.4782,0.70811668392324
154,1105.6499999999999,0.6957023925727219
155,1115.88,0.6907058219017945
156,1126.21,0.664501622778561
157,1134.02,0.7058367806534445
158,1144.51,0.678116416006521
159,1155.1,0.6872762229072912
160,1165.79,0.6944160013557551
161,1173.8700000000001,0.6168983424094117
162,1184.73,0.6726336324889552
163,1195.69,0.5929571941161923
164,1203.98,0.5310228554200058
165,1215.12,0.4192956058330919
166,1226.36,0.5421164277938717
167,1234.86,0.636987409347842
168,1246.29,0.66713579724924
169,1254.9299999999998,0.6635750589699818
170,1258.92541,0.6469826377267964
171,1263.63,0.6280019835776491
172,1275.3200000000002,0.6844723666350769
173,1284.16,0.6958362953970668
174,1296.04,0.6493222354075239
175,1305.03,0.643300977553484
176,1314.07,0.6899001241607678
177,1326.23,0.6768959691546361
178,1335.4199999999998,0.6524468291458905
179,1344.68,0.6847284153829973
180,1354.0,0.6762558669736926
181,1366.53,0.6504145649813546
182,1376.0,0.6576399299560203
183,1385.5400000000002,0.6613333211765386
184,1395.14,0.6244594777506454
185,1404.82,0.6320430214628696
186,1414.55,0.6408193696364172
187,1424.3600000000001,0.6388471049480824
188,1434.23,0.6359494056133358
189,1440.85,0.6478904162925635
190,1445.43977,0.6485035083522128
191,1447.5,0.6489615706846344
192,1454.1799999999998,0.6428749473745654
193,1464.26,0.6251637032180539
194,1474.4099999999999,0.6212825983382335
195,1484.63,0.6209836327351039
196,1494.92,0.6225016064086651
197,1505.29,0.6104780678270161
198,1512.23,0.5858253046875133
199,1515.72,0.5995683200539591
200,1526.23,0.5905341600256918
201,1533.27,0.561244081567176
202,1543.9,0.5760032031560931
203,1554.6,0.560029964021701
204,1565.38,0.5626185126320985
205,1576.23,0.577727500519187
206,1583.5,0.5847990368269412
207,1594.48,0.5913025547993127
208,1605.53,0.5768343120483751
209,1616.66,0.5745504570422272
210,1624.1200000000001,0.5620362142438566
211,1635.3799999999999,0.5732908893229918
212,1646.72,0.5726933521469164
213,1654.32,0.5525252879019278
214,1659.58691,0.5627981010152177
215,1665.79,0.5752781667310836
216,1673.48,0.5486193206565882
217,1677.33,0.5727454291888631
218,1685.08,0.579625861948637
219,1696.76,0.5638426083530446
220,1704.59,0.5533201462251774
221,1716.3999999999999,0.5432851134371683
222,1724.33,0.53967458269975
223,1736.28,0.5530060338583691
224,1744.29,0.5442582082333096
225,1756.3799999999999,0.5570164433385568
226,1764.49,0.5330911491039461
227,1776.72,0.5421153681558215
228,1784.92,0.5434665421726146
229,1793.16,0.553470668745587
230,1805.59,0.5499453505783599
231,1813.92,0.5350932454027362
232,1826.5,0.5349612743211821
233,1834.9299999999998,0.5270751005360071
234,1843.4,0.5065626793070116
235,1856.18,0.506293771006355
236,1864.74,0.5106048180287632
237,1873.35,0.523213180746396
238,1886.34,0.5035344983656815
239,1895.04,0.49217442933471806
240,1903.79,0.5041992759989788
241,1905.46072,0.502962556343665
242,1916.99,0.4948708343520153
243,1925.8400000000001,0.4892991683240247
244,1934.73,0.4945627904721787
245,1943.65,0.5055593537524412
246,1957.1299999999999,0.4875443691131968
247,1966.16,0.5031877498778572
248,1975.24,0.5087709658626984
249,1984.35,0.49485502297964823
250,1993.51,0.4868134153167788
251,2002.71,0.4905472958300541
252,2016.6000000000001,0.4843798399962925
253,2025.9099999999999,0.4912725379939657
254,2035.2600000000002,0.48086502416778354
255,2044.65,0.48455819851774595
256,2054.09,0.4689581080878894
257,2063.57,0.4732657058341773
258,2073.1,0.48710023880064623
259,2077.87,0.4771563788058988
260,2082.66,0.4821290128992236
261,2097.1,0.4689709444874513
262,2106.78,0.4717859831144626
263,2116.5,0.47153570991761873
264,2126.27,0.47439687194095564
265,2136.09,0.45956786918447334
266,2145.9500000000003,0.46230275460413583
267,2155.85,0.4666191281999429
268,2165.7999999999997,0.4579482370159309
269,2175.8,0.4553870810520996
270,2185.84,0.4520890132644131
271,2187.7616199999998,0.45361348591373185
272,2195.9300000000003,0.4603718794589165
273,2206.07,0.4528244303258976
274,2216.25,0.44322243168939546
275,2226.48,0.43670847117353906
276,2236.76,0.4483932487783286
277,2247.08,0.43884477687963486
278,2257.46,0.431642630725716
279,2262.66,0.4334161952728859
280,2273.1,0.43771587486374214
281,2283.6,0.44061828019937344
282,2294.14,0.42836223603152146
283,2304.73,0.4290819299843154
284,2315.36,0.4220421744336259
285,2326.05,0.3853023446277115
286,2336.79,0.41169135294244297
287,2347.5699999999997,0.4016525117536912
288,2352.9900000000002,0.4140228040317027
289,2363.85,0.39991216383598427
290,2374.7599999999998,0.4044769617609117
291,2385.7200000000003,0.3900798978064849
292,2396.73,0.39904827197270404
293,2402.2599999999998,0.39217362811613665
294,2413.34,0.3933750156512599
295,2424.48,0.4011801289311583
296,2435.67,0.39254468033170253
297,2446.92,0.3996974574770218
298,2452.56,0.3966624774858752
299,2463.88,0.39327836800009863
300,2475.25,0.38668679663496797
301,2486.68,0.3904580510146124
302,2492.41,0.3779450596406283
303,2503.91,0.39525362738917696
304,2511.88643,0.3831157872481694
305,2515.4700000000003,0.37772769686818086
306,2527.08,0.3734224607510187
307,2532.91,0.3731380157412809
308,2544.6000000000004,0.3713366333804173
309,2556.3399999999997,0.38082539711724034
310,2562.2400000000002,0.37671993664426384
311,2574.0600000000004,0.3844845541373855
312,2585.94,0.38261718694773117
313,2597.88,0.3794558350753008
314,2603.87,0.37282119757816023
315,2615.8900000000003,0.3697388994620284
316,2627.9599999999996,0.3748112474435834
317,2634.0200000000004,0.3777153944832041
318,2646.1800000000003,0.3916232654405949
319,2652.28,0.393370789358365
320,2664.5200000000004,0.3794757140720544
321,2676.8199999999997,0.38412985410296785
322,2682.9900000000002,0.3851611625574992
323,2695.38,0.37539052556424857
324,2707.82,0.3780331346686846
325,2714.06,0.3687490276599773
326,2726.5899999999997,0.36625075974024923
327,2732.87,0.3735840296096912
328,2745.49,0.3524747846657991
329,2758.16,0.3548665858195936
330,2764.52,0.36067660944533425
331,2777.2799999999997,0.36632033357496474
332,2783.68,0.3578951340788547
333,2796.5299999999997,0.32387248118432116
334,2802.98,0.33457332778589766
335,2815.91,0.36193272864766274
336,2822.4,0.3660534521273886
337,2835.43,0.35973044518452696
338,2841.97,0.3538423147619395
339,2855.09,0.3471440307949138
340,2868.26,0.35939809292557473
341,2874.88,0.35970501625928586
342,2884.0315,0.35926085770726646
343,2888.15,0.35912518703954893
344,2894.8,0.35827980612720334
345,2908.17,0.3694036202929086
346,2928.33,0.36162140552706096
347,2948.6200000000003,0.3571439176005209
348,2969.06,0.35774190679625867
349,2989.64,0.3564340479727892
350,3010.37,0.3570189662715977
351,3031.2299999999996,0.3557003114097137
352,3052.24,0.35501503367010756
353,3073.4,0.3524215330527794
354,3087.59,0.35195410882027056
355,3108.99,0.35061961159858707
356,3130.54,0.34615949149918146
357,3152.2400000000002,0.3448235485220538
358,3166.79,0.34496812938301197
359,3188.74,0.3362768149430142
360,3210.8399999999997,0.34042477762529433
361,3233.1,0.3324014425713375
362,3248.02,0.3410510536672479
363,3270.54,0.3453199722919062
364,3293.2099999999996,0.3426837680388425
365,3308.41,0.3403089830963383
366,3311.31121,0.33997746067977347
367,3323.68,0.3386993142003486
368,3331.3399999999997,0.3391515268360932
369,3339.02,0.3244534084343331
370,3346.7200000000003,0.33757055899506844
371,3354.43,0.32707214403705154
372,3362.17,0.32276213252277774
373,3369.92,0.3179394554897516
374,3377.6800000000003,0.31433551293797324
375,3385.47,0.328779373829938
376,3393.28,0.33469470368439813
377,3401.1000000000004,0.34012286802010605
378,3408.9399999999996,0.3228955013183093
379,3416.7999999999997,0.32989520357900803
380,3424.67,0.3414975403209544
381,3432.5699999999997,0.343874480506644
382,3440.48,0.33737835517358117
383,3448.4100000000003,0.3208434988030138
384,3456.36,0.3189121113949419
385,3464.33,0.31641199294936545
386,3472.3199999999997,0.3292776434662843
387,3480.32,0.31954892846445093
388,3488.3399999999997,0.324699182425113
389,3496.38,0.32452060534827043
390,3504.4399999999996,0.32494669723392333
391,3512.52,0.3223775580820716
392,3520.62,0.33004538789271526
393,3528.7400000000002,0.3161317866658544
394,3536.87,0.32724491992024124
395,3545.02,0.3350853221371235
396,3553.2000000000003,0.3367901277977488
397,3561.39,0.3316104679396219
398,3569.6,0.31697537704399037
399,3577.8300000000004,0.3133013551108543
400,3586.07,0.3012693676589659
401,3594.3399999999997,0.3146703836508207
402,3602.63,0.3307036686051708
403,3607.45,0.3614459885665662
404,3610.18,0.3118201019471906
405,3612.92,0.2802832498090626
406,3615.65,0.336842663189687
407,3618.3900000000003,0.340878311051559
408,3621.12,0.3377373244321834
409,3623.8599999999997,0.3292221722940555
410,3626.59,0.34288848567467983
411,3629.33,0.3240951335365519
412,3632.06,0.33564594691717625
413,3634.8,0.3201399947790483
414,3637.5299999999997,0.29721890815967267
415,3640.27,0.32542805602154473
416,3643.0,0.3446645694021691
417,3645.7400000000002,0.3336281172640411
418,3648.47,0.33001533064466554
419,3651.2099999999996,0.3311288785065376
420,3653.94,0.33750509188716193
421,3656.68,0.33303323974903404
422,3659.4100000000003,0.3604070531296584
423,3662.15,0.32452750099153044
424,3664.8799999999997,0.3221373143721548
425,3667.62,0.3372120622340269
426,3670.35,0.34600817561465125
427,3673.09,0.3415362234765233
428,3675.82,0.3557808368571476
429,3678.56,0.31621828471901975
430,3681.29,0.3033925980996441
431,3684.0299999999997,0.3122732459615162
432,3686.76,0.3301349593421405
433,3689.5,0.34457050720401255
434,3692.23,0.3274429205846369
435,3694.9700000000003,0.31441276844650895
436,3697.7,0.3172732818271334
437,3700.44,0.3400389296890054
438,3703.17,0.34487794306962977
439,3705.91,0.33314639093150183
440,3708.6400000000003,0.34549870431212615
441,3711.38,0.31633095217399826
442,3714.11,0.3226664655546226
443,3716.85,0.3327646134164947
444,3719.58,0.34805422679711906
445,3722.32,0.3903258746589911
446,3725.0499999999997,0.5237482880396155
447,3727.7900000000004,0.8160826359014874
448,3730.52,1.2689398492821118
449,3733.2599999999998,1.408780097143984
450,3735.9900000000002,1.1138616105246082
451,3738.73,0.6880514583864804
452,3741.4599999999996,0.43674487176710475
453,3744.2,0.3834086196289768
454,3746.93,0.38285503300960116
455,3749.67,0.35465108087147323
456,3752.4,0.3274939942520976
457,3755.1400000000003,0.3305861421139697
458,3757.87,0.346606255494594
459,3760.6099999999997,0.37841710335646606
460,3763.34,0.3730644167370904
461,3766.08,0.3870534645989625
462,3768.8100000000004,0.3892190779795869
463,3771.55,0.36463222584145893
464,3774.2799999999997,0.3680711392220833
465,3777.02,0.37514048708395537
466,3779.75,0.38806610046457973
467,3782.4900000000002,0.4079704483264518
468,3785.2200000000003,0.44612986170707614
469,3787.96,0.46586140956894817
470,3790.69,0.44101292294957256
471,3793.43,0.4252886708114446
472,3796.1600000000003,0.390933084192069
473,3798.9,0.36608233205394103
474,3801.6299999999997,0.34190324543456546
475,3801.8939600000003,0.3447234121723894
476,3804.3700000000003,0.37119666087137215
477,3807.1,0.37977029753093045
478,3809.8399999999997,0.4119116456800843
479,3812.57,0.4407778823396426
480,3815.31,0.4753846304887964
481,3818.04,0.45531576714835476
482,3820.7799999999997,0.46211171529750855
483,3823.5099999999998,0.4439655519570669
484,3826.25,0.41612240010622065
485,3828.98,0.41774103676577895
486,3831.7200000000003,0.39675678491493277
487,3834.45,0.3651514215744911
488,3837.1899999999996,0.3588387697236449
489,3839.92,0.3423918063832032
490,3842.66,0.349558454532357
491,3845.3900000000003,0.39067099119191534
492,3848.13,0.4374126393410691
493,3850.8599999999997,0.44542837600062746
494,3853.6,0.4536246241497813
495,3856.33,0.47679886080933953
496,3859.07,0.4668536089584933
497,3861.8,0.4822254456180517
498,3864.5400000000004,0.4843844937672055
499,3867.27,0.5096084304267638
500,3870.0099999999998,0.5069022785759176
501,3872.7400000000002,0.519336915235476
502,3875.48,0.5174729633846298
503,3878.2100000000005,0.48358500004418803
504,3880.9500000000003,0.46519304819334184
505,3883.68,0.4286568848529002
506,3886.42,0.40659713300205397
507,3889.15,0.38712166966161227
508,3891.89,0.4139870178107661
509,3894.62,0.41664035447032444
510,3897.36,0.4039507026194782
511,3900.09,0.40742593927903653
512,3902.83,0.42886308742819035
513,3905.56,0.45021092408774865
514,3908.3,0.4592643722369024
515,3911.0299999999997,0.46330290889646075
516,3913.7699999999995,0.4820764570456146
517,3916.5,0.4861302937051729
518,3919.24,0.4857629418543267
519,3921.9700000000003,0.482856378513885
520,3924.71,0.48703462666303876
521,3927.4399999999996,0.48084576332259715
522,3930.18,0.4630575114717509
523,3932.91,0.43341054813130925
524,3935.65,0.4089867962804631
525,3938.38,0.4158712329400214
526,3941.1200000000003,0.4406919810891751
527,3943.85,0.4523908177487335
528,3946.5899999999997,0.45870986589788726
529,3949.32,0.4565542025574456
530,3952.06,0.46965605070659944
531,3954.7900000000004,0.4737249873661577
532,3957.53,0.4694869355153115
533,3960.2599999999998,0.44952967217486983
534,3963.0,0.42958542032402364
535,3965.73,0.391324256983582
536,3968.4700000000003,0.36252250513273576
537,3971.2,0.3577081417922941
538,3973.94,0.35581928994144785
539,3976.67,0.37957162660100624
540,3979.41,0.38269487475016
541,3982.1400000000003,0.42172241140971833
542,3984.88,0.4471823595588721
543,3987.6099999999997,0.46237649621843047
544,3990.35,0.4709582443675842
545,3993.08,0.47930388102714255
546,3995.8199999999997,0.49431822917629636
547,3998.55,0.4897071658358547
548,4001.2799999999997,0.5020960024954131
549,4004.02,0.5119966506445668
550,4006.75,0.5069797873041251
551,4009.49,0.5038272354532789
552,4012.2200000000003,0.49853647211283725
553,4014.96,0.505702720261991
554,4017.69,0.5211811569215494
555,4020.43,0.5182063050707032
556,4023.16,0.5084814417302616
557,4025.9,0.5196351898794154
558,4028.63,0.5237854265389736
559,4031.3700000000003,0.5248485746881274
560,4034.1,0.5322152113476858
561,4036.8399999999997,0.5249889594968395
562,4039.57,0.5160505961563978
563,4042.31,0.5194271443055516
564,4045.04,0.52303978096511
565,4047.78,0.5236921291142638
566,4050.5099999999998,0.5160523657738221
567,4053.25,0.5366876139229759
568,4055.98,0.5362873505825342
569,4058.7200000000003,0.516885698731688
570,4061.45,0.5116252353912464
571,4064.1899999999996,0.5113238835404001
572,4066.92,0.5109742201999585
573,4069.66,0.5165830683491123
574,4072.3900000000003,0.5188258050086706
575,4075.13,0.5171596531578244
576,4077.8599999999997,0.4933671898173827
577,4080.6,0.4980425379665365
578,4083.33,0.4884444746260948
579,4086.07,0.48322232277524857
580,4088.8,0.48471415943480695
581,4091.54,0.46783900758396074
582,4094.27,0.4573125442435191
583,4097.01,0.4425326923926729
584,4099.74,0.42152512905223116
585,4102.48,0.43613387720138497
586,4105.21,0.4399338138609433
587,4107.95,0.42536196201009707
588,4110.68,0.4236981986696554
