,lambda (Angstroms),Total Flux (erg/s/cm^2/Angstrom)
0,102.06,9.715095997520809
1,103.95,9.687551589408931
2,104.712855,9.676433923040259
3,105.89,9.586318958965101
4,108.10000000000001,9.417134983685953
5,110.11,9.263261775497487
6,113.98,8.966998434394977
7,117.99000000000001,8.660017556589473
8,120.22644299999999,8.488809271726446
9,121.02,8.43787691684543
10,124.98,8.18371479904449
11,127.01,8.053424622631496
12,127.89,7.996944152548774
13,130.87,7.805680741648412
14,132.07999999999998,7.728020097386682
15,133.92,7.6099245695442
16,137.04,7.409675635884802
17,138.038426,7.345594307838796
18,139.91,7.259733053634009
19,142.84,7.125315006500139
20,146.84,6.941809284957925
21,150.95000000000002,6.753256975515714
22,154.83,6.5752562880917775
23,158.489319,6.407379677179779
24,159.16,6.384118154016787
25,162.12,6.281455200993999
26,165.9,6.1503518830106785
27,170.14999999999998,6.002947345226143
28,172.92,5.9068743244094
29,176.95,5.7671002109666825
30,179.82000000000002,5.667558882490021
31,181.9,5.5954174354677155
32,181.970086,5.592986615801888
33,186.14,5.482650316772493
34,190.92000000000002,5.356171202803687
35,194.01999999999998,5.2741450402045
36,198.07999999999998,5.166717237940674
37,202.23000000000002,5.056908097005098
38,205.04000000000002,4.982555491420541
39,208.929613,4.879636136993413
40,209.82,4.86192365701154
41,216.19,4.735205822577471
42,220.20999999999998,4.655236333996233
43,222.76000000000002,4.604509449300163
44,226.89999999999998,4.52215296422738
45,230.05999999999997,4.459296923472376
46,233.8,4.384908867573073
47,239.8,4.26556014714585
48,239.88329199999998,4.263903225964564
49,245.95,4.170902956946
50,252.26,4.074178184362278
51,256.95,4.002276994861177
52,259.92,3.9567556991013744
53,264.14,3.8920691956130704
54,269.06,3.8166501427540043
55,274.06,3.7400045213099937
56,275.42287,3.71911291579861
57,279.15,3.6752660031846385
58,283.69,3.6218570294808243
59,290.3,3.5440919451687067
60,295.69,3.480684665674575
61,301.19,3.4159803011454626
62,308.21000000000004,3.333396642022956
63,316.227766,3.2390756697376744
64,318.29999999999995,3.2208683833180065
65,327.98,3.135815709829353
66,337.94,3.048301715567434
67,348.21,2.9580633484383263
68,357.14000000000004,2.8796000730577083
69,363.078055,2.82742620706072
70,366.3,2.806226391502232
71,374.84000000000003,2.7500329253997795
72,385.34,2.6809368311213544
73,395.22,2.6159311016730835
74,405.36,2.5492108240024898
75,413.84999999999997,2.493345307492792
76,416.86938299999997,2.4734767726739446
77,421.53999999999996,2.450006674826274
78,430.37,2.4056354345399193
79,441.41,2.3501621577834806
80,450.65000000000003,2.3037307325438525
81,460.09000000000003,2.256293406824579
82,469.71999999999997,2.207902636119642
83,478.630092,2.163130637839086
84,479.56,2.1595370604069792
85,489.59999999999997,2.1207325260747147
86,499.85,2.0811228864066162
87,505.64,2.058743820075759
88,511.49,2.036147074363234
89,519.81,2.0039924771054216
90,529.47,1.9666572229570476
91,540.56,1.9237903640456124
92,549.5408739999999,1.8890830377807946
93,550.61,1.8859312708360731
94,559.55,1.8595827885974918
95,569.96,1.828897756709278
96,580.5500000000001,1.797672639459885
97,589.99,1.7698472703180275
98,599.57,1.7415983382952525
99,609.31,1.7128624349514292
100,620.64,1.6794911291171872
101,629.28,1.6540178080805719
102,630.957344,1.6490731675892503
103,639.5000000000001,1.6291106177802925
104,649.8900000000001,1.604831199168151
105,657.42,1.5872322057709014
106,665.0300000000001,1.5694533996557523
107,674.28,1.547834873923673
108,685.24,1.5222116052715005
109,694.77,1.4999610076267742
110,704.44,1.477348414175724
111,715.88,1.4506332040161574
112,724.43596,1.4306393877591725
113,725.8399999999999,1.4282041138813426
114,734.25,1.413618055942832
115,744.46,1.3959169127714657
116,754.8199999999999,1.3779503309223613
117,765.32,1.359724838480701
118,774.1800000000001,1.3443833203089766
119,784.9499999999999,1.3257052229673885
120,795.87,1.3067715424480622
121,805.0799999999999,1.2908032774949492
122,814.41,1.2746242182196454
123,825.7399999999999,1.2549881913078351
124,831.763771,1.2445054309836223
125,835.3,1.2399009038369957
126,844.97,1.2274234811394142
127,854.75,1.2147474153433084
128,864.65,1.2019299192760848
129,874.66,1.1889719423103362
130,884.7900000000001,1.1758631615734696
131,895.04,1.1625901394654856
132,905.4,1.1491545973589763
133,915.89,1.1357879755087565
134,924.36,1.1284940534223538
135,935.0600000000001,1.1200039527476777
136,945.8900000000001,1.1151516123292904
137,954.64,1.1122291738102794
138,954.992586,1.1118856325692514
139,965.7,1.10175284290422
140,974.63,1.0643167368659918
141,985.92,1.0712924877000791
142,995.04,1.0617935904269948
143,1004.25,1.0643547263058208
144,1015.88,1.0483425458249027
145,1025.28,1.012727409468873
146,1034.76,1.01178875480343
147,1044.34,1.0279444947512208
148,1054.0,1.0149052663895985
149,1066.21,0.9872314106654361
150,1076.07,0.9840013415302813
151,1086.03,0.9598105870083603
152,1096.08,0.9621629056383495
153,1096.4782,0.9615719125051692
154,1106.22,0.9493539056676343
155,1113.89,0.9392842766344074
156,1124.19,0.9232979936823554
157,1134.6000000000001,0.9266861443686797
158,1145.09,0.9101180049738231
159,1155.69,0.9033766892173425
160,1163.7,0.8973114723390961
161,1174.47,0.866404657660106
162,1185.34,0.8735494353796396
163,1196.3,0.8423733242578445
164,1204.6,0.8215504933353173
165,1215.74,0.8005485145308648
166,1224.17,0.8137056797264185
167,1235.5,0.8250614244791612
168,1244.06,0.823233645792796
169,1255.57,0.8080465828628816
170,1258.92541,0.800676250729843
171,1264.2700000000002,0.7905307583419954
172,1275.9699999999998,0.8006577485559407
173,1284.8200000000002,0.7983059114100786
174,1293.7199999999998,0.7737754943933363
175,1305.6899999999998,0.7643278133045261
176,1314.74,0.7750305666751418
177,1323.8600000000001,0.7650111582265247
178,1336.1100000000001,0.7466128698607833
179,1345.37,0.7542163377737009
180,1354.69,0.7447054898415613
181,1364.08,0.7289295500901891
182,1373.54,0.7261186685195841
183,1386.25,0.7179236553417416
184,1395.86,0.7009714841584949
185,1405.5300000000002,0.6967794471301912
186,1415.28,0.6910102623084791
187,1425.09,0.68623247164171
188,1434.96,0.678587785129884
189,1441.5900000000001,0.6781771442511196
190,1445.43977,0.6761597531410373
191,1448.24,0.6753186275563575
192,1454.93,0.6697097705441855
193,1465.01,0.6583948974675499
194,1475.17,0.6531420287315757
195,1485.39,0.6495051932510977
196,1495.69,0.6458639121112815
197,1506.06,0.6363651747695441
198,1513.01,0.6247493018645225
199,1516.5,0.6278250112258856
200,1523.5000000000002,0.6220917110337774
201,1534.06,0.6080407240011114
202,1544.69,0.6089451807665243
203,1555.4,0.5999189418725986
204,1566.18,0.5954406567767522
205,1573.41,0.5959932590640461
206,1584.31,0.594011630479192
207,1595.3,0.5900720867775823
208,1606.35,0.5830889863314686
209,1613.77,0.579726228927834
210,1624.95,0.5700954555352955
211,1636.2199999999998,0.5689187170260014
212,1643.77,0.5663111066759418
213,1655.1599999999999,0.5547789446776401
214,1659.58691,0.5550477803116018
215,1666.64,0.5565685154404256
216,1670.48,0.5470585422102552
217,1678.19,0.5540624839278032
218,1685.9399999999998,0.5549044832158707
219,1693.72,0.5469288406818271
220,1705.46,0.5399108876291704
221,1713.3300000000002,0.5343989196287947
222,1725.21,0.5300974980729547
223,1733.17,0.532645944606247
224,1745.18,0.5263331751545938
225,1753.24,0.5294773656141838
226,1765.39,0.5175766876593473
227,1773.5400000000002,0.517533332652605
228,1785.83,0.5144164461945854
229,1794.0800000000002,0.5184661051141408
230,1806.51,0.5125068501529378
231,1814.8500000000001,0.5040770236061611
232,1823.23,0.5024016746299036
233,1835.87,0.4944732869139255
234,1844.34,0.48499924247133586
235,1857.12,0.48218578625217456
236,1865.7,0.4826966851285122
237,1874.31,0.4845971021827392
238,1882.9599999999998,0.4762867868074854
239,1896.01,0.4701264241893276
240,1904.76,0.4703549327403713
241,1905.46072,0.46995788611690587
242,1913.56,0.46615211439131893
243,1926.82,0.46040869523273786
244,1935.71,0.45665762291601175
245,1944.65,0.4625745343882806
246,1953.6200000000001,0.4564998061339463
247,1967.17,0.46085155295153496
248,1976.25,0.45954229903298927
249,1985.37,0.4540443921456394
250,1994.53,0.4498596422894853
251,2003.74,0.44828844622232594
252,2012.99,0.4435864771863625
253,2026.94,0.4417827643159095
254,2036.3,0.43843129961573457
255,2045.7,0.44001566194675545
256,2055.14,0.43412587130897234
257,2064.62,0.4309176077023849
258,2074.15,0.4358148278847922
259,2078.94,0.43626795487049336
260,2083.73,0.4387616018561944
261,2093.35,0.4310991628587924
262,2103.0099999999998,0.4270257508925863
263,2112.72,0.4265340627153749
264,2127.36,0.42284257613305004
265,2137.18,0.4127084622916273
266,2147.04,0.41590677548140026
267,2156.96,0.41615106921796696
268,2166.91,0.4091412632279306
269,2176.91,0.4064882710268891
270,2186.96,0.4055039826148422
271,2187.7616199999998,0.4056454237316609
272,2197.06,0.4080840502543389
273,2207.2,0.4031342523272031
274,2217.38,0.39414707421100564
275,2222.5,0.3920093300111107
276,2232.75,0.39990358656405534
277,2243.06,0.39368225283340746
278,2253.42,0.3850897038664325
279,2263.82,0.38459150471039577
280,2274.27,0.3866120703180321
281,2284.76,0.39017892573660656
282,2295.31,0.38158226087158864
283,2305.9,0.38283892581750895
284,2316.55,0.3759360204798368
285,2327.24,0.355625104953103
286,2332.6,0.362738859618838
287,2343.37,0.3549489237139808
288,2354.19,0.36595187257279643
289,2365.0499999999997,0.35183581124255053
290,2375.97,0.355295969628712
291,2386.94,0.34318261277854634
292,2392.44,0.3481548667825654
293,2403.48,0.3439880946015419
294,2414.58,0.34542062213692587
295,2425.7200000000003,0.354816369483248
296,2436.92,0.3505034565459778
297,2442.54,0.3559258499828119
298,2453.81,0.3541434617146837
299,2465.1400000000003,0.35002296316296294
300,2476.52,0.34341933937491514
301,2482.22,0.3407847824336259
302,2493.68,0.3360774582674546
303,2505.19,0.3485297688649564
304,2510.9700000000003,0.3280885415455436
305,2511.88643,0.327656638316581
306,2516.76,0.3255827863140195
307,2522.56,0.3237139780600127
308,2534.2,0.3266523317019714
309,2545.8999999999996,0.32558485056888864
310,2557.65,0.3358066021232713
311,2563.55,0.32893182924419545
312,2575.38,0.33477693109852286
313,2587.27,0.33094049817780885
314,2593.2300000000005,0.3275929505236914
315,2605.2,0.3217807879029223
316,2617.2200000000003,0.3174177679696184
317,2623.26,0.3257836306154458
318,2635.3700000000003,0.33503721351957977
319,2647.53,0.35003642911117927
320,2653.63,0.3597324769819652
321,2665.88,0.3364780254110025
322,2672.03,0.34410904596925385
323,2684.36,0.3453567546982359
324,2696.75,0.33253573865217656
325,2702.9700000000003,0.3399440369728795
326,2715.45,0.326400323764258
327,2727.98,0.3229793532431018
328,2734.27,0.33033420932625646
329,2746.8900000000003,0.3039636416425381
330,2753.2200000000003,0.3102902578756651
331,2765.93,0.3169262030293847
332,2772.31,0.32288752194997716
333,2785.1,0.30477079740364144
334,2797.96,0.2779224606197573
335,2804.41,0.2827960673028015
336,2817.35,0.3139822808188621
337,2823.85,0.33057629018937174
338,2836.88,0.3257571765428701
339,2843.4199999999996,0.3186449860633521
340,2856.5499999999997,0.30334962779178154
341,2863.1299999999997,0.32834873746223575
342,2876.35,0.331882512028103
343,2882.98,0.3278883743860227
344,2884.0315,0.3279837189402634
345,2896.2799999999997,0.32957558385279007
346,2909.6499999999996,0.35051739399624116
347,2929.82,0.3387044966584257
348,2950.13,0.33374997534305484
349,2970.58,0.3384749300501284
350,2991.17,0.3382320607796465
351,3011.9,0.34081786753160914
352,3032.7799999999997,0.339984305736191
353,3046.78,0.34169710798064223
354,3067.9,0.34488177650941465
355,3089.1600000000003,0.3461558210606315
356,3110.58,0.3489111524946421
357,3132.14,0.34285455995109726
358,3146.6,0.34408361198358056
359,3168.41,0.3469148051944009
360,3190.3700000000003,0.3310985298578403
361,3212.4799999999996,0.3402918859738989
362,3227.31,0.32431718892284267
363,3249.68,0.3467982862234411
364,3272.21,0.3596940704068331
365,3287.31,0.3567817699704915
366,3310.1000000000004,0.3540637953384233
367,3311.31121,0.35370386441505763
368,3325.38,0.3499107085251373
369,3333.04,0.35948091231775775
370,3340.73,0.3411208089450751
371,3348.43,0.3683071365172915
372,3356.15,0.3594934259793058
373,3363.89,0.321160677331118
374,3371.6400000000003,0.33032465962782925
375,3379.41,0.3595164038143386
376,3387.2000000000003,0.3547799098906457
377,3395.0099999999998,0.3432012778567508
378,3402.8399999999997,0.37650160771265395
379,3410.68,0.34433726851345603
380,3418.54,0.3426840912040561
381,3426.42,0.3517564757844541
382,3434.32,0.3705398222546501
383,3442.24,0.3417647306146441
384,3450.18,0.35087300086443607
385,3458.1299999999997,0.35343940205912694
386,3466.1,0.34702926514361576
387,3474.09,0.36009399011790255
388,3482.1000000000004,0.3495377769819874
389,3490.13,0.3592153257358702
390,3498.17,0.33501780543465187
391,3506.24,0.3629061779681306
392,3514.32,0.3439262814465083
393,3522.42,0.3615680468146839
394,3530.54,0.3396921740726575
395,3538.6800000000003,0.36207966322042906
396,3546.84,0.36777941425799854
397,3555.01,0.36734659624046706
398,3563.21,0.35889037105763255
399,3571.42,0.334536676819697
400,3579.66,0.3394618754164584
401,3587.9100000000003,0.31507490495811874
402,3596.18,0.3467158963895771
403,3604.4700000000003,0.36228344971083337
404,3611.73,0.3238300157074945
405,3614.5899999999997,0.3242747659486035
406,3617.45,0.35632861618971234
407,3620.32,0.35322299737572027
408,3623.18,0.36632374761682923
409,3626.04,0.3522972978579382
410,3628.9,0.35681374809904703
411,3631.7700000000004,0.35678492928505495
412,3634.6299999999997,0.35324017952616393
413,3637.49,0.35670012976727283
414,3640.35,0.36430368000838176
415,3643.22,0.36935156119438967
416,3646.08,0.36044291143549856
417,3648.94,0.35076496167660753
418,3651.8,0.3510970119177164
419,3654.6600000000003,0.3865968621588254
420,3657.5299999999997,0.37334794334483334
421,3660.39,0.37477739358594225
422,3663.25,0.35619724382705115
423,3666.11,0.37571829406816004
424,3668.98,0.38736067525416795
425,3671.84,0.3718779254952769
426,3674.7000000000003,0.3798814757363858
427,3677.5600000000004,0.36060392597749474
428,3680.4300000000003,0.34918080716350264
429,3683.29,0.3456564574046116
430,3686.15,0.35656240764572056
431,3689.0099999999998,0.36464785788682946
432,3691.88,0.37157263907283733
433,3694.7400000000002,0.36321778931394627
434,3697.6,0.3785337395550552
435,3700.46,0.37214808979616415
436,3703.32,0.3609728400372731
437,3706.1899999999996,0.355990421223281
438,3709.0499999999997,0.35681467146438994
439,3711.91,0.37155632170549885
440,3714.77,0.3759086719466078
441,3717.64,0.3904125531326157
442,3720.5,0.37311450337372465
443,3723.36,0.4155781536148335
444,3726.2200000000003,0.4378889038559425
445,3729.0899999999997,0.4341983850419504
446,3731.95,0.40972123528305937
447,3734.81,0.3804543855241682
448,3737.67,0.3600487357652772
449,3740.54,0.3695272169512851
450,3743.4,0.36336716719239404
451,3746.26,0.35570971743350294
452,3749.1200000000003,0.3651592676746118
453,3751.9799999999996,0.3729576179157208
454,3754.85,0.3747235991017287
455,3757.71,0.37738374934283764
456,3760.5699999999997,0.38215659958394654
457,3763.43,0.3890319498250555
458,3766.3,0.3764189310110634
459,3769.16,0.36956148125217236
460,3772.02,0.3821801314932812
461,3774.88,0.39585518173439016
462,3777.7500000000005,0.40931286292039804
463,3780.6099999999997,0.409409013161507
464,3783.47,0.42399696340261595
465,3786.33,0.43618491364372486
466,3789.2,0.41123379482973277
467,3792.06,0.3877514450708417
468,3794.92,0.36907909531195066
469,3797.78,0.3663855455530596
470,3800.6400000000003,0.3813425957941685
471,3801.8939600000003,0.38747349075026954
472,3803.5099999999998,0.39540603557539666
473,3806.37,0.4035675829467314
474,3809.23,0.3979348303180661
475,3812.09,0.40563487768940076
476,3814.96,0.40554875005154434
477,3817.82,0.3835782974228791
478,3820.6800000000003,0.37619174479421374
479,3823.5400000000004,0.36925639216554845
480,3826.4100000000003,0.362380964527692
481,3829.27,0.35572261189902676
482,3832.13,0.34322855927036144
483,3834.99,0.3387751066416962
484,3837.86,0.3440018790038397
485,3840.7200000000003,0.3551889263751744
486,3843.58,0.3753806737465091
487,3846.44,0.39439312111784386
488,3849.2999999999997,0.41213386848917855
489,3852.1699999999996,0.42694964085132214
490,3855.0299999999997,0.40894818822265677
491,3857.89,0.4064127355939915
492,3860.75,0.4154769829653262
493,3863.62,0.41836495532746976
494,3866.48,0.42831110269880446
495,3869.34,0.4324010500701391
496,3872.2000000000003,0.42710679744147384
497,3875.0699999999997,0.41604666980361743
498,3877.93,0.3956864171749521
499,3880.79,0.3853256645462868
500,3883.65,0.37442121191762145
501,3886.52,0.3677303842797651
502,3889.38,0.37869183165109976
503,3892.2400000000002,0.3903609790224345
504,3895.1000000000004,0.4007993263937692
505,3897.9599999999996,0.4117402737651039
506,3900.83,0.4303815461272475
507,3903.69,0.43134349349858214
508,3906.5499999999997,0.4355052408699169
509,3909.41,0.4353389882412515
510,3912.28,0.4324118606033951
511,3915.14,0.4435067079747298
512,3918.0,0.43071535534606453
513,3920.86,0.4174008027173992
514,3923.7300000000005,0.3984436750795427
515,3926.5899999999997,0.3738886224508775
516,3929.45,0.34066716982221223
517,3932.31,0.3289320171935469
518,3935.18,0.3382611895556904
519,3938.04,0.36337583692702513
520,3940.9,0.39727998429835987
521,3943.76,0.4112054316696946
522,3946.6200000000003,0.41900797904102927
523,3949.49,0.42731125140317283
524,3952.35,0.43665229877450756
525,3955.21,0.4296248461458423
526,3958.07,0.4037876935171769
527,3960.94,0.3805948658793205
528,3963.8,0.3436916132506552
529,3966.6600000000003,0.3160083606219899
530,3969.5200000000004,0.3168983079933246
531,3972.39,0.3421653803554682
532,3975.25,0.3920584277268028
533,3978.11,0.42681377509813756
534,3980.97,0.4433238224694722
535,3983.84,0.45783179483161585
536,3986.7000000000003,0.46124494220295054
537,3989.56,0.46344778957428523
538,3992.42,0.47380433694561996
539,3995.2799999999997,0.4864477843169546
540,3998.1499999999996,0.47972585667909823
541,4001.0099999999998,0.4920206040504329
542,4003.87,0.49069555142176763
543,4006.73,0.5088054987931023
544,4009.6,0.5097241711552458
545,4012.46,0.5049837185265806
546,4015.32,0.5251449658979153
547,4018.1800000000003,0.5066718132692499
548,4021.0499999999997,0.5097954856313935
549,4023.91,0.5011476330027282
550,4026.77,0.5073196803740629
551,4029.63,0.5010203277453976
552,4032.5,0.4906369001075412
553,4035.36,0.4995061474788759
554,4038.2200000000003,0.5076473948502106
555,4041.0800000000004,0.5016558422215454
556,4043.9399999999996,0.48704918959288
557,4046.81,0.49565986195502354
558,4049.67,0.4907246093263583
559,4052.5299999999997,0.504280956697693
560,4055.39,0.5053968040690276
561,4058.26,0.48935197643117123
562,4061.12,0.48538072380250596
563,4063.98,0.5063112711738407
564,4066.8399999999997,0.49886321854517535
565,4069.7100000000005,0.4933103909073189
566,4072.5699999999997,0.48805723827865366
567,4075.43,0.4924343856499883
568,4078.29,0.49301683302132304
569,4081.16,0.4997097053834666
570,4084.02,0.5055739527548013
571,4086.88,0.49672100012613596
572,4089.7400000000002,0.47945794749747067
573,4092.6,0.4793019948688054
574,4095.47,0.457698667230949
575,4098.33,0.4587631146022837
576,4101.1900000000005,0.4392335619736183
577,4104.05,0.4489028093449531
578,4106.92,0.46541068170709665
579,4109.78,0.47604402907843135
580,4112.64,0.47727257644976595
581,4115.5,0.5046438238211007
582,4118.37,0.49403469618324425
583,4121.2300000000005,0.49237124355457895
584,4124.09,0.48780509092591373
585,4126.95,0.49275663829724836
586,4129.82,0.49324461065939196
587,4132.68,0.5037241580307267
588,4135.54,0.5084602054020614
589,4138.4,0.5041712527733961
590,4141.26,0.49963600014473075
591,4144.13,0.49540617250687435
592,4146.99,0.49176301987820903
593,4149.85,0.4916891672495437
594,4152.71,0.5003432146208785
