,lambda (Angstroms),Total Flux (erg/s/cm^2/Angstrom)
0,102.02,10.485357339525994
1,103.92,10.455557419930125
2,104.712855,10.443128082437498
3,106.09,10.32942585361428
4,108.07000000000001,10.165999568751731
5,110.08,10.000262478060964
6,113.94,9.681746289963268
7,117.95,9.35085179672447
8,120.22644299999999,9.166605712279683
9,120.97,9.116352397545992
10,124.94,8.84259636317149
11,126.97,8.702418275841454
12,128.14000000000001,8.621766409129071
13,131.13,8.41522333908631
14,132.04,8.353817150421122
15,133.87,8.227431114281238
16,136.98999999999998,8.013959199714881
17,138.038426,7.9416106003145295
18,139.86,7.851894914212545
19,143.12,7.715940961807055
20,147.13,7.571024299338952
21,150.9,7.387473338090886
22,155.13,7.182384945337751
23,158.489319,7.020303276352583
24,159.11,6.99785374529304
25,162.07,6.890312412555859
26,165.84,6.755161790792624
27,170.09,6.600166371828764
28,172.85999999999999,6.5001099192334975
29,176.89,6.35331426148659
30,180.17,6.2335250306156595
31,181.83999999999997,6.173121584105155
32,181.970086,6.168376162636297
33,186.07999999999998,6.054922907972037
34,190.85000000000002,5.923504589747058
35,193.95,5.838946380418455
36,198.01,5.726395637233251
37,202.16000000000003,5.612410840873992
38,204.97000000000003,5.5350169917729035
39,208.929613,5.420072297850628
40,210.23,5.39153878466464
41,216.12,5.2772087658284645
42,220.14,5.195549265366424
43,223.2,5.130242426208752
44,226.82999999999998,5.05750417877661
45,229.98000000000002,5.075925511996652
46,234.26,5.151802309514679
47,239.88329199999998,5.122506933365027
48,240.27,5.122396698431006
49,245.86,4.986891456826332
50,252.17,4.902965498235009
51,256.86,4.732780902863645
52,259.83,4.748017020293721
53,264.05,4.697227467955308
54,268.96,4.606965703504692
55,273.96,4.513177524430743
56,275.42287,4.485863323878357
57,279.06,4.431944500934719
58,284.24,4.359819473941615
59,290.2,4.253539358714028
60,296.27,4.171601540017475
61,301.09000000000003,4.095101615286438
62,308.1,4.001429885127817
63,316.227766,3.8938059167443333
64,318.19,3.8741284645294662
65,327.86,3.7680554163895614
66,337.82,3.6563625091017173
67,348.09,3.541701483414352
68,357.02,3.4467354275829813
69,363.078055,3.386221848703401
70,366.17999999999995,3.3626231311971244
71,374.71,3.2892351422502872
72,385.2,3.1892452551398156
73,395.09000000000003,3.121730408283517
74,405.22,3.04435364532555
75,413.71,2.9734746257289912
76,416.86938299999997,2.9464082301171186
77,422.36999999999995,2.908516790645511
78,430.21999999999997,2.8562085829882
79,441.26,2.790430765977155
80,450.5,2.730023735435301
81,459.93,2.6673883729883667
82,469.56,2.6072925453781886
83,478.630092,2.554716451778459
84,480.5,2.5462189286287162
85,490.56,2.4905391114951296
86,499.68,2.4524931677318773
87,505.47,2.4190706721848128
88,512.5,2.402851992617306
89,519.63,2.3664508094997636
90,530.51,2.310585243255884
91,540.37,2.2541259332223684
92,549.5408739999999,2.2092907559591914
93,550.42,2.205862427001303
94,559.36,2.183004203586396
95,569.76,2.1511309490545134
96,580.35,2.110250039103298
97,589.78,2.0775239990806393
98,599.37,2.0337074597574896
99,610.51,1.9784054209608384
100,620.4300000000001,1.9674063643304271
101,630.51,1.9277020083995258
102,630.957344,1.9263652810012022
103,639.28,1.9069845504971203
104,649.67,1.8750713149043927
105,658.71,1.844895919258747
106,664.8,1.8336573034974664
107,675.5999999999999,1.8054534839208105
108,685.0,1.7698298242892763
109,694.53,1.7508530526628383
110,704.1899999999999,1.712958769041496
111,715.63,1.6931587134899266
112,724.43596,1.6691422226636377
113,725.59,1.6667449835820696
114,735.68,1.6458511850432043
115,744.2,1.6251614895475515
116,754.56,1.6027929541795989
117,765.0500000000001,1.5703438121902331
118,775.7,1.5587760928206675
119,784.68,1.5345340123569402
120,795.59,1.5160453797445492
121,804.81,1.498531733210522
122,814.13,1.479391050813869
123,825.4499999999999,1.4570124511647158
124,831.763771,1.4363126548882512
125,835.0100000000001,1.4272047187861525
126,844.6800000000001,1.422495262673135
127,854.4599999999999,1.4061439771110558
128,864.35,1.3923037820999138
129,874.36,1.377202122235249
130,884.49,1.3613053975170626
131,894.73,1.3456999133498135
132,905.09,1.3287156543290422
133,915.57,1.3171661104547483
134,924.04,1.3790773928769555
135,934.74,1.440089910104537
136,945.5600000000001,1.4938853824785963
137,954.3100000000001,1.5268254035759175
138,954.992586,1.5272260338739714
139,965.36,1.5336244011826536
140,974.3000000000001,1.3191381766690875
141,985.58,1.436656168558011
142,994.7,1.4171529683830981
143,1003.9,1.471396923469809
144,1015.5300000000001,1.4580236571283356
145,1024.92,1.3216260434614022
146,1034.41,1.3806310988714983
147,1043.98,1.480923809543218
148,1056.0700000000002,1.4487177609560802
149,1065.84,1.3716383097818587
150,1075.7,1.391332320776964
151,1085.6499999999999,1.3171595939413958
152,1095.7,1.3693164361828567
153,1096.4782,1.3668313231249156
154,1105.84,1.3392587011360957
155,1116.07,1.3167769026805622
156,1123.81,1.2672078029693377
157,1134.2,1.3109204246748125
158,1144.7,1.2780664227409806
159,1155.29,1.268664519647716
160,1165.98,1.2517654041550812
161,1174.06,1.1412624222859993
162,1184.93,1.212289504474499
163,1195.89,1.144283985503566
164,1204.18,1.0912189675958073
165,1215.32,1.0281436463060087
166,1223.75,1.1054343710391321
167,1235.0700000000002,1.1499709474304676
168,1243.63,1.1511441260444104
169,1255.1399999999999,1.1267051888769435
170,1258.92541,1.1135465908394977
171,1263.84,1.098044784024892
172,1275.53,1.129445577928855
173,1284.37,1.1280368791359576
174,1296.26,1.0651252269133846
175,1305.24,1.0558842358319123
176,1314.29,1.0921027986061522
177,1326.45,1.0669899541127552
178,1335.6499999999999,1.0329533322920932
179,1344.9,1.056790448939797
180,1354.2299999999998,1.0388260271368865
181,1363.6100000000001,1.0051393438023415
182,1376.23,0.9970904532179116
183,1385.77,0.9867444929821381
184,1395.3799999999999,0.920250386602077
185,1405.05,0.9092892263840548
186,1414.79,0.9408026200217452
187,1424.6000000000001,0.9292417675151478
188,1434.4699999999998,0.9256996611705898
189,1441.09,0.9254587543822437
190,1445.43977,0.9223981622111734
191,1447.7400000000002,0.9213348500807715
192,1454.4299999999998,0.908187283603478
193,1464.51,0.8864098296287211
194,1474.66,0.8807474245846953
195,1484.88,0.8767904684714003
196,1495.17,0.8693072612888362
197,1505.54,0.8505221243128218
198,1512.49,0.826137111006814
199,1515.97,0.8329155149917193
200,1526.48,0.8223937758771664
201,1533.53,0.7897600753293457
202,1544.16,0.7772540915246171
203,1554.8600000000001,0.7666029566506194
204,1565.64,0.7736387919831713
205,1576.49,0.777744676246454
206,1583.77,0.7784753650424633
207,1594.75,0.7738107258913889
208,1605.8,0.7618696356710457
209,1613.2099999999998,0.7549070010526977
210,1624.39,0.7422246874179973
211,1635.6499999999999,0.7442720439898466
212,1643.2,0.7400593072329602
213,1654.59,0.7249167403904526
214,1659.58691,0.7259582512489368
215,1666.06,0.728389403109508
216,1673.75,0.7068979267596461
217,1677.61,0.7281653277075697
218,1685.36,0.7265956078491262
219,1693.1299999999999,0.7122201734878222
220,1704.87,0.7012950603087091
221,1716.6899999999998,0.6862882891181542
222,1724.6100000000001,0.6802749459853963
223,1736.5700000000002,0.6845083732748177
224,1744.58,0.6770819648791879
225,1756.6799999999998,0.6784038906485858
226,1764.78,0.6645794169900835
227,1777.02,0.658142741239458
228,1785.2199999999998,0.6578413950666533
229,1793.46,0.6609846198881275
230,1805.89,0.6544127063603272
231,1814.23,0.6375504586674989
232,1826.8000000000002,0.6350374436196752
233,1835.23,0.6262052306639747
234,1843.71,0.610520481451123
235,1856.49,0.605160114123264
236,1865.05,0.6047276068989704
237,1873.66,0.6096388634175254
238,1886.65,0.5915860438096311
239,1895.3600000000001,0.5825975278138836
240,1904.11,0.5865534828124153
241,1905.46072,0.584998314820266
242,1912.8999999999999,0.5772096336483246
243,1926.16,0.5683253981040962
244,1935.0500000000002,0.569829724575575
245,1943.9799999999998,0.5728575978478256
246,1952.95,0.5593321179208476
247,1966.49,0.5671183099820202
248,1975.5700000000002,0.5670354337571639
249,1984.68,0.5576954676328865
250,1993.8500000000001,0.5512939217097663
251,2003.0500000000002,0.5517378858872246
252,2016.93,0.5443470257549555
253,2026.24,0.5444086936345359
254,2035.6,0.5353362450150806
255,2044.9899999999998,0.5366527064962039
256,2054.43,0.5216425514782919
257,2063.91,0.5214267432611512
258,2073.44,0.530893618544975
259,2078.2200000000003,0.5387359612371763
260,2083.0099999999998,0.5510678406295705
261,2092.62,0.5383059095149374
262,2107.13,0.5341506614948202
263,2116.86,0.5378392707825018
264,2126.63,0.530449526870955
265,2136.44,0.5202578297601798
266,2146.31,0.5290213528505618
267,2156.21,0.5281345860415226
268,2166.17,0.5150219394336406
269,2176.16,0.5110613029263376
270,2186.21,0.5203329866201916
271,2187.7616199999998,0.5200709228453722
272,2196.2999999999997,0.5194195892439857
273,2206.44,0.5143145075415356
274,2216.62,0.4939559771933165
275,2226.85,0.4990747610378861
276,2237.13,0.5213012590752444
277,2247.46,0.5127145713053914
278,2252.64,0.4897519216783016
279,2263.04,0.4830448737783528
280,2273.48,0.487148677232635
281,2283.98,0.5103329577182636
282,2294.52,0.48632328955812326
283,2305.11,0.5009316355907716
284,2315.75,0.4814851958162086
285,2326.44,0.4536805702344343
286,2337.1800000000003,0.4557601588454486
287,2342.56,0.43738916598951366
288,2353.38,0.46753655730899
289,2364.24,0.4359435999826974
290,2375.15,0.44476875684919337
291,2386.12,0.42051859074703585
292,2397.13,0.4285893759991093
293,2402.66,0.42579152572154044
294,2413.75,0.42936481368207574
295,2424.8900000000003,0.46284961583539974
296,2436.08,0.46049003218151263
297,2447.32,0.4784082627204141
298,2452.97,0.48437446650553817
299,2464.29,0.4597456997529016
300,2475.6600000000003,0.44497074719305363
301,2487.09,0.4070023716645522
302,2492.82,0.41156867815813813
303,2504.3300000000004,0.4520264053380987
304,2511.88643,0.4141464279210819
305,2515.89,0.39427444772824716
306,2527.4999999999995,0.3878045188126857
307,2533.33,0.4159379459808402
308,2545.02,0.41624427026827227
309,2556.77,0.4946964344579493
310,2562.66,0.4475319015283492
311,2574.49,0.48442531892101987
312,2586.37,0.46291021956556144
313,2592.34,0.4482069398389549
314,2604.2999999999997,0.42952719368649006
315,2616.3199999999997,0.41713068743627035
316,2622.35,0.4506270476119089
317,2634.46,0.562081151215057
318,2646.62,0.643605838070076
319,2652.7200000000003,0.8077796947983339
320,2664.96,0.5985017348563465
321,2677.27,0.6378859714669785
322,2683.44,0.7034220247478555
323,2695.8199999999997,0.575689057911107
324,2702.04,0.6536440944438553
325,2714.5099999999998,0.5432433374604743
326,2727.04,0.47148002037933845
327,2733.33,0.531488353464706
328,2745.94,0.4286639895865637
329,2752.27,0.47948424927342803
330,2764.98,0.5416337518990277
331,2777.7400000000002,0.5538259377764984
332,2784.14,0.4438238940159821
333,2796.99,0.3581376897468205
334,2803.4399999999996,0.3726910292381752
335,2816.38,0.5118899348223812
336,2822.87,0.6202153009152327
337,2835.9,0.5876687163528065
338,2842.44,0.47752656569752894
339,2855.56,0.3860986909884705
340,2862.1400000000003,0.5702708669346896
341,2875.35,0.7246039020789989
342,2881.98,0.6801043612770892
343,2884.0315,0.69996240372119
344,2895.29,0.8094194211381269
345,2908.6499999999996,1.03046216744281
346,2928.81,0.9139295546810143
347,2949.1099999999997,0.8442933709972619
348,2969.56,0.863905097039984
349,2990.14,0.8706624715123176
350,3010.87,0.8522388557111259
351,3031.74,0.9126719689879774
352,3052.75,0.9365232113428719
353,3066.84,1.0311267449830652
354,3088.1,0.9956211035487511
355,3109.5099999999998,1.1627382718409116
356,3131.06,1.0684792692111151
357,3152.76,1.0760115763077935
358,3167.32,1.1746667004242743
359,3189.27,1.021887423731744
360,3211.3799999999997,1.10474623741412
361,3233.64,0.9446355608229704
362,3248.56,1.3020332882829908
363,3271.08,1.5048177085510643
364,3293.76,1.4750448191940442
365,3308.96,1.3610834048101508
366,3311.31121,1.3512136272992963
367,3324.23,1.297367965819996
368,3331.8999999999996,1.3138001731822566
369,3339.58,1.1602426585202175
370,3347.27,1.4653334218338792
371,3354.99,1.437410019074642
372,3362.73,1.0151258722668057
373,3370.48,1.16554290343467
374,3378.25,1.3623465905539354
375,3386.04,1.3180631336246016
376,3393.84,1.3671009546709683
377,3401.6600000000003,1.5660133316687357
378,3409.51,1.3315225425936048
379,3417.3700000000003,1.1366225314941742
380,3425.24,1.3961507983704442
381,3433.14,1.5872503991738154
382,3441.0499999999997,1.2607372779528874
383,3448.9900000000002,1.1893539906590607
384,3456.94,1.3293859813409343
385,3464.91,1.138608727974209
386,3472.8900000000003,1.451394352583184
387,3480.9,1.1669368111192606
388,3488.9199999999996,1.3278159476310376
389,3496.97,1.222442718069916
390,3505.03,1.5316327664844949
391,3513.1099999999997,1.3466393708504747
392,3521.21,1.5818035311678555
393,3529.32,1.1024647694609369
394,3537.46,1.4961432416811193
395,3545.61,1.5064857918770025
396,3553.79,1.560902175999987
397,3561.98,1.405103838098672
398,3570.1899999999996,1.120726156148758
399,3574.56,1.3253025315298634
400,3576.5099999999998,1.2894407367914549
401,3578.4700000000003,1.2747872200287473
402,3580.43,1.1921717032660393
403,3582.39,1.1721921865033316
404,3584.35,1.1213532697406237
405,3586.3,1.1757698750022154
406,3588.2599999999998,1.2310983582395074
407,3590.2200000000003,1.2941408414767996
408,3592.18,1.3080493247140916
409,3594.1299999999997,1.2712695299756833
410,3596.09,1.3753650132129756
411,3598.0499999999997,1.4143454964502675
412,3600.01,1.5155009796875596
413,3601.96,1.4670581849491515
414,3603.92,1.4385366681864435
415,3605.88,1.4311381514237356
416,3607.84,1.3715746346610278
417,3609.79,1.4033078399226195
418,3611.7500000000005,1.4629523231599115
419,3613.71,1.4821868063972037
420,3615.67,1.4791052896344958
421,3617.62,1.5799014948960877
422,3619.58,1.6636999781333797
423,3621.54,1.6833944613706717
424,3623.5,1.608951944607964
425,3625.4500000000003,1.5783271498695557
426,3627.41,1.5685406331068477
427,3629.37,1.5119151163441398
428,3631.33,1.4973525995814319
429,3633.2799999999997,1.5507608048430237
430,3635.2400000000002,1.4309492880803159
431,3637.2,1.439898771317608
432,3639.1600000000003,1.4687762545549
433,3641.12,1.6085967377921924
434,3643.0699999999997,1.6403309430537838
435,3645.03,1.681699426291076
436,3646.99,1.6110229095283684
437,3648.9500000000003,1.5332743927656605
438,3650.9,1.568314598027252
439,3652.86,1.740004081264544
440,3654.8199999999997,1.9217945645018364
441,3656.78,1.9028240477391285
442,3658.73,2.00261225300072
443,3660.6899999999996,2.0675837362380123
444,3662.65,2.1910562194753043
445,3664.6099999999997,2.0094357027125964
446,3666.56,1.955667907974188
447,3668.52,1.7465883912114801
448,3670.48,1.8178038744487726
449,3672.44,1.8326303576860645
450,3674.3900000000003,1.8393845629476562
451,3676.35,1.8579760461849482
452,3678.3100000000004,1.8612305294222402
453,3680.27,1.9267520126595326
454,3682.22,1.7817862179211241
455,3684.1800000000003,1.6348827011584164
456,3686.14,1.5869821843957086
457,3688.1000000000004,1.7239556676330008
458,3690.05,1.9197168728945924
459,3692.01,1.9597073561318843
460,3693.97,1.9063878393691767
461,3695.93,1.8454463226064688
462,3697.89,1.8187608058437608
463,3699.8399999999997,1.9209370111053525
464,3701.8,1.7784404943426446
465,3703.7599999999998,1.826971977579937
466,3705.7200000000003,1.766581460817229
467,3707.67,1.8788596660788206
468,3709.6299999999997,1.9072781493161128
469,3711.59,1.889225632553405
470,3713.5499999999997,1.886694115790697
471,3715.5,1.7712093210522888
472,3717.46,1.7647288042895808
473,3719.42,1.734186287526873
474,3721.38,1.738450770764165
475,3723.3300000000004,1.7363879760257568
476,3725.29,1.688946459263049
477,3727.2499999999995,1.652066942500341
478,3729.21,1.539511425737633
479,3731.16,1.5239476309992248
480,3733.12,1.549335114236517
481,3735.08,1.500516597473809
482,3737.04,1.4172590807111012
483,3738.99,1.3476912859726928
484,3740.9500000000003,1.450868769209985
485,3742.91,1.5563422524472772
486,3744.8700000000003,1.5591377356845693
487,3746.83,1.5140842189218615
488,3748.7799999999997,1.4420384241834532
489,3750.7400000000002,1.5157339074207452
490,3752.7,1.5614193906580374
491,3754.6600000000003,1.5367548738953296
492,3756.61,1.476280079156921
493,3758.57,1.5508945623942132
494,3760.53,1.6434180456315053
495,3762.49,1.6346415288687977
496,3764.44,1.6247717341303891
497,3766.3999999999996,1.6821202173676815
498,3768.36,1.8581257006049734
499,3770.3199999999997,1.8989431838422657
500,3772.27,1.9268203891038573
501,3774.23,1.9306258723411494
502,3776.1899999999996,1.9612483555784417
503,3778.15,2.103088838815734
504,3780.1,2.1164560440773252
505,3782.06,2.1988765273146176
506,3784.02,2.08430001055191
507,3785.98,1.9735804937892019
508,3787.93,1.7746136990507935
509,3789.8900000000003,1.6755581822880854
510,3791.85,1.6773426655253778
511,3793.8100000000004,1.67765914876267
512,3795.76,1.6828503540242614
513,3797.72,1.6493698372615535
514,3799.68,1.6410523204988459
515,3801.64,1.656429803736138
516,3801.8939600000003,1.6680254726356194
517,3803.6,1.745958012910608
518,3805.5499999999997,1.7994990528404944
519,3807.51,1.8032535801546363
520,3809.47,1.7505271074687783
521,3811.4300000000003,1.6524306347829203
522,3813.38,1.5548946747128063
523,3815.3399999999997,1.5141992020269486
524,3817.3,1.5155667293410904
525,3819.2599999999998,1.4687172566552325
526,3821.21,1.3667722965851186
527,3823.17,1.2841058238992606
528,3825.13,1.2980553512134028
529,3827.09,1.2535028785275446
530,3829.0400000000004,1.2838069184574308
531,3831.0,1.2537644457715726
532,3832.96,1.3067469730857146
533,3834.92,1.3298805003998568
534,3836.87,1.3138045403297431
535,3838.83,1.355673067643885
536,3840.79,1.377337594958027
537,3842.75,1.367592122272169
538,3844.7,1.4075391622020552
539,3846.66,1.473562689516197
540,3848.62,1.5270032168303391
541,3850.58,1.480613744144481
542,3852.53,1.436527784074367
543,3854.49,1.4031793113885094
544,3856.4500000000003,1.5082338387026515
545,3858.41,1.5801343660167935
546,3860.3700000000003,1.6581878933309353
547,3862.32,1.5504569332608216
548,3864.2799999999997,1.4740354605749635
549,3866.2400000000002,1.4855049878891056
550,3868.2,1.5182815152032474
551,3870.15,1.4926555551331335
552,3872.11,1.4335920824472757
553,3874.07,1.4721546097614175
554,3876.0299999999997,1.5874031370755595
555,3877.9799999999996,1.650495177005446
556,3879.94,1.6118197043195879
557,3881.8999999999996,1.5860942316337299
558,3883.86,1.5893897589478718
559,3885.81,1.604265798877758
560,3887.77,1.6394303261918999
561,3889.73,1.828426853506042
562,3891.69,1.945236380820184
563,3893.64,2.06673942075007
564,3895.6000000000004,2.098412948064212
565,3897.56,2.1799564753783542
566,3899.52,2.189956002692496
567,3901.4700000000003,2.129525042622382
568,3903.43,2.1468715699365246
569,3905.3900000000003,2.191586097250666
570,3907.35,2.2238106245648086
571,3909.3,2.2425466644946943
572,3911.2599999999998,2.2356471918088365
573,3913.2200000000003,2.2727397191229786
574,3915.18,2.2460942464371207
575,3917.14,2.1934587737512623
576,3919.09,2.1407418136811485
577,3921.0499999999997,2.0291453409952904
578,3923.01,1.9098348683094326
579,3924.97,1.7436853956235747
580,3926.92,1.6827934355534608
581,3928.88,1.5335429628676027
582,3930.8399999999997,1.3871394901817449
583,3932.8,1.2538700174958868
584,3934.75,1.279857057425773
585,3936.71,1.417331584739915
586,3938.67,1.506406112054057
587,3940.63,1.6076956393681991
588,3942.58,1.6848386792980852
589,3944.5400000000004,1.8821922066122272
590,3946.5,1.995511733926369
591,3948.4599999999996,2.1049742612405113
592,3950.41,2.102402301170397
593,3952.37,2.189730828484539
594,3954.33,2.1991793557986816
595,3956.29,2.1662898831128232
596,3958.2400000000002,2.0537849230427097
597,3960.2,1.9116974503568516
598,3962.1600000000003,1.8470309776709934
599,3964.12,1.6851985049851355
