,lambda (Angstroms),Total Flux (erg/s/cm^2/Angstrom)
0,100.00999999999999,0.041964783539607454
1,102.11,0.05159339150323545
2,104.01,0.06030498918734998
3,104.712855,0.06352761549997041
4,105.94,0.05883295610056693
5,107.91,0.05129637402865096
6,109.92,0.043606764934356584
7,114.03999999999999,0.027844979145729313
8,118.05,0.012504017816985642
9,120.22644299999999,0.004177652785922471
10,121.08000000000001,0.004026556502437749
11,125.03999999999999,0.0033255582748716373
12,127.08000000000001,0.002964438079815968
13,127.96,0.0028086609372297232
14,130.94,0.0022811426582967018
15,132.15,0.0020669499549888595
16,133.98999999999998,0.0017412345293438916
17,137.10999999999999,0.0011889366028392846
18,138.038426,0.0010245878725063712
19,139.98,0.0010124520300752817
20,142.91,0.0009941760020691262
21,146.91,0.0009692991534709618
22,151.03,0.0009435988077228526
23,154.9,0.0009194796342121288
24,158.489319,0.0008971268806492533
25,158.88,0.0008933835385605223
26,161.82999999999998,0.0008651319873008809
27,165.98000000000002,0.0008254128890813848
28,169.85,0.0007884022345858551
29,173.01,0.0007581962298582391
30,177.04000000000002,0.0007197081115347285
31,179.91,0.0006923334004390774
32,181.970086,0.0006726887946363116
33,182.0,0.0006727833621417386
34,185.81,0.0006848855125078866
35,191.01,0.0007014422561440988
36,194.11999999999998,0.0007114059664246025
37,198.17999999999998,0.0007244517763213376
38,201.87,0.0007364457388728036
39,205.14999999999998,0.0007470703344741067
40,208.929613,0.0007592917690801607
41,209.93,0.0007782135867307584
42,215.81,0.0008901101992869818
43,219.82000000000002,0.000966419875232638
44,222.88,0.001024578141777203
45,227.02,0.0011035647132198504
46,230.18,0.0011689015390697935
47,233.92,0.0012518413762909288
48,239.88329199999998,0.0013749247750187875
49,239.92,0.0013744257017001922
50,246.07,0.0012820721403077277
51,251.80999999999997,0.0012015207036747608
52,257.08000000000004,0.0011164872578636558
53,260.05,0.0010805108977765634
54,264.28,0.0010222433703797958
55,269.19,0.0009519054209428844
56,274.2,0.0008801605747353646
57,275.42287,0.0008626911801568318
58,279.3,0.0009312695615351783
59,283.83,0.0010125643008388288
60,289.78000000000003,0.001114352601226627
61,295.85,0.0012243628487482961
62,301.34999999999997,0.0013209868423840743
63,307.66,0.0014366261141734878
64,316.227766,0.0015932073060926479
65,317.73,0.0015776936874068463
66,328.14000000000004,0.0014679653814347203
67,338.12,0.00136263763142494
68,348.39000000000004,0.0012536667343707867
69,357.33,0.0011608321220373768
70,363.078055,0.0011031466584288103
71,365.65,0.0011327119418723327
72,375.03000000000003,0.0012360114628379032
73,384.65,0.0013353200109923577
74,395.43,0.001461658373893088
75,404.64,0.0015679465297665314
76,414.06,0.0016707245719302492
77,416.86938299999997,0.0017010439917290396
78,421.76,0.0017353608537603671
79,429.59999999999997,0.0017912685923577025
80,440.61999999999995,0.001873781045590182
81,450.88000000000005,0.0019443240399790427
82,460.33,0.002009127540074045
83,469.96000000000004,0.002077936427789905
84,478.630092,0.002141618811317772
85,479.81,0.002134843421212376
86,489.85,0.002067338044285045
87,500.11,0.0020096832423652823
88,505.90000000000003,0.0019757178664281064
89,511.76,0.002010769364356975
90,520.0699999999999,0.0019655456475974015
91,529.74,0.001911785294520977
92,539.59,0.0018382987028143821
93,549.5408739999999,0.0018335744382390548
94,549.62,0.0018339331434649648
95,559.84,0.0018721905185287015
96,570.25,0.0019062563475319798
97,579.52,0.0018817642528980113
98,590.29,0.0019516345209446301
99,599.88,0.0019569413276825202
100,609.63,0.0019875618851063395
101,619.53,0.002116937858798218
102,629.6,0.0021676221175938957
103,630.957344,0.002168796042290299
104,639.8299999999999,0.0022268125980450804
105,650.23,0.002393273313756655
106,657.76,0.0025045463588824384
107,665.37,0.0026082639941290807
108,674.63,0.0026752513006184243
109,685.5899999999999,0.0027196891471760057
110,695.1300000000001,0.003132895519088354
111,704.8,0.003119848349947096
112,716.2499999999999,0.0035034423109949345
113,724.43596,0.003622540196483363
114,726.21,0.0036458599743499067
115,734.62,0.003780659612291724
116,744.8399999999999,0.00412506180608071
117,755.21,0.004358846001735483
118,765.71,0.004558382132340607
119,774.58,0.004925027309337505
120,785.3499999999999,0.005252120843301045
121,794.45,0.005482658289825485
122,805.5,0.005736334760605162
123,814.83,0.005961300476657142
124,824.26,0.006473865527286314
125,831.763771,0.0059384075999924565
126,835.7299999999999,0.005632007536874789
127,845.4000000000001,0.006800013061443928
128,855.1899999999999,0.006981016740402757
129,865.1,0.007442360573751274
130,875.11,0.0079335153690912
131,885.2500000000001,0.008569864915019956
132,895.5,0.009003654019139261
133,905.87,0.009024870277648256
134,914.2500000000001,0.013744405892528231
135,924.8399999999999,0.09427189826741832
136,935.55,0.2112502657966981
137,944.2,0.41342941650895493
138,954.992586,0.5992558448344318
139,955.14,0.6017945162182382
140,963.9699999999999,0.6715817772253218
141,975.13,0.09983623025352724
142,984.1600000000001,0.549942183537102
143,995.5500000000001,0.6075535096832723
144,1004.77,0.9353931216295135
145,1014.06,0.9197071888725269
146,1025.8,0.3967841915025565
147,1035.3,0.6305885246358854
148,1044.8799999999999,1.279390406679811
149,1054.54,1.2606462376343326
150,1064.3,0.9778045047271002
151,1074.1499999999999,1.1959477143442885
152,1084.0900000000001,0.9254232664858981
153,1094.12,1.2815479611519285
154,1096.4782,1.271079262891308
155,1104.24,1.2366119412096155
156,1114.46,1.184978513909998
157,1124.77,1.0597619067222233
158,1135.1799999999998,1.4013610996587185
159,1145.68,1.2676591127070564
160,1156.28,1.3720599258796644
161,1164.3,1.4228118958461093
162,1175.07,0.9585873692299761
163,1185.95,1.3959166227505397
164,1194.1699999999998,0.9283715929655244
165,1205.22,0.6429584066973468
166,1216.37,0.4525510205534392
167,1224.8,0.9572193710293906
168,1236.13,1.5036483251091688
169,1244.7,1.666511195759098
170,1256.22,1.5850061700749891
171,1258.92541,1.51140398171803
172,1264.9299999999998,1.3480586162913668
173,1273.69,1.795997861703204
174,1285.48,1.8986815378910535
175,1294.3899999999999,1.4558388046284358
176,1306.3700000000001,1.4429535078286424
177,1315.4199999999998,1.8653857944698669
178,1324.54,1.7838970910630123
179,1333.7199999999998,1.5557493961863762
180,1346.06,1.9053191505678913
181,1355.3899999999999,1.8470264770168
182,1364.79,1.6330968134176298
183,1374.25,1.7357251583486777
184,1383.77,1.7579295118099436
185,1396.5800000000002,1.5238923330115002
186,1406.26,1.5936487092200144
187,1416.01,1.6248800953804494
188,1425.82,1.687547490071103
189,1435.7,1.6734818947136771
190,1442.33,1.7806228373027733
191,1445.43977,1.813248782338628
192,1445.66,1.8155593056980108
193,1455.68,1.7594205013051964
194,1465.7700000000002,1.6134517052649275
195,1475.93,1.6147049175772037
196,1486.16,1.6535351382420251
197,1496.46,1.6893593672593916
198,1503.37,1.5906851917749258
199,1510.31,1.4010770198701226
200,1517.28,1.5145778515449813
201,1524.28,1.4626536867995021
202,1534.8500000000001,1.257225948033829
203,1545.48,1.4080712164274802
204,1556.2,1.326908495560118
205,1563.38,1.3509393522926123
206,1574.22,1.4481006457438992
207,1585.1299999999999,1.527406947547731
208,1596.1200000000001,1.563465258897329
209,1603.48,1.5376081371077968
210,1614.6,1.5486714639692645
211,1625.79,1.4556637991832773
212,1633.3,1.5622836952920562
213,1644.62,1.5878800460179388
214,1656.02,1.4550504062895873
215,1659.58691,1.5251770294975455
216,1663.66,1.605258381137424
217,1671.3400000000001,1.4165790733878125
218,1675.19,1.6089764282268744
219,1686.8,1.6847795450272662
220,1694.59,1.5783043331301994
221,1706.3400000000001,1.507122571924739
222,1714.2099999999998,1.4216434297386134
223,1726.1000000000001,1.411565790527301
224,1734.06,1.5145627267659847
225,1746.0800000000002,1.476292200834952
226,1754.1399999999999,1.5839222242123128
227,1766.3000000000002,1.4407808202754278
228,1774.4499999999998,1.479594922077598
229,1786.75,1.5063976401348604
230,1795.0,1.6160218290757076
231,1803.29,1.6067860528720252
232,1815.79,1.4646239452066419
233,1824.1699999999998,1.5038582474277686
234,1836.8100000000002,1.435253261756533
235,1845.29,1.310429651116337
236,1853.81,1.3117680753316117
237,1866.66,1.3536152726515975
238,1875.27,1.4787557752916813
239,1883.93,1.3499683215011036
240,1896.99,1.2909847018123113
241,1905.46072,1.3721456419897557
242,1905.75,1.3749167581584696
243,1914.5400000000002,1.3172128849910236
244,1923.38,1.2912269556622153
245,1936.71,1.3289029830430967
246,1945.6499999999999,1.3861119413915644
247,1954.6299999999999,1.2915718548109427
248,1968.1799999999998,1.4207846350818307
249,1977.2600000000002,1.4614914361784848
250,1981.82,1.3770153142622672
251,1995.5600000000002,1.3314198811199796
252,2004.77,1.3725845361970923
253,2014.02,1.3175621463451155
254,2023.3200000000002,1.3866287003317768
255,2032.66,1.3036632093893483
256,2046.75,1.3533603831175265
257,2056.2,1.2929317686201014
258,2065.69,1.293346109193587
259,2075.2200000000003,1.3861984048379827
260,2080.0099999999998,1.3118790245794996
261,2084.8,1.3643966443210167
262,2094.42,1.2854258388749606
263,2104.09,1.2915929772675427
264,2113.8,1.3037370707310354
265,2123.56,1.322007108033166
266,2133.36,1.2198061004062066
267,2143.21,1.2511230366178852
268,2153.1,1.2980399279004744
269,2163.04,1.2539627630217016
270,2173.0299999999997,1.2395185419815666
271,2183.06,1.213970276012342
272,2187.7616199999998,1.239223479670163
273,2193.13,1.2680688026273386
274,2203.25,1.2304648654989825
275,2213.4300000000003,1.1667769821030671
276,2223.64,1.124313125573372
277,2233.91,1.1988073227761176
278,2244.2200000000003,1.14218055580049
279,2254.58,1.0922998336018963
280,2264.98,1.1243981472249298
281,2275.44,1.157445514580404
282,2285.94,1.1914679177575047
283,2296.49,1.1289993657116397
284,2307.09,1.1331438584428084
285,2312.41,1.0804366227192062
286,2323.08,0.8477664781382221
287,2333.81,1.0111427872896788
288,2344.58,0.9827253322627625
289,2355.4,1.0666321220128798
290,2366.27,0.9832050565400311
291,2377.19,1.0168216358442161
292,2382.67,0.9475001434071223
293,2393.67,1.0143033943545614
294,2404.72,0.9745438900790345
295,2415.8199999999997,1.0009522305805414
296,2426.97,1.064184215859082
297,2432.57,1.021737230886869
298,2443.7999999999997,1.0863002878086638
299,2455.07,1.0729503805520857
300,2466.41,1.0671265359833548
301,2477.79,1.030058727236251
302,2483.5,1.0621098407735126
303,2494.97,1.0019131126250698
304,2506.48,1.1154074202982536
305,2511.88643,1.0070076347283121
306,2512.26,0.9995170324976848
307,2518.05,1.030632125696309
308,2523.86,0.9872721119629769
309,2535.51,1.0024670740983779
310,2547.2099999999996,0.9879259189038881
311,2553.08,1.0593069843746867
312,2564.8700000000003,1.036756897986393
313,2576.71,1.0997837942682085
314,2582.65,1.0880267354771598
315,2594.5699999999997,1.0772066040311497
316,2606.54,1.0422474552552483
317,2612.55,1.0310943722023524
318,2624.61,1.0788211922326474
319,2636.73,1.1158249914670733
320,2642.8,1.2075628876183078
321,2655.0,1.2347356591249081
322,2667.26,1.1227194098356392
323,2673.4,1.1765152817250266
324,2685.74,1.1783540047079322
325,2691.94,1.1262068558014506
326,2704.36,1.1595595510565304
327,2716.8399999999997,1.1065952255157414
328,2723.11,1.1049330523474121
329,2735.68,1.1614676956128192
330,2741.98,1.0171735120465555
331,2754.64,1.0424891241181586
332,2767.35,1.0833287188598708
333,2773.73,1.1326465075657814
334,2786.54,1.0784660676477118
335,2792.96,0.8835254424897098
336,2805.85,0.9481919748438145
337,2812.3199999999997,1.1303101323559213
338,2825.3,1.1854696335162223
339,2831.81,1.1409243771644164
340,2844.89,1.1142128436649354
341,2858.02,1.0781912928355633
342,2864.61,1.183100008755932
343,2877.83,1.1878004267327562
344,2884.0315,1.1836190462354874
345,2884.4599999999996,1.1833302742669403
346,2897.7799999999997,1.1825681797854832
347,2911.15,1.280963084949366
348,2931.33,1.23776894180854
349,2951.65,1.2239027976746653
350,2972.11,1.2469546525477426
351,2992.71,1.2530545064277714
352,3013.46,1.2708343592438198
353,3027.37,1.275970260577373
354,3048.3500000000004,1.279303111761985
355,3069.48,1.2885949618826167
356,3090.76,1.3009388109392677
357,3112.18,1.3044096590028704
358,3126.55,1.2917825570735508
359,3148.22,1.301226403363853
360,3170.04,1.3077532485901746
361,3192.01,1.2494570927525162
362,3206.75,1.2956939881987113
363,3228.97,1.2436768305877521
364,3251.3599999999997,1.3240106717709486
365,3266.37,1.3698855653019792
366,3289.0099999999998,1.364271404711875
367,3311.31121,1.3649314797156662
368,3311.81,1.3649461788915926
369,3319.44,1.3725351443039764
370,3327.0899999999997,1.3833461070044661
371,3334.7599999999998,1.4267070669930617
372,3342.4500000000003,1.3513170242697627
373,3350.15,1.4163059801905171
374,3357.8799999999997,1.3726949320434303
375,3365.62,1.2912258825403962
376,3373.38,1.2688878303254678
377,3381.15,1.3453017767545927
378,3388.95,1.4165237191158762
379,3396.7599999999998,1.3603496601212126
380,3404.59,1.406239598414655
381,3412.44,1.3473655339962032
382,3420.3,1.3992514682218042
383,3428.19,1.394165398379564
384,3436.09,1.4019653271813768
385,3444.01,1.2828572532712954
386,3451.95,1.42420217664932
387,3459.91,1.3708900973154503
388,3467.8900000000003,1.3655390152696865
389,3475.88,1.3913619318679757
390,3483.89,1.3727098457543705
391,3491.92,1.4018947569288716
392,3499.97,1.308784665391478
393,3508.04,1.3740205711421907
394,3516.13,1.3186854741810092
395,3524.23,1.3685853758638804
396,3532.36,1.4073492734789108
397,3540.4999999999995,1.4372761697379937
398,3548.6600000000003,1.4712100632851828
399,3556.84,1.4283009541204772
400,3565.04,1.4453018422438781
401,3573.2599999999998,1.3308157276553845
402,3581.5000000000005,1.3220876103549968
403,3589.54,1.1373195201735506
404,3592.22,1.338233156779735
405,3594.8999999999996,1.2904847933859198
406,3597.5699999999997,1.2396294313480514
407,3600.25,1.284291067954236
408,3602.92,1.3127627059163676
409,3605.6,1.4428783425225524
410,3608.27,1.371404980484684
411,3610.95,1.2903356170908686
412,3613.6200000000003,1.2054802550530002
413,3616.3,1.2646328916591847
414,3618.9700000000003,1.2990495296213163
415,3621.65,1.4656991662275012
416,3624.33,1.4891288028336855
417,3627.0,1.5119044407958173
418,3629.6800000000003,1.546976077402002
419,3632.35,1.5114407153641336
420,3635.03,1.4480243519703182
421,3637.7,1.5172869899324497
422,3640.3799999999997,1.5420916265386344
423,3643.0499999999997,1.028091264500766
424,3645.73,1.1456379011069506
425,3648.4,1.3342545390690823
426,3651.08,1.2422051756752668
427,3653.7599999999998,1.4361298122814516
428,3656.43,1.5455854502435833
429,3659.1099999999997,1.3779180868497678
430,3661.78,1.5682407248118995
431,3664.46,1.446928361418084
432,3667.13,1.4422119993802156
433,3669.81,1.5950156359864003
434,3672.48,1.454400273948532
435,3675.1600000000003,1.2717299105547164
436,3677.8300000000004,1.3161165485168482
437,3680.51,1.453535185123033
438,3683.19,1.2367988217292174
439,3685.86,1.3540534596913492
440,3688.54,1.4463270962975336
441,3691.2099999999996,1.5138507342596652
442,3693.8900000000003,1.34565337086585
443,3696.56,1.3894110088279816
444,3699.24,1.3841746454341661
445,3701.91,1.5447862833962978
446,3704.5899999999997,1.4134049200024825
447,3707.26,1.3133795579646141
448,3709.94,1.3664211945707987
449,3712.62,1.6609038311769833
450,3715.29,2.104907469139115
451,3717.97,3.0136001057452995
452,3720.64,4.850552743707431
453,3723.32,7.503106380313615
454,3725.9900000000002,10.148089018275748
455,3728.67,10.940498654881933
456,3731.34,9.076592292844063
457,3734.02,5.9813269294502485
458,3736.6899999999996,3.3458255674123802
459,3739.3700000000003,2.1827402040185646
460,3742.05,1.6194308406247493
461,3744.7200000000003,1.408713478586881
462,3747.4,1.3830901151930655
463,3750.0699999999997,1.295717753155197
464,3752.7500000000005,1.3500013897613818
465,3755.42,1.4560280277235134
466,3758.1,1.5567146643296979
467,3760.77,1.6050933022918297
468,3763.45,1.491613938898014
469,3766.12,1.612181576860146
470,3768.7999999999997,1.5988622134663304
471,3771.48,1.557753850072515
472,3774.15,1.6648744880346467
473,3776.83,1.6115611246408315
474,3779.5,1.663715762602963
475,3782.18,1.7581083992091475
476,3784.8500000000004,1.7682150371712793
477,3787.53,1.6953426737774637
478,3790.2000000000003,1.7933883117395957
479,3792.88,1.5971699483457802
480,3795.5499999999997,1.4458055863079118
481,3798.23,1.4411812229140963
482,3800.9100000000003,1.536369859520281
483,3801.8939600000003,1.5778176591342277
484,3803.58,1.648839545117716
485,3806.26,1.7484992574413296
486,3808.93,1.7311149708383622
487,3811.61,1.6810966831619758
488,3814.2799999999997,1.6802733965590084
489,3816.9599999999996,1.651552108882622
490,3819.63,1.7117388222796546
491,3822.31,1.5696745346032681
492,3824.98,1.6160832480003007
493,3827.66,1.3977889603239142
494,3830.3399999999997,1.3261756726475276
495,3833.01,1.3259303860445604
496,3835.69,1.3983150983681736
497,3838.36,1.2409728117652066
498,3841.04,1.2582265240888197
499,3843.71,1.5570722374858528
500,3846.39,1.672647949809466
501,3849.0600000000004,1.6753016632064988
502,3851.7400000000002,1.7859243755301122
503,3854.41,1.775827088927145
504,3857.09,1.8771758012507582
505,3859.77,1.966931513574372
506,3862.4399999999996,2.2334022269714042
507,3865.1200000000003,2.6568599392950176
508,3867.79,2.9196896526920506
509,3870.47,2.8743063650156637
510,3873.14,2.573732078412697
511,3875.8199999999997,2.28241779073631
512,3878.49,1.978695504133343
513,3881.17,1.8738602164569564
514,3883.84,1.780626929853989
515,3886.52,1.8518346421776026
516,3889.2,1.8357653545012158
517,3891.87,1.8356050678982487
518,3894.55,1.702284780221862
519,3897.2200000000003,1.695499493618895
520,3899.9,1.8099312059425081
521,3902.57,1.806623919339541
522,3905.25,1.7537896316631543
523,3907.9199999999996,1.7918843450601871
524,3910.6000000000004,1.8847870573838004
525,3913.27,2.0671287707808332
526,3915.9500000000003,2.0210844831044468
527,3918.63,1.9805051954280601
528,3921.2999999999997,1.8523279088250928
529,3923.9800000000005,1.8460306211487063
530,3926.6499999999996,1.793371334545739
531,3929.33,1.5726590468693524
532,3932.0,1.452595760266385
533,3934.68,1.4568654725899985
534,3937.35,1.4634931859870313
535,3940.0299999999997,1.5236558983106447
536,3942.7000000000003,1.6222636117076774
537,3945.38,1.762067324031291
538,3948.06,1.8018090363549042
539,3950.73,1.769188749751937
540,3953.41,1.8090964620755503
541,3956.08,1.905486175472583
542,3958.76,1.8609328877961964
543,3961.4300000000003,1.9170796011932292
544,3964.11,1.9111123135168426
545,3966.7799999999997,1.9500360269138752
546,3969.46,1.8640797392374888
547,3972.1299999999997,1.8587854526345213
548,3974.81,1.734242164958135
549,3977.4900000000002,1.7239698772817482
550,3980.16,1.801479590678781
551,3982.84,1.8937193030023944
552,3985.5099999999998,1.9482100163994271
553,3988.1899999999996,2.1199427287230406
554,3990.86,2.078876442120073
555,3993.54,2.1154711544436866
556,3996.21,2.1005718678407197
557,3998.89,2.0753945801643328
558,4001.56,2.2199772935613655
559,4004.2400000000002,2.184200005884979
560,4006.92,2.0936067182085925
561,4009.59,2.132530431605625
562,4012.27,2.1474301439292383
563,4014.94,2.355275857326271
564,4017.62,2.1697875696498845
565,4020.2900000000004,2.2158332830469174
566,4022.9700000000003,2.144946995370531
567,4025.64,2.2737967087675637
568,4028.32,2.1591894210911766
569,4030.99,2.3140401344882098
570,4033.6699999999996,2.169954846811823
571,4036.3500000000004,2.1547135591354367
572,4039.02,2.219472272532469
573,4041.7,2.297965984856083
574,4044.37,2.3274496982531154
575,4047.0499999999997,2.100394410576729
576,4049.72,2.1822111239737616
577,4052.4,2.245633836297375
578,4055.07,2.1575355496944075
579,4057.75,2.0440882620180214
580,4060.42,2.1517399754150537
581,4063.1,2.2337106877386677
582,4065.7799999999997,2.3744734000622807
