,lambda (Angstroms),Total Flux (erg/s/cm^2/Angstrom)
0,100.08,0.47625069312724144
1,101.94,0.47492578886546694
2,104.07,0.4734085595760802
3,104.712855,0.47295064509427737
4,106.00999999999999,0.4680971364123899
5,107.98,0.46072601694142074
6,109.98,0.45324265033137123
7,114.11,0.43778949629773256
8,118.11999999999999,0.42278534891132286
9,120.22644299999999,0.4149038110523832
10,120.87,0.4128849995488465
11,125.12,0.3995527748874515
12,126.86,0.39409441343087215
13,128.03,0.3904241358285222
14,131.02,0.3810445362037502
15,131.92000000000002,0.37822130896191947
16,134.07,0.37147679052519617
17,136.88,0.3626619779481703
18,138.038426,0.3590280265377654
19,140.06,0.3544951597231903
20,143.0,0.3479045502759251
21,147.0,0.3389398676451833
22,151.12,0.3297027506930593
23,155.0,0.32100401680069984
24,158.489319,0.3131813109434034
25,158.97000000000003,0.31236664118331514
26,161.92999999999998,0.3073500205917811
27,166.08,0.30031690300408964
28,169.95,0.29375835933843536
29,173.11,0.2884031319854462
30,177.14000000000001,0.28157364883862784
31,180.02,0.27669326801767574
32,181.970086,0.27338866665327205
33,182.11,0.2732078045222735
34,185.92000000000002,0.26828309060285066
35,191.13000000000002,0.26154869627280014
36,193.79,0.25811109735960736
37,197.85,0.25286352257578676
38,201.99,0.2475129776673588
39,204.8,0.2438817161355273
40,208.929613,0.2385431359279476
41,210.04999999999998,0.2374543645737668
42,215.94,0.23173580883434142
43,219.95000000000002,0.2278415326828141
44,223.01000000000002,0.22486911220506509
45,227.16,0.2208393727459284
46,229.79,0.21831906674083687
47,234.06,0.2142465247537492
48,239.88329199999998,0.2086337387445282
49,240.06,0.20850283130659664
50,246.22000000000003,0.20388624899270574
51,251.96,0.19961009451158018
52,257.23,0.19563049721950143
53,260.21,0.1934352035251192
54,263.83,0.19074224859033265
55,268.74,0.18707188458348123
56,273.73,0.18334119314657937
57,275.42287,0.18207531978779457
58,278.82,0.1801269667995597
59,284.01,0.1771504132020242
60,289.95,0.1737297151279663
61,296.02,0.17025384127131113
62,300.83,0.16749245151521375
63,307.84,0.16347457976131705
64,316.227766,0.15866815216710123
65,317.93,0.15794046548960136
66,328.34000000000003,0.15348216841898607
67,338.32,0.14920454509979866
68,347.8,0.1451400927380856
69,356.72,0.14131626832474375
70,363.078055,0.13859068003165362
71,365.87,0.1376949268605708
72,375.26,0.13467936489078242
73,384.88,0.13157769548893314
74,394.75000000000006,0.1284181593826699
75,404.88000000000005,0.12516472393581612
76,414.31,0.12213258862132148
77,416.86938299999997,0.12130906121977413
78,422.01000000000005,0.12004574736418011
79,429.86,0.11811757027557296
80,440.89000000000004,0.11541023666826887
81,451.16,0.11288377224279175
82,459.54,0.11082446240106844
83,470.25,0.10819186065979677
84,478.630092,0.106133490103792
85,480.09000000000003,0.10585770042414731
86,490.15000000000003,0.10395059505709342
87,500.41,0.1020133319344321
88,506.21,0.10091387442181657
89,512.07,0.09981731132251875
90,520.39,0.09824270356924954
91,530.06,0.09641025841563017
92,539.92,0.0945373679041837
93,549.5408739999999,0.09271640381296176
94,549.95,0.09265729652686985
95,560.18,0.09118578128775646
96,570.59,0.08968652631129792
97,579.86,0.08834243663802506
98,590.65,0.08678748449383801
99,600.24,0.08539483013195161
100,610.0,0.0839501075292393
101,619.91,0.08256019267873942
102,629.98,0.08110207818393275
103,630.957344,0.08096115097871184
104,640.2199999999999,0.07990218788897777
105,650.62,0.07870896863186874
106,658.15,0.07784285163705806
107,664.24,0.07714962953169326
108,675.04,0.07591247501084929
109,684.4300000000001,0.074827508529671
110,695.5500000000001,0.07356362197783906
111,705.22,0.07244528783204633
112,716.68,0.07114402041603969
113,724.43596,0.07025548196813787
114,726.65,0.07006702046911965
115,735.07,0.06935061402816237
116,745.29,0.06848080237441136
117,755.66,0.06759829021126086
118,764.41,0.06683233612962469
119,775.0500000000001,0.06595014516955515
120,785.83,0.06503066540737941
121,794.93,0.06425973437047781
122,804.13,0.06347881336064323
123,815.3199999999999,0.06252762759944226
124,824.76,0.061728619414568524
125,831.763771,0.06111508558034345
126,834.3100000000001,0.06094656046611938
127,845.92,0.06023066470025815
128,855.7099999999999,0.05960717786074208
129,865.62,0.058979744954653794
130,875.64,0.058346824145874325
131,885.7800000000001,0.05770631427052264
132,893.98,0.05718727828808835
133,904.33,0.056526793771235304
134,914.8000000000001,0.05594949168781004
135,925.39,0.056181836937812576
136,933.96,0.05689385959178064
137,944.7700000000001,0.05823601273640079
138,954.992586,0.05926117450799732
139,955.71,0.059334101932192296
140,964.55,0.05954789396935914
141,975.72,0.053159567952973795
142,984.7499999999999,0.057204077723971146
143,993.86,0.05701232311973923
144,1005.37,0.059204184258629534
145,1014.6700000000001,0.05831058238822813
146,1024.06,0.052693760970693816
147,1035.92,0.05434528909295611
148,1045.51,0.05948785023734864
149,1055.18,0.05866750400651191
150,1064.94,0.05555283022854228
151,1074.8,0.05673396673153606
152,1084.74,0.053719375859300575
153,1094.78,0.056075423268028515
154,1096.4782,0.05589441926508288
155,1104.91,0.05509048696613964
156,1115.13,0.05411330941921917
157,1125.45,0.05247746520549911
158,1135.87,0.05463733132497943
159,1143.74,0.05309332894784988
160,1154.3200000000002,0.05330653180045081
161,1165.0,0.053129916986252135
162,1175.78,0.04874509450525384
163,1183.93,0.05180311466108538
164,1194.8899999999999,0.04744666537984778
165,1205.94,0.04457896619849053
166,1214.3,0.042220018254042875
167,1225.54,0.045815069505766366
168,1234.03,0.04962486359447921
169,1245.45,0.050334044045963394
170,1254.08,0.04924992140115679
171,1258.92541,0.048215738494266115
172,1265.6899999999998,0.046870554070480464
173,1274.46,0.04996482900160319
174,1286.25,0.05025889645176704
175,1295.1699999999998,0.046655261706683215
176,1304.15,0.046138345091116736
177,1316.2099999999998,0.04882683912410878
178,1325.3400000000001,0.04782391283233575
179,1334.53,0.0457960046700801
180,1343.78,0.04796647463734181
181,1356.2099999999998,0.047039115469024326
182,1365.61,0.045082395760079476
183,1375.08,0.04544524220223822
184,1384.61,0.04522668677391435
185,1394.2099999999998,0.04309796749669408
186,1403.8700000000001,0.043199756348991175
187,1413.6000000000001,0.04310878135239188
188,1423.3999999999999,0.0431405925068962
189,1436.5700000000002,0.042543926935959625
190,1443.2,0.04307397524762938
191,1445.43977,0.04316508693097069
192,1446.53,0.04322135408961889
193,1456.5600000000002,0.04252284088730588
194,1466.6499999999999,0.04118754169375273
195,1473.42,0.04095911734882161
196,1483.6299999999999,0.04096195617278813
197,1493.92,0.0409382636751011
198,1504.27,0.03995254518617393
199,1511.22,0.03839834286752235
200,1518.19,0.03902428521845737
201,1525.1999999999998,0.03845198690856564
202,1535.77,0.036688776785091214
203,1546.42,0.037459211339963244
204,1553.56,0.0366518583823845
205,1564.32,0.036545170619982914
206,1575.1699999999998,0.03698419887072109
207,1586.09,0.03728195846501241
208,1593.41,0.037339757533713186
209,1604.45,0.0368180851455242
210,1615.5700000000002,0.03656381143568166
211,1626.77,0.03560467640418559
212,1634.28,0.0361449748339592
213,1645.6100000000001,0.036048645154776106
214,1653.21,0.03488607959768948
215,1659.58691,0.03532655885731586
216,1664.66,0.0357153824629335
217,1672.35,0.03417694809197157
218,1676.1999999999998,0.03556667742510505
219,1683.9399999999998,0.035997508240287704
220,1695.61,0.03494912268643519
221,1703.44,0.03433194083667811
222,1715.25,0.03354065780403044
223,1723.17,0.03335122328933362
224,1735.11,0.03387637974066189
225,1743.12,0.033449532561025334
226,1755.2,0.03403074153355846
227,1763.3,0.03278949168898217
228,1775.53,0.032901486219949067
229,1783.72,0.03296350371043303
230,1796.09,0.03358463076260479
231,1804.3799999999999,0.033270438625377936
232,1816.8799999999999,0.03211883516152563
233,1825.27,0.03220209339658796
234,1833.69,0.03156878074333704
235,1846.4,0.03041273006129201
236,1854.9299999999998,0.030353766817559198
237,1863.4899999999998,0.03055348168551314
238,1876.41,0.031167895785275387
239,1885.0700000000002,0.03014780602551851
240,1893.77,0.029620193414677302
241,1905.46072,0.029895582331388844
242,1906.9,0.029936291422954633
243,1915.6999999999998,0.02946590187368382
244,1924.54,0.02914331459918905
245,1933.42,0.029166016599470313
246,1946.82,0.0296382936494443
247,1955.81,0.02887561015535968
248,1964.84,0.0297557579360511
249,1973.91,0.029869276991518562
250,1983.02,0.029218137321762074
251,1996.77,0.028746515526026424
252,2005.98,0.028871079043210034
253,2015.24,0.0283871741538637
254,2024.54,0.028630400539293402
255,2033.8899999999999,0.028121468518193162
256,2043.2800000000002,0.02848646777186896
257,2052.71,0.0278536683003208
258,2066.94,0.02769286180189765
259,2071.7,0.028395413500246616
260,2076.48,0.02869674583598361
261,2086.06,0.029391871144845604
262,2095.69,0.02852700804717765
263,2105.36,0.028348356224285744
264,2115.08,0.02857105599486389
265,2124.84,0.028336187040218074
266,2134.65,0.02735137967904231
267,2144.5,0.028054583592642592
268,2154.4,0.02825350909971292
269,2164.35,0.027478366200253308
270,2174.3399999999997,0.027296134575569737
271,2184.37,0.0276452942256622
272,2187.7616199999998,0.02772184989995164
273,2194.46,0.02790114254573557
274,2204.5899999999997,0.027480876277086574
275,2214.76,0.0262768990656196
276,2224.98,0.026286353175630182
277,2235.25,0.027684138607118308
278,2245.57,0.02701295536008398
279,2255.94,0.0257440534345272
280,2266.35,0.02565267056615246
281,2276.81,0.02605806901925526
282,2287.3199999999997,0.027171088793835615
283,2292.5899999999997,0.025970662077569054
284,2303.17,0.026583027702217966
285,2313.81,0.02549291691263994
286,2324.49,0.023112303180243952
287,2335.21,0.023832435505029996
288,2345.9900000000002,0.0228130504155891
289,2356.82,0.02464462564762575
290,2367.7000000000003,0.022725687201139946
291,2373.16,0.023387580506488072
292,2384.11,0.02193163691007083
293,2395.12,0.02260561489942665
294,2406.17,0.022209198945964508
295,2417.28,0.02257752657827542
296,2422.85,0.02440018679087414
297,2434.04,0.024074820537549134
298,2445.27,0.025106173341406156
299,2456.56,0.02521225973103624
300,2462.22,0.024346791322294545
301,2473.59,0.0235308058262887
302,2485.0,0.022225613387464895
303,2496.4700000000003,0.022221760534414145
304,2502.2299999999996,0.02445174076862755
305,2511.88643,0.0217317646037542
306,2513.7799999999997,0.02120262802973852
307,2519.5699999999997,0.0209735774850763
308,2525.3799999999997,0.020784956199327166
309,2537.04,0.021873306145655066
310,2542.89,0.021915611377732104
311,2554.6200000000003,0.024996857730255794
312,2566.4199999999996,0.023148940488975284
313,2572.33,0.024723986497791568
314,2584.21,0.023902866292163392
315,2596.1299999999997,0.023201014604361386
316,2602.12,0.02232162564883001
317,2614.13,0.021786548626136874
318,2626.2000000000003,0.023256435380183
319,2632.25,0.02716908620139087
320,2644.4,0.030697120991089327
321,2656.6,0.03563049892807049
322,2662.73,0.028492576784930702
323,2675.02,0.030241466387020747
324,2687.37,0.03209889376585004
325,2693.56,0.027952109399449504
326,2706.0,0.030552198443387676
327,2712.23,0.026624302594813305
328,2724.75,0.02459734867440381
329,2737.33,0.02681530253073357
330,2743.64,0.021922033717811536
331,2756.2999999999997,0.02377461460979363
332,2762.6600000000003,0.0261688089441543
333,2775.41,0.02694996150124528
334,2781.81,0.022677234353432118
335,2794.65,0.018447580575631967
336,2807.5499999999997,0.01923237457457107
337,2814.02,0.025437915832953704
338,2827.0099999999998,0.029891559497001688
339,2833.52,0.028985223273210486
340,2846.6000000000004,0.025322958602367343
341,2853.17,0.0213856601553154
342,2866.3300000000004,0.029189062520124584
343,2872.94,0.03377656259089881
344,2884.0315,0.032143442652396034
345,2886.2,0.031828315471991935
346,2892.8599999999997,0.03539789804520003
347,2912.9100000000003,0.04266003259367183
348,2933.1000000000004,0.03888053079983869
349,2946.64,0.03700502026548998
350,2967.0600000000004,0.038193146623584445
351,2987.63,0.03844290047206649
352,3008.3399999999997,0.0386960579782436
353,3029.19,0.04011434914211577
354,3050.19,0.04102958779637552
355,3071.33,0.043345420108330326
356,3092.62,0.042729639910672704
357,3106.9,0.04710027299556933
358,3128.43,0.044593544782531816
359,3150.1200000000003,0.044514177892574384
360,3171.9599999999996,0.04739122849300451
361,3186.6,0.04251001955483131
362,3208.68,0.045818662139881554
363,3230.9300000000003,0.04025598988070437
364,3253.32,0.05140271127922226
365,3268.34,0.05792299798336423
366,3290.99,0.056834149031887236
367,3311.31121,0.054358446906185576
368,3313.8,0.05405859285967629
369,3321.44,0.05215941921906365
370,3329.1,0.05653587017625045
371,3336.77,0.05659271843233696
372,3344.47,0.05353481858512265
373,3352.1800000000003,0.050473986036808055
374,3359.9,0.055226850787393186
375,3367.6499999999996,0.05527996743467748
376,3375.41,0.04333790138086149
377,3383.1899999999996,0.04622630992484495
378,3390.99,0.055877603066627854
379,3398.81,0.054846680806210205
380,3406.65,0.05609570314359199
381,3414.4999999999995,0.0551672427798735
382,3422.3700000000003,0.06059577701395445
383,3430.2599999999998,0.05670404584583485
384,3438.1699999999996,0.057777849275514694
385,3446.09,0.04196068000409425
386,3454.04,0.056200202629372975
387,3462.0,0.04796174255355143
388,3469.9799999999996,0.05298230707552932
389,3477.98,0.047311416195306655
390,3486.0,0.05266557991288343
391,3494.03,0.047389410929359936
392,3502.09,0.0582316938425356
393,3510.16,0.05771157405461099
394,3518.25,0.05223937886448581
395,3526.36,0.04791176827216009
396,3534.4900000000002,0.057078152277633805
397,3542.6400000000003,0.06379409088090697
398,3550.81,0.06183030408197957
399,3558.9900000000002,0.0578144845819519
400,3567.2,0.05430701697862339
401,3575.42,0.0486156966741946
402,3583.6600000000003,0.041446430967565256
403,3591.92,0.04306896985873535
404,3600.2000000000003,0.0633448733477049
405,3608.5,0.05275022143447389
406,3610.04,0.04905944546503102
407,3612.79,0.04012039266245448
408,3615.53,0.05629583256097821
409,3618.2799999999997,0.04939919975840167
410,3621.02,0.05849998965692541
411,3623.77,0.06125411685434887
412,3626.5199999999995,0.07466194405177233
413,3629.26,0.05979346395029607
414,3632.0099999999998,0.05141178114771953
415,3634.75,0.06035439104624326
416,3637.5,0.05956306824366672
417,3640.2400000000002,0.061415358142190464
418,3642.99,0.06383225533961392
419,3645.7400000000002,0.06039531253703738
420,3648.48,0.05590472243556112
421,3651.2299999999996,0.049924729632984576
422,3653.9700000000003,0.05230831953150831
423,3656.72,0.05755627672893177
424,3659.46,0.06396336662745551
425,3662.21,0.07318957382487898
426,3664.96,0.06627959102230242
427,3667.7,0.05549828092082616
428,3670.4500000000003,0.06981929811824962
429,3673.19,0.06628766801677337
430,3675.9399999999996,0.06455072521419682
431,3678.68,0.07257383511272056
432,3681.43,0.06100590231014402
433,3684.1800000000003,0.05474546950756747
434,3686.92,0.06809107940609122
435,3689.67,0.06268525660351468
436,3692.41,0.05504379650203842
437,3695.1600000000003,0.07121606369946187
438,3697.9,0.06264408359798561
439,3700.6499999999996,0.06440334079540906
440,3703.4,0.04962895799283252
441,3706.14,0.06267151789135626
442,3708.8900000000003,0.052293735088779714
443,3711.63,0.058564074987303455
444,3714.38,0.06704515218472692
445,3717.12,0.05411939208325066
446,3719.8700000000003,0.05693263928067411
447,3722.62,0.07447519647809757
448,3725.3599999999997,0.07984343637662131
449,3728.11,0.10111044357404476
450,3730.85,0.0949135934725685
451,3733.6000000000004,0.07068478066999195
452,3736.34,0.0777854805685157
453,3739.0899999999997,0.06231573776593916
454,3741.84,0.06739562496336263
455,3744.58,0.05027085486188636
456,3747.33,0.06342320205930982
457,3750.0699999999997,0.06167037195783356
458,3752.82,0.05077980915525701
459,3755.5699999999997,0.07217721635268047
460,3758.3100000000004,0.07043020625120422
461,3761.06,0.06985324344862767
462,3763.7999999999997,0.06331559334715141
463,3766.55,0.05940353054457487
464,3769.29,0.0639170804430986
465,3772.04,0.06426313764052206
466,3774.79,0.06342777483794551
467,3777.53,0.08127778473646927
468,3780.2799999999997,0.07023654193389271
469,3783.0200000000004,0.06978162183241646
470,3785.77,0.0721828690298399
471,3788.5099999999998,0.07956748892836364
472,3791.26,0.07859069612578712
473,3794.0099999999998,0.07096802332321057
474,3796.75,0.06872850322173431
475,3799.5,0.054115190419157765
476,3801.8939600000003,0.06824935733458548
477,3802.2400000000002,0.07029273851216405
478,3804.99,0.07560525389022268
479,3807.7299999999996,0.07283527248508836
480,3810.48,0.08773714786314701
481,3813.23,0.07929428324120565
482,3815.9700000000003,0.07114153183607133
483,3818.72,0.08150075721412997
484,3821.46,0.08341249580899567
485,3824.21,0.07503337118705429
486,3826.9500000000003,0.06599987978191998
487,3829.7,0.05532397515997862
488,3832.45,0.05596237053803725
489,3835.19,0.057223349132902945
490,3837.94,0.049747584510961576
491,3840.6800000000003,0.05387203310582726
492,3843.43,0.06364608848388591
493,3846.17,0.07210288707875159
494,3848.92,0.07171394245681023
495,3851.6699999999996,0.07319071783486887
496,3854.41,0.07347426642973455
497,3857.16,0.07281878180779318
498,3859.9,0.08280759040265889
499,3862.65,0.09262794578071752
500,3865.3900000000003,0.0845563243755832
501,3868.14,0.08975293975364185
502,3870.8900000000003,0.08885986513170048
503,3873.63,0.08248595372656617
504,3876.3799999999997,0.08193474910462481
505,3879.12,0.0829715576994905
506,3881.87,0.07739100307754912
507,3884.61,0.06875732167241483
508,3887.36,0.07611518705047346
509,3890.11,0.07375622242853208
510,3892.85,0.08258039102339779
511,3895.6000000000004,0.07960722640145641
512,3898.34,0.0739343649963221
513,3901.0899999999997,0.07868484037438074
514,3903.84,0.08450142575243938
515,3906.58,0.08541078434730506
516,3909.33,0.0763827197253637
517,3912.07,0.0884863883202294
518,3914.82,0.09965677369828801
519,3917.56,0.09730983229315372
520,3920.3100000000004,0.09247090767121235
521,3923.06,0.08444523304927098
522,3925.7999999999997,0.07316364164413668
523,3928.55,0.0671079970221953
524,3931.29,0.060045675617061006
525,3934.04,0.04951870099511964
526,3936.7799999999997,0.05587563958998533
527,3939.53,0.06480549496804396
528,3942.28,0.0760454403461026
529,3945.02,0.0720992489409683
530,3947.77,0.07498980431902692
531,3950.5099999999998,0.08480477291389261
532,3953.26,0.08345395829195125
533,3956.0,0.08645500688681694
534,3958.7499999999995,0.08130323226487558
535,3961.5,0.07444798764293421
536,3964.24,0.0635679062377999
537,3966.9900000000002,0.05810677161585853
538,3969.73,0.06211651021072423
539,3972.48,0.05313715558878286
540,3975.22,0.06830937418364856
541,3977.9700000000003,0.08127020956170719
542,3980.72,0.09041843493976581
543,3983.4599999999996,0.09139152353463152
544,3986.21,0.09374318891269015
545,3988.95,0.09924734750755583
546,3991.7000000000003,0.10814061288561448
547,3994.44,0.10476232148048016
548,3997.19,0.1101558668585388
549,3999.94,0.10469119223659744
550,4002.6800000000003,0.10590768083146312
551,4005.43,0.10252308620952176
552,4008.1699999999996,0.10759267480438746
553,4010.92,0.10998489018244609
554,4013.66,0.10853602877731178
555,4016.4100000000003,0.1077009441553704
556,4019.16,0.10881835953342904
557,4021.9,0.11292039812829473
558,4024.65,0.11443761350635337
559,4027.3900000000003,0.11249055210121907
560,4030.14,0.1101604674792777
561,4032.8799999999997,0.0998870960741434
562,4035.63,0.10244734145220202
563,4038.3799999999997,0.10377919683026066
564,4041.1200000000003,0.10633991542512636
565,4043.87,0.10679109080318498
566,4046.61,0.10991962939805067
567,4049.36,0.10583973477610932
568,4052.1099999999997,0.11062496015416794
569,4054.85,0.10882269874903364
570,4057.6,0.11258221412709227
571,4060.34,0.10763375272195796
