,lambda (Angstroms),Total Flux (erg/s/cm^2/Angstrom)
0,100.1,0.001904846170629346
1,101.97,0.0022902531428865814
2,104.10000000000001,0.00272923962511108
3,104.712855,0.002855549797791596
4,106.04,0.0026273555385068993
5,108.01,0.0022886342677516814
6,110.02,0.0019430741952060032
7,113.88000000000001,0.001279416864276487
8,117.88,0.000591696370630361
9,120.22644299999999,0.00018905042881306797
10,120.91,0.0001838562019236131
11,124.87,0.00015273193360716374
12,126.9,0.00013674435246262024
13,128.07,0.00012755768248276034
14,131.06,0.00010402266820089577
15,131.96,9.728300544715723e-05
16,134.10999999999999,8.036710253544883e-05
17,136.92,5.879990040433202e-05
18,138.038426,5.003790842289285e-05
19,140.10999999999999,4.970948340424289e-05
20,143.04000000000002,5.5126395399385095e-05
21,147.04999999999998,6.780394886031352e-05
22,151.17000000000002,6.892967104460906e-05
23,155.04,7.067703613034297e-05
24,158.489319,7.261888469572101e-05
25,159.01999999999998,7.283763673189913e-05
26,161.98000000000002,7.397886538464281e-05
27,166.13,7.603056089440171e-05
28,170.0,7.76375012613335e-05
29,173.16000000000003,7.919395644466796e-05
30,177.2,8.112980636260192e-05
31,180.07999999999998,8.26644164031093e-05
32,181.970086,8.361224357079657e-05
33,182.16,8.38158661413696e-05
34,185.97,8.831526767271873e-05
35,191.19,9.415806835346476e-05
36,193.83999999999997,9.809504640020364e-05
37,197.89999999999998,0.00010290635359633944
38,202.05,0.00010817961563179846
39,204.86,0.00011211538450400083
40,208.929613,0.00011453477250255518
41,210.10999999999999,0.00011606848331686036
42,216.0,0.0001319989027183063
43,220.02,0.0001410682809175954
44,223.08,0.00014662007924839753
45,227.22,0.00015633598993124745
46,229.85999999999999,0.00021612714456958654
47,234.13,0.0003177946454429608
48,239.88329199999998,0.0003893357998766512
49,240.13,0.0003920239266283808
50,245.73000000000002,0.0003775719645430213
51,252.03,0.00040262215719699175
52,256.72,0.0003526434039505031
53,260.29,0.00040176132312108636
54,263.91,0.00043809518905876463
55,268.82,0.00045041852158749407
56,273.81,0.00046239424894357537
57,275.42287,0.00046127491110826936
58,278.90000000000003,0.0004638589028822053
59,284.09,0.0005066341894897546
60,290.03999999999996,0.0005284902556390643
61,296.10999999999996,0.0005522783711897049
62,300.92,0.0005489717680263738
63,307.93,0.0006183706372207709
64,316.227766,0.0006925851248180758
65,318.02,0.0007063105572981817
66,327.68,0.0007961683449614692
67,337.64000000000004,0.0008581126670242375
68,347.90000000000003,0.0009260616234864868
69,356.82,0.0012385080396310544
70,363.078055,0.0016657337470430402
71,365.97999999999996,0.0018666525247032538
72,375.37,0.0020886289514302553
73,384.99,0.0019919339487799626
74,394.87,0.003076014243355338
75,405.0,0.004144244592955393
76,414.43,0.004584121988486344
77,416.86938299999997,0.004601674072747757
78,422.14000000000004,0.004638703338967103
79,429.99,0.004856285377183856
80,441.02000000000004,0.006225743811773766
81,451.29,0.0069955348057210345
82,459.68,0.006824740288604927
83,470.39,0.007581278274503198
84,478.630092,0.008870537367716395
85,480.23999999999995,0.009121479338073082
86,490.29,0.008573458419870391
87,500.56000000000006,0.011095434082562767
88,506.35,0.010263381825210173
89,512.2199999999999,0.016297742870001238
90,520.5400000000001,0.016445776292941895
91,530.22,0.01636745585232478
92,540.07,0.01459119867876294
93,549.5408739999999,0.01510167980682224
94,550.12,0.015133025124062012
95,560.34,0.020487615034429744
96,569.45,0.02389466551226243
97,580.03,0.024561576319668554
98,589.46,0.026253242039313143
99,600.42,0.023564381571370908
100,610.1700000000001,0.023726352532827403
101,620.09,0.030974425028996472
102,630.1600000000001,0.030479331232264872
103,630.957344,0.03079303452881883
104,640.4,0.03451051714718308
105,649.3100000000001,0.03459077168163703
106,658.35,0.032960735249702534
107,664.44,0.037577956901197994
108,675.23,0.040542346690957604
109,684.63,0.03639023296748589
110,695.75,0.042944321073336386
111,705.43,0.036477908345335736
112,715.24,0.04686883465094665
113,724.43596,0.04839134995439405
114,725.19,0.048516143868107924
115,735.28,0.04975869440640772
116,745.5100000000001,0.049531776607280545
117,754.14,0.050336345521604355
118,764.63,0.046551989381541405
119,775.27,0.05270828573709242
120,784.25,0.04987839380784882
121,795.1600000000001,0.054308222655504994
122,804.3699999999999,0.05647296988620282
123,815.5600000000001,0.057789842059005066
124,825.0,0.05968345844964432
125,831.763771,0.05225788295027885
126,834.5500000000001,0.04919829590131481
127,844.22,0.060511399763537574
128,855.96,0.06050899769967978
129,865.87,0.06335393797627002
130,875.9,0.06452763646004399
131,884.0000000000001,0.06557406544494618
132,894.24,0.0666391957912917
133,904.59,0.06617696616088896
134,915.07,0.06602221292160194
135,925.67,0.16348584788949866
136,934.23,0.27128169333527186
137,945.0500000000001,0.3957266283496721
138,954.992586,0.47751595234034216
139,955.99,0.48572099407810354
140,964.84,0.5375011400428408
141,976.0099999999999,0.18342411941302317
142,985.04,0.4491407602109415
143,994.1600000000001,0.44707839842545033
144,1005.6700000000001,0.5812848680360859
145,1014.97,0.5799373010837758
146,1024.36,0.34946433154805634
147,1033.8400000000001,0.4790529594289274
148,1045.81,0.7216974158354702
149,1055.49,0.7020668379754313
150,1065.26,0.5852924575319831
151,1075.11,0.6582224747921708
152,1085.06,0.5589556891819035
153,1095.1,0.679796300988227
154,1096.4782,0.6762492671334409
155,1105.23,0.6537244751655259
156,1115.46,0.635880456101883
157,1125.78,0.5680649289526364
158,1136.2,0.6829288928193853
159,1144.07,0.6373393857782446
160,1154.66,0.6537125343721861
161,1165.34,0.6566952748805238
162,1176.1299999999999,0.46064940550645667
163,1184.28,0.6286040733101038
164,1195.24,0.5016160886632294
165,1206.3,0.41055809503235063
166,1214.66,0.31073414396958876
167,1225.9,0.48458633416750213
168,1234.3899999999999,0.6286113714255346
169,1245.82,0.6658419445538398
170,1254.45,0.6432449692342663
171,1258.92541,0.6235132901241337
172,1266.06,0.5920582127551488
173,1274.84,0.6971707688616631
174,1283.67,0.7167502252876906
175,1295.55,0.603067901204022
176,1304.5300000000002,0.598891858588589
177,1313.57,0.7020628163565719
178,1325.73,0.671962094062177
179,1334.92,0.6185177527886995
180,1344.17,0.6892054118986376
181,1353.49,0.6688735714558942
182,1366.01,0.6142887514619944
183,1375.48,0.6256697119777905
184,1385.0100000000002,0.6256750728770025
185,1394.6100000000001,0.512118634223533
186,1404.28,0.5121153960173818
187,1414.01,0.5825831581946466
188,1423.8200000000002,0.5799147208831322
189,1433.69,0.5879960839550339
190,1443.62,0.6044799474103513
191,1445.43977,0.6067602456094318
192,1446.9499999999998,0.6086526671389516
193,1453.6299999999999,0.5907059029656796
194,1463.71,0.5537916570275686
195,1473.85,0.5550956114112546
196,1484.0700000000002,0.5602408662240032
197,1494.3600000000001,0.5615444214121815
198,1504.71,0.5337853769221568
199,1511.6599999999999,0.4879415141969712
200,1518.64,0.510934451632684
201,1525.65,0.4993095892292953
202,1536.22,0.4358844459191928
203,1543.31,0.4338866839448667
204,1554.0100000000002,0.4210885413319909
205,1564.78,0.4470671990945449
206,1575.63,0.47355545728616155
207,1586.55,0.487943615853208
208,1593.8700000000001,0.4935949551124369
209,1604.9199999999998,0.4812514143767101
210,1616.05,0.47683287407004576
211,1623.51,0.4595906140801343
212,1634.76,0.482359074417064
213,1646.0900000000001,0.4845869351830563
214,1653.6899999999998,0.46171167594400436
215,1659.58691,0.47463242398441224
216,1665.1499999999999,0.48682192546061775
217,1672.84,0.4429671266552243
218,1676.7,0.4958689778400333
219,1684.43,0.5027720806013217
220,1696.1100000000001,0.47683723807245365
221,1703.9399999999998,0.461713844750447
222,1715.75,0.4389121073132953
223,1723.6699999999998,0.43388781751632305
224,1735.62,0.4564278855625582
225,1743.6299999999999,0.4470721992906204
226,1755.72,0.46384387282024236
227,1763.8200000000002,0.43588829007333896
228,1776.0500000000002,0.43689526908634774
229,1784.24,0.4429779898644787
230,1796.61,0.45959747436087445
231,1804.9,0.45748369905571035
232,1813.23,0.4259714253172282
233,1825.8,0.43189491764703364
234,1834.23,0.41916114782525643
235,1846.94,0.38939114563844873
236,1855.4699999999998,0.39029117973337635
237,1864.04,0.398456615394986
238,1876.96,0.4181968214332586
239,1885.6200000000001,0.3876003606199026
240,1894.32,0.3727289013732286
241,1903.07,0.392088744084907
242,1905.46072,0.38936142314525035
243,1916.26,0.3770406925016764
244,1925.1,0.3659249461987013
245,1933.9899999999998,0.3779097973713882
246,1942.9199999999998,0.39028644652460454
247,1956.38,0.3634019669727895
248,1965.4099999999999,0.39028921107732967
249,1974.4900000000002,0.39937355265753177
250,1983.6000000000001,0.379650292723131
251,1992.76,0.36930003026439207
252,2006.57,0.3779028330422104
253,2015.8300000000002,0.3684560655347954
254,2025.14,0.37964889550304215
255,2034.4799999999998,0.35924052395668615
256,2043.8700000000001,0.36760344988599203
257,2053.31,0.33758527329095983
258,2062.79,0.34544409467645715
259,2072.31,0.37443751404248404
260,2077.08,0.3559415732206298
261,2086.67,0.3659145890525833
262,2096.3,0.34784200286506634
263,2105.98,0.3502524141532113
264,2115.7000000000003,0.35267902342188573
265,2125.4700000000003,0.35511643016622213
266,2135.2799999999997,0.336805234891088
267,2145.13,0.3383567375964834
268,2155.03,0.3478391377775407
269,2164.98,0.33758023543425997
270,2174.97,0.33525543107150874
271,2185.01,0.32838222418441937
272,2187.7616199999998,0.3313147013189411
273,2195.1,0.33913608065377315
274,2205.23,0.3314150884138021
275,2215.41,0.31796689818646695
276,2225.6400000000003,0.3100128099717676
277,2235.9100000000003,0.32164762336717706
278,2246.23,0.3114465387752223
279,2256.6,0.30086855619590347
280,2267.01,0.3050629752266933
281,2277.48,0.3085905966726462
282,2282.73,0.31144800799941347
283,2293.26,0.29472503186052945
284,2303.85,0.29625475813680846
285,2314.48,0.2870181860231962
286,2325.17,0.24274821632474697
287,2335.9,0.2718927482364064
288,2346.68,0.26585448216070184
289,2357.5099999999998,0.27726111809763304
290,2362.9500000000003,0.2618309370724166
291,2373.85,0.2650159758270381
292,2384.81,0.2503362169968226
293,2395.8199999999997,0.261073860179243
294,2406.88,0.25294290537429925
295,2412.4300000000003,0.2553555287768818
296,2423.56,0.26387787678962826
297,2434.75,0.2550691272175378
298,2445.9900000000002,0.2635806796580833
299,2457.28,0.25951523411126465
300,2462.94,0.257216961941646
301,2474.31,0.2503542196150448
302,2485.73,0.2528231793010794
303,2497.2,0.22808154099974987
304,2502.96,0.25597857285540304
305,2511.88643,0.24035543840032983
306,2514.5099999999998,0.23576349129623508
307,2520.31,0.24244200093883853
308,2526.12,0.23590391042565334
309,2537.78,0.23659202877612853
310,2543.63,0.23234163763978888
311,2555.3700000000003,0.24120995474395512
312,2567.1699999999996,0.2369484709133897
313,2573.08,0.24478887884231837
314,2584.96,0.24213729376544402
315,2596.89,0.23895990790962657
316,2602.88,0.23251931459224634
317,2614.8900000000003,0.22947382749012
318,2626.96,0.23496463945326196
319,2633.02,0.23776144504536142
320,2645.17,0.24855055576219445
321,2657.3799999999997,0.2498507655442958
322,2663.51,0.23432967004587496
323,2675.7999999999997,0.2399342785816674
324,2681.9700000000003,0.2389109824600921
325,2694.35,0.229889289593787
326,2706.79,0.23269649579275023
327,2713.03,0.2248679985806546
328,2725.5499999999997,0.2245001035333089
329,2738.1299999999997,0.2298714075512315
330,2744.44,0.2106873092486156
331,2757.1099999999997,0.21228551186444067
332,2763.4700000000003,0.2163021127828817
333,2776.22,0.22199471415239785
334,2782.62,0.2140360144476844
335,2795.46,0.186117914415103
336,2801.9100000000003,0.1945038139314465
337,2814.84,0.2173702124967676
338,2827.8399999999997,0.2220691099715684
339,2834.35,0.21460520855318016
340,2847.44,0.21131350462588344
341,2854.0,0.20609930242855215
342,2867.17,0.21645379725494648
343,2873.78,0.2145394942786721
344,2884.0315,0.21388940337755014
345,2887.0499999999997,0.21369803360960068
346,2893.7000000000003,0.21132453148941502
347,2907.0600000000004,0.2204159272299142
348,2927.21,0.21413812080559227
349,2947.5,0.20996351433663482
350,2967.93,0.2101814078230419
351,2988.5099999999998,0.20895430126162526
352,3009.2200000000003,0.20821249465876132
353,3030.08,0.20699888800807367
354,3051.08,0.20531768131275055
355,3072.23,0.2041256745696037
356,3093.5299999999997,0.2029376677786331
357,3107.81,0.20121906322581334
358,3129.3500000000004,0.1977662563583248
359,3151.04,0.19707264944301248
360,3172.88,0.1954791424798764
361,3187.53,0.18811703780909148
362,3209.6200000000003,0.1905024307662492
363,3231.87,0.18466942367239492
364,3246.79,0.18910891891552725
365,3269.2900000000004,0.19107671174196675
366,3291.96,0.18910330451420604
367,3307.1499999999996,0.18794279967125563
368,3311.31121,0.18845527847068794
369,3322.4199999999996,0.18982333063977
370,3330.07,0.19121248401528343
371,3337.75,0.18866483720795577
372,3345.45,0.184863790278734
373,3353.16,0.18198004328856518
374,3360.8900000000003,0.1828898961765023
375,3368.64,0.18380624894254532
376,3376.4,0.17399430164764132
377,3384.18,0.17811455423084321
378,3391.99,0.186147606631204
379,3399.81,0.18968235897061775
380,3407.6400000000003,0.17873201124908444
381,3415.5,0.18170826334471005
382,3423.37,0.18859861537938857
383,3431.2599999999998,0.188240967292173
384,3439.1699999999996,0.18658771908306337
385,3447.1000000000004,0.1750073707520597
386,3455.05,0.17710002229916189
387,3463.01,0.17076297378531705
388,3471.0,0.17805882508863108
389,3479.0,0.16972127633099807
390,3487.02,0.174144927451471
391,3495.06,0.17542437845004982
392,3503.1099999999997,0.1767093293876816
393,3511.19,0.17395548014247228
394,3519.28,0.1748283308363159
395,3527.3900000000003,0.17052408140826547
396,3535.53,0.17658383179737389
397,3543.6800000000003,0.18076898212553527
398,3551.85,0.18084483233180254
399,3560.03,0.1776149824771228
400,3568.24,0.17126053243960196
401,3576.47,0.164755282280187
402,3584.71,0.16070033205982498
403,3592.97,0.16039768171756894
404,3601.26,0.17392223119247174
405,3609.56,0.1684794806064275
406,3617.88,0.16932522989848917
407,3626.22,0.17696887906865677
408,3634.58,0.17063702811693027
409,3636.1,0.15620651885298
410,3638.8399999999997,0.17283840215349072
411,3641.58,0.1927554854540014
412,3644.3199999999997,0.2066984687545121
413,3647.06,0.1723505520550228
414,3649.8,0.1438410353555335
415,3652.55,0.15704051859509716
416,3655.29,0.14349330189560786
417,3658.0299999999997,0.16932468519611854
418,3660.77,0.18034566849662925
419,3663.5099999999998,0.20821535179713996
420,3666.25,0.19581193509765063
421,3668.99,0.19939531839816135
422,3671.7300000000005,0.19975310169867203
423,3674.4700000000003,0.18438978499918274
424,3677.21,0.17407356829969342
425,3679.9500000000003,0.18242735160020412
426,3682.69,0.17744003490071483
427,3685.4300000000003,0.1799012182012255
428,3688.17,0.1722196015017362
429,3690.91,0.1600600848022469
430,3693.65,0.1627381681027576
431,3696.39,0.1479548514032683
432,3699.13,0.167112934703779
433,3701.87,0.1724255180042897
434,3704.6099999999997,0.16698820130480038
435,3707.35,0.17596548460531108
436,3710.0899999999997,0.1642668679058218
437,3712.83,0.14952155120633248
438,3715.57,0.1791965345068432
439,3718.3100000000004,0.18176611780735388
440,3721.05,0.23116290110786458
441,3723.79,0.41028598440837527
442,3726.53,0.7378380677088859
443,3729.27,1.0385990510093968
444,3732.01,1.0753540343099073
445,3734.75,0.760118917610418
446,3737.49,0.40845930091092875
447,3740.23,0.23334768421143945
448,3742.97,0.22194176751195013
449,3745.71,0.19963405081246086
450,3748.45,0.18060063411297156
451,3751.1899999999996,0.16921641741348223
452,3753.93,0.15030760071399293
453,3756.6699999999996,0.18040548401450363
454,3759.4100000000003,0.19364376731501434
455,3762.15,0.17830755061552506
456,3764.8900000000003,0.18013983391603572
457,3767.63,0.18336001721654643
458,3770.37,0.1883962005170571
459,3773.12,0.17028888375662077
460,3775.8599999999997,0.18960406705713148
461,3778.6,0.20157375035764216
462,3781.34,0.20831223365815288
463,3784.0800000000004,0.21305561695866357
464,3786.82,0.22060720025917427
465,3789.56,0.21314778355968497
466,3792.3,0.20723336686019564
467,3795.04,0.18587985016070635
468,3797.78,0.17999263346121708
469,3800.52,0.18095751676172775
470,3801.8939600000003,0.18933013981850783
471,3803.2599999999998,0.19765450179697835
472,3806.0,0.2016117885770265
473,3808.74,0.20695697535707466
474,3811.48,0.2019804621371228
475,3814.22,0.20188834891717097
476,3816.9599999999996,0.19552943569721912
477,3819.7,0.1988905224772673
478,3822.4399999999996,0.20849670925731542
479,3825.1800000000003,0.19417959603736357
480,3827.92,0.18351638281741176
481,3830.6600000000003,0.1931387695974599
482,3833.4,0.17534685637750805
483,3836.1400000000003,0.17913624315755622
484,3838.88,0.15840062993760434
485,3841.62,0.1901843167176525
486,3844.36,0.20658850349770067
487,3847.1,0.2061656902777488
488,3849.84,0.205704877057797
489,3852.58,0.22310116383784512
490,3855.3199999999997,0.21190125061789328
491,3858.06,0.21479603739794145
492,3860.7999999999997,0.2210683241779896
493,3863.54,0.23002391095803773
494,3866.28,0.2421942977380859
495,3869.0200000000004,0.28485818451813405
496,3871.76,0.2987144712981822
497,3874.5,0.28254335807823033
498,3877.2400000000002,0.23188344485827853
499,3879.98,0.20630683163832667
500,3882.7200000000003,0.21914391841837483
501,3885.46,0.21367950519842296
502,3888.2,0.21440589197847112
503,3890.94,0.2482388787585193
504,3893.69,0.22271536549031945
505,3896.4300000000003,0.2193380522703676
506,3899.17,0.21361883905041573
507,3901.9100000000003,0.20619202583046392
508,3904.65,0.21004091261051205
509,3907.39,0.2263311993905602
510,3910.13,0.23085788617060837
511,3912.87,0.2232303729506565
512,3915.61,0.20991625973070466
513,3918.35,0.21286534651075284
514,3921.0899999999997,0.21268643329080097
515,3923.83,0.21403092007084912
516,3926.5699999999997,0.2162048068508973
517,3929.31,0.20231059363094545
518,3932.05,0.19601678041099357
519,3934.7900000000004,0.16317596719104174
520,3937.53,0.1739367539710899
521,3940.27,0.18731054075113807
522,3943.01,0.20813282753118623
523,3945.75,0.20542231431123437
524,3948.4900000000002,0.22112720109128253
525,3951.23,0.19782748787133067
526,3953.97,0.20118307465137883
527,3956.71,0.200678961431427
528,3959.45,0.19961644821147514
529,3962.19,0.19497603499152327
530,3964.93,0.19330092177157146
531,3967.6699999999996,0.1985756085516196
532,3970.41,0.20793239533166774
533,3973.1499999999996,0.20014238211171592
534,3975.8900000000003,0.20768306889176408
535,3978.63,0.17609985567181222
536,3981.3700000000003,0.1810872424518604
537,3984.11,0.19626622923190853
538,3986.85,0.19706321601195667
539,3989.59,0.21921910279200485
540,3992.33,0.208420389572053
541,3995.07,0.21868247635210114
542,3997.81,0.2201190631321493
543,4000.5499999999997,0.21839514991219744
544,4003.29,0.23217563669224558
545,4006.0299999999997,0.24080592347229376
546,4008.77,0.24765821025234191
547,4011.52,0.24747269698414207
548,4014.26,0.2273659837641902
549,4017.0,0.23079757054423838
550,4019.74,0.22609755732428652
551,4022.48,0.21344474410433467
552,4025.22,0.23657643088438285
553,4027.96,0.234836317664431
554,4030.7,0.22590780444447914
555,4033.4399999999996,0.23008749122452732
556,4036.18,0.22494837800457546
557,4038.9199999999996,0.23153496478462363
558,4041.6600000000003,0.22200475156467175
559,4044.4,0.2308627383447199
560,4047.1400000000003,0.22499722512476808
561,4049.88,0.21996101190481623
562,4052.62,0.22586449868486438
563,4055.36,0.21684388546491254
564,4058.1,0.2175865722449607
565,4060.84,0.22192345902500885
566,4063.58,0.218920245805057
567,4066.3199999999997,0.22742043258510516
568,4069.06,0.2326464193651533
569,4071.7999999999997,0.22280170614520148
570,4074.54,0.2186274929252496
571,4077.2799999999997,0.22568577970529777
