,lambda (Angstroms),Total Flux (erg/s/cm^2/Angstrom)
0,100.00999999999999,0.015875441001611073
1,102.10000000000001,0.019500635452998624
2,104.0,0.02279626677247167
3,104.712855,0.0240327442799962
4,105.93,0.022271209028430345
5,107.89999999999999,0.019420090677316332
6,109.91000000000001,0.016511081598716837
7,114.03,0.010548336621708785
8,118.04,0.004744791147538894
9,120.22644299999999,0.0015804217370210783
10,121.07,0.0015239309345819083
11,125.03999999999999,0.0012580704286905377
12,127.07,0.001122126645909259
13,127.95,0.0010631953529336195
14,130.93,0.0008636325649776848
15,132.14,0.0007826020447707653
16,133.98,0.0006593820767187952
17,137.1,0.0004504438883128477
18,138.038426,0.0003875999713973605
19,139.97,0.00038303158504131144
20,142.9,0.0003761020486311014
21,146.9,0.0003666422379608971
22,151.02,0.0003568983989127047
23,154.89,0.0003477460449174876
24,158.489319,0.0003392340482821331
25,158.86999999999998,0.0003378507582935982
26,161.82,0.0003271314677044176
27,165.97,0.0003120520748138417
28,169.84,0.0002979905604429913
29,173.0,0.0002865090621975166
30,177.03,0.00027186711678268033
31,179.89999999999998,0.0002614403072189929
32,181.970086,0.0002539197246830761
33,181.98,0.0002539313279626571
34,185.79999999999998,0.0002584032730224304
35,191.0,0.00026449166580976577
36,194.1,0.0002681224577229849
37,198.17000000000002,0.00027289050572753404
38,201.85000000000002,0.00027720419826103294
39,205.13,0.00028104895960089055
40,208.929613,0.00028550402515823217
41,209.91,0.0002924693630121336
42,215.79000000000002,0.00033425591160728623
43,219.79999999999998,0.00036275509859821486
44,222.86,0.00038450291843967197
45,227.00000000000003,0.00041393202153105504
46,230.16,0.0004364918598882455
47,233.9,0.0004632771650166929
48,239.88329199999998,0.000506023522108395
49,239.9,0.0005059264937001839
50,246.06,0.0004699937787384831
51,251.79,0.00043668649009586194
52,257.06,0.00040580176947830287
53,260.04,0.00038864209395072667
54,264.26,0.0003641614070425486
55,269.18,0.00033557412466144967
56,274.18,0.00030653045199773146
57,275.42287,0.00029931123282539044
58,279.28000000000003,0.0003235617425384888
59,283.81,0.0003521064608707892
60,289.76,0.00038947009821674674
61,295.83000000000004,0.00042775280980329554
62,301.32,0.0004622270330603217
63,308.34,0.0005065723296348802
64,316.227766,0.00055650777410491
65,317.71,0.0005498529191443638
66,328.12,0.0005030037941418961
67,338.09,0.00045819197271686267
68,348.37,0.000412003980589546
69,357.29999999999995,0.00037205980716571973
70,363.078055,0.0003463548683198927
71,365.61999999999995,0.00035575122965075416
72,375.0,0.00039018109248633074
73,384.62,0.0004252735377569326
74,395.4,0.0004653406284634905
75,404.60999999999996,0.0004996045829075904
76,414.03000000000003,0.000534366690482338
77,416.86938299999997,0.0005448384031279892
78,421.73,0.0005558224515952875
79,429.57,0.0005735779445349528
80,440.59000000000003,0.0005988890825445337
81,450.85,0.0006222061696569021
82,460.29,0.0006435342523801727
83,469.93,0.000665656120076394
84,478.630092,0.0006858300000963291
85,479.77,0.0006828295456221748
86,489.82,0.0006557166624543467
87,500.08,0.0006290442660262953
88,505.87,0.0006166034447087107
89,511.72,0.000624253066745348
90,520.04,0.000604286228530788
91,529.7099999999999,0.0005814348607862213
92,539.5500000000001,0.000554366330878616
93,549.5408739999999,0.0005455523247231127
94,549.59,0.0005456020588210562
95,559.8000000000001,0.0005536321144006775
96,570.21,0.0005588784113040915
97,579.48,0.0005511932386618869
98,590.25,0.000566904475948128
99,599.84,0.0005657862614239917
100,609.59,0.0005840598759588897
101,619.49,0.0006095687614866323
102,629.56,0.0006227273341395988
103,630.957344,0.000623245922470259
104,639.79,0.0006454829810898352
105,650.1800000000001,0.000695928551763304
106,657.7099999999999,0.0007276976067364721
107,665.3299999999999,0.0007644172667491604
108,674.58,0.0007955510402553765
109,685.5400000000001,0.0008145976095124715
110,695.08,0.0009296719437015852
111,704.75,0.0009309557740588943
112,716.2,0.0010563611596422645
113,724.43596,0.0010984942894104875
114,726.16,0.0011063983263275195
115,734.5699999999999,0.0011509270121488442
116,744.7900000000001,0.0012509243395084088
117,755.15,0.0013230296247770082
118,765.66,0.0013949465792338599
119,774.52,0.0014996963726199401
120,785.3000000000001,0.0016066163316156453
121,794.39,0.001683538584423712
122,805.44,0.0017658130479582704
123,814.77,0.00184351057146754
124,824.1999999999999,0.001999003207768978
125,831.763771,0.0018824103071617931
126,835.6700000000001,0.0018134877409161027
127,845.35,0.0021265459430211213
128,855.1400000000001,0.0022001900110591517
129,865.04,0.0023401219450301936
130,875.05,0.0024897187449342472
131,885.19,0.00267396084094095
132,895.4399999999999,0.0028129018028806656
133,905.81,0.0028666973458382114
134,914.19,0.004206028586916729
135,924.77,0.02608919114665548
136,935.48,0.05781487100249688
137,944.14,0.11360070426595034
138,954.992586,0.1609519306304558
139,955.0699999999999,0.16128979747773547
140,963.9100000000001,0.1933569618088443
141,975.0699999999999,0.03679173564766489
142,984.0899999999999,0.18922538649230305
143,995.49,0.19479813234916282
144,1004.7,0.2674454072914153
145,1013.99,0.2524461629063475
146,1025.74,0.10535202420618105
147,1035.23,0.19002923150281253
148,1044.8,0.3517740194721238
149,1054.47,0.3532589832822846
150,1064.23,0.29444322534921014
151,1074.08,0.34811064567290045
152,1084.01,0.2894711466692704
153,1094.04,0.37005142350648995
154,1096.4782,0.3679788458401196
155,1104.17,0.36143651839836094
156,1114.3799999999999,0.3570920982327568
157,1124.7,0.3292583948920091
158,1135.1,0.4038084310602477
159,1145.61,0.3731632840533428
160,1156.21,0.39770956899404764
161,1164.22,0.4154850123313161
162,1174.99,0.3064257687286171
163,1185.86,0.40726034951215123
164,1194.08,0.29509713406050914
165,1205.1299999999999,0.22218417873926277
166,1216.28,0.12932514780424947
167,1224.72,0.2799786660023201
168,1236.05,0.42030689896252627
169,1244.6200000000001,0.4693047188626999
170,1256.13,0.45921181571812564
171,1258.92541,0.4413595488645178
172,1264.8400000000001,0.40359212011113854
173,1273.6100000000001,0.5114282917931215
174,1285.3899999999999,0.5361546253636755
175,1294.3,0.4489522045753594
176,1306.28,0.4453257489026291
177,1315.3300000000002,0.5401250356440139
178,1324.45,0.5252106261502494
179,1333.63,0.4788292198834994
180,1345.97,0.5540807835728573
181,1355.3000000000002,0.5437312853736442
182,1364.69,0.49911369040144576
183,1374.15,0.5223628991940978
184,1383.6799999999998,0.5330152117516004
185,1396.48,0.4754549001814044
186,1406.1599999999999,0.4964175208064437
187,1415.9099999999999,0.5088409451963335
188,1425.72,0.520351572813238
189,1435.61,0.5212045047328286
190,1442.2299999999998,0.548455260780118
191,1445.43977,0.5564969193526742
192,1445.56,0.5567981388402174
193,1455.58,0.5462459911430709
194,1465.67,0.5129505466057249
195,1475.83,0.5125575052281792
196,1486.06,0.521663867010434
197,1496.36,0.530920231952489
198,1506.73,0.5101156000543444
199,1513.68,0.4642728137773816
200,1517.1699999999998,0.4935042713160003
201,1524.18,0.48235968774743776
202,1534.74,0.43151386442589423
203,1545.38,0.47048904471555114
204,1556.09,0.4468148281650084
205,1563.27,0.45516345227024674
206,1574.11,0.48495074158790474
207,1585.02,0.5049205340653631
208,1596.01,0.5184839301540217
209,1603.38,0.5066890628358611
210,1614.49,0.5096076643413207
211,1625.6799999999998,0.4861064694579805
212,1633.1799999999998,0.5148676080080204
213,1644.5000000000002,0.522580818992881
214,1655.8999999999999,0.48709203358894204
215,1659.58691,0.5085180629960796
216,1663.55,0.5315502064447649
217,1671.23,0.4814136381491437
218,1675.08,0.5345178072978232
219,1686.69,0.5538130345228021
220,1694.4699999999998,0.5251812991920816
221,1706.22,0.5078024725679215
222,1714.1000000000001,0.48933937020210194
223,1725.98,0.4874906864323129
224,1733.9399999999998,0.5162391104384139
225,1745.96,0.5048739728194859
226,1754.02,0.5358561297904877
227,1766.18,0.4947241383224207
228,1774.3300000000002,0.510754524961833
229,1786.6299999999999,0.5181849796446273
230,1794.88,0.5474056992489404
231,1803.16,0.5446837287427239
232,1815.66,0.5121424493553196
233,1824.0400000000002,0.5202354118140038
234,1836.69,0.5028162818739507
235,1845.16,0.46690617400104545
236,1853.68,0.4709839826105907
237,1866.5300000000002,0.48324011860033905
238,1875.1499999999999,0.5151145601747851
239,1883.8,0.4815944116387013
240,1896.86,0.4643130168547413
241,1905.46072,0.48769419957766386
242,1905.6200000000001,0.4881270843920996
243,1914.41,0.47452834933441274
244,1923.25,0.4666309930306639
245,1936.58,0.47535902883055403
246,1945.52,0.4985377300346814
247,1954.5000000000002,0.4714082142419591
248,1968.0500000000002,0.5074362565591768
249,1977.13,0.5188367982743307
250,1986.26,0.4939657187434227
251,1995.42,0.4823335264648776
252,2004.63,0.49200951294027057
253,2013.89,0.48038837816960156
254,2023.18,0.4968256306512954
255,2037.21,0.4765502690063185
256,2046.6100000000001,0.4916866747466761
257,2056.06,0.4723634592409718
258,2065.5499999999997,0.4762607267384179
259,2075.08,0.5039554772390146
260,2079.86,0.48492444611549423
261,2084.6600000000003,0.49881370649354917
262,2094.28,0.4747756187512343
263,2103.95,0.4786425097628575
264,2113.66,0.4814248837776312
265,2123.42,0.4886875365463429
266,2133.2200000000003,0.4576535723182051
267,2143.06,0.46775639109321776
268,2152.96,0.48138048437295605
269,2162.89,0.46769186490505726
270,2172.88,0.4628126199418841
271,2182.9100000000003,0.45798455798186144
272,2187.7616199999998,0.46701662720442866
273,2192.98,0.4767354643423068
274,2203.11,0.4641974962498021
275,2213.27,0.4447668383208931
276,2223.49,0.4320563007191756
277,2233.75,0.4591147766689191
278,2244.06,0.4398511695579888
279,2254.42,0.4252835793863848
280,2264.83,0.431727506154107
281,2275.28,0.4419195464732901
282,2285.78,0.4541978037317996
283,2296.33,0.4336796779296352
284,2306.9300000000003,0.4375945690667971
285,2317.58,0.4246158771432852
286,2322.93,0.3511599896511924
287,2333.65,0.4040021214427372
288,2344.42,0.39113037017360835
289,2355.2400000000002,0.4219189358438057
290,2366.1099999999997,0.39371121845332924
291,2377.03,0.407480318002179
292,2382.5099999999998,0.38158687455233437
293,2393.51,0.40504990120410617
294,2404.56,0.39305984479520417
295,2415.66,0.4012372053256284
296,2426.81,0.4239665827953789
297,2432.4,0.410039576612052
298,2443.63,0.43227668118472445
299,2454.91,0.4272973026967231
300,2466.2400000000002,0.426274141148048
301,2477.62,0.4146372965386992
302,2483.33,0.4267192310097553
303,2494.8,0.4074955168911936
304,2506.31,0.446760316324093
305,2511.88643,0.41021044349793206
306,2512.09,0.40887607885147614
307,2517.88,0.41693731967070197
308,2523.69,0.40139755786754183
309,2535.33,0.40602203163883527
310,2547.04,0.4041369962317775
311,2552.91,0.42953592656145906
312,2564.69,0.42266278197604984
313,2576.53,0.4446067295234824
314,2582.4700000000003,0.4430692506748126
315,2594.39,0.4400154877327008
316,2606.3599999999997,0.4280387182346238
317,2612.37,0.4236251302076027
318,2624.43,0.4425693489087882
319,2636.54,0.4539196610540085
320,2642.62,0.48918036384863606
321,2654.82,0.49828226419311894
322,2667.07,0.46399935798163655
323,2673.2200000000003,0.4819643515979128
324,2685.56,0.485338333585693
325,2697.9599999999996,0.465671707706315
326,2704.18,0.47818199214423984
327,2716.6600000000003,0.45881275577531744
328,2722.9199999999996,0.4583107349684701
329,2735.49,0.4799373867988103
330,2748.12,0.42880563076199213
331,2754.45,0.4383062007767935
332,2767.17,0.45479753293923797
333,2773.54,0.47460589770926714
334,2786.3500000000004,0.45435861807097416
335,2792.77,0.3758264762850381
336,2805.66,0.40181338615720075
337,2812.13,0.4780895378152995
338,2825.11,0.49609773588672473
339,2838.1499999999996,0.4826670260909917
340,2844.69,0.47226776857073904
341,2857.8199999999997,0.4594931469742686
342,2864.41,0.4952173828980508
343,2877.63,0.4975981495008428
344,2884.0315,0.4993122941979291
345,2884.26,0.4993735095274602
346,2897.5800000000004,0.49832277378475714
347,2910.95,0.5352917379078848
348,2931.13,0.5214883837571529
349,2951.45,0.516305029230747
350,2971.91,0.5267072743286669
351,2992.5099999999998,0.5299597190509129
352,3013.25,0.5381840633974848
353,3027.16,0.5408276260715839
354,3048.14,0.5442032697741431
355,3069.27,0.5488705130741944
356,3090.54,0.5548615559985718
357,3111.97,0.5583563984936072
358,3133.5400000000004,0.5541843406129687
359,3148.0000000000005,0.5582353018112054
360,3169.8199999999997,0.5643736432597203
361,3191.8,0.5436683842788934
362,3206.53,0.5617094447526159
363,3228.7599999999998,0.5461333851009424
364,3251.1400000000003,0.5755381250467612
365,3273.67,0.595480864590072
366,3288.78,0.5943928240441078
367,3311.31121,0.5954885907231627
368,3311.58,0.5955016497963181
369,3319.21,0.5908726584077947
370,3326.8599999999997,0.602691565993351
371,3334.53,0.6190130725529873
372,3342.2200000000003,0.5892751780867036
373,3349.93,0.6164826825944996
374,3357.6499999999996,0.6060903865893356
375,3365.39,0.5638535895582515
376,3373.1499999999996,0.5581860915012472
377,3380.92,0.590725092931283
378,3388.7200000000003,0.6137525928224385
379,3396.5299999999997,0.5924014922006341
380,3404.36,0.6126748905529095
381,3412.2000000000003,0.5927272883922247
382,3420.07,0.6130112846926599
383,3427.96,0.6152994799671749
384,3435.86,0.6233216747287299
385,3443.78,0.5839129684643647
386,3451.72,0.6294450611740794
387,3459.67,0.6033819533708341
388,3467.65,0.6028619440287086
389,3475.64,0.6107254341736231
390,3483.6499999999996,0.6102085232926175
391,3491.69,0.6167399108727316
392,3499.7400000000002,0.5828597979398858
393,3507.7999999999997,0.6162547844940799
394,3515.89,0.5915196695093937
395,3523.9900000000002,0.6168357540117475
396,3532.1200000000003,0.6285942369752212
397,3540.26,0.6391101194257348
398,3548.42,0.6573277008503283
399,3556.6,0.6367816812490017
400,3564.8,0.6429851606217549
401,3568.81,0.5874527549247721
402,3571.5099999999998,0.6861485164255567
403,3574.21,0.5632164779263413
404,3576.91,0.45400753942712596
405,3579.6099999999997,0.7915366009279106
406,3582.3100000000004,0.5399783624286951
407,3585.01,0.4388552239294798
408,3587.71,0.4998649854302644
409,3590.41,0.597892946931049
410,3593.11,0.6081328084318337
411,3595.81,0.44749336993261823
412,3598.5099999999998,0.41502073143340285
413,3601.21,0.6069403929341874
414,3603.9100000000003,0.6333592544349721
415,3606.61,0.5016592159357567
416,3609.31,0.5771028774365413
417,3612.0099999999998,0.6237362389373259
418,3614.71,0.5480411004381106
419,3617.41,0.7123426619388952
420,3620.11,0.7392568234396798
421,3622.8100000000004,0.7490229849404644
422,3625.51,0.720801446441249
423,3628.21,0.7112363079420336
424,3630.91,0.7684114694428182
425,3633.6099999999997,0.6877755309436028
426,3636.31,0.6193474924443875
427,3639.0099999999998,0.642635453945172
428,3641.71,0.5534040154459567
429,3644.4100000000003,0.6868200769467413
430,3647.11,0.6727019384475258
431,3649.81,0.5273076999483105
432,3652.5099999999998,0.5207729614490951
433,3655.21,0.5504376229498796
434,3657.91,0.7421993844506644
435,3660.61,0.6970378459514489
436,3663.3100000000004,0.6266780074522336
437,3666.01,0.6504830689530182
438,3668.71,0.7094175304538027
439,3671.41,0.6613332919545875
440,3674.1099999999997,0.635266053455372
441,3676.81,0.5945280149561566
442,3679.5099999999998,0.6226056764569412
443,3682.21,0.6174998379577258
444,3684.9100000000003,0.6033099994585105
445,3687.61,0.5655520609592951
446,3690.31,0.6164582224600796
447,3693.0099999999998,0.6236605839608643
448,3695.71,0.6084941454616489
449,3698.41,0.7681209069624334
450,3701.11,0.7084752684632182
451,3703.81,0.8005071299640028
452,3706.51,0.6227335914647872
453,3709.21,0.5329779529655719
454,3711.91,0.6644767144663565
455,3714.6099999999997,0.6757721759671412
456,3717.31,0.6994192374679258
457,3720.01,0.8344725989687104
458,3722.71,0.962438160469495
459,3725.4100000000003,0.9576268219702796
460,3728.11,1.1846189834710643
461,3730.81,1.077836844971849
462,3733.5099999999998,0.8878987064726335
463,3736.21,0.7671856679734181
464,3738.91,0.6907292294742027
465,3741.61,0.7037625909749873
466,3744.31,0.7297003524757719
467,3747.01,0.6665000139765564
468,3749.71,0.6412729754773411
469,3752.41,0.5674376369781258
470,3755.1099999999997,0.6638784984789103
471,3757.81,0.846391259979695
472,3760.51,0.9342151214804796
473,3763.21,0.8402153829812642
474,3765.9100000000003,0.7237391444820488
475,3768.61,0.6783405059828334
476,3771.31,0.683762067483618
477,3774.0099999999998,0.9014690289844026
478,3776.7099999999996,0.8096954904851872
479,3779.4100000000003,0.9686831519859719
480,3782.11,0.9673904134867565
481,3784.81,1.0249820749875411
482,3787.51,0.9513046364883257
483,3790.21,0.9055614979891103
484,3792.91,0.7900186594898949
485,3795.6099999999997,0.8732465209906796
486,3798.31,0.6640775824914641
487,3801.01,0.6918106439922488
488,3801.8939600000003,0.7290177191404908
489,3803.71,0.8054573249031116
490,3806.41,0.9137471152618569
491,3809.11,0.9775144056206024
492,3811.81,0.9128851959793478
493,3814.5099999999998,0.9462049863380931
494,3817.2099999999996,0.9679634766968387
495,3819.9100000000003,1.071585467055584
496,3822.61,1.0020013574143294
497,3825.31,1.027350247773075
498,3828.01,0.8281485381318202
499,3830.71,0.7010873284905658
500,3833.41,0.704641918849311
501,3836.1099999999997,0.6904879092080566
502,3838.81,0.693360199566802
503,3841.51,0.8182380899255473
504,3844.21,0.9327036802842927
505,3846.91,0.9853404706430382
506,3849.61,1.0857312610017835
507,3852.31,1.105263151360529
508,3855.0099999999998,1.1581160417192744
509,3857.7099999999996,1.0465939320780198
510,3860.4100000000003,1.0503288224367653
511,3863.11,1.0888187127955107
512,3865.81,1.1925126031542561
513,3868.51,1.1398034935130015
514,3871.21,1.0844373838717467
515,3873.91,1.1082072742304923
516,3876.6099999999997,0.9966135645892378
517,3879.3100000000004,0.9918740549479831
518,3882.01,0.8847329453067286
519,3884.71,0.745780035665474
520,3887.41,0.7461390260242193
521,3890.11,0.6919724163829648
522,3892.81,0.7282580067417102
523,3895.5099999999998,0.8540694971004557
524,3898.2099999999996,0.942826987459201
525,3900.9100000000003,1.0035781778179464
526,3903.61,1.062104068176692
527,3906.31,1.0654789585354374
528,3909.0099999999998,1.1029638488941826
529,3911.71,1.169172739252928
530,3914.41,1.1471266296116736
531,3917.1099999999997,1.083143519970419
532,3919.8100000000004,1.1893504103291643
533,3922.51,1.1608423006879098
534,3925.21,1.1284551910466551
535,3927.91,0.9612093814054006
536,3930.61,0.868430271764146
537,3933.31,0.8230461621228914
538,3936.0099999999998,0.8162240524816369
539,3938.7100000000005,0.9338491428403822
540,3941.4100000000003,1.0351735331991276
541,3944.11,1.075602423557873
542,3946.81,1.1249363139166184
543,3949.5099999999998,1.1106452042753638
544,3952.21,1.1417390946341095
545,3954.91,1.1343429849928548
546,3957.6099999999997,1.0445798753516002
547,3960.3100000000004,0.9367207657103456
548,3963.01,0.837335256069091
549,3965.71,0.6799773464278364
550,3968.41,0.5944511367865818
551,3971.11,0.6337887271453272
552,3973.81,0.6719557175040726
553,3976.5099999999998,0.7826872078628181
554,3979.21,0.9971126982215635
555,3981.9100000000003,1.0193738885803088
556,3984.61,1.0593717789390542
557,3987.31,1.1099976692977997
558,3990.0099999999998,1.129243559656545
559,3992.71,1.1825984500152906
560,3995.41,1.224248340374036
561,3998.11,1.1429582307327812
562,4000.8100000000004,1.1950211210915267
563,4003.51,1.2323620114502722
564,4006.21,1.2974939018090177
565,4008.91,1.352931792167763
566,4011.6099999999997,1.2411946825265083
567,4014.31,1.227406572885254
568,4017.0099999999998,1.3158054632439993
569,4019.71,1.2739403536027447
570,4022.4100000000003,1.2498832439614902
571,4025.11,1.2677641343202355
572,4027.81,1.261516024678981
573,4030.5099999999998,1.1822379150377265
574,4033.21,1.242486805396472
575,4035.91,1.256345695755217
576,4038.61,1.2862185861139626
