,lambda (Angstroms),Total Flux (erg/s/cm^2/Angstrom)
0,102.06,4.635130496267604
1,103.96000000000001,4.621919366153816
2,104.712855,4.616684595551268
3,105.89,4.573690210136582
4,108.11,4.492606287743827
5,110.11999999999999,4.419192475065516
6,113.99,4.2778434894489985
7,118.0,4.131381112061019
8,120.22644299999999,4.050062104632196
9,121.02,4.025762061376154
10,124.99,3.9041937391685773
11,127.02,3.842031597068378
12,127.89999999999999,3.815084484901812
13,130.88,3.723831701882184
14,132.09,3.6867795258904676
15,133.93,3.630435559185893
16,137.05,3.5348959968254414
17,138.038426,3.5046287145988475
18,139.92,3.463445078911931
19,142.85,3.39931707667766
20,146.85,3.3117750547957807
21,150.96,3.2218177672571837
22,154.84,3.136895156975541
23,158.489319,3.0570216060980377
24,159.17000000000002,3.045758384792923
25,162.13000000000002,2.996779569301754
26,165.91000000000003,2.934233215794652
27,170.17000000000002,2.8637436451387126
28,172.93,2.818075207412891
29,176.96,2.7513921541541033
30,179.84,2.703738189591073
31,181.92,2.669321482549441
32,181.970086,2.6684927333531823
33,186.15,2.615729089947458
34,190.92999999999998,2.555391409994275
35,194.03,2.5162607578188223
36,198.10000000000002,2.464885524304501
37,201.78,2.418434646125189
38,205.06,2.3770318922581932
39,208.929613,2.328184538764469
40,209.83,2.319639735828313
41,216.21,2.259101054844836
42,220.23000000000002,2.2209550171553722
43,222.78,2.1967574328198918
44,226.92000000000002,2.157473560925817
45,230.08,2.127550182747732
46,233.82,2.092197693535693
47,239.81,2.0354374196747007
48,239.88329199999998,2.034741724991525
49,245.97,1.9902179864747382
50,252.28,1.9441085805617997
51,256.97,1.9097474211732604
52,259.94,1.8880912404118615
53,264.15999999999997,1.8572587907162041
54,269.08000000000004,1.8212857898013608
55,274.08,1.7847268104643261
56,275.42287,1.7749080242569935
57,279.17,1.7538829844786896
58,283.71,1.7284118325777886
59,290.32,1.691295281226917
60,295.72,1.6610069572139505
61,301.21,1.6301960749857687
62,308.23,1.590810257698913
63,316.227766,1.5459415998215835
64,318.33,1.537134341262528
65,328.0,1.4966089332544712
66,337.97,1.454820256903455
67,348.24,1.4117695967094794
68,357.16999999999996,1.374338392754056
69,363.078055,1.349574924914063
70,366.33,1.3393679686578386
71,374.85999999999996,1.312589321364286
72,385.37,1.2795744011666026
73,395.25,1.248575251215688
74,405.39,1.2167432056581706
75,413.88,1.1900839908040954
76,416.86938299999997,1.1806964206149864
77,421.57,1.169423063018364
78,430.40000000000003,1.1482485179934934
79,441.44000000000005,1.121778170195467
80,450.69,1.0995920918250193
81,460.11999999999995,1.0769760290350385
82,469.76,1.0538579606222689
83,478.630092,1.032587687546521
84,479.59000000000003,1.0308172971495877
85,489.64,1.012271630120027
86,499.89,0.9933702943734598
87,505.68,0.9826861553161307
88,511.53,0.9719203358436997
89,519.85,0.9565750001162424
90,529.51,0.9387514486848436
91,540.6,0.9182840078268506
92,549.38,0.9020920084502791
93,549.5408739999999,0.9017955069117743
94,559.6,0.8876548642152041
95,570.0,0.8730307273911765
96,580.6,0.858105255099379
97,590.03,0.8448483970340349
98,599.62,0.8313424636744748
99,609.36,0.8175930014140875
100,620.6899999999999,0.8017241209049306
101,629.32,0.7895812679106652
102,630.957344,0.7872784433459861
103,639.55,0.777698627689458
104,649.9399999999999,0.7661178585192684
105,657.47,0.7577177496929425
106,665.0799999999999,0.7492474748157392
107,674.33,0.7389351670455512
108,685.2900000000001,0.7266924454753608
109,694.82,0.7161159581771024
110,704.49,0.7053018122648086
111,715.94,0.6925923236454948
112,724.43596,0.6831277176782488
113,725.9,0.6819175036570493
114,734.3,0.6749775224151887
115,744.5200000000001,0.6665415726792582
116,754.87,0.6579916496794657
117,765.38,0.6492671880703044
118,774.2400000000001,0.6420090337640083
119,785.01,0.6331033998271228
120,794.0999999999999,0.6256161615386095
121,805.15,0.6165018914103285
122,814.47,0.6088123012395973
123,825.8,0.599484074619921
124,831.763771,0.5944710447271496
125,835.36,0.5921998624849864
126,845.03,0.5863804714593729
127,854.82,0.5803443331574333
128,864.7199999999999,0.5742805111105281
129,874.7299999999999,0.5681415693186574
130,884.8599999999999,0.5619339133504604
131,895.1099999999999,0.5556433952059374
132,905.47,0.5492479083164487
133,915.9599999999999,0.5431123768192735
134,924.43,0.5437628304569212
135,935.14,0.5453033774698146
136,945.96,0.5518082667377424
137,954.72,0.5579338468659355
138,954.992586,0.5578869422984166
139,965.77,0.5561764891973898
140,974.71,0.5136425438519865
141,985.99,0.5363882805034236
142,995.12,0.5332881513799858
143,1004.3299999999999,0.5465902720342178
144,1015.95,0.5379451522407515
145,1025.3600000000001,0.5007151573391577
146,1034.8400000000001,0.5098970659930253
147,1044.4199999999998,0.5404269968689801
148,1054.08,0.5331701675226044
149,1063.8400000000001,0.511249370398316
150,1076.15,0.5154025399372515
151,1086.11,0.49442118725713763
152,1096.16,0.507174120576902
153,1096.4782,0.5068534218225835
154,1103.76,0.5003134263017548
155,1113.97,0.4923199892861665
156,1124.28,0.4799566068737556
157,1134.68,0.4921421456042042
158,1145.1799999999998,0.4799498089378304
159,1155.78,0.47916443687463384
160,1163.79,0.47753104858914286
161,1174.56,0.4470258653513479
162,1185.43,0.4644673867167302
163,1193.6399999999999,0.43744459763759413
164,1204.69,0.41737519128869577
165,1215.83,0.40010871608265725
166,1224.26,0.4220192231305114
167,1235.59,0.4426766036705097
168,1244.15,0.4459457357024943
169,1255.67,0.4364915619885299
170,1258.92541,0.43077239800919465
171,1264.37,0.42198206481749356
172,1276.07,0.43838866629799034
173,1284.9099999999999,0.43966324008325464
174,1293.82,0.4160650998260944
175,1305.79,0.4113034485715258
176,1314.84,0.4273045302295169
177,1323.96,0.4197643378450836
178,1336.2099999999998,0.4052885604208175
179,1345.47,0.4171455099515354
180,1354.8,0.410785075439829
181,1364.19,0.3976832403203303
182,1373.64,0.3984923045930392
183,1386.3500000000001,0.3948141591756985
184,1395.96,0.3783915584942946
185,1405.6399999999999,0.3774487437704664
186,1415.3799999999999,0.37806822843884574
187,1425.2,0.3765110656301687
188,1435.07,0.3730252556483314
189,1441.6999999999998,0.3752561484872796
190,1445.43977,0.3746291695624594
191,1448.35,0.3744518021612654
192,1455.04,0.3701488845484152
193,1465.1200000000001,0.361093024423224
194,1475.28,0.35877170326529323
195,1485.51,0.3577523474537152
196,1495.8,0.3565543533675825
197,1506.17,0.3493119782487102
198,1513.1200000000001,0.33916529477945634
199,1516.61,0.34318061847619075
200,1523.61,0.3393963831114747
201,1534.17,0.32702229678984573
202,1544.8100000000002,0.3291082094354772
203,1555.52,0.32309003742746156
204,1566.3,0.3227152507657988
205,1573.53,0.3255777286819563
206,1584.44,0.3262766390920916
207,1595.4199999999998,0.32514545484857976
208,1606.48,0.32084099957232826
209,1613.89,0.3191874126648216
210,1625.0800000000002,0.3128641144603682
211,1636.34,0.3146998716022678
212,1643.9,0.31389947900837434
213,1655.2900000000002,0.305911403222072
214,1659.58691,0.30712616243692425
215,1666.77,0.30968766568892
216,1670.61,0.30081078892054813
217,1678.3200000000002,0.30860175314342664
218,1686.0700000000002,0.310053927712468
219,1693.8500000000001,0.3039334300411314
220,1705.59,0.29910630663991145
221,1713.46,0.29373486224744105
222,1725.34,0.29135731505779083
223,1733.3000000000002,0.2946628439441868
224,1745.32,0.2908808729661064
225,1753.37,0.29400929513136864
226,1765.53,0.286052250364858
227,1773.68,0.2858121983955272
228,1785.97,0.2852214572540456
229,1794.22,0.2883991511501218
230,1806.6499999999999,0.28570710622021006
231,1814.99,0.27834102339515254
232,1823.37,0.2784169909162579
233,1836.0099999999998,0.27354628030370076
234,1844.48,0.2663889111036723
235,1853.0,0.26552620483634737
236,1865.84,0.26532932595460423
237,1874.45,0.2689128729661456
238,1883.1000000000001,0.26172020032384974
239,1896.16,0.2570072783460019
240,1904.9099999999999,0.2593742515691131
241,1905.46072,0.2591220521061859
242,1913.7,0.2557291873374237
243,1926.97,0.2523774175714575
244,1935.8600000000001,0.25307778225725697
245,1944.8,0.25542508755433774
246,1953.77,0.24973939521818722
247,1967.32,0.25421559087539575
248,1976.4,0.25491560388406387
249,1985.52,0.25027076338175697
250,1994.69,0.24734769349073127
251,2003.89,0.24794549596647425
252,2013.1399999999999,0.24485483905349859
253,2027.1,0.24549532372321303
254,2036.4499999999998,0.24127605803279972
255,2045.85,0.2426339429536676
256,2055.2999999999997,0.23719052848581673
257,2064.7799999999997,0.23675775638473456
258,2074.31,0.24117206489493362
259,2079.1,0.2398995794556737
260,2083.89,0.24320517401641384
261,2093.51,0.23774468962691903
262,2103.17,0.23668709172644925
263,2112.88,0.23679151443726065
264,2122.63,0.23555758363709706
265,2137.34,0.22913245747602967
266,2147.21,0.23061829614294097
267,2157.12,0.23186816129887722
268,2167.08,0.22745005706609472
269,2177.08,0.22602178932233713
270,2187.13,0.22523779218986079
271,2187.7616199999998,0.22532450249562713
272,2197.22,0.22701024486189159
273,2207.37,0.22413393064443915
274,2212.45,0.21892220532181272
275,2222.67,0.21728187610975713
276,2232.93,0.2221100511864998
277,2243.23,0.21847446055204064
278,2253.59,0.21298133135077885
279,2263.99,0.2129859464383153
280,2274.44,0.21423038938684946
281,2284.94,0.2168349601963814
282,2295.48,0.21089379529471158
283,2306.08,0.21214006182623912
284,2316.72,0.20727122264656483
285,2327.42,0.19411532490008784
286,2332.78,0.19958185959904892
287,2343.55,0.19542311685796887
288,2354.37,0.20157277197788656
289,2365.2400000000002,0.19355959495880198
290,2376.15,0.1951919722285157
291,2387.12,0.1886288009314267
292,2392.62,0.19171094564118157
293,2403.67,0.18889309292168902
294,2414.7599999999998,0.1898081544909947
295,2425.91,0.19527957749349767
296,2437.11,0.1925042083569984
297,2442.72,0.19613987236094838
298,2454.0,0.19517048180204555
299,2465.33,0.1921733591041405
300,2476.71,0.18841687426723325
301,2482.41,0.18579583042097916
302,2493.87,0.18163371416166832
303,2505.3900000000003,0.19060419933555478
304,2511.16,0.17844609049469762
305,2511.88643,0.17842877264232143
306,2516.95,0.1784186048501029
307,2522.7500000000005,0.176974560254463
308,2534.4,0.17913690050632428
309,2546.0899999999997,0.17813946831269842
310,2557.85,0.18536384933946992
311,2563.74,0.18059387174148395
312,2575.58,0.18436934787728115
313,2587.4700000000003,0.18177857345621937
314,2593.43,0.17948850907863084
315,2605.4,0.17597209976659473
316,2617.43,0.17368976178632786
317,2623.46,0.17783214062913674
318,2635.5699999999997,0.18510350775789558
319,2647.73,0.19400436432979537
320,2653.84,0.2017367582816299
321,2666.0899999999997,0.18580015185118365
322,2672.23,0.1903534614689028
323,2684.57,0.19216600203611034
324,2696.96,0.18334236204645893
325,2703.18,0.1881949767732038
326,2715.65,0.179051631892578
327,2721.92,0.17627706606246388
328,2734.48,0.18046099817949202
329,2747.1,0.16537597162828938
330,2753.43,0.16922697712994447
331,2766.1400000000003,0.17373117757639567
332,2772.52,0.17662070252119183
333,2785.32,0.16572656996529692
334,2798.1699999999996,0.15151006685254306
335,2804.62,0.1543017950177366
336,2817.5699999999997,0.17087049079126487
337,2824.06,0.18111545651097122
338,2837.1000000000004,0.17807840928215327
339,2843.64,0.17221035444500077
340,2856.7599999999998,0.16153896232520848
341,2863.35,0.17980321693119694
342,2876.57,0.18437300369768672
343,2883.2000000000003,0.18029283585818803
344,2884.0315,0.1804676728683221
345,2896.5099999999998,0.1833254009158276
346,2909.88,0.1964734886021191
347,2930.05,0.1886089975424707
348,2950.36,0.1848935772439353
349,2970.81,0.18777082770651285
350,2991.4,0.18703812893020344
351,3012.14,0.18837915025508653
352,3033.0099999999998,0.1884877230010031
353,3047.01,0.1895687091123031
354,3068.13,0.19079942536020722
355,3089.4,0.1904979017093038
356,3110.82,0.19339274815959287
357,3132.38,0.18943509537099495
358,3146.84,0.188325011125952
359,3168.65,0.19098658183934158
360,3190.6200000000003,0.18130299199400313
361,3212.7299999999996,0.18736039290977777
362,3227.56,0.1764827142476763
363,3249.93,0.1920409180055179
364,3272.46,0.20068998120463147
365,3287.56,0.19814658472467653
366,3310.3500000000004,0.1952914307658571
367,3311.31121,0.19526374512742145
368,3325.63,0.19503954250810426
369,3333.3,0.19899410828814923
370,3340.99,0.19249473564780323
371,3348.69,0.2062285437972617
372,3356.4100000000003,0.19986031352632916
373,3364.14,0.17515685404520112
374,3371.9,0.17885666693348656
375,3379.67,0.19937763061157646
376,3387.46,0.19670046586927536
377,3395.2700000000004,0.1909822627065832
378,3403.1,0.2070555211235001
379,3410.94,0.19021886033022145
380,3418.81,0.18845404190635628
381,3426.69,0.1948834042722956
382,3434.59,0.20602762821784393
383,3442.5,0.1864435329531967
384,3450.44,0.192012980057963
385,3458.39,0.19572440795253376
386,3466.37,0.19045857821651802
387,3474.36,0.1982069292703067
388,3482.3700000000003,0.1914905419037044
389,3490.39,0.19713113532690663
390,3498.44,0.1831541711195223
391,3506.5099999999998,0.20051246849174698
392,3514.59,0.1883752466537761
393,3522.69,0.19913808639541425
394,3530.81,0.18481108771666138
395,3538.9500000000003,0.20003075061751746
396,3547.11,0.20470607509798255
397,3555.29,0.19949766115805664
398,3563.48,0.1972490280079352
399,3571.7,0.18199423722722724
400,3579.93,0.18548192723632378
401,3588.1800000000003,0.16639679882502925
402,3596.45,0.18936339199334376
403,3604.75,0.19902594753107172
404,3613.0499999999997,0.17942700306879972
405,3621.38,0.1789136009759411
406,3625.1499999999996,0.19635345873223445
407,3627.9,0.19378027592846958
408,3630.64,0.19194231233490028
409,3633.38,0.18829714874133097
410,3636.12,0.19369918514776163
411,3638.8700000000003,0.19622000234399678
412,3641.61,0.1937043387504275
413,3644.35,0.20197527515685815
414,3647.1,0.19623959235309335
415,3649.8399999999997,0.19106962875952402
416,3652.5800000000004,0.1956358651659547
417,3655.32,0.19889190157238534
418,3658.0699999999997,0.20454141876862053
419,3660.81,0.2140208551750512
420,3663.5499999999997,0.21322209158148192
421,3666.3,0.20852540877771705
422,3669.04,0.20833654518414774
423,3671.78,0.2077522815905784
424,3674.52,0.20803781799700907
425,3677.2700000000004,0.20712493519324424
426,3680.01,0.20266657159967494
427,3682.75,0.20225180800610565
428,3685.5,0.2031913252023408
429,3688.24,0.20776886160877145
430,3690.98,0.20533229801520214
431,3693.72,0.21592993442163283
432,3696.4700000000003,0.20121475161786798
433,3699.21,0.20094678802429866
434,3701.95,0.20280232443072935
435,3704.7000000000003,0.19919004162696452
436,3707.44,0.19604187803339518
437,3710.1800000000003,0.20390611443982587
438,3712.93,0.20510543163606104
439,3715.6699999999996,0.21193066804249172
440,3718.41,0.20498740444892238
441,3721.1499999999996,0.2113947408553531
442,3723.9,0.21946125805158823
443,3726.64,0.23300689445801892
444,3729.38,0.2364098308644496
445,3732.13,0.21517744806068478
446,3734.8700000000003,0.19199228446711547
447,3737.61,0.18099872087354613
448,3740.35,0.18654305727997683
449,3743.1,0.189967574476212
450,3745.8399999999997,0.18355511088264265
451,3748.5800000000004,0.18716124728907332
452,3751.33,0.19426786448530853
453,3754.0699999999997,0.1995004008917392
454,3756.81,0.2032082372981699
455,3759.5499999999997,0.20368577370460056
456,3762.3,0.20119159090083572
457,3765.04,0.2047526273072664
458,3767.78,0.20600946371369708
459,3770.53,0.20432858090993222
460,3773.2700000000004,0.20111261731636287
461,3776.01,0.21986515372279358
462,3778.75,0.2253575901292243
463,3781.5,0.23202360732545943
464,3784.24,0.22654874373189013
465,3786.9799999999996,0.2228809801383208
466,3789.73,0.21118159733455596
467,3792.47,0.20205843374098667
468,3795.21,0.2007174701474173
469,3797.95,0.20020100655384804
470,3800.7000000000003,0.20395302375008317
471,3801.8939600000003,0.2076013717675369
472,3803.44,0.21233987346683278
473,3806.1800000000003,0.22042157692086495
474,3808.93,0.2174446537451674
475,3811.6699999999996,0.21300035719919957
476,3814.41,0.2095387606532318
477,3817.15,0.20525256410726397
478,3819.9,0.2002539409315664
479,3822.64,0.1938781443855986
480,3825.38,0.18788644783963082
481,3828.13,0.1763719246639332
482,3830.87,0.1725713281179654
483,3833.61,0.16586126157199763
484,3836.35,0.16859813502602983
485,3839.1,0.17579241185033223
486,3841.84,0.18604491530436443
487,3844.5800000000004,0.19385551875839663
488,3847.33,0.20198149558269904
489,3850.0699999999997,0.20656179903673125
490,3852.81,0.21346880249076344
491,3855.5499999999997,0.20447270594479566
492,3858.3,0.20317868276909806
493,3861.04,0.20903528622313025
494,3863.78,0.21191008967716246
495,3866.53,0.21303316650146487
496,3869.2700000000004,0.21211286995549705
497,3872.01,0.21094417340952926
498,3874.7599999999998,0.2086223502338317
499,3877.5,0.20509295368786387
500,3880.24,0.20252355714189607
501,3882.9799999999996,0.19907326059592828
502,3885.73,0.19953003742023068
503,3888.47,0.2034890408742629
504,3891.21,0.20539244432829512
505,3893.96,0.21229852115259748
506,3896.7000000000003,0.22178082460662968
507,3899.44,0.2229048280606619
508,3902.1800000000003,0.2226171315146941
509,3904.93,0.21898510833899654
510,3907.6699999999996,0.2205045117930287
511,3910.4100000000003,0.22933161524706092
512,3913.16,0.23187779207136333
513,3915.9,0.2287889955253955
514,3918.64,0.22645679897942772
515,3921.3799999999997,0.21414010243345993
516,3924.13,0.20685977925776233
517,3926.87,0.19476888271179454
518,3929.61,0.18040768616582675
519,3932.3599999999997,0.16663526299012915
520,3935.1000000000004,0.16555686644416134
521,3937.84,0.17928366989819355
522,3940.5800000000004,0.18907077335222577
523,3943.33,0.20029155017652817
524,3946.0699999999997,0.21320745363056037
525,3948.81,0.2241354570845926
526,3951.56,0.22373373390889498
527,3954.3,0.22074653736292715
528,3957.04,0.2120102408169594
529,3959.7799999999997,0.20705764427099158
530,3962.53,0.194796421095294
531,3965.27,0.1807288245493262
532,3968.01,0.1676519280033584
533,3970.7599999999998,0.1696539048276608
534,3973.5,0.182688308281693
535,3976.24,0.20713621173572522
536,3978.9799999999996,0.21877581518975742
537,3981.73,0.2346160920140598
538,3984.47,0.24687689546809202
539,3987.21,0.2534789989221242
540,3989.96,0.25358547574642665
541,3992.7000000000003,0.2574089792004588
542,3995.44,0.26019348265449105
543,3998.1800000000003,0.2606851861085232
544,4000.93,0.26213566293282564
545,4003.6699999999996,0.25779306638685784
546,4006.4100000000003,0.26046456984089006
547,4009.16,0.26498724666519247
548,4011.9,0.26428165011922466
549,4014.64,0.26872655357325687
550,4017.3799999999997,0.27248235702728907
551,4020.13,0.27371823385159144
552,4022.87,0.27092303730562367
553,4025.61,0.26957364075965584
554,4028.36,0.2678276175839583
555,4031.1000000000004,0.26141812103799045
556,4033.84,0.2589505244920227
557,4036.5899999999997,0.2636652013163251
558,4039.33,0.26443930477035726
559,4042.0699999999997,0.26136170822438953
560,4044.81,0.2562624116784217
561,4047.56,0.2534095885027241
562,4050.3,0.2611863919567563
563,4053.04,0.2647953954107885
564,4055.7900000000004,0.2556851722350909
565,4058.53,0.2558492756891231
566,4061.27,0.2570637791431553
567,4064.01,0.2517159825971875
568,4066.7599999999998,0.2549849594214899
569,4069.5,0.2575435628755221
570,4072.24,0.25865636632955435
571,4074.99,0.25941784315385674
572,4077.73,0.25967234660788896
573,4080.47,0.26173395006192113
574,4083.21,0.26651755351595335
575,4085.96,0.26825043034025575
576,4088.7000000000003,0.26609913379428796
577,4091.44,0.26467063724832013
578,4094.1899999999996,0.2595023140726226
579,4096.929999999999,0.2502352175266548
580,4099.67,0.24607342098068696
581,4102.41,0.2470506244347192
582,4105.16,0.2474959012590216
583,4107.9,0.2530928047130538
584,4110.639999999999,0.259401308167086
585,4113.39,0.2644322849913884
586,4116.13,0.2663018884454206
587,4118.87,0.2655849918994528
588,4121.61,0.265139095353485
589,4124.360000000001,0.2630882721777874
