,lambda (Angstroms),Total Flux (erg/s/cm^2/Angstrom)
0,102.03,0.01264587535145295
1,103.92,0.014785115231458784
2,104.712855,0.015682526362357507
3,106.1,0.014372489439208188
4,108.07000000000001,0.012511997040297783
5,110.08,0.01061372818133884
6,113.95,0.0069588522978681604
7,117.95,0.003181202834849899
8,120.22644299999999,0.001031302424845453
9,120.97999999999999,0.0009983725870915936
10,124.94,0.0008253233295189894
11,126.97,0.0007366138059146091
12,128.15,0.0006850486704435602
13,131.13,0.0005548250051306921
14,132.04,0.0005150590251538666
15,133.88,0.0004346526826323839
16,137.0,0.0002983119706636958
17,138.038426,0.00025293390505608655
18,139.86,0.0002501235792928315
19,143.12,0.0002450984589824292
20,147.13,0.00023892111721621963
21,150.91,0.00023309566374847085
22,155.13,0.00022659388142627523
23,158.489319,0.0002214212669944959
24,159.11,0.00021995164578487983
25,162.07,0.00021294575482857692
26,165.85,0.00020400357920005493
27,170.1,0.00019395133362806586
28,172.87,0.0001874062667442283
29,176.89,0.0001779101907362764
30,180.18,0.00017014093403200717
31,181.85,0.00016620561344139035
32,181.970086,0.00016592241949373612
33,186.07999999999998,0.00016911242821137222
34,190.85999999999999,0.00017284347177974165
35,193.96,0.00017526974683705238
36,198.02,0.00017845871367211093
37,202.17,0.00018173072064883326
38,204.98,0.00018396380756078266
39,208.929613,0.00018708731068833683
40,210.24,0.00019319616412535268
41,216.13,0.0002207645290955099
42,220.14,0.00023954391713733168
43,223.21,0.00025392344191498586
44,226.82999999999998,0.000270943623059972
45,229.98999999999998,0.0002866466063522805
46,234.27,0.00030864341293806557
47,239.88329199999998,0.0003365542178885953
48,240.27,0.00033520875731250853
49,245.87,0.00031461165625023424
50,252.18,0.0002919877682068501
51,256.87,0.0002735075180921954
52,259.84,0.00026416291388952495
53,264.06,0.00024937973439616816
54,268.97,0.00023185228211835253
55,273.97,0.0002140044729556076
56,275.42287,0.00020882358692301582
57,279.07,0.0002246049368791744
58,284.25,0.00024715371168615067
59,290.21000000000004,0.0002724178075644479
60,296.28000000000003,0.00029936955128613617
61,301.1,0.0003199712940601951
62,308.11,0.0003511947075345008
63,316.227766,0.0003875402118637646
64,318.21000000000004,0.0003824188824903192
65,327.86999999999995,0.0003572909636326704
66,337.84000000000003,0.00033123237880753963
67,348.1,0.00030446978356121675
68,357.03,0.00028160123714312103
69,363.078055,0.00026629026884964315
70,366.19,0.00027495271535065216
71,374.71999999999997,0.0002985527798034153
72,385.22,0.0003259128212634406
73,395.1,0.0003548125129039214
74,405.23999999999995,0.00038314982511388824
75,413.71999999999997,0.00040688462522636584
76,416.86938299999997,0.00041539575631768534
77,422.38,0.0004251522711931029
78,430.24,0.0004393400559358487
79,441.27,0.00046011481011046506
80,450.51,0.00047719889400651733
81,459.95,0.0004939645589392807
82,469.58,0.0005115695558569195
83,478.630092,0.0005279931174206784
84,480.52,0.0005253169540734055
85,489.45000000000005,0.0005123472281668266
86,499.7,0.0004985180832012688
87,505.48,0.0004936368355036175
88,512.52,0.0005074846805223953
89,519.65,0.0004985916678780607
90,530.53,0.0004839691192707173
91,540.39,0.00046725629084531223
92,549.5408739999999,0.0004655700056802606
93,550.44,0.00046651591476363694
94,559.38,0.0004783420100925902
95,569.78,0.0004856166346363389
96,580.37,0.0004806551136669444
97,589.8,0.0004945097968830551
98,599.39,0.0004943424312459925
99,610.5300000000001,0.0005003130048438156
100,620.45,0.0005285190759470836
101,630.53,0.0005371123981971785
102,630.957344,0.0005374088984174278
103,639.3,0.0005548825691553678
104,649.6899999999999,0.0005872221868619044
105,658.73,0.000607196141151326
106,664.83,0.0006325424795545863
107,675.63,0.000656113086891506
108,685.03,0.000666209824758825
109,694.5600000000001,0.0007364404983626069
110,704.22,0.0007363372077028518
111,715.6600000000001,0.000815095752511589
112,724.43596,0.0008436849803441042
113,725.62,0.0008471318084586166
114,735.7099999999999,0.0008749137835438231
115,744.23,0.0009282723524958508
116,754.5799999999999,0.0009694486827368704
117,765.08,0.0010037899409523975
118,775.73,0.0010686770271424323
119,784.71,0.0011275666552162831
120,795.6199999999999,0.0011726458965621307
121,804.84,0.0012190093293951935
122,814.16,0.0012614400142112615
123,825.48,0.0013436863386874299
124,831.763771,0.0012865493693125806
125,835.04,0.0012519926301046763
126,844.71,0.001414958631556659
127,854.49,0.0014546749174098536
128,864.39,0.0015261315135189153
129,874.4000000000001,0.0015977033940291893
130,884.52,0.0016872755589406748
131,894.76,0.0017577640341080278
132,905.12,0.001787883819531248
133,915.6,0.0025133939152103355
134,924.08,0.0137191338399583
135,934.7800000000001,0.029799801504439814
136,945.6,0.058903369479177195
137,954.35,0.08251509210200086
138,954.992586,0.08361601862064807
139,965.4,0.10145552044727954
140,974.33,0.022597872631674197
141,985.62,0.10744743276177675
142,994.7400000000001,0.1081892949926479
143,1003.9399999999999,0.13930154461150915
144,1015.5699999999999,0.12735481114056962
145,1024.96,0.05143345080590735
146,1034.45,0.09959639470623272
147,1044.02,0.17610442599454817
148,1056.11,0.17813652000455169
149,1065.88,0.1537637797628424
150,1075.74,0.17813702533262196
151,1085.7,0.15305335513738913
152,1095.74,0.1873830723301464
153,1096.4782,0.18707287555243055
154,1105.88,0.18311901695101268
155,1116.1100000000001,0.18269936930178166
156,1123.85,0.17010935025925494
157,1134.25,0.20074041872924492
158,1144.74,0.18692534279176365
159,1155.34,0.1966172125784842
160,1166.03,0.2049234379577335
161,1174.1100000000001,0.15838075115364877
162,1184.97,0.19934589265211905
163,1195.94,0.14987147987479119
164,1204.23,0.11557258945327355
165,1215.3700000000001,0.06087333279516664
166,1223.79,0.1345053382295239
167,1235.12,0.19794654782231105
168,1243.68,0.2210469241783797
169,1255.1899999999998,0.21952694495622438
170,1258.92541,0.2094746162850163
171,1263.89,0.1961170760830164
172,1275.5800000000002,0.24069708635972695
173,1284.42,0.2520263966117476
174,1296.31,0.21952541390773458
175,1305.29,0.21701542907324875
176,1314.34,0.2555311466955097
177,1326.5,0.24971887346751998
178,1335.7,0.23252879635423826
179,1344.96,0.26147642134673954
180,1354.28,0.2573059484450237
181,1363.6699999999998,0.24013367800005467
182,1376.28,0.24972092056543702
183,1385.8200000000002,0.2549442553849253
184,1395.43,0.23253279266116045
185,1405.1,0.2412479320431785
186,1414.84,0.24686377388194328
187,1424.65,0.25029701817745487
188,1434.52,0.25029906457874934
189,1441.1499999999999,0.26208529726776486
190,1445.43977,0.2640401637711432
191,1447.8,0.2651157173461873
192,1454.48,0.2614827141124913
193,1464.56,0.24914591102930939
194,1474.7099999999998,0.2485844100080498
195,1484.9399999999998,0.2514537113432729
196,1495.2299999999998,0.25553851444585796
197,1505.59,0.2485836196103654
198,1512.54,0.2298664243297985
199,1516.03,0.24181612713135556
200,1526.5400000000002,0.23684923671426802
201,1533.58,0.2165187440847441
202,1544.22,0.23307065749694095
203,1554.9199999999998,0.2225939726764998
204,1565.6999999999998,0.22568189021254131
205,1576.55,0.2390471098105052
206,1583.83,0.24800702425042934
207,1594.8100000000002,0.25494724767767757
208,1605.8600000000001,0.24800837316684815
209,1613.27,0.24914969143605667
210,1624.46,0.23959542104907194
211,1635.72,0.25145595272400956
212,1643.27,0.25554077511706275
213,1654.66,0.23904801062128478
214,1659.58691,0.24817153019881588
215,1666.13,0.2602890632450195
216,1673.82,0.237952917455515
217,1677.68,0.2639142477874412
218,1685.42,0.27256011275353154
219,1693.2,0.2597044863240978
220,1704.94,0.2537908117377801
221,1716.75,0.24916405220929527
222,1724.68,0.24859995804664625
223,1736.63,0.2627183286338271
224,1744.65,0.2579257538312489
225,1756.74,0.27319825453409546
226,1764.8500000000001,0.2514815990915881
227,1773.0000000000002,0.26333015225355666
228,1785.29,0.2663765959787828
229,1793.5300000000002,0.2827993685008222
230,1805.96,0.2802062423417141
231,1814.3000000000002,0.2694707363749433
232,1826.87,0.27071574033150086
233,1835.3,0.26455745372480083
234,1843.78,0.2457811778736957
235,1856.56,0.2509219270037519
236,1865.1200000000001,0.26033646836159857
237,1873.73,0.2726028204750402
238,1886.72,0.25914221477859495
239,1895.4299999999998,0.2544235884032264
240,1904.18,0.2633588706323337
241,1905.46072,0.2629198402291923
242,1912.97,0.2603419639450464
243,1926.2299999999998,0.2561819871906348
244,1935.12,0.2532481221569455
245,1944.05,0.2751083460319911
246,1953.03,0.2639516560429551
247,1966.56,0.28345990442250346
248,1975.6399999999999,0.28739428670530454
249,1984.7600000000002,0.2776514578968404
250,1993.92,0.27194891799711113
251,2003.12,0.27383946700611667
252,2017.01,0.2707026155642782
253,2026.3200000000002,0.2744518340723044
254,2035.67,0.2731933414890655
255,2045.07,0.282786635041745
256,2054.5099999999998,0.27318721750315933
257,2063.99,0.2744421888733085
258,2073.52,0.29270804637937614
259,2078.2999999999997,0.29136282097318555
260,2083.09,0.2967738927941786
261,2092.7000000000003,0.28473802811771587
262,2107.21,0.28406750476126696
263,2116.94,0.2886814068110086
264,2126.71,0.2913498977694851
265,2136.52,0.27191067763669646
266,2146.39,0.28537034086700996
267,2156.29,0.29134299577887457
268,2166.25,0.28080443405384137
269,2176.25,0.28015336123754303
270,2186.29,0.28404767732997943
271,2187.7616199999998,0.28600016298104874
272,2196.38,0.29743897458143265
273,2206.52,0.2886682162775639
274,2216.71,0.2737907690274236
275,2226.94,0.27066213062026606
276,2237.2200000000003,0.29404220326683694
277,2247.54,0.2814614847563906
278,2252.72,0.26880722992265876
279,2263.1200000000003,0.271291729098178
280,2273.57,0.28081833932742567
281,2284.06,0.2920476583996561
282,2294.61,0.27647939073636063
283,2305.2,0.28306193191604795
284,2315.84,0.2748529841494638
285,2326.53,0.229803047436608
286,2337.2599999999998,0.25558021956673505
287,2342.65,0.23804801115866278
288,2353.47,0.270285503185501
289,2364.33,0.24158720405532202
290,2375.2400000000002,0.2566133159788715
291,2386.21,0.2277808411668951
292,2397.22,0.24531747519790148
293,2402.75,0.23924309774026892
294,2413.8399999999997,0.24549304945724082
295,2424.98,0.2711684122279412
296,2436.17,0.26330738605237003
297,2447.42,0.279687273141273
298,2453.06,0.277826320001843
299,2464.38,0.2754198225659658
300,2475.7599999999998,0.2631715383945628
301,2487.18,0.26269856306614253
302,2492.92,0.25385303203416953
303,2504.42,0.2889079743917148
304,2510.2000000000003,0.24827195220272447
305,2511.88643,0.2468074359116902
306,2515.98,0.24325127477678887
307,2527.6,0.23728888055008182
308,2533.42,0.24568808258111155
309,2545.1200000000003,0.24750358150947022
310,2556.87,0.2746463761597449
311,2562.76,0.26357877220145715
312,2574.59,0.28255386000679755
313,2586.4700000000003,0.2794646435340541
314,2592.4399999999996,0.275076132730832
315,2604.4,0.26344600941315416
316,2616.42,0.2569942809617757
317,2622.4500000000003,0.2792608650248528
318,2634.5600000000004,0.29937562887292324
319,2646.7200000000003,0.3376149884429097
320,2652.82,0.3577026665166694
321,2665.07,0.31606631838610466
322,2677.37,0.3334266659774561
323,2683.54,0.3420707380618983
324,2695.9300000000003,0.3143187779526986
325,2702.14,0.3314912466146736
326,2714.61,0.30459277966053966
327,2727.1400000000003,0.30057880757270494
328,2733.43,0.32141646938974566
329,2746.0499999999997,0.2662895896013599
330,2752.3799999999997,0.28343284799593343
331,2765.08,0.3038660613626134
332,2777.8399999999997,0.32056176959559257
333,2784.25,0.2864455211452318
334,2797.1000000000004,0.20912632167765993
335,2803.55,0.22828956980483203
336,2816.49,0.31961946263670904
337,2822.98,0.34972120734141404
338,2836.0099999999998,0.34039819247274
339,2842.5499999999997,0.32218633289936094
340,2855.67,0.2926748103301358
341,2862.25,0.34791434733428966
342,2875.46,0.36116031706451346
343,2882.09,0.35713344979058337
344,2884.0315,0.358011013796551
345,2895.4,0.36315056376589677
346,2908.76,0.41143444037201526
347,2928.92,0.3923736050710683
348,2949.23,0.38466636950746547
349,2969.6699999999996,0.3957791337162275
350,2990.25,0.40071519767984415
351,3010.9799999999996,0.4075964613808049
352,3031.85,0.4136286248366202
353,3052.87,0.4216952880297796
354,3066.96,0.4307873633576396
355,3088.22,0.43515922613054975
356,3109.6200000000003,0.4457098886583143
357,3131.1800000000003,0.4359681509059126
358,3152.88,0.4404113129083656
359,3167.44,0.4540623874132372
360,3189.39,0.42710684897793033
361,3211.5,0.4497200102624572
362,3226.3199999999997,0.42289288431205874
363,3248.69,0.47492924514131546
364,3271.21,0.5081912057079163
365,3286.31,0.5061837792672268
366,3309.09,0.5031812393785575
367,3311.31121,0.5009063935227278
368,3324.36,0.48754209870540466
369,3332.02,0.5025213423012972
370,3339.7,0.4637754852277274
371,3347.3999999999996,0.5301821274846952
372,3355.12,0.5111770690722005
373,3362.85,0.4495155103249746
374,3370.61,0.46545855057355506
375,3378.38,0.5000484904874043
376,3386.16,0.5002100300665224
377,3393.9700000000003,0.5038435686414469
378,3401.79,0.56418050688164
379,3409.64,0.4972629441176396
380,3417.5,0.483871281018908
381,3425.37,0.5258523175854452
382,3433.27,0.5741044531477886
383,3441.18,0.5166017883754009
384,3449.12,0.49580402259881967
385,3457.0699999999997,0.5122110564875071
386,3465.04,0.48708708970673215
387,3473.02,0.544162322591226
388,3481.0299999999997,0.5033810544715263
389,3489.06,0.543277885682364
390,3497.1000000000004,0.5025572165584705
391,3505.16,0.5486766467651147
392,3513.2400000000002,0.5157887763022965
393,3521.34,0.5657319051700158
394,3529.46,0.47728673336827265
395,3537.5899999999997,0.5570750612317984
396,3545.7499999999995,0.5689215880911304
397,3553.92,0.5850684146157312
398,3562.12,0.5563650401361384
399,3570.33,0.4960446653218144
400,3578.56,0.5066095898380281
401,3586.8100000000004,0.45903111368477917
402,3595.08,0.5259731368620679
403,3603.3599999999997,0.5903495597046254
404,3611.67,0.5073150815429893
405,3620.0,0.5628712027118907
406,3628.3399999999997,0.6061212235460609
407,3636.7,0.5317738437107687
408,3645.09,0.6093362628712831
409,3653.49,0.561082281697066
410,3661.91,0.6563833998533866
411,3670.35,0.6213298173402447
412,3678.8199999999997,0.6272878338229092
413,3687.3,0.5896945499708426
414,3695.8,0.6320928654493134
415,3701.81,0.4958264642758558
416,3704.54,0.5075292728942353
417,3707.2699999999995,0.4823909815126148
418,3710.0,0.4945556901309942
419,3712.73,0.5453074987493737
420,3715.46,0.47736830736775315
421,3718.19,0.4141768159861326
422,3720.9199999999996,0.5493183246045121
423,3723.65,0.5649173332228915
424,3726.38,0.6829873418412711
425,3729.11,0.8368879504596506
426,3731.83,0.9401860594127612
427,3734.56,0.7988527680311407
428,3737.29,0.5841401766495201
429,3740.02,0.6378069852678996
430,3742.7500000000005,0.6067377938862791
431,3745.48,0.7697158025046585
432,3748.21,0.670577711123038
433,3750.94,0.3921982197414175
434,3753.67,0.38366952835979695
435,3756.3999999999996,0.5992033369781764
436,3759.13,0.6849924455965559
437,3761.86,0.6792485542149355
438,3764.5899999999997,0.6457405628333148
439,3767.31,0.5177301717864256
440,3770.04,0.437034280404805
441,3772.7699999999995,0.49951828902318446
442,3775.5,0.5534304976415639
443,3778.23,0.6453383062599434
444,3780.96,0.7905956148783229
445,3783.69,0.7718933234967024
446,3786.4199999999996,0.7604350321150818
447,3789.15,0.7727150407334613
448,3791.88,0.8344050493518408
449,3794.61,0.6387413579702202
450,3797.34,0.5950454665885997
451,3800.0699999999997,0.7055827752069792
452,3801.8939600000003,0.6888829521489294
453,3802.79,0.6806789904095418
454,3805.52,0.6819340180683701
455,3808.2500000000005,0.7804221457271984
456,3810.98,0.8135109733860266
457,3813.71,0.894249501044855
458,3816.44,0.8316494287036833
459,3819.17,0.7872174563625116
460,3821.8999999999996,0.7170991840213399
461,3824.63,0.6426085116801682
462,3827.36,0.5276547393389964
463,3830.0899999999997,0.5396749669978248
464,3832.82,0.5658083946566531
465,3835.5499999999997,0.47512682231548137
466,3838.2699999999995,0.5183774502392957
467,3841.0,0.49878057789812397
468,3843.73,0.6086544055569523
469,3846.46,0.7538254332157805
470,3849.19,0.7823686608746089
471,3851.9199999999996,0.8218501885334372
472,3854.65,0.8940313161922655
473,3857.38,0.8968880438510938
474,3860.11,0.8391799715099221
475,3862.84,0.8657460991687503
476,3865.5699999999997,0.9125728268275787
477,3868.3,1.045231854486407
478,3871.0299999999997,0.9092239821452353
479,3873.7500000000005,0.8695297100690494
480,3876.48,0.9025465377278777
481,3879.21,0.7749655653867061
482,3881.94,0.7947638930455344
483,3884.67,0.7321205207043627
484,3887.3999999999996,0.658856448363191
485,3890.13,0.5671933760220192
486,3892.86,0.5783622036808476
487,3895.5899999999997,0.6442950313396759
488,3898.32,0.7309353589985043
489,3901.0499999999997,0.8063920866573325
490,3903.78,0.7905904143161608
491,3906.51,0.8476914419749891
492,3909.23,0.9081017698988034
493,3911.96,1.0038916975576317
494,3914.69,0.9701811252164599
495,3917.4199999999996,0.9144355528752882
496,3920.15,0.9025009805341166
497,3922.88,0.8578958081929449
498,3925.61,0.8846350358517732
499,3928.34,0.8089466635106015
500,3931.0699999999997,0.7032715911694297
501,3933.8,0.618968218828258
502,3936.5299999999997,0.5738292464870864
503,3939.2599999999998,0.6224452741459147
504,3941.9900000000002,0.723963501804743
505,3944.71,0.7731462297285573
506,3947.44,0.8854444573873855
507,3950.17,0.9083741850462138
508,3952.8999999999996,0.9170609127050421
509,3955.63,0.8921245403638705
510,3958.36,0.9168435680226987
511,3961.0899999999997,0.7864921956815271
512,3963.82,0.7163595233403554
513,3966.5499999999997,0.6012035509991837
514,3969.28,0.521157278658012
515,3972.01,0.43822490631684025
516,3974.74,0.5129458339756686
517,3977.4700000000003,0.6373508616344968
518,3980.19,0.7807933895583111
519,3982.9199999999996,0.9398178172171395
520,3985.65,0.9077383448759677
521,3988.38,0.918921572534796
522,3991.11,0.9726459001936243
523,3993.84,0.9715199278524526
524,3996.5699999999997,0.9778111555112808
525,3999.3,1.028072383170109
526,4002.0299999999997,1.0259503108289374
527,4004.7599999999998,1.0552872384877656
528,4007.4900000000002,1.0144481661465943
529,4010.22,1.0440300938054226
530,4012.9500000000003,1.0890960214642509
531,4015.67,1.047930949388065
532,4018.3999999999996,1.0395468770468934
533,4021.13,1.1211798047057218
534,4023.86,1.1224777323645498
535,4026.5899999999997,1.1312076600233782
536,4029.32,1.1236025876822064
537,4032.0499999999997,1.0787665153410348
538,4034.78,1.010639442999863
539,4037.51,1.0877693706586913
540,4040.24,1.1449142983175196
541,4042.9700000000003,1.1125172259763478
542,4045.7,1.0574351536351763
543,4048.4300000000003,1.0355870812940047
544,4051.15,1.0514660092178187
545,4053.88,1.083760936876647
546,4056.61,1.1185668645354756
547,4059.34,1.1098357921943038
548,4062.0699999999997,1.0689387198531322
549,4064.8,1.0935136475119605
550,4067.5299999999997,1.0242465751707888
551,4070.2599999999998,1.013019502829617
552,4072.9900000000002,1.0063524304884452
553,4075.72,1.0145333581472735
554,4078.4500000000003,0.9939120858061018
555,4081.18,0.9770279134649302
556,4083.91,1.0183271411237584
557,4086.63,1.0043780690475728
558,4089.36,1.010365996706401
559,4092.0899999999997,0.9942753243652294
560,4094.82,0.9190051520240576
561,4097.55,0.8726684796828859
562,4100.28,0.7750744073417142
563,4103.01,0.7778879350005424
564,4105.74,0.7607728626593708
565,4108.47,0.7850156903181992
566,4111.2,0.8371239179770275
567,4113.93,0.9018587456358557
568,4116.66,0.995786673294684
569,4119.39,1.0306362009535122
570,4122.11,1.0294141288773266
571,4124.84,0.9811864565361549
572,4127.57,0.9610987841949832
573,4130.3,0.9978817118538116
574,4133.03,0.9959764395126398
575,4135.76,1.010868767171468
576,4138.49,1.0978836948302966
577,4141.22,1.1046516224891247
578,4143.95,1.104405550147953
579,4146.679999999999,1.0402614778067814
