,lambda (Angstroms),Total Flux (erg/s/cm^2/Angstrom)
0,102.00000000000001,0.0001732706020633261
1,103.89,0.00020265372652034325
2,104.712855,0.00021545085849812744
3,106.07000000000001,0.00019791870699933478
4,108.03999999999999,0.00017249848876465891
5,110.05,0.00014668057224907562
6,113.91,9.692229764153772e-05
7,117.92,4.522440008059803e-05
8,120.22644299999999,1.747213445226797e-05
9,120.94000000000001,1.769925534805385e-05
10,124.89999999999999,1.6044736916632483e-05
11,126.92999999999999,1.5107265836888699e-05
12,128.10999999999999,1.4622828445707585e-05
13,131.09,1.3235168949334924e-05
14,132.0,1.354942722393254e-05
15,134.15,1.2550481070509316e-05
16,136.96,1.2287480511849195e-05
17,138.038426,1.1825271480725268e-05
18,140.15,1.2140863886158964e-05
19,143.07999999999998,2.4227618448775763e-05
20,147.09,4.934745502764722e-05
21,150.86,5.155610071401764e-05
22,155.09,5.432930144434838e-05
23,158.489319,5.706190250044403e-05
24,159.07000000000002,5.7522100210604344e-05
25,162.02,5.973278699753524e-05
26,166.18,6.35176990089361e-05
27,170.04999999999998,6.64063607599268e-05
28,172.81,6.886183565210622e-05
29,176.83999999999997,7.169329478815079e-05
30,180.13000000000002,7.385358601832119e-05
31,181.79000000000002,7.563784888825518e-05
32,181.970086,7.575627669970977e-05
33,186.03,7.86006450905917e-05
34,190.8,8.261839719623093e-05
35,193.9,8.547033483301953e-05
36,197.96,8.842932767345879e-05
37,202.10999999999999,9.19021022517403e-05
38,204.92,9.42257353999261e-05
39,208.929613,9.426957743065201e-05
40,210.17000000000002,9.43489804805752e-05
41,216.06,0.00010311128618785467
42,220.07999999999998,0.00010688183412389262
43,223.14000000000001,0.00010827507956774238
44,226.76999999999998,0.00011243814524132888
45,229.92,0.0001681093096688213
46,234.2,0.00027356747911316023
47,239.88329199999998,0.0003269884968757196
48,240.2,0.0003299287415598618
49,245.8,0.0003086031082714781
50,252.1,0.00032044133332204654
51,256.79,0.0002669282341930252
52,259.76,0.00030441376885972183
53,263.99,0.00031544974853653206
54,268.89,0.0003109261569091963
55,273.89,0.0003057405307588538
56,275.42287,0.00030420707735845517
57,278.98,0.0003010335854698067
58,284.17,0.0002978877329002228
59,290.12,0.0002817289535574436
60,296.2,0.00028271033937188095
61,301.01,0.00027476195018889474
62,308.02,0.000275775609820343
63,316.227766,0.00027674019556830865
64,318.11,0.00027677915866112314
65,327.78000000000003,0.0002732732188415778
66,337.74,0.0002673453079209293
67,348.0,0.00026273011655086366
68,356.93,0.00027270026850654714
69,363.078055,0.0002926771108907595
70,366.08000000000004,0.00030265010493386353
71,374.61,0.0003099106210421488
72,385.10999999999996,0.0002957708746338248
73,394.97999999999996,0.0003616844010100001
74,405.12,0.0004264842533356757
75,413.6,0.0004548690720459054
76,416.86938299999997,0.0004565462992543785
77,422.26,0.0004592428517118517
78,430.11,0.0004753676237131581
79,441.14,0.0005720351512512994
80,451.42,0.0006297827024835834
81,459.81,0.0006227944254251071
82,470.52,0.0006840949190727491
83,478.630092,0.0007849825770851831
84,480.37000000000006,0.0008065495481219644
85,490.43,0.0007737860136466651
86,499.55,0.0009791524038638888
87,506.5,0.0009245004319351283
88,512.37,0.0014222696032701178
89,519.49,0.0014518626587905817
90,530.37,0.0014648702155409539
91,540.23,0.0013361904075959786
92,549.5408739999999,0.0014001699003952492
93,550.27,0.0014051924363137622
94,560.51,0.0018851786720040626
95,569.61,0.002199060233017904
96,580.2,0.002276053605670275
97,589.63,0.0024666944672483543
98,600.59,0.0022550998132606294
99,610.35,0.0022863649754029467
100,620.27,0.0029851588287279256
101,630.3499999999999,0.002978063373235565
102,630.957344,0.0030018868114802073
103,640.59,0.003379918617638855
104,649.4999999999999,0.003426922861960917
105,658.54,0.003295642539701819
106,664.63,0.003757373689861343
107,675.4300000000001,0.004072454773888084
108,684.82,0.0036976253108335568
109,694.35,0.004383938391460857
110,705.63,0.00378397076811101
111,715.4499999999999,0.004851029046364954
112,724.43596,0.005025912726692912
113,725.4,0.005044670176265823
114,735.49,0.005209900477097152
115,745.73,0.005233862718971561
116,754.36,0.005355817860316888
117,764.86,0.00499860873333264
118,775.4999999999999,0.005672979484655269
119,784.48,0.005430432821767788
120,795.39,0.0059129302669679645
121,804.6,0.00617727204701321
122,815.79,0.00633560824882714
123,825.24,0.006588383534541316
124,831.763771,0.005823336409729191
125,834.79,0.005468388073121923
126,844.4599999999999,0.006726202818611625
127,854.24,0.006757111059654986
128,864.13,0.007107740796252003
129,874.1400000000001,0.00727305189163483
130,884.26,0.007425123482571313
131,894.5,0.0075802984322936055
132,904.86,0.007562700740801704
133,915.33,0.007703202544863461
134,925.93,0.020918393570943175
135,934.5,0.03634836636089631
136,945.32,0.055907288378083335
137,954.07,0.07054392870621519
138,954.992586,0.07121710246228084
139,965.12,0.07860678419541013
140,974.0500000000001,0.023631664891108274
141,985.3199999999999,0.06614030052834433
142,994.44,0.06644536081331263
143,1005.96,0.0881978659101147
144,1015.2700000000001,0.08678658578435318
145,1024.66,0.04835918548565279
146,1034.14,0.06878014499239617
147,1046.12,0.1090059990947997
148,1055.8,0.1060349781691959
149,1065.56,0.0871879270706532
150,1075.42,0.09918872575593692
151,1085.37,0.0828823942466644
152,1095.42,0.10220109252121828
153,1096.4782,0.10176789992429126
154,1105.55,0.09805415885530284
155,1115.78,0.09494308964073803
156,1126.1100000000001,0.08481169974958899
157,1133.91,0.1026733369760205
158,1144.4,0.09516036600233674
159,1154.99,0.09805343435206874
160,1165.68,0.09873101202521656
161,1173.76,0.06925727735721228
162,1184.62,0.09450409388016694
163,1195.58,0.07302301972653737
164,1203.87,0.05854104363770625
165,1215.01,0.042901278266225105
166,1226.25,0.07022030221815974
167,1234.75,0.09363939470850177
168,1246.18,0.09964357737492643
169,1254.8100000000002,0.09604178898570898
170,1258.92541,0.0929052343474414
171,1266.43,0.0871856747530781
172,1275.2,0.10386079897363998
173,1284.04,0.10701690322788936
174,1295.92,0.08901352894513852
175,1304.9099999999999,0.08819690327157538
176,1313.95,0.10410071762207475
177,1326.1100000000001,0.0994137734740739
178,1335.3000000000002,0.09087817789676074
179,1344.56,0.10219903235313509
180,1353.88,0.09895752683838444
181,1366.41,0.09025082286844605
182,1375.8799999999999,0.09235178742588288
183,1385.41,0.0921405520121947
184,1395.02,0.07628794663700654
185,1404.69,0.07681662129069335
186,1414.42,0.08559693597325516
187,1424.23,0.08520206069431698
188,1434.1000000000001,0.08599125544425376
189,1440.72,0.0888077286301283
190,1445.43977,0.08924463255814885
191,1447.3700000000001,0.08942331168115286
192,1454.05,0.08658645437925916
193,1464.1299999999999,0.08099521845065305
194,1474.28,0.08080812255032054
195,1484.5,0.0815546866782616
196,1494.79,0.0817435308344762
197,1505.15,0.0777062350189644
198,1512.1000000000001,0.07054311782612588
199,1515.58,0.07403913923172616
200,1526.09,0.07235240347680055
201,1536.67,0.06316213775014853
202,1543.7600000000002,0.06374713061385716
203,1554.46,0.0614403549356741
204,1565.24,0.0646329192898037
205,1576.08,0.06846433366816779
206,1583.3600000000001,0.07054373660861894
207,1594.33,0.07136089103949109
208,1605.3899999999999,0.06941602550671497
209,1616.51,0.06877915999817333
210,1623.9799999999998,0.06629137301536704
211,1635.23,0.06941621755933346
212,1646.57,0.0697349221396516
213,1654.17,0.06613893520935336
214,1659.58691,0.06791512611517564
215,1665.6299999999999,0.06989665522238095
216,1673.3200000000002,0.06345322790530805
217,1677.18,0.0708681792910166
218,1684.92,0.07202036212142697
219,1696.6000000000001,0.06814902657351912
220,1704.43,0.06583585966939938
221,1716.25,0.06258378453444469
222,1724.1699999999998,0.061724547895794846
223,1736.12,0.06493193314429666
224,1744.13,0.0634540267711167
225,1756.22,0.06598712243257167
226,1764.3300000000002,0.061724566354358246
227,1776.5600000000002,0.06200968242876638
228,1784.76,0.06287232661602286
229,1792.9999999999998,0.06523097092126594
230,1805.43,0.06478193758560716
231,1813.76,0.06032051215632014
232,1826.33,0.06115863923361451
233,1834.76,0.059083364099294024
234,1843.2299999999998,0.05488700908296016
235,1856.01,0.05488692677968428
236,1864.5700000000002,0.0559062720288203
237,1873.18,0.0589468874254396
238,1886.16,0.05450934571209679
239,1894.87,0.052295731403682634
240,1903.6200000000001,0.05501216721325508
241,1905.46072,0.054717614180958836
242,1916.81,0.052901419491080695
243,1925.6599999999999,0.05134200584203948
244,1934.55,0.05302404204091221
245,1943.48,0.05463425808769888
246,1956.95,0.050869926872717526
247,1965.98,0.05463453253928904
248,1975.06,0.05590600801575297
249,1984.17,0.053023713378152364
250,1993.3300000000002,0.051578278550444175
251,2007.15,0.05265701600470977
252,2016.4099999999999,0.05134179079678642
253,2025.72,0.0529011753987555
254,2035.07,0.050057329848638525
255,2044.4599999999998,0.051223274146435474
256,2053.9,0.047147828254124856
257,2063.38,0.04824676220972817
258,2072.91,0.05193573597522391
259,2077.6800000000003,0.049484147838961025
260,2087.2799999999997,0.050869101338306154
261,2096.91,0.04835782472358674
262,2106.59,0.04869268791875974
263,2116.31,0.049030400961846694
264,2126.08,0.04925549381482606
265,2135.89,0.04671565651571936
266,2145.75,0.04693075902650509
267,2155.66,0.04813512134718324
268,2165.61,0.04671522351577533
269,2175.6,0.04639334553228136
270,2185.65,0.04544241732065829
271,2187.7616199999998,0.045754220988903437
272,2195.73,0.0469308934475212
273,2205.87,0.04575722418619085
274,2216.05,0.043900165046117566
275,2226.2799999999997,0.042802466057615646
276,2236.56,0.04440740722068506
277,2246.88,0.04299934850501156
278,2257.25,0.04144405994090941
279,2262.45,0.042020075704329744
280,2272.9,0.042507447382741745
281,2283.39,0.04290111918241084
282,2293.9300000000003,0.04059461113365127
283,2304.52,0.04079011323646306
284,2315.15,0.03932210546053193
285,2325.84,0.03316829786648641
286,2336.57,0.03722246039369797
287,2347.36,0.03629863310279516
288,2352.77,0.03792515950281516
289,2363.63,0.035728412424112226
290,2374.54,0.03614907549698065
291,2385.5,0.034133638721420424
292,2396.51,0.035501932097431535
293,2407.57,0.034383085625014013
294,2413.12,0.03470388244943379
295,2424.26,0.035931046219530416
296,2435.4500000000003,0.03471812014119839
297,2446.69,0.035862884214437715
298,2452.33,0.035292761311685926
299,2463.65,0.034894895627439415
300,2475.02,0.03387295009476425
301,2486.4500000000003,0.0341937947439747
302,2492.18,0.030973732114051335
303,2503.68,0.03468001697546168
304,2511.88643,0.03267323606522427
305,2515.2400000000002,0.03185314791810568
306,2526.85,0.03171349429676541
307,2532.68,0.03186293745676423
308,2544.3700000000003,0.031288503741564604
309,2556.1099999999997,0.032618469967702866
310,2567.91,0.031955666123446615
311,2573.83,0.033006219177853645
312,2585.71,0.03263561523973802
313,2597.64,0.0321196212429603
314,2603.63,0.031248664215240387
315,2615.65,0.03075547011287088
316,2627.7200000000003,0.03155086595183927
317,2633.78,0.03206686884199241
318,2645.94,0.033661944575369016
319,2652.04,0.03397669741859247
320,2664.28,0.031570783058109717
321,2676.58,0.03238730862723243
322,2682.75,0.032316261388328944
323,2695.13,0.0310105168635923
324,2707.57,0.03144809226846113
325,2713.81,0.030175154947430703
326,2726.3399999999997,0.030042550246707746
327,2732.62,0.030816552878747634
328,2745.24,0.028046858072432894
329,2757.9100000000003,0.02831337320745605
330,2764.26,0.028909395757369
331,2777.02,0.029724700786800368
332,2783.4300000000003,0.02845582326631879
333,2796.27,0.024618648201890796
334,2802.7200000000003,0.02572335063447954
335,2815.66,0.02900038545272734
336,2822.15,0.0297487178383864
337,2835.17,0.028678342562774836
338,2848.26,0.028096687205036327
339,2854.83,0.027208589496836022
340,2868.0,0.02889359404523815
341,2874.61,0.02883082629010816
342,2884.0315,0.028694143137689223
343,2887.88,0.0286383151440031
344,2894.54,0.028444414984092083
345,2907.9,0.029861444663309623
346,2928.06,0.028790804179254656
347,2948.3500000000004,0.028210713692078303
348,2968.79,0.028284893201300353
349,2989.37,0.028035292707160906
350,3010.09,0.02798117220965997
351,3030.9599999999996,0.027734601708557426
352,3051.97,0.0275534112040934
353,3073.12,0.027436710696267873
354,3087.3,0.027254310355796674
355,3108.71,0.027140099841728375
356,3130.25,0.026592889324538696
357,3151.95,0.026418968803507307
358,3166.5,0.026304808454152156
359,3188.45,0.025130357927118104
360,3210.5499999999997,0.025547977396482447
361,3232.8,0.024577356862245197
362,3247.7299999999996,0.025505186503765997
363,3270.24,0.02592991596328597
364,3292.91,0.02564348541896424
365,3308.11,0.02535681505400216
366,3311.31121,0.025395065977571202
367,3323.38,0.025539269437668356
368,3331.04,0.025542195921794353
369,3338.72,0.024735462396740522
370,3346.4100000000003,0.025372708867096777
371,3354.13,0.02445891532368329
372,3361.8599999999997,0.02463130177567989
373,3369.61,0.02429638821849666
374,3377.3799999999997,0.0236377546521336
375,3385.16,0.024303501081180633
376,3392.9700000000003,0.02510166749645792
377,3400.7900000000004,0.025868613907145295
378,3408.63,0.02414516030865284
379,3416.49,0.02431626670098056
380,3424.36,0.025289913088718367
381,3432.25,0.025823089467276343
382,3440.17,0.02489217583206458
383,3448.1,0.0235578621922629
384,3456.05,0.023560778543281393
385,3464.01,0.02276399488970998
386,3472.0,0.024170821222368816
387,3479.9999999999995,0.02261285755043774
388,3488.02,0.023681993869326838
389,3496.07,0.023522250174446195
390,3504.12,0.02379740647956555
391,3512.2,0.023366972770915165
392,3520.3,0.023969839053084953
393,3528.4100000000003,0.022527325330664823
394,3536.55,0.023811561594474957
395,3544.7000000000003,0.024257777853695175
396,3552.8700000000003,0.024428864103735563
397,3561.06,0.024041180344596125
398,3569.27,0.022440306576276863
399,3577.5,0.022034082798777766
400,3585.7499999999995,0.021141669012098845
401,3594.01,0.02183744522083001
402,3602.2999999999997,0.023673331415791435
403,3610.6,0.022404707606162946
404,3618.92,0.023087533787354626
405,3623.13,0.0220469018550009
406,3625.87,0.025095950597364507
407,3628.6099999999997,0.025446629339728112
408,3631.35,0.02190723808209172
409,3634.0899999999997,0.022877986824455326
410,3636.84,0.02348368556222902
411,3639.58,0.022765274304592627
412,3642.32,0.022267803046956233
413,3645.06,0.023851481789319843
414,3647.7999999999997,0.023406760531683446
415,3650.54,0.02087659927404705
416,3653.2799999999997,0.021195908016410664
417,3656.02,0.02262279675877427
418,3658.7599999999998,0.023603525501137878
419,3661.4999999999995,0.02477810424350148
420,3664.25,0.022504392981275177
421,3666.99,0.023182921723638783
422,3669.73,0.024049600466002387
423,3672.47,0.023286999208365997
424,3675.21,0.023497977950729602
425,3677.95,0.023148756693093207
426,3680.6899999999996,0.022815215435456816
427,3683.43,0.024825114177820424
428,3686.1699999999996,0.023634872920184027
429,3688.92,0.02233617165795772
430,3691.66,0.022548570400321332
431,3694.4,0.023735979142684938
432,3697.14,0.023061757885048544
433,3699.8799999999997,0.023279866627412153
434,3702.62,0.022504425369775757
435,3705.3599999999997,0.020313524112139363
436,3708.1,0.021922862854502973
437,3710.84,0.023100301596866577
438,3713.5800000000004,0.025349680339230185
439,3716.33,0.02641863907700388
440,3719.0699999999997,0.032602247819367484
441,3721.81,0.05647138656173109
442,3724.5499999999997,0.0946805653040947
443,3727.29,0.12182686404645832
444,3730.0299999999997,0.10939136278882192
445,3732.7700000000004,0.07298963153118551
446,3735.51,0.042266900273549124
447,3738.25,0.028886209015912732
448,3740.9900000000002,0.02634891775827634
449,3743.74,0.023479356496050034
450,3746.48,0.02354066523841364
451,3749.22,0.02079099398077725
452,3751.9599999999996,0.024427322723140854
453,3754.7000000000003,0.02293488146550446
454,3757.44,0.022993340207868068
455,3760.1800000000003,0.023418138950231676
456,3762.92,0.02461837769259528
457,3765.6600000000003,0.02429908643495889
458,3768.4,0.023824425177322493
459,3771.1499999999996,0.02366181391509619
460,3773.89,0.025969622657459796
461,3776.63,0.026569741399823404
462,3779.3700000000003,0.02791253014218701
463,3782.11,0.027435018884550615
464,3784.8500000000004,0.026693797626914224
465,3787.59,0.02654984636927783
466,3790.33,0.024822205111641436
467,3793.07,0.026219163854005044
468,3795.81,0.02579154259636865
469,3798.5600000000004,0.024182081334142343
470,3801.3,0.02746918007650595
471,3801.8939600000003,0.027479071188846932
472,3804.0400000000004,0.027514809024108924
473,3806.78,0.026829178028516053
474,3809.52,0.025976777032923178
475,3812.26,0.026184906037330303
476,3815.0,0.027380875041737432
477,3817.7400000000002,0.026860594046144555
478,3820.48,0.02585138305055168
479,3823.23,0.026317392051325255
480,3825.9700000000003,0.02411651105573238
481,3828.71,0.023516410060139506
482,3831.4500000000003,0.023603369064546634
483,3834.19,0.022608418068953758
484,3836.93,0.022336167073360884
485,3839.67,0.02441591607776801
486,3842.41,0.024748055082175136
487,3845.15,0.02799525408658226
488,3847.89,0.02642299309098939
489,3850.6400000000003,0.02760741209176296
490,3853.38,0.028445581096170087
491,3856.12,0.02790820010057721
492,3858.86,0.028278839104984337
493,3861.6,0.029942348109391465
494,3864.34,0.03014620711379859
495,3867.08,0.031339316118205715
496,3869.8199999999997,0.03138922512261284
497,3872.56,0.030444164127019967
498,3875.2999999999997,0.02788264313142709
499,3878.05,0.027995122132200668
500,3880.79,0.026829121136607792
501,3883.53,0.026459940141014916
502,3886.27,0.030598029145422045
503,3889.0099999999998,0.029233898149829168
504,3891.75,0.029144107154236293
505,3894.49,0.02799805615864342
506,3897.23,0.024686745163050545
507,3899.97,0.02864524416745767
508,3902.7099999999996,0.027953913171864797
509,3905.46,0.02978405217263837
510,3908.2,0.027708611177045494
511,3910.94,0.02900151018145262
512,3913.68,0.029481899185859747
513,3916.42,0.028274558190266873
514,3919.16,0.027958127194674
515,3921.8999999999996,0.027938176199081125
516,3924.64,0.02528400520348825
517,3927.3799999999997,0.025058794207895377
518,3930.12,0.0222264232123025
519,3932.87,0.022289042213076076
520,3935.61,0.0236660412174832
521,3938.35,0.024743690221890328
522,3941.0899999999997,0.025842719226297453
523,3943.83,0.027271038230704578
524,3946.5699999999997,0.027219727235111704
525,3949.31,0.027553296239518826
526,3952.0499999999997,0.025985315243925954
527,3954.7900000000004,0.026852004248333082
528,3957.54,0.026365803249106656
529,3960.2799999999997,0.02465385225351378
530,3963.02,0.023499251257920906
531,3965.7599999999998,0.023266920262328034
532,3968.5,0.027506219266735157
533,3971.24,0.027011598271142283
534,3973.9799999999996,0.02553199727554941
535,3976.7200000000003,0.025195596279956534
536,3979.46,0.026591125284363658
537,3982.2000000000003,0.027895424288770787
538,3984.95,0.02901428328954436
539,3987.69,0.028590932293951484
540,3990.43,0.030525281298358613
541,3993.1699999999996,0.029774080302765737
542,3995.91,0.030187479307172863
543,3998.65,0.02931511831157999
544,4001.3900000000003,0.030754837315987115
545,4004.13,0.03173271632039424
546,4006.8700000000003,0.030780525324801366
547,4009.61,0.03039138432920849
548,4012.3599999999997,0.031886543329982066
549,4015.1,0.031200922334389192
550,4017.8399999999997,0.030798961338796317
551,4020.5800000000004,0.031314980343203444
552,4023.32,0.03084459934761057
553,4026.0600000000004,0.030388468352017695
554,4028.8,0.02874779735642482
555,4031.54,0.029575996360831944
556,4034.28,0.03067503536523907
557,4037.02,0.0318481943696462
558,4039.7699999999995,0.03073050337041977
559,4042.51,0.030099042374826895
560,4045.2500000000005,0.030113311379234023
561,4047.9900000000002,0.029796880383641148
562,4050.73,0.030397009388048273
563,4053.4700000000003,0.0320491183924554
