,lambda (Angstroms),Total Flux (erg/s/cm^2/Angstrom)
0,100.02000000000001,0.024964847214867174
1,102.11,0.030661401885868626
2,104.01,0.03583652235859726
3,104.712855,0.037752895251396114
4,105.95,0.03496028593058417
5,107.91,0.030541225015355018
6,109.92,0.026044031958921
7,114.05,0.01674477885540239
8,118.05,0.007740937859016312
9,120.22644299999999,0.0033255656079938557
10,121.08000000000001,0.0034393751668654214
11,125.05000000000001,0.003230017283761824
12,127.08000000000001,0.0031042455702352994
13,127.96,0.0030753930293962164
14,130.94,0.0028883971297365887
15,131.85,0.003020551740914354
16,133.98999999999998,0.002887900584782945
17,137.10999999999999,0.002961663394535281
18,138.038426,0.0029219634921263935
19,139.98,0.003035409373496414
20,142.92,0.006040946723595345
21,146.92000000000002,0.011629237152301374
22,151.04,0.012404844023868582
23,154.91,0.013355417056141666
24,158.489319,0.014340642704025299
25,158.88,0.014447403165652717
26,161.84,0.015186224574484689
27,165.98999999999998,0.016394612394299783
28,169.86,0.01743221399976591
29,173.01,0.018296393911191828
30,177.04000000000002,0.01937481478200022
31,179.92000000000002,0.020204641558161058
32,181.970086,0.020786886137512076
33,182.0,0.02079560707473507
34,185.82000000000002,0.021959754222659097
35,191.02,0.023406839136063524
36,194.11999999999998,0.02444159744982386
37,198.19,0.025579022526276942
38,201.87,0.02689321323422469
39,205.14999999999998,0.02782993125652595
40,208.929613,0.028138013674566354
41,209.93,0.02822885236159605
42,215.81,0.031255279304463625
43,219.82999999999998,0.03266994629601595
44,222.89,0.03337720460301846
45,227.03,0.03489125643013951
46,230.19000000000003,0.052268887100115964
47,233.93,0.08594519947534125
48,239.88329199999998,0.11039191857457291
49,239.93,0.11058277369640915
50,246.08,0.10462241999995907
51,251.80999999999997,0.1112399148486324
52,257.09,0.0909044831385094
53,260.06,0.10815241842656521
54,264.29,0.11447815807925076
55,269.2,0.11417236675411745
56,274.21000000000004,0.11334175910871665
57,275.42287,0.11308469432450022
58,279.31,0.11233447310953701
59,283.84,0.11264469007816218
60,289.79,0.10740239890008707
61,295.86,0.10795268168144573
62,300.65999999999997,0.10388664005879691
63,307.67,0.1053887188557202
64,316.227766,0.10691503428011831
65,317.75,0.10716073145332636
66,328.15999999999997,0.10562573573249474
67,338.13000000000005,0.10293219295279338
68,347.59999999999997,0.10008334306074004
69,357.34000000000003,0.09887598840935675
70,363.078055,0.0991486568860016
71,365.66,0.0993042905678456
72,375.04,0.09710759910370614
73,384.66,0.09113636986223264
74,395.44000000000005,0.09330155803031119
75,404.65000000000003,0.09292753582511669
76,414.08,0.09067080399069932
77,416.86938299999997,0.08958207990370949
78,421.78000000000003,0.08765443141508596
79,429.62,0.08531541847311198
80,440.64,0.0843848459960006
81,450.9,0.08196035334489689
82,460.34,0.07906225919027515
83,469.97999999999996,0.07696574613407245
84,478.630092,0.07607857374765692
85,479.82,0.07594730638684967
86,489.87,0.07236799088561847
87,500.13,0.07232234147839138
88,505.91999999999996,0.06987070807021939
89,511.78000000000003,0.0735945566933821
90,520.09,0.07157849641325957
91,529.76,0.06866499274192567
92,539.61,0.06423818715116673
93,549.5408739999999,0.06206389257709388
94,549.64,0.06204248380708241
95,559.86,0.06345311923147978
96,570.27,0.06343773258451074
97,579.54,0.06115376836574007
98,590.31,0.06003630621512946
99,599.9,0.0564430337708996
100,609.65,0.04923083221394013
101,619.56,0.05590485154425108
102,629.62,0.053525216081378044
103,630.957344,0.05353900799433668
104,639.85,0.05366061557625934
105,650.25,0.05188218954645354
106,657.7800000000001,0.049814783872949915
107,665.4,0.050513481916496045
108,674.65,0.049847976168832235
109,685.62,0.046692560347008236
110,695.15,0.04756932505238811
111,704.82,0.04396074998428983
112,716.28,0.04581004995529228
113,724.43596,0.04506984310220775
114,726.2399999999999,0.04490461373177641
115,734.65,0.04410744974237838
116,744.87,0.042746063526962454
117,755.23,0.04170691106202028
118,765.74,0.03752536332972856
119,774.61,0.040069984520458575
120,785.38,0.03805748232476097
121,794.48,0.03824024610555501
122,805.53,0.03790849141080491
123,814.86,0.03724285778166298
124,824.2900000000001,0.036755553974288015
125,831.763771,0.03436728116648233
126,835.76,0.033076314167419456
127,845.4399999999999,0.03511731864383415
128,855.23,0.034236769762026276
129,865.1300000000001,0.033907707521995845
130,875.15,0.033505507982086256
131,885.28,0.032882505083954114
132,895.53,0.032345274885942805
133,905.9000000000001,0.03153047738805234
134,914.28,0.03333672427982456
135,924.87,0.06729949006548898
136,935.58,0.10819637855127424
137,944.2399999999999,0.16265524507666176
138,954.992586,0.20343807408331843
139,955.1700000000001,0.20411133446769722
140,964.01,0.2252883892446069
141,975.1700000000001,0.07500380608966475
142,984.19,0.19539325275117211
143,995.5899999999999,0.1962863387756936
144,1004.8,0.25678425353760964
145,1014.1,0.24694703424182457
146,1025.84,0.12548769160391948
147,1035.34,0.18918919662435404
148,1044.92,0.3071841713712765
149,1054.58,0.2988114158446868
150,1064.34,0.24579812247620697
151,1074.19,0.280185795050026
152,1084.1299999999999,0.22628173356614384
153,1094.16,0.2860223380245606
154,1096.4782,0.28322459370666925
155,1104.28,0.27380262045726705
156,1114.5,0.2639055160665356
157,1124.82,0.23742459323753864
158,1135.22,0.28664927565792936
159,1145.73,0.263260827796228
160,1156.33,0.2731134733400877
161,1164.34,0.2768977864350232
162,1175.1200000000001,0.1993338187900051
163,1185.99,0.264428044550548
164,1194.21,0.19523300892512607
165,1205.26,0.15024592149679117
166,1213.62,0.10077942005779751
167,1224.84,0.18600313128441132
168,1236.18,0.2577686003851065
169,1244.75,0.2774336502257554
170,1256.2599999999998,0.2661785179813993
171,1258.92541,0.25666382563990736
172,1264.97,0.2350941703386706
173,1273.7399999999998,0.2871464091617471
174,1285.53,0.29655590240280433
175,1294.44,0.24222955302009183
176,1306.42,0.2383605622675783
177,1315.47,0.2858342246790768
178,1324.59,0.2729947929876809
179,1333.77,0.24447306635094682
180,1346.1100000000001,0.2812693059264045
181,1355.44,0.2717445919263251
182,1364.84,0.2455995838233512
183,1374.3,0.2536358807750392
184,1383.8200000000002,0.25422298278138905
185,1393.4199999999998,0.21893499152728804
186,1406.3100000000002,0.2240260774371462
187,1416.0600000000002,0.23402849881969987
188,1425.87,0.2361913252569154
189,1435.76,0.23457015843368012
190,1442.39,0.24447871697381662
191,1445.43977,0.24655364424463155
192,1445.71,0.24673749300648057
193,1455.73,0.23892350147489336
194,1465.82,0.22198181489268629
195,1475.98,0.22045833325985933
196,1486.21,0.22249485657641252
197,1496.52,0.22352008554940012
198,1503.42,0.21201057341687002
199,1510.3600000000001,0.1907429641125571
200,1517.3300000000002,0.20155895692940712
201,1524.34,0.19607685257447435
202,1534.8999999999999,0.1720065992238196
203,1545.54,0.18259625152959924
204,1556.2599999999998,0.17319730949181333
205,1563.44,0.17681761715680372
206,1574.2800000000002,0.1864132836036695
207,1585.1899999999998,0.19295295499991533
208,1596.18,0.19608143205259565
209,1603.55,0.19030805315161783
210,1614.66,0.1898734386889498
211,1625.8500000000001,0.1801035298827162
212,1633.3600000000001,0.18944076088049863
213,1644.68,0.19075146126597098
214,1656.0800000000002,0.17723106730787774
215,1659.58691,0.18343882137723863
216,1663.72,0.19075684938036508
217,1671.4,0.17123471493700207
218,1675.26,0.19119640804229096
219,1686.8700000000001,0.1965504028486133
220,1694.65,0.18515582004010234
221,1706.3999999999999,0.1776622871352175
222,1714.28,0.1689123559615586
223,1726.1599999999999,0.16737339018198147
224,1734.13,0.17645650547968939
225,1746.1499999999999,0.17206061198890507
226,1754.21,0.18098127375797982
227,1766.37,0.1666257525559884
228,1774.52,0.16971976079643003
229,1786.8200000000002,0.17168751188323145
230,1795.07,0.1810030717585251
231,1803.35,0.17894084712427435
232,1815.85,0.16589040148077985
233,1824.24,0.16857933364486638
234,1836.8799999999999,0.16176356029016475
235,1845.3600000000001,0.1485959389256181
236,1853.8799999999999,0.14928243821501228
237,1866.73,0.15345997329349995
238,1875.3400000000001,0.16327501905426092
239,1884.0000000000002,0.15102149063244796
240,1897.0600000000002,0.14558663414412493
241,1905.46072,0.15248186381059092
242,1905.82,0.15277633271424884
243,1914.61,0.14726298227494647
244,1923.4499999999998,0.14326049855669473
245,1936.78,0.14457102638878797
246,1945.72,0.15310077611263745
247,1954.7,0.1438968992133274
248,1968.25,0.1559233806180433
249,1977.34,0.15807973050504465
250,1981.9,0.15132939546486046
251,1995.6399999999999,0.1472073504095687
252,2004.85,0.1499292204270915
253,2014.1000000000001,0.14585216382145474
254,2023.3999999999999,0.14888917393686862
255,2032.74,0.144174757429123
256,2046.83,0.14955977942118556
257,2056.27,0.1418609963555411
258,2065.77,0.14218097335515745
259,2075.2999999999997,0.15231513038740416
260,2080.09,0.15801014226405283
261,2084.88,0.16850325414070144
262,2094.5,0.15873015127083925
263,2104.17,0.15799541512202767
264,2113.88,0.16315085235005658
265,2123.64,0.1601753562991361
266,2133.44,0.1501893336250561
267,2143.29,0.1608986776720267
268,2153.1800000000003,0.1634994950958378
269,2163.12,0.15436757924069952
270,2173.11,0.15330203010661184
271,2183.14,0.16124125434936465
272,2187.7616199999998,0.16295868763642166
273,2193.21,0.16498986953978778
274,2203.34,0.1605080451372151
275,2213.5099999999998,0.14541664196108833
276,2223.73,0.14845796531801894
277,2233.99,0.16845830990139546
278,2244.2999999999997,0.1612681810178294
279,2254.66,0.14410847866732068
280,2265.0699999999997,0.14214060284986937
281,2275.52,0.147804848258864
282,2286.03,0.16579992550752748
283,2296.58,0.14952672398263686
284,2307.1800000000003,0.16022704899080364
285,2312.5,0.14719047210811
286,2323.17,0.11974323426255713
287,2333.8900000000003,0.12801222295006168
288,2344.67,0.11363984347723505
289,2355.4900000000002,0.14135498523085435
290,2366.36,0.11553395351753104
291,2377.2799999999997,0.12579994833726513
292,2382.7599999999998,0.10592785636035511
293,2393.76,0.11613399363298103
294,2404.81,0.11300635743866431
295,2415.91,0.118882547777405
296,2427.06,0.1471961646492031
297,2432.6600000000003,0.14453533635163082
298,2443.89,0.16066799567632073
299,2455.17,0.16406098153406803
300,2466.5,0.1507344939248727
301,2472.19,0.13975801338680374
302,2483.6,0.11769696823050026
303,2495.06,0.12156594960725416
304,2506.58,0.1536524628236769
305,2511.88643,0.11260324899060425
306,2512.36,0.10893948147818279
307,2518.15,0.10430559232893509
308,2523.95,0.10383730112588904
309,2535.6,0.12362240845080517
310,2547.31,0.12506760345293116
311,2553.18,0.17647389787329665
312,2564.96,0.14757287849883416
313,2576.8,0.17332644680158155
314,2582.7400000000002,0.16106282684535853
315,2594.66,0.15141197871771905
316,2606.64,0.13847461826728946
317,2612.65,0.13106778393447793
318,2624.71,0.15535740705366152
319,2636.82,0.2238698199038533
320,2642.9,0.28109787119445334
321,2655.1000000000004,0.3738856655604599
322,2667.3599999999997,0.25356854760367636
323,2673.51,0.2805863845176879
324,2685.8500000000004,0.3192082501305175
325,2692.04,0.2422728788293356
326,2704.46,0.2899077280117784
327,2716.9500000000003,0.22210126281763268
328,2723.2099999999996,0.18314417713986228
329,2735.7799999999997,0.22216749551532974
330,2742.0899999999997,0.15002189956856757
331,2754.74,0.18449930151364816
332,2767.46,0.2264046890821403
333,2773.84,0.23871527875878965
334,2786.6400000000003,0.1653228498968949
335,2793.07,0.1009552293045525
336,2805.96,0.11350328195847258
337,2812.4300000000003,0.21539295315093673
338,2825.41,0.2878089873206716
339,2831.92,0.26803775029794236
340,2844.9900000000002,0.20022976598349204
341,2858.12,0.13868696934625158
342,2864.7099999999996,0.26208211589313546
343,2877.94,0.35263719871791144
344,2884.0315,0.3283191022846529
345,2884.57,0.32616944538325005
346,2897.8900000000003,0.3994091893973637
347,2911.2599999999998,0.5338250332013202
348,2931.44,0.46730384838186184
349,2951.7599999999998,0.42932356297396324
350,2972.22,0.44352567697762435
351,2992.8199999999997,0.4508905903928453
352,3006.64,0.4458213323053867
353,3027.48,0.48113854471185286
354,3048.46,0.5016704565298788
355,3069.5899999999997,0.552759667717433
356,3090.87,0.5354204782745156
357,3112.3,0.6292185882011265
358,3126.66,0.5780228278439697
359,3148.34,0.5822218367197944
360,3170.1600000000003,0.644482045007179
361,3192.14,0.5564529526220603
362,3206.87,0.6130571907097401
363,3229.1,0.5208544972738353
364,3251.48,0.7358203032074588
365,3266.4900000000002,0.8606810401182581
366,3289.13,0.847238044959064
367,3311.31121,0.7872332062358195
368,3311.9300000000003,0.7855592020097326
369,3319.57,0.7349491881515182
370,3327.2200000000003,0.7573525734898247
371,3334.89,0.8420229572211724
372,3342.58,0.7627882393455613
373,3350.2799999999997,0.8174338206664711
374,3358.0,0.8599801003804219
375,3365.75,0.6048437776839349
376,3373.5,0.575046954987448
377,3381.2799999999997,0.7562864298805229
378,3389.07,0.8198384039701185
379,3396.8900000000003,0.6947495756492761
380,3404.72,0.9137198465249544
381,3412.5699999999997,0.768968815793674
382,3420.43,0.8016040842589143
383,3428.32,0.8128316503137165
384,3436.22,0.7999488155650394
385,3444.14,0.5324123792094037
386,3452.08,0.8593515412468092
387,3460.04,0.7856623016772561
388,3468.02,0.7857706605007444
389,3476.0099999999998,0.7317712185207532
390,3484.02,0.8154608749338034
391,3492.0499999999997,0.7472891297398949
392,3500.11,0.7186888821355484
393,3508.17,0.9048053345312018
394,3516.2599999999998,0.7205385845164174
395,3524.37,0.7810889328946742
396,3532.49,0.8865971804694517
397,3540.63,0.9414104264372705
398,3548.7999999999997,0.9904483699946512
399,3556.98,0.8529283127485526
400,3565.18,0.9461407538954955
401,3573.4,0.6253293934354796
402,3581.63,0.7114311321719843
403,3589.89,0.521530868498051
404,3598.1600000000003,0.8978288040206385
405,3606.46,0.8227617371327878
406,3614.77,0.7876674694414578
407,3623.11,0.6568083993396899
408,3631.46,1.1518290284344426
409,3639.83,0.9342881559222366
410,3648.22,0.8821928818030719
411,3656.63,1.1132010060769486
412,3665.06,1.2179253287438667
413,3673.5099999999998,1.0585306498038258
414,3681.9800000000005,0.9745052692568265
415,3690.4700000000003,0.8587419871028685
416,3698.97,1.0663176041454312
417,3707.5000000000005,0.8830257187775558
418,3716.05,1.1323842318027217
419,3724.6099999999997,0.6154335440244082
420,3733.2,0.9663795538356569
421,3741.8,0.7590329628434261
422,3750.4300000000003,0.6199673694407573
423,3759.0800000000004,1.13579777443113
424,3767.74,0.8818737786180231
425,3776.4300000000003,1.0800333803944784
426,3785.13,1.228786681367454
427,3793.86,0.921696879929992
428,3801.8939600000003,0.7587324516439586
429,3802.61,0.7442079888731182
430,3811.37,0.9993083316803095
431,3820.1600000000003,0.8087114725793064
432,3828.96,0.6322865128422385
433,3837.79,0.5559352511969758
434,3846.64,0.8932361882795836
435,3855.5,0.9506582247261265
436,3864.39,0.7398384592644748
437,3873.3,0.8753108925306935
438,3882.23,0.8283967245247824
439,3891.1800000000003,0.7283226552467417
440,3892.52,1.3880865700140517
441,3894.2900000000004,1.5669804574305735
442,3896.06,1.1498823448470947
443,3897.84,1.2911202316275516
444,3899.61,1.4415571190440732
445,3901.3799999999997,1.1350650064605947
446,3903.16,1.7308208932410514
447,3904.93,1.3550657806575728
448,3906.7000000000003,0.7238149680740944
449,3908.47,0.680568455490616
450,3910.25,0.5507761422710726
451,3912.02,1.3582903296875941
452,3913.79,1.2250232171041158
453,3915.5699999999997,0.6832550038845725
454,3917.34,0.942055091301094
455,3919.11,0.5059063787176156
456,3920.88,0.5648378661341371
457,3922.66,0.3314126529145938
458,3924.43,0.23000364033111537
459,3926.2000000000003,0.8183978277476369
460,3927.98,0.31872431452809363
461,3929.75,0.5568244019446151
462,3931.52,1.0938040893611367
463,3933.29,1.0838869767776582
464,3935.07,0.8841290635581149
465,3936.8399999999997,0.6595042509746365
466,3938.61,1.148613638391158
467,3940.39,1.1728105251716148
468,3942.1600000000003,0.9705930125881362
469,3943.93,1.279775300004658
470,3945.7,1.1193751874211795
471,3947.48,0.9789105742016362
472,3949.2500000000005,1.5037289616181575
473,3951.02,1.3467458490346793
474,3952.8,1.443988735815136
475,3954.57,1.3769616232316575
476,3956.3399999999997,1.0887035106481788
477,3958.11,1.1799303980647007
478,3959.89,0.8235165848451573
479,3961.6600000000003,0.6861098722616787
480,3963.43,0.8184239596782004
481,3965.2,0.7591845470947219
482,3966.98,0.8723367338751786
483,3968.75,0.5163237212917001
484,3970.52,0.4872779087082217
485,3972.3,0.7059660954886784
486,3974.07,1.2642883829051998
487,3975.84,1.8594082703217216
488,3977.6099999999997,1.601120157738243
489,3979.39,1.6019290445186998
490,3981.1600000000003,1.0203599319352212
491,3982.9300000000003,0.9274031193517428
492,3984.71,2.0805917061321995
493,3986.48,1.775884593548721
494,3988.25,1.7226184809652427
495,3990.0200000000004,1.9827103683817642
496,3991.7999999999997,1.6680512551622209
497,3993.57,1.7080801425787424
498,3995.34,1.512866029995264
499,3997.12,1.7664709167757207
500,3998.89,1.8450678041922421
501,4000.66,1.6169726916087637
502,4002.4300000000003,1.8645075790252854
503,4004.2100000000005,1.653713465805742
504,4005.98,1.7519163532222635
505,4007.75,1.7191142406387852
506,4009.53,1.400880127419242
507,4011.2999999999997,1.4227240148357634
508,4013.07,1.5683719022522848
509,4014.84,2.0647427896688066
510,4016.6200000000003,1.8196286764492633
511,4018.39,1.2746465638657847
512,4020.16,1.5357174512823064
513,4021.94,1.776298338062763
514,4023.7099999999996,1.9188102254792845
515,4025.48,1.913830112895806
516,4027.25,2.027373000312328
517,4029.03,1.9099298870927843
518,4030.7999999999997,1.4633407745093059
519,4032.5699999999997,1.7194746619258274
520,4034.35,1.605561548706284
521,4036.1200000000003,1.3191244361228056
522,4037.89,1.867246323539327
523,4039.66,2.1519292109558488
524,4041.44,1.6634310977363056
525,4043.21,1.355531985152827
526,4044.98,1.6508568725693484
527,4046.7599999999998,1.8056277593498051
528,4048.53,1.3144706467663267
529,4050.3,1.7007385341828483
530,4052.0699999999997,1.9006684215993699
531,4053.85,1.5773833083798268
532,4055.62,1.393512195796348
533,4057.3900000000003,1.5147940832128697
534,4059.1699999999996,1.9192509699933262
535,4060.94,1.651832857409848
536,4062.71,1.3364347448263694
537,4064.4799999999996,1.644524632242891
538,4066.2599999999998,1.8114235190233479
539,4068.03,1.7887134064398693
540,4069.8,1.7658552938563907
541,4071.5800000000004,1.6187241806368475
542,4073.35,1.5547860680533692
543,4075.12,1.6076909554698906
544,4076.8900000000003,1.5433598428864124
545,4078.6699999999996,1.4933617296668686
546,4080.44,1.6518866170833904
547,4082.21,1.6250595044999119
548,4083.9900000000002,1.5260463912803686
549,4085.7599999999998,1.6791372786968903
550,4087.5299999999997,2.180157166113412
551,4089.3,1.9275550535299333
552,4091.0800000000004,1.8253399403103898
553,4092.85,1.8552018277269116
554,4094.62,1.799713715143433
555,4096.4,1.7286816019238898
556,4098.17,1.5608884893404114
557,4099.9400000000005,1.564498376756933
558,4101.71,1.7589092641734543
559,4103.49,1.635445150953911
560,4105.26,1.8680520383704327
561,4107.03,1.7155789257869543
562,4108.81,1.533352812567411
563,4110.58,1.8482476999839326
564,4112.35,1.550215587400454
565,4114.12,1.7335644748169754
566,4115.900000000001,1.5876293615974322
567,4117.67,1.5865412490139539
568,4119.44,1.9232081364304754
569,4121.22,1.522536023210932
570,4122.990000000001,1.5579719106274534
571,4124.76,1.5765737980439751
572,4126.53,1.2103896854604967
573,4128.31,1.4573365722409533
574,4130.08,1.764089459657475
575,4131.85,1.7161913470739965
576,4133.62,1.512631234490518
577,4135.400000000001,1.3813251212709747
578,4137.17,1.3923290086874964
579,4138.94,1.5019018961040178
