,lambda (Angstroms),Total Flux (erg/s/cm^2/Angstrom)
0,100.03,0.017453952059754075
1,101.89,0.020993256855226607
2,104.02,0.025046331701655152
3,104.712855,0.02636473225222955
4,105.96,0.024384637517004856
5,107.93,0.021256864380448978
6,109.92999999999999,0.018081460180906693
7,114.05999999999999,0.011524250508860405
8,118.07,0.005157565088819019
9,120.22644299999999,0.0017337760100288532
10,121.1,0.0016695997223003594
11,125.06,0.00137867640590274
12,127.10000000000001,0.0012288068187574085
13,127.98,0.0011641571930248638
14,130.96,0.0009452300513238188
15,131.87,0.0008783764615727918
16,134.01,0.0007211603265725863
17,137.13,0.0004919480189884181
18,138.038426,0.00042521006405304203
19,140.0,0.0004201205102677976
20,142.93,0.00041251827169334714
21,146.94,0.000402113883837905
22,151.05,0.0003914500080071619
23,154.93,0.00038138291786387897
24,158.489319,0.00037214789359437506
25,158.9,0.0003705106899913649
26,161.85999999999999,0.00035871049901066177
27,166.01000000000002,0.00034216635176601484
28,169.88,0.0003267384892677726
29,173.03,0.0003141809619290985
30,177.07,0.00029807550462149283
31,179.94,0.0002866343274436232
32,181.970086,0.0002785414591215875
33,182.03,0.0002786183286542486
34,185.84,0.00028350668994642046
35,191.04,0.0002901786049155527
36,194.15,0.00029416909134345683
37,198.20999999999998,0.00029937869418501003
38,201.9,0.00030411391146827884
39,205.18,0.0003083229909779623
40,208.929613,0.000313134874484399
41,209.96,0.0003211627224403111
42,215.84,0.00036697608073155326
43,219.85000000000002,0.0003982198945679838
44,222.91,0.00042206183058713016
45,227.06,0.0004543974546584236
46,230.21,0.00047895454648783905
47,233.96,0.0005082047691323812
48,239.88329199999998,0.0005543898242881422
49,239.96,0.0005538980387410232
50,246.11,0.0005144467762589694
51,251.84,0.0004777105123971535
52,257.12,0.0004438218419998779
53,260.09999999999997,0.0004247405261991432
54,263.71,0.0004016093191680514
55,269.24,0.0003661560111015865
56,274.24,0.000334106493417803
57,275.42287,0.0003265264895131029
58,278.7,0.00034901167214349
59,283.88,0.0003845526178133665
60,289.82,0.0004252937375460047
61,295.89,0.0004669582183788521
62,300.7,0.0004999659697865946
63,307.7,0.0005480308961594006
64,316.227766,0.0006066035532986497
65,317.78000000000003,0.0005988393073859729
66,328.20000000000005,0.0005467186104352773
67,338.17,0.0004968695949678653
68,347.64000000000004,0.00044954778403743443
69,357.38,0.000400883068657034
70,363.078055,0.0003724607492313764
71,365.71,0.00038285043706021935
72,375.09000000000003,0.00041983133585026086
73,384.71,0.0004577227519440983
74,394.58,0.0004967920373127239
75,404.7,0.0005368095479561373
76,414.13,0.0005740636466011361
77,416.86938299999997,0.0005848872760173135
78,421.83,0.0005967149513966156
79,429.66999999999996,0.0006154327288041525
80,440.69,0.0006418398530683179
81,450.95000000000005,0.0006663644196246097
82,460.4,0.0006889375808211942
83,470.03999999999996,0.0007120894096947472
84,478.630092,0.0007327767811450673
85,479.88000000000005,0.0007289981419261897
86,489.93,0.0006984856545888957
87,500.19,0.0006675979432714192
88,505.97999999999996,0.0006516658089606798
89,511.84,0.0006481722409898793
90,520.16,0.0006252183476798012
91,529.83,0.000598816677354265
92,539.6800000000001,0.0005693802987600014
93,549.5408739999999,0.0005553995979449858
94,549.71,0.0005555113272139868
95,559.9300000000001,0.0005587273688038155
96,570.34,0.0005615058992001088
97,579.61,0.0005530697967576149
98,590.38,0.0005675951127872094
99,599.97,0.000568703392018761
100,609.72,0.0005893586070873354
101,619.63,0.0006100581579929325
102,629.6999999999999,0.0006264024447355525
103,630.957344,0.0006266495776750616
104,639.93,0.0006495415455984002
105,650.3299999999999,0.0007098190942075476
106,657.86,0.0007507288309409016
107,665.4799999999999,0.0007888190342487575
108,674.73,0.000820817754405932
109,685.7,0.0008474259579869269
110,695.24,0.000991265714884164
111,704.91,0.0010010036123890155
112,716.36,0.0011477340043673555
113,724.43596,0.0012010634910037319
114,726.33,0.0012124671193032865
115,734.74,0.0012725397634206943
116,744.96,0.0014146357889712187
117,755.32,0.0015192994970635314
118,765.8299999999999,0.0016279190793077594
119,774.6999999999999,0.0017728725374910425
120,785.48,0.001931403093208719
121,794.57,0.0020436177668148115
122,805.6199999999999,0.0021690819960059364
123,814.9499999999999,0.002287388268255094
124,824.39,0.002528200148215657
125,831.763771,0.002342634589543588
126,835.8599999999999,0.0022295311806432485
127,845.5400000000001,0.0027424126905802007
128,855.3299999999999,0.0028678527517664375
129,865.23,0.0031051653642019572
130,875.25,0.003364116759818513
131,885.3900000000001,0.003696233938616106
132,895.6400000000001,0.003951348668662983
133,906.01,0.004029883181890896
134,914.3900000000001,0.0062439095406999524
135,924.98,0.04367379415642643
136,935.6899999999999,0.09918871555533396
137,944.35,0.1960740744082321
138,954.992586,0.2828185236840279
139,955.28,0.2851615526729014
140,964.12,0.3311284097719891
141,975.2900000000001,0.052956649341764035
142,984.3100000000001,0.2938031587347246
143,995.71,0.3191564373466704
144,1004.92,0.4784465963831634
145,1014.22,0.4697244315665928
146,1025.97,0.20337981741662461
147,1035.46,0.34115310224358647
148,1045.04,0.6725091632174848
149,1054.71,0.6725015003383193
150,1064.47,0.5404555136060906
151,1074.32,0.658708003020798
152,1084.26,0.5293891685824419
153,1094.29,0.7189094102910223
154,1096.4782,0.714330372862786
155,1104.42,0.697706842552422
156,1114.6399999999999,0.678705264974897
157,1124.95,0.6161543127416012
158,1135.36,0.804675977557449
159,1145.86,0.7407282677175261
160,1153.81,0.8028402731244415
161,1164.48,0.8425930222680628
162,1175.26,0.5856800801657418
163,1186.1299999999999,0.8483960634076502
164,1194.35,0.5979546448472534
165,1205.3999999999999,0.43027377877762013
166,1213.76,0.2883226440860243
167,1224.99,0.6132535287048496
168,1236.3300000000002,0.9452583220777329
169,1244.9,1.0460190131893388
170,1256.41,1.0082284655457658
171,1258.92541,0.9724100307049472
172,1265.1200000000001,0.8842070444873196
173,1273.89,1.1390492619383874
174,1285.6799999999998,1.2009759575767098
175,1294.59,0.9496045832881139
176,1303.57,0.9672774131296861
177,1315.63,1.2176747246986572
178,1324.75,1.1709172628005657
179,1333.93,1.0508428044426184
180,1346.27,1.2604415325322622
181,1355.6000000000001,1.2346090830246752
182,1365.0,1.1156996376472563
183,1374.46,1.1790461958099816
184,1383.99,1.206519758102875
185,1393.5800000000002,1.0460163239359126
186,1406.48,1.1054630850669016
187,1416.23,1.1522186603403235
188,1426.0400000000002,1.1926892391538897
189,1435.93,1.2065098226876478
190,1442.56,1.277975213873575
191,1445.43977,1.2934003686995736
192,1445.8799999999999,1.295758405587161
193,1455.8999999999999,1.2692199017786694
194,1466.0,1.1844754019317865
195,1476.16,1.19822690505611
196,1486.3899999999999,1.2261214116468415
197,1496.69,1.2517799217039807
198,1503.6,1.1872132638879451
199,1510.54,1.0630516075575127
200,1517.51,1.1416829527126837
201,1524.52,1.128598299848659
202,1535.0900000000001,0.989798123276228
203,1545.7299999999998,1.077808350170205
204,1556.44,1.0364658805305893
205,1563.63,1.0753302365801845
206,1574.46,1.1522387728829824
207,1585.38,1.2121103136425901
208,1596.3700000000001,1.2431898578686058
209,1603.7399999999998,1.234613222831821
210,1614.85,1.2546867730002496
211,1626.05,1.2009873276254885
212,1633.55,1.2898096990263181
213,1644.87,1.3138172595939699
214,1656.28,1.237464824618432
215,1659.58691,1.286422405833787
216,1663.92,1.3505735553787335
217,1671.6000000000001,1.2431993327439528
218,1675.45,1.3631077250429235
219,1683.19,1.420778524106309
220,1694.86,1.3505807443995523
221,1706.6000000000001,1.3047789900073226
222,1714.4799999999998,1.2375038396997613
223,1726.3700000000001,1.240354139552946
224,1734.33,1.3290430181762725
225,1746.3600000000001,1.3047883686585107
226,1754.4199999999998,1.3916772834454467
227,1766.5800000000002,1.2987906809403773
228,1774.73,1.322955628274562
229,1787.03,1.3600080763985463
230,1795.28,1.4472220598963408
231,1803.57,1.4572400578595788
232,1816.07,1.3382575783107822
233,1824.45,1.3884736088212692
234,1837.1000000000001,1.344447183517887
235,1845.58,1.2432582501919833
236,1854.1,1.243267331331524
237,1866.95,1.286931978355361
238,1875.57,1.411038095658511
239,1884.23,1.2928852274271048
240,1892.9199999999998,1.2318413700447814
241,1905.46072,1.3335844079169294
242,1906.04,1.3382836351887248
243,1914.84,1.27807453304275
244,1923.68,1.2576264122506573
245,1937.0100000000002,1.3260401984318113
246,1945.9499999999998,1.3725930310244234
247,1954.94,1.2810108403093878
248,1968.49,1.4143005239368929
249,1977.57,1.4673352912680915
250,1982.13,1.385274165610632
251,1995.87,1.3537597606690757
252,2005.09,1.4142794627388613
253,2014.34,1.3757491508240582
254,2023.6399999999999,1.4572258156016078
255,2032.98,1.3662594617330392
256,2047.07,1.41750989363795
257,2056.52,1.3662554884925566
258,2066.01,1.3884270647010453
259,2075.5499999999997,1.4808846176018862
260,2080.33,1.3852343893907773
261,2085.13,1.4504931518566093
262,2094.75,1.3788516674652143
263,2104.42,1.4109601597661716
264,2114.14,1.4305956287594812
265,2123.89,1.4571830837682023
266,2133.7,1.3851965108077464
267,2143.5499999999997,1.3948079192011724
268,2153.44,1.4605433089484803
269,2163.38,1.4338616753881408
270,2173.37,1.4272930185201536
271,2183.4,1.394795343006048
272,2187.7616199999998,1.4232373031097234
273,2193.48,1.4605314351186152
274,2203.6,1.4338541963204576
275,2213.77,1.3883739761053133
276,2223.9900000000002,1.3474527744731821
277,2234.25,1.4174565877074612
278,2244.5699999999997,1.3788194232413562
279,2254.93,1.3412712736416614
280,2265.34,1.37568414262498
281,2275.79,1.4047280264747086
282,2286.3,1.434309932624053
283,2296.85,1.366795853639808
284,2307.4500000000003,1.3701307932385758
285,2312.77,1.323707770471165
286,2323.45,1.073655739802754
287,2334.17,1.2644947240007534
288,2344.9500000000003,1.2501957304983684
289,2355.77,1.3092867518623936
290,2366.6400000000003,1.247676791809432
291,2377.57,1.2710258540560864
292,2383.0499999999997,1.2166868907543174
293,2394.05,1.2830329790171897
294,2405.1,1.2368090858630754
295,2416.2,1.2599792112919739
296,2427.35,1.3044363553038854
297,2432.9500000000003,1.2573524366013475
298,2444.18,1.31676561034608
299,2455.46,1.3019168026738257
300,2466.79,1.2991070135845841
301,2472.48,1.26670812833147
302,2483.89,1.3083943689750497
303,2495.36,1.2325306319182447
304,2506.88,1.339248913444453
305,2511.88643,1.2592745733001798
306,2512.65,1.2470766643018643
307,2518.45,1.2939618300164883
308,2524.25,1.2443969957311125
309,2535.8999999999996,1.2532153199682456
310,2547.61,1.2305126355748401
311,2553.48,1.2885657912205029
312,2565.27,1.274021095319713
313,2577.11,1.3281293922268078
314,2583.05,1.325180537803509
315,2594.97,1.3192708232032193
316,2606.9500000000003,1.2864460999723912
317,2612.9599999999996,1.2806352354801314
318,2625.02,1.3076395007419186
319,2637.14,1.3229667573731678
320,2643.22,1.385413882811946
321,2655.42,1.3888411279358108
322,2667.6699999999996,1.31738636586756
323,2673.82,1.360665481237377
324,2686.17,1.3546077047848957
325,2692.3599999999997,1.3178008144010205
326,2704.7799999999997,1.3332740278795776
327,2717.27,1.3031242312891733
328,2723.53,1.3032173308363366
329,2736.11,1.3492025213001249
330,2742.4100000000003,1.244884615093596
331,2755.07,1.2536957940499998
332,2767.79,1.280136964375865
333,2774.17,1.3221460466619517
334,2786.97,1.3012372054804326
335,2793.3999999999996,1.1492222805744037
336,2806.29,1.2119144264470771
337,2812.76,1.3258494957873561
338,2825.74,1.3383226287142218
339,2832.2599999999998,1.2870686908623856
340,2845.33,1.2783948108434438
341,2851.8900000000003,1.2726228672379152
342,2865.05,1.323643974273166
343,2878.2799999999997,1.3086750712394553
344,2884.0315,1.3140058757554691
345,2884.91,1.3148202413443335
346,2898.23,1.3060032021333807
347,2911.61,1.352091162745802
348,2931.7900000000004,1.3277641033406202
349,2952.11,1.3128970435233112
350,2972.5800000000004,1.3223159832644373
351,2993.18,1.322653922622874
352,3006.99,1.3259368819694763
353,3027.84,1.3293578205919718
354,3048.83,1.32053775880234
355,3069.96,1.3178216966005811
356,3091.2400000000002,1.3181966339572575
357,3112.67,1.3094745708723687
358,3127.04,1.3006525285704629
359,3148.71,1.3010394647790706
360,3170.54,1.295406400516676
361,3192.51,1.2604343358421544
362,3207.25,1.2811562924510553
363,3229.48,1.2581302270111547
364,3251.87,1.2759501611002515
365,3266.8799999999997,1.2850391169143356
366,3289.5200000000004,1.2795130502674914
367,3311.31121,1.279832208230689
368,3312.32,1.279846929351191
369,3319.96,1.3037504994220257
370,3327.6099999999997,1.3128990689301263
371,3335.2799999999997,1.3190866373127574
372,3342.9700000000003,1.2598632045699198
373,3350.68,1.3102657707016134
374,3358.4,1.2427983362705721
375,3366.1400000000003,1.260237900714062
376,3373.91,1.2288194634693481
377,3381.6800000000003,1.2460320262246345
378,3389.4800000000005,1.2958705872917173
379,3397.29,1.2900601477960654
380,3405.12,1.2521227071749448
381,3412.9700000000003,1.260941265428355
382,3420.84,1.2786138225562962
383,3428.73,1.2787033785587683
384,3436.63,1.281799933998506
385,3444.55,1.2327104883127749
386,3452.49,1.3088590415015742
387,3460.45,1.238661593564905
388,3468.4300000000003,1.2387571445027665
389,3476.43,1.2275456943151593
390,3484.4399999999996,1.2361742435648173
391,3492.47,1.2534767916890062
392,3500.5199999999995,1.2307363386877261
393,3508.5899999999997,1.2223908845609774
394,3516.68,1.2057454293087593
395,3524.79,1.2395919729310723
396,3532.9100000000003,1.2454605159906507
397,3541.06,1.2628950573620257
398,3549.2200000000003,1.283532598170666
399,3557.4,1.2573681378538373
400,3565.6,1.28085867641154
401,3573.8199999999997,1.237485213843773
402,3582.0600000000004,1.1928927501505375
403,3590.32,1.1525202853318328
404,3598.5899999999997,1.2124958199503937
405,3606.89,1.209815352880751
406,3615.2000000000003,1.2267928852483738
407,3623.54,1.241091415927793
408,3631.89,1.3178059460444778
409,3640.26,1.2557224750356935
410,3648.6600000000003,1.2529530023387059
411,3657.07,1.2852555290789835
412,3665.5,1.2735840546937922
413,3671.93,1.1690206928555027
414,3674.6299999999997,1.163866540917185
415,3677.34,1.105113388416133
416,3680.05,1.208172235915081
417,3682.75,1.2545960839767636
418,3685.46,1.2080809314757115
419,3688.17,1.2165177789746595
420,3690.87,1.264676627036342
421,3693.5800000000004,1.1937324745352902
422,3696.29,1.121522322034238
423,3699.0,1.220314169533186
424,3701.7,1.2037670175948685
425,3704.4100000000003,1.1261638650938166
426,3707.12,1.1697217125927646
427,3709.8199999999997,1.2120185606544471
428,3712.53,1.261062408153395
429,3715.2400000000002,1.272735255652343
430,3717.94,1.3991511037140256
431,3720.6499999999996,1.6335439512129737
432,3723.36,2.2410267987119217
433,3726.06,2.820717646773604
434,3728.77,3.0907444942725517
435,3731.48,2.7549243417715
436,3734.1800000000003,2.0378201898331825
437,3736.89,1.6784630373321303
438,3739.6000000000004,1.5618958848310784
439,3742.31,1.4616457323300263
440,3745.0099999999998,1.3812365803917088
441,3747.72,1.343067427890657
442,3750.4300000000003,1.2185762753896048
443,3753.13,1.2159081234512874
444,3755.8399999999997,1.2972569709502353
445,3758.5499999999997,1.4175708184491833
446,3761.25,1.453351666510866
447,3763.96,1.4260125140098139
448,3766.6699999999996,1.3372973615087618
449,3769.3700000000003,1.3132952095704444
450,3772.08,1.3323300570693923
451,3774.79,1.4124599045683404
452,3777.4900000000002,1.5114927526300228
453,3780.2000000000003,1.6322286001289708
454,3782.91,1.7185004476279189
455,3785.6099999999997,1.7219762956896012
456,3788.32,1.6794921431885492
457,3791.03,1.5694889906874971
458,3793.74,1.448654838186445
459,3796.4399999999996,1.3540856862481276
460,3799.15,1.3544585337470756
461,3801.86,1.3879343812460236
462,3801.8939600000003,1.3883979962238688
463,3804.56,1.4247942605676747
464,3807.27,1.5658321398420327
465,3809.98,1.642632019116391
466,3812.68,1.6578768988362313
467,3815.3900000000003,1.6636877781105894
468,3818.1,1.6887236573849476
469,3820.7999999999997,1.737774537104788
470,3823.5099999999998,1.5672384163791462
471,3826.2200000000003,1.531507295653504
472,3828.92,1.4884681753733446
473,3831.6299999999997,1.3779030546477027
474,3834.34,1.328573933922061
475,3837.05,1.210506813196419
476,3839.75,1.2886276929162594
477,3842.4599999999996,1.4555945721906174
478,3845.17,1.5216574514649757
479,3847.87,1.645824331184816
480,3850.58,1.8274202104591741
481,3853.29,1.8368880897335322
482,3855.9900000000002,1.8968189694533726
483,3858.7,1.9106948487277307
484,3861.4100000000003,1.8032227280020892
485,3864.11,1.8805946077219293
486,3866.82,1.9173054869962876
487,3869.5299999999997,1.8217913662706455
488,3872.23,1.8078242459904859
489,3874.94,1.7976001252648441
490,3877.65,1.6695910045392022
491,3880.3500000000004,1.6409008842590425
492,3883.06,1.6468527635334005
493,3885.77,1.515750642807759
494,3888.4800000000005,1.447666522082117
495,3891.1800000000003,1.3790264018019573
496,3893.89,1.3621912810763155
497,3896.6,1.5108251603506737
498,3899.3,1.621627040070514
499,3902.01,1.646381919344872
500,3904.72,1.7358887986192302
501,3907.4199999999996,1.8015856783390707
502,3910.13,1.8303725576134287
503,3912.84,1.902014436887787
504,3915.54,1.8886583166076272
505,3918.25,1.8771201958819854
506,3920.96,1.7919210751563435
507,3923.66,1.7994759548761836
508,3926.3700000000003,1.744707834150542
509,3929.08,1.5957867134249
510,3931.79,1.5471135926992583
511,3934.49,1.5359594724190986
512,3937.2000000000003,1.4905693516934568
513,3939.91,1.6747442309678149
514,3942.6099999999997,1.7523971106876552
515,3945.32,1.7306849899620134
516,3948.03,1.7680518692363716
517,3950.73,1.7511317489562117
518,3953.4399999999996,1.7464866282305702
519,3956.15,1.7967015075049282
520,3958.85,1.6803763872247686
521,3961.56,1.5739842664991266
522,3964.2699999999995,1.475891145773485
523,3966.9700000000003,1.297954025493325
524,3969.68,1.2728199047676834
525,3972.39,1.3217687840420416
526,3975.09,1.352578663761882
527,3977.8,1.47898854303624
528,3980.5099999999998,1.6172594223105983
529,3983.2200000000003,1.6996873015849563
530,3985.92,1.8116151813047965
531,3988.63,1.8963400605791547
532,3991.3399999999997,1.946084939853513
533,3994.04,1.9759598195733532
534,3996.75,1.9624526988477113
535,3999.46,1.9848155781220695
536,4002.1600000000003,1.9776954578419097
537,4004.87,1.9823333371162681
538,4007.58,1.9088562163906262
539,4010.2799999999997,1.8640370961104664
540,4012.9900000000002,1.9885229753848246
541,4015.7,1.9616998546591828
542,4018.3999999999996,2.030632734379023
543,4021.11,2.013561613653381
544,4023.82,1.9952724929277394
545,4026.5299999999997,1.9770293722020977
546,4029.2299999999996,1.912798251921938
547,4031.94,1.9165471311962963
548,4034.65,1.9659640104706542
549,4037.35,1.9309918901904946
550,4040.06,1.9541987694648526
551,4042.77,1.975998648739211
552,4045.47,1.9963075284590512
553,4048.1800000000003,1.9569184077334092
554,4050.89,1.9505382870077674
555,4053.59,1.9718791667276077
556,4056.2999999999997,1.960622046001966
557,4059.01,1.8867699252763241
558,4061.71,1.9044538049961646
559,4064.42,1.9191736842705225
560,4067.13,1.9219365635448808
561,4069.84,1.9446744428192388
562,4072.54,1.9550903225390792
563,4075.2500000000005,1.9353942018134374
564,4077.96,1.9107270810877957
565,4080.66,1.8557809608076359
566,4083.37,1.8390848400819941
567,4086.0800000000004,1.797773719356352
568,4088.78,1.7944035990761926
569,4091.49,1.7546864783505507
570,4094.2000000000003,1.6909623576249089
571,4096.9,1.6779322373447492
572,4099.610000000001,1.6347451166191074
573,4102.32,1.5767419958934654
574,4105.0199999999995,1.5316868756133057
575,4107.73,1.616365754887664
576,4110.4400000000005,1.683553634162022
577,4113.14,1.6889985138818624
578,4115.849999999999,1.7322733931562204
579,4118.56,1.7400072724305788
580,4121.27,1.756369151704937
