,lambda (Angstroms),Total Flux (erg/s/cm^2/Angstrom)
0,100.07000000000001,0.001274569753848137
1,101.93,0.0015320176423529034
2,104.07,0.001828134074607848
3,104.712855,0.0019171245061699346
4,106.0,0.0017688827920917358
5,107.97,0.0015421228145939506
6,109.98,0.0013112274875581378
7,114.11,0.0008361791470069431
8,118.11999999999999,0.00037514633006982735
9,120.22644299999999,0.00014465499697946784
10,120.87,0.00014503632290275233
11,125.11,0.00012765382902871347
12,126.85,0.00012055818640115976
13,128.03,0.00011595849749281871
14,131.01,0.0001031861944870084
15,131.92000000000002,0.00010459807719328767
16,134.06,9.57144747662964e-05
17,136.87,9.186768092524702e-05
18,138.038426,8.736355870349042e-05
19,140.06,8.997978396093709e-05
20,142.98999999999998,0.00019835728306727153
21,147.0,0.00045804706262918314
22,151.10999999999999,0.00048380569130735193
23,154.99,0.0005156314770181292
24,158.489319,0.0005477317807279791
25,158.97000000000003,0.0005520926004288065
26,161.92000000000002,0.000577254964957295
27,166.08,0.0006222661661228925
28,169.94,0.0006551925590313555
29,173.1,0.0006855514993398382
30,177.14000000000001,0.0007203624572025819
31,180.01,0.0007475067928625013
32,181.970086,0.0007675905038158724
33,182.1,0.0007689713839753046
34,185.91,0.0008064528981766373
35,191.12,0.0008573512005359401
36,193.78,0.0008929871280360831
37,197.84,0.0009301845436941961
38,201.98000000000002,0.000975624415818479
39,204.79000000000002,0.0010071150241926902
40,208.929613,0.001011084503507975
41,210.04,0.0010126742616696615
42,215.93,0.0011214620203905347
43,219.94,0.001170089761217479
44,223.0,0.0011903437828958952
45,227.14999999999998,0.0012444957665447278
46,229.77999999999997,0.0018765733995559156
47,234.04999999999998,0.00318684030562351
48,239.88329199999998,0.0038524997342740236
49,240.04999999999998,0.00387135133639486
50,246.21,0.003637442144997092
51,251.95,0.00381296778483099
52,257.21999999999997,0.003204255569138419
53,260.2,0.0036559330999232655
54,263.82,0.003807543221212239
55,268.72,0.0037706315235094693
56,273.72,0.003716999199322969
57,275.42287,0.0037048792853831307
58,278.81,0.0036840373332571383
59,283.99,0.0036530179510571893
60,289.94,0.0034453558769085998
61,296.01,0.0034720655390797026
62,300.82,0.003404124969894036
63,307.83000000000004,0.003399781566569395
64,316.227766,0.0033973629190307128
65,317.91,0.003395427609296187
66,328.33,0.003315439198286426
67,338.3,0.00321546986932603
68,347.78000000000003,0.003103962207486055
69,356.7,0.0030238227366408466
70,363.078055,0.002978654720841667
71,365.85,0.0029608239568053468
72,375.24,0.002876902128081957
73,384.86,0.0027081557519031494
74,394.74,0.0027047653655573466
75,404.86,0.002640891277518933
76,414.29,0.002566881831846775
77,416.86938299999997,0.0025388982856879064
78,421.99,0.0024827621699280923
79,429.84000000000003,0.0024175974984186823
80,440.86,0.002344273080579995
81,451.13,0.002257807605879149
82,459.52,0.0021841971353104934
83,470.22,0.0021135320798772853
84,478.630092,0.0020670091700554275
85,480.07,0.0020584756891738323
86,490.12,0.001970344806221404
87,500.39,0.0019242716720998677
88,506.18,0.0018719014708765283
89,512.04,0.0018874445988266543
90,520.36,0.0018395570091585742
91,530.0400000000001,0.0017644119577178272
92,539.89,0.0016771248485554966
93,549.5408739999999,0.0016180164709823596
94,549.93,0.0016156919641404617
95,560.15,0.0015932842913165073
96,570.5699999999999,0.0015676040456388553
97,579.84,0.0015013265938699654
98,590.62,0.0014671731170556575
99,600.21,0.0013957033487208511
100,609.97,0.0012218921934604016
101,619.88,0.0013419471085596788
102,629.9499999999999,0.0012880243653759977
103,630.957344,0.001285973463151696
104,640.19,0.00126875576693427
105,650.59,0.001225020220543748
106,658.12,0.0011852937922436873
107,665.7399999999999,0.0011807522034460163
108,675.0,0.0011555946900252245
109,684.39,0.0010962989447745512
110,695.51,0.0010949201144031468
111,705.1899999999999,0.001034432051993507
112,716.6500000000001,0.001040146415297797
113,724.43596,0.0010213518891335057
114,726.62,0.0010159873755880822
115,735.03,0.000996453245219166
116,745.26,0.0009645704205254662
117,755.62,0.0009400177605228534
118,764.37,0.0008502466301152414
119,775.01,0.000896729717139585
120,785.79,0.0008588950276774068
121,794.89,0.0008519331560534901
122,804.0899999999999,0.0008377158726534866
123,815.2800000000001,0.0008202753949093518
124,824.72,0.0008066579232467394
125,831.763771,0.000761208913111793
126,834.27,0.0007445924213799022
127,845.87,0.000767759741131033
128,855.6700000000001,0.0007468463474725054
129,865.5799999999999,0.0007327862529667904
130,875.6,0.0007205106576138879
131,885.74,0.0007053365431549626
132,896.0,0.0006919457095900144
133,904.29,0.000673131373015607
134,914.76,0.000749433256015119
135,925.35,0.0011944076199086084
136,936.06,0.0016904758646960746
137,944.73,0.0022318786342859285
138,954.992586,0.002602679960949812
139,955.67,0.00262722534163206
140,964.51,0.0028320761216821897
141,975.6800000000001,0.0013409110360667997
142,984.7,0.002464611350099851
143,996.11,0.0024420456431283556
144,1005.3199999999999,0.0030246472985878234
145,1014.62,0.0029766142210387522
146,1024.01,0.0017450794104811413
147,1035.87,0.002480502038466949
148,1045.46,0.0035882843767792508
149,1055.1299999999999,0.0034913041746395175
150,1064.89,0.002942017239491245
151,1074.75,0.003282253378777928
152,1084.69,0.0026914269776125766
153,1094.73,0.0033498586508821813
154,1096.4782,0.0033265451078776788
155,1104.86,0.0032144238447287827
156,1115.08,0.0031127659190557056
157,1125.4,0.002808488966712638
158,1135.81,0.0033170325903665782
159,1143.68,0.003103891291438289
160,1154.27,0.003174926067086245
161,1164.95,0.00318167941873121
162,1175.72,0.0023268183463731823
163,1183.8700000000001,0.0030454081727689184
164,1194.8300000000002,0.0024397556497379085
165,1205.88,0.0020094227027039066
166,1214.24,0.0014645268730926614
167,1225.48,0.0023720474753856765
168,1233.97,0.0030283908111034433
169,1245.3899999999999,0.0031840025653904745
170,1254.0200000000002,0.003076123463770254
171,1258.92541,0.002964933453686828
172,1265.63,0.0028133945716715962
173,1274.4,0.0033019991663024014
174,1286.19,0.0033864477068608037
175,1295.11,0.002826238944501258
176,1304.08,0.002813602396478262
177,1316.15,0.0032871351373213423
178,1325.27,0.0031472222323079948
179,1334.46,0.002872193627365817
180,1343.7099999999998,0.0032277022796274985
181,1356.14,0.0031330685636937364
182,1365.5400000000002,0.002859094858965067
183,1375.0100000000002,0.002925232454307567
184,1384.54,0.0029120593068539266
185,1394.14,0.0024309214594714556
186,1403.8,0.002436524869292844
187,1413.53,0.0027066885791854024
188,1426.6100000000001,0.0027006566496267856
189,1436.5,0.0027192200453963027
190,1443.1299999999999,0.002801222466422783
191,1445.43977,0.002814617935791434
192,1446.46,0.0028205340383784337
193,1456.48,0.0027317370884278485
194,1466.5800000000002,0.002556530426302009
195,1473.35,0.0025565657834711246
196,1483.56,0.0025800645171043107
197,1493.85,0.002580100538562242
198,1504.2,0.0024480687758887338
199,1511.1399999999999,0.002234433744685434
200,1518.1200000000001,0.0023388118573945075
201,1525.13,0.0022860490780378605
202,1535.7,0.002002772106882403
203,1546.34,0.002016560387573598
204,1553.4800000000002,0.0019487730759321627
205,1564.25,0.0020443718243385693
206,1575.0900000000001,0.002159464824591629
207,1586.01,0.0022194331126694344
208,1593.33,0.0022449364486336774
209,1604.37,0.0021893681684486016
210,1615.5,0.0021744272120663645
211,1626.69,0.0020917734715526874
212,1634.2,0.0021944564911007018
213,1645.53,0.0022045102542803292
214,1653.12,0.0020871235616530897
215,1659.58691,0.0021562485267958608
216,1664.58,0.002209733017447357
217,1672.2699999999998,0.0020080920654907586
218,1676.1200000000001,0.002250730220883099
219,1683.8600000000001,0.0022924065826328945
220,1695.5300000000002,0.002170603201705261
221,1703.36,0.0021026169281265663
222,1715.16,0.0020046979628355575
223,1723.08,0.001986706053928372
224,1735.02,0.0020986767670152662
225,1743.0300000000002,0.00205629722277959
226,1755.1200000000001,0.002162268876985666
227,1763.22,0.0020150946974214993
228,1775.44,0.0020338577672642
229,1783.6299999999999,0.002080907952371542
230,1796.0,0.002203124963333425
231,1804.29,0.0021734477758535552
232,1816.79,0.0020119232024520626
233,1825.18,0.0020584306423849807
234,1833.6,0.0019941278705417355
235,1846.31,0.0018211838147070979
236,1854.8400000000001,0.0018759959330179197
237,1863.4,0.0019545078395525775
238,1876.32,0.002055093301284795
239,1884.98,0.001924224835232241
240,1893.68,0.001915762420144802
241,1905.46072,0.001979739915691047
242,1906.8,0.00198693259003147
243,1915.6000000000001,0.0019376115547716211
244,1924.45,0.001851285826129614
245,1933.3300000000002,0.001801242081458312
246,1946.73,0.0020497892550399056
247,1955.72,0.0019450477849278554
248,1964.74,0.0021642122987865103
249,1973.81,0.0021394221192630072
250,1982.92,0.002168540585033777
251,1996.67,0.0021533079049402635
252,2005.8799999999999,0.002157897983946717
253,2015.14,0.002138018369571012
254,2024.44,0.0020753404004895805
255,2033.79,0.0021767127380259914
256,2043.18,0.002314557720856675
257,2057.34,0.002166018155029464
258,2066.83,0.002160756751095831
259,2076.37,0.002372282653780041
260,2085.96,0.004240722863082092
261,2095.59,0.003922470717678416
262,2105.2599999999998,0.003807091217569014
263,2114.98,0.004172278024077454
264,2124.74,0.0037976804758801668
265,2134.55,0.0035942142343007213
266,2144.4,0.00438687363801555
267,2154.3,0.00440691034834822
268,2164.2400000000002,0.003893436703975163
269,2174.23,0.003937803366219948
270,2184.27,0.004785209335082575
271,2187.7616199999998,0.004762369226436001
272,2194.35,0.004719672984336575
273,2204.48,0.004602466518836333
274,2214.65,0.0036428891334328328
275,2224.87,0.004151811098150259
276,2235.15,0.005380408683012798
277,2245.46,0.005127601077947892
278,2255.83,0.003993903093028098
279,2266.24,0.003754575188205046
280,2276.7000000000003,0.00413415663350292
281,2287.21,0.005456436428921722
282,2292.48,0.004531334731667401
283,2303.06,0.0054936694172555
284,2313.69,0.004604145452964525
285,2324.37,0.003678122838794477
286,2335.1,0.0033408965747453562
287,2345.88,0.0024427076608171615
288,2356.71,0.004228883097009894
289,2367.58,0.002657977613299368
290,2373.04,0.0033025140465045683
291,2384.0,0.0022044399930117105
292,2395.0,0.002639738019615594
293,2406.05,0.002627698396340404
294,2417.16,0.0030481863932103263
295,2422.73,0.004996947796681566
296,2433.92,0.005077643953744971
297,2445.15,0.006029667190905117
298,2456.44,0.006443903048210376
299,2467.78,0.00545017725563656
300,2473.46,0.0048713606293738386
301,2484.8799999999997,0.0030616659969935067
302,2496.35,0.0036922817147341013
303,2507.87,0.005770313782595623
304,2511.88643,0.0035863355489212352
305,2513.65,0.0026273088054721513
306,2519.45,0.0022044561917201515
307,2525.2599999999998,0.0023925064734616826
308,2536.91,0.003802215723425338
309,2542.76,0.004044167587140993
310,2554.5,0.007490261896546428
311,2566.29,0.005444738683419517
312,2572.2099999999996,0.00700630281558989
313,2584.0800000000004,0.0061327977664112285
314,2596.01,0.005467679090193752
315,2607.9900000000002,0.004699443891443932
316,2614.0,0.004258472083056084
317,2626.0699999999997,0.005841120943748043
318,2632.12,0.010559611717334319
319,2644.2700000000004,0.014431354741974526
320,2656.48,0.02041848713957592
321,2662.6,0.012425923181616913
322,2674.89,0.014326724743166553
323,2687.2400000000002,0.016710065677677383
324,2693.43,0.012083330988173092
325,2705.86,0.015168681086632168
326,2712.1,0.010769305874595533
327,2724.62,0.008460308032496389
328,2737.19,0.0108653336678649
329,2743.5,0.005872475724282982
330,2756.17,0.008114515314586802
331,2762.52,0.01081217895297901
332,2775.2700000000004,0.011555575707231078
333,2788.08,0.006735074834444334
334,2794.51,0.0031189306367847896
335,2807.4100000000003,0.0037446148234398244
336,2813.88,0.010108842207754404
337,2826.8700000000003,0.015356766453851216
338,2833.39,0.014732938315633453
339,2846.46,0.010579871725678515
340,2853.0299999999997,0.005958847064928404
341,2866.2,0.015139155429908777
342,2872.7999999999997,0.02069640645563926
343,2884.0315,0.01868213215649877
344,2886.06,0.01831835864535352
345,2892.72,0.022633407220947064
346,2912.77,0.030799752932756445
347,2932.96,0.026636458614623347
348,2953.29,0.02468389426654777
349,2966.92,0.02620148135143365
350,2987.48,0.026559866954166865
351,3008.19,0.026983062524818847
352,3029.04,0.028707788065528355
353,3050.04,0.029982473574156634
354,3071.18,0.032638269052842436
355,3092.47,0.03203512449944701
356,3106.75,0.03702621144531424
357,3128.2799999999997,0.034389216840588856
358,3149.96,0.03422269220378224
359,3171.8,0.03777223753275565
360,3186.44,0.03237107440162794
361,3208.53,0.03622479967713264
362,3230.77,0.030056574920556113
363,3253.16,0.04273177013189836
364,3268.18,0.05007685691949821
365,3290.83,0.04892659207523299
366,3311.31121,0.04636395822738646
367,3313.64,0.046072568173645356
368,3321.2799999999997,0.043792226937787046
369,3328.94,0.048791355620159474
370,3336.6099999999997,0.048900054261647265
371,3344.3,0.0456333628213658
372,3352.01,0.04209686129931507
373,3359.74,0.05025392969549508
374,3367.4900000000002,0.047878628009905826
375,3375.25,0.03444964628343194
376,3383.03,0.037769144475188796
377,3390.8300000000004,0.049206322585176376
378,3398.64,0.04720689065427934
379,3406.48,0.0487459886007284
380,3414.33,0.047743726506292834
381,3422.2000000000003,0.05380882433008801
382,3430.09,0.04918518207211391
383,3438.0,0.05055791973237056
384,3445.92,0.030963237351742574
385,3453.87,0.051724264848460696
386,3461.8300000000004,0.04175497230429418
387,3469.81,0.04546063967835841
388,3477.81,0.03941132697065337
389,3485.82,0.045037544222063707
390,3493.8599999999997,0.03995367135082014
391,3501.92,0.04618245839780732
392,3509.9900000000002,0.05121619540390986
393,3518.08,0.04501874232824314
394,3526.19,0.04012267917080716
395,3534.32,0.050269015931601914
396,3542.47,0.05770682261062741
397,3550.63,0.05561480924876827
398,3558.8199999999997,0.05130590576425524
399,3567.02,0.05310180223885758
400,3575.2400000000002,0.04112777863169066
401,3583.49,0.03350708490186984
402,3591.75,0.035242361131164385
403,3600.03,0.056098557278689676
404,3608.33,0.045912333344445694
405,3616.64,0.04964468936931709
406,3624.98,0.04907323527153459
407,3633.3399999999997,0.05055701109198282
408,3641.71,0.06091526687154643
409,3650.1099999999997,0.04996959252845614
410,3658.52,0.06646963814448123
411,3666.96,0.0660066136378524
412,3675.41,0.06784778909033896
413,3683.88,0.05464085446105626
414,3692.37,0.05827269975000429
415,3700.89,0.06552498491629842
416,3709.42,0.045544390041707926
417,3717.97,0.07183083508534817
418,3726.54,0.04923955004721915
419,3735.1299999999997,0.05239233492732087
420,3743.74,0.05797061972565332
421,3752.37,0.03414138444221651
422,3761.02,0.05249798907701044
423,3769.69,0.05047729363003511
424,3778.38,0.06324486810129051
425,3787.09,0.07210298249077667
426,3795.8199999999997,0.054444726798493534
427,3801.8939600000003,0.055498544437834994
428,3804.5699999999997,0.05596283330410605
429,3813.34,0.06439279491927183
430,3822.13,0.04873387646970593
431,3830.94,0.036296877955408376
432,3839.77,0.035384209376379164
433,3848.62,0.055042430732618275
434,3857.5,0.0539075519917599
435,3866.3900000000003,0.0557959532185357
436,3875.2999999999997,0.04493543438057983
437,3884.24,0.04994768544552647
438,3884.89,0.05588311334174741
439,3886.6600000000003,0.040843407612995236
440,3888.43,0.046681111884243065
441,3890.19,0.056772106187856726
442,3891.96,0.06501951045910455
443,3893.7300000000005,0.06527055473035236
444,3895.5,0.06381322900160019
445,3897.27,0.06722016327284801
446,3899.0399999999995,0.07970989754409584
447,3900.81,0.07234351181534367
448,3902.58,0.05496816608659148
449,3904.35,0.05303708035783931
450,3906.1200000000003,0.054187754629087134
451,3907.89,0.06972231890033495
452,3909.66,0.07386158317158278
453,3911.4300000000003,0.0723407774428306
454,3913.2,0.06958174171407842
455,3914.97,0.06437107598532626
456,3916.7400000000002,0.05889854025657408
457,3918.51,0.0608556645278219
458,3920.2799999999997,0.06510899879906973
459,3922.05,0.06378391307031755
460,3923.81,0.05652860737393121
461,3925.5800000000004,0.04808562164517903
462,3927.35,0.04734772591642685
463,3929.12,0.03843369018767468
464,3930.8900000000003,0.0275413644589225
465,3932.66,0.023433078730170327
466,3934.43,0.02854378300141815
467,3936.2000000000003,0.034167227272665975
468,3937.9700000000003,0.0375527715439138
469,3939.74,0.04190658581516162
470,3941.5099999999998,0.05336507008640945
471,3943.28,0.05798579435765727
472,3945.0499999999997,0.05966284862890509
473,3946.8199999999997,0.05852026290015292
474,3948.59,0.060070057171400744
475,3950.36,0.06318073144264857
476,3952.1299999999997,0.05971315571389639
477,3953.9,0.06118623998514421
478,3955.67,0.05659714425639204
479,3957.44,0.06366715852763986
480,3959.2,0.05870542283125352
481,3960.97,0.04889494710250134
482,3962.7400000000002,0.047651591373749164
483,3964.5099999999998,0.041467495644996986
484,3966.2799999999997,0.032987469916244815
485,3968.05,0.028861054187492637
486,3969.82,0.030167758458740458
487,3971.5899999999997,0.030432302729988286
488,3973.36,0.04538205700123611
489,3975.13,0.05231219127248393
490,3976.9,0.06324962554373176
491,3978.67,0.07427664981497957
492,3980.44,0.0701081340862274
493,3982.21,0.07085643835747522
494,3983.9799999999996,0.08002166262872305
495,3985.75,0.08338629689997087
496,3987.52,0.0810398311712187
497,3989.29,0.08260846544246653
498,3991.06,0.09039299971371435
499,3992.82,0.084293614017328
500,3994.59,0.07775249828857583
501,3996.36,0.08833288255982365
502,3998.1299999999997,0.09295087683107148
503,3999.9,0.0897213911023193
504,4001.67,0.09613533537356712
505,4003.4399999999996,0.09033484964481495
506,4005.21,0.09021067391606277
507,4006.98,0.0852482181873106
508,4008.75,0.08603657245855842
509,4010.52,0.09102793672980625
510,4012.29,0.09284476100105407
511,4014.06,0.09327605527230189
512,4015.8300000000004,0.10187266954354972
513,4017.6,0.10334026381479754
514,4019.37,0.09510373808604536
515,4021.1400000000003,0.09315929235729319
516,4022.9100000000003,0.09343980662854101
517,4024.68,0.09191904089978885
518,4026.44,0.09133460520340249
519,4028.21,0.09577316947465031
520,4029.98,0.09245638374589814
521,4031.75,0.08233870801714596
522,4033.52,0.08939323228839378
523,4035.2900000000004,0.09586582655964161
524,4037.06,0.09586550083088943
525,4038.83,0.09945763510213726
526,4040.6,0.09117076937338509
527,4042.3700000000003,0.09128154364463291
528,4044.14,0.08677714791588073
529,4045.91,0.07676797218712855
530,4047.6800000000003,0.08711817645837637
531,4049.45,0.0967251907296242
532,4051.22,0.09213039500087203
533,4052.9900000000002,0.08233587927211984
534,4054.76,0.08720291354336768
535,4056.5299999999997,0.0907046478146155
536,4058.3,0.09119940208586332
537,4060.07,0.09312249635711115
538,4061.8300000000004,0.0852324106607248
539,4063.6,0.08153207493197262
540,4065.37,0.08486498920322046
541,4067.1400000000003,0.08832974347446827
542,4068.91,0.0904988177457161
543,4070.68,0.08772648201696392
544,4072.4500000000003,0.08595705628821175
545,4074.2200000000003,0.08600743055945956
546,4075.99,0.0875862448307074
547,4077.76,0.08975266910195522
548,4079.53,0.08494407337320303
549,4081.2999999999997,0.09159872764445087
550,4083.0699999999997,0.10138555191569869
551,4084.84,0.10415244618694652
552,4086.61,0.09912388045819434
553,4088.3799999999997,0.09962658472944216
554,4090.15,0.10075562900068999
555,4091.92,0.0999041232719378
556,4093.69,0.09741788754318563
557,4095.45,0.08803336184679929
558,4097.219999999999,0.08600736611804712
559,4098.99,0.08457914038929493
560,4100.76,0.08598604466054277
561,4102.53,0.08609195893179059
562,4104.3,0.0858804832030384
563,4106.07,0.09261716747428624
564,4107.84,0.08841429174553406
565,4109.610000000001,0.09106213601678187
