,lambda (Angstroms),Total Flux (erg/s/cm^2/Angstrom)
0,102.07000000000001,0.022980218981754872
1,103.96000000000001,0.026853800183056106
2,104.712855,0.02839678694972472
3,105.9,0.02636668141900471
4,108.11,0.022587418399596503
5,110.11999999999999,0.01915017023343449
6,113.99,0.01253218500431909
7,118.0,0.005674789662535986
8,120.22644299999999,0.0018674114219618247
9,121.02999999999999,0.0018038290152581132
10,124.99,0.0014904864243875428
11,127.02,0.0013298589998012682
12,127.89999999999999,0.0012602279263142528
13,130.88,0.0010244309399886772
14,132.09,0.0009286904674090302
15,133.93,0.0007830989845298155
16,137.05,0.0005362316807776693
17,138.038426,0.00045802288642982146
18,139.92,0.0004527707081484819
19,142.85,0.00044468123517685476
20,146.85,0.000433793090398524
21,150.97,0.0004223918913708434
22,154.84,0.00041172175642930855
23,158.489319,0.00040167408024505835
24,159.18,0.0003987369317904089
25,162.14,0.0003861796873564544
26,165.91000000000003,0.00037025131765814045
27,170.17000000000002,0.0003522368569937329
28,172.93,0.0003406379686336942
29,176.96,0.0003236956147492898
30,179.84,0.00031163990976490154
31,181.92,0.00030294238427617674
32,181.970086,0.00030273319893094053
33,186.16,0.0003090142268590493
34,190.92999999999998,0.0003163282382208194
35,194.03,0.0003211435167263724
36,198.10000000000002,0.00032747716165140484
37,201.78,0.00033339865749025473
38,205.06,0.0003386187626509688
39,208.929613,0.0003446836815463131
40,209.84,0.00035249180178746425
41,216.21,0.0004080217017166177
42,220.23000000000002,0.00044310969626845404
43,222.78,0.0004654051045289471
44,226.92000000000002,0.000501785522410689
45,230.08,0.0005367874287648687
46,233.82,0.0005859694988802585
47,239.82,0.0006508462153755366
48,239.88329199999998,0.0006514050467705144
49,245.97,0.000611999585563395
50,252.28,0.0005780595343331296
51,256.97,0.0005400477632443903
52,259.94,0.0005317224113182592
53,264.17,0.0005106720937264964
54,269.08000000000004,0.000482569818791377
55,274.08,0.00045382815773728437
56,275.42287,0.00044611912021078444
57,279.18,0.0004782478613240184
58,283.71,0.0005180438633464862
59,290.32,0.0005695313573351209
60,295.72,0.0006192841537857452
61,301.21999999999997,0.0006651588335039731
62,308.23,0.0007278715605630245
63,316.227766,0.0008001506264636727
64,318.33,0.0007922715576033797
65,328.0,0.0007542129337102283
66,337.97,0.0007137810524057072
67,348.24,0.0006710608136898165
68,357.16999999999996,0.0006350815780780441
69,363.078055,0.0006122095053525984
70,366.34,0.0006309754046133363
71,374.87,0.0006783022907587141
72,385.37,0.0007279371949235986
73,395.26,0.0007899384366560468
74,405.4,0.0008472055761067066
75,413.88,0.000893102122708442
76,416.86938299999997,0.0009084953447173613
77,421.58,0.0009248022397809394
78,430.41,0.0009544963637305355
79,441.45,0.0009963107967320682
80,450.69,0.0010283243232659602
81,460.13,0.0010595960949629233
82,469.76,0.001092283599564804
83,478.630092,0.001124545279825602
84,479.6,0.0011223989593292269
85,489.64,0.0010930571477074616
86,499.9,0.0010711910965880084
87,505.68,0.0010561750406942031
88,511.53999999999996,0.0010727159795285114
89,519.85,0.0010535070194112933
90,529.52,0.0010280231696720035
91,540.6,0.0009893575895157125
92,549.39,0.000985629097767175
93,549.5408739999999,0.0009855277150152748
94,559.6,0.00100128681346516
95,570.01,0.0010141979383295964
96,580.6,0.001000520127312726
97,590.04,0.001025155945537537
98,599.62,0.0010208361358546648
99,609.37,0.001004276692283892
100,620.7,0.0010707062337549837
101,629.33,0.001082483613445674
102,630.957344,0.0010830311615299577
103,639.56,0.0011077441062882626
104,649.9499999999999,0.0011636646071989105
105,657.48,0.0011967843212371378
106,665.09,0.0012374605188242437
107,674.3399999999999,0.001262758829163367
108,685.3,0.001275331775359777
109,694.83,0.0014101382781199767
110,704.5,0.0014027365270907145
111,715.94,0.0015323670745803983
112,724.43596,0.0015751334868448247
113,725.9,0.0015815842442188695
114,734.31,0.001620817257314185
115,744.5300000000001,0.0017248359538461853
116,754.88,0.001796701348083583
117,765.38,0.0018383390089041314
118,774.2499999999999,0.0019684593061877753
119,785.02,0.0020627826468579947
120,794.1099999999999,0.0021337132017969266
121,805.15,0.002212628222316817
122,814.48,0.0022785556037887905
123,825.8100000000001,0.0024309908730361057
124,831.763771,0.0022778263297833115
125,835.37,0.0021755532218583605
126,845.04,0.0025200037545961957
127,854.83,0.0025676995617837243
128,864.7299999999999,0.0026922347038834723
129,874.74,0.00282716318089544
130,884.87,0.003006347932357101
131,895.1199999999999,0.003131074958268457
132,905.48,0.0031301353190920315
133,915.97,0.004508279893902774
134,924.4399999999999,0.02758503468214367
135,935.15,0.06137239192677885
136,945.97,0.11945366050632626
137,954.73,0.1724359395411539
138,954.992586,0.17299788648919026
139,965.78,0.19609988590767727
140,974.72,0.030826713882170786
141,986.01,0.16812581102221905
142,995.13,0.18136150761364866
143,1004.3399999999999,0.27112917851354634
144,1015.97,0.26314225859669615
145,1025.3700000000001,0.11173197525891526
146,1034.85,0.1838657690842171
147,1044.4299999999998,0.3647411343633723
148,1054.09,0.3613961768056102
149,1063.85,0.2845204907017016
150,1076.17,0.3443510738164398
151,1086.12,0.2717359334748526
152,1096.17,0.3680904645871188
153,1096.4782,0.36761751670263193
154,1103.77,0.356423461802342
155,1113.98,0.34354003975227276
156,1124.29,0.31046922835793245
157,1134.7,0.40167282761932116
158,1145.19,0.3655234554052931
159,1155.79,0.39343188491256686
160,1163.8,0.41005462843645957
161,1174.5700000000002,0.2824923060584727
162,1185.44,0.40163529433621475
163,1193.66,0.2722635502371384
164,1204.7,0.19328458662961978
165,1215.85,0.12927682474340307
166,1224.28,0.27412179302135764
167,1235.6000000000001,0.4273309792498802
168,1244.17,0.4761311224458553
169,1255.68,0.45575283892026297
170,1258.92541,0.4311509238758702
171,1264.3899999999999,0.38973168660703167
172,1276.08,0.5160388295064883
173,1284.93,0.5453689919239553
174,1293.84,0.4282883581544221
175,1305.81,0.4243675188478776
176,1314.86,0.541588393975344
177,1323.9699999999998,0.5196251729158101
178,1336.2199999999998,0.45996475140326454
179,1345.49,0.5567828405117301
180,1354.81,0.5403787327976954
181,1364.2,0.48163702953216053
182,1373.6599999999999,0.5113467307151254
183,1386.3700000000001,0.519627938435578
184,1395.98,0.4557589491510423
185,1405.6599999999999,0.4761206643150063
186,1415.4,0.4860890832919701
187,1425.21,0.5043202067174336
188,1435.09,0.5020062345913968
189,1441.71,0.5329646552923722
190,1445.43977,0.5392096809518245
191,1448.37,0.544115948608508
192,1455.06,0.5305340054320987
193,1465.14,0.4883372430676435
194,1475.3,0.489459984970137
195,1485.52,0.5020131300728421
196,1495.82,0.513676879442496
197,1506.19,0.48721453254573
198,1513.14,0.4322686032369042
199,1516.6299999999999,0.4663709893825442
200,1523.6299999999999,0.45159036274056136
201,1534.19,0.3933531259777987
202,1544.8300000000002,0.43928629348198484
203,1555.53,0.4147354641863826
204,1566.32,0.4224364396910976
205,1573.55,0.45367022531659246
206,1584.45,0.4794367066883621
207,1595.4399999999998,0.4928556928604491
208,1606.4999999999998,0.48386238276611626
209,1613.91,0.48721967799224586
210,1625.1,0.4599780748317048
211,1636.3600000000001,0.4939960754047439
212,1643.92,0.5043287786314024
213,1655.3100000000002,0.4642362861382332
214,1659.58691,0.48180972965413477
215,1666.78,0.5113679160291905
216,1670.6299999999999,0.453676615639224
217,1678.3400000000001,0.5172731187543819
218,1686.0800000000002,0.5416199335548126
219,1693.8700000000001,0.5090007678306985
220,1705.61,0.48948364066752764
221,1713.48,0.4653326061041414
222,1725.36,0.4653337334722445
223,1733.3200000000002,0.49859933396467726
224,1745.34,0.48838001586405433
225,1753.3899999999999,0.524477551412306
226,1765.55,0.47837348784295697
227,1773.7,0.4940415623421187
228,1785.99,0.5043854494089526
229,1794.23,0.5429253589639332
230,1806.6699999999998,0.5391905044571321
231,1815.01,0.4997770529630227
232,1823.39,0.5102119170492773
233,1836.03,0.49066764044429606
234,1844.5,0.4506272395863696
235,1853.02,0.4558457582038981
236,1865.8600000000001,0.47186005950073684
237,1874.47,0.5114466131740842
238,1883.13,0.47294948632288675
239,1896.18,0.45691586941663637
240,1904.93,0.4839646776212578
241,1905.46072,0.48303889567804587
242,1913.7199999999998,0.468624137509315
243,1926.99,0.4600649748869732
244,1935.88,0.47077571138187757
245,1944.82,0.49864312277270384
246,1953.8,0.4686027140802676
247,1967.34,0.5149592158959038
248,1976.42,0.5293442569953112
249,1985.5400000000002,0.5020795780114561
250,1994.71,0.48951757392352296
251,2003.9199999999998,0.5032197497523272
252,2013.17,0.48726370549786885
253,2027.1200000000001,0.5090227014600642
254,2036.48,0.487249501976634
255,2045.8799999999999,0.5078519824099412
256,2055.3199999999997,0.48500734275998597
257,2064.81,0.48836197800595255
258,2074.34,0.5256603931686566
259,2079.1200000000003,0.5089967932187852
260,2083.91,0.5305542882480981
261,2093.53,0.5020227582234615
262,2103.19,0.5043305081155623
263,2112.9,0.5113537329035851
264,2122.6600000000003,0.5184625325875296
265,2137.37,0.4805200469677371
266,2147.23,0.49968949644352534
267,2157.15,0.5184499157944198
268,2167.1000000000004,0.5008312200828674
269,2177.1099999999997,0.49737589424642115
270,2187.15,0.4950899533475281
271,2187.7616199999998,0.49657356960856014
272,2197.25,0.5195982445186532
273,2207.39,0.5054661036202176
274,2212.48,0.47719704117711736
275,2222.69,0.46527992830009296
276,2232.95,0.5031476354383624
277,2243.2599999999998,0.48162266259192543
278,2253.61,0.4589098057577234
279,2264.02,0.46847187294187387
280,2274.4700000000003,0.48352515613825936
281,2284.96,0.5013552553468797
282,2295.51,0.47086137857385263
283,2306.11,0.47711412181611923
284,2316.75,0.45432888107062075
285,2327.4500000000003,0.35989396434347476
286,2332.81,0.41781880998296056
287,2343.58,0.39969782127722575
288,2354.39,0.4420069485837259
289,2365.2599999999998,0.40011599990857855
290,2376.18,0.41581257124872484
291,2387.15,0.3807612626041649
292,2392.65,0.407835964286473
293,2403.7,0.392843887666383
294,2414.79,0.40451372705852795
295,2425.94,0.43713839046902536
296,2437.13,0.42203796989175774
297,2442.75,0.4489353196107707
298,2454.03,0.44350843506103177
299,2465.35,0.4381467665235278
300,2476.73,0.42009652200437625
301,2482.44,0.42481320775091796
302,2493.9,0.4007996952562364
303,2505.4100000000003,0.45560150277684847
304,2511.1899999999996,0.3949025165448014
305,2511.88643,0.39576897863880295
306,2516.9799999999996,0.4021033061885599
307,2522.78,0.38743310760086663
308,2534.42,0.39800130422832364
309,2546.12,0.39317149156004594
310,2557.88,0.4307632695960334
311,2563.7700000000004,0.415050657064738
312,2575.6099999999997,0.4423469227064125
313,2587.4900000000002,0.43497298215093044
314,2593.46,0.4268858572253221
315,2605.4300000000003,0.4102178027262379
316,2617.4599999999996,0.403371738931419
317,2623.49,0.42807890471007587
318,2635.6000000000004,0.4541349285209439
319,2647.76,0.5033088445853663
320,2653.87,0.5268220979697102
321,2666.1200000000003,0.4627826000905305
322,2672.26,0.48887794882700697
323,2684.6,0.4941660370042252
324,2696.9900000000002,0.46085921743499764
325,2703.2099999999996,0.48237605377716114
326,2715.68,0.44780322181362064
327,2721.94,0.4435296519586276
328,2734.51,0.4694316045021959
329,2747.1299999999997,0.3956389492993185
330,2753.4599999999996,0.4122102685993016
331,2766.17,0.43427249945282204
332,2772.5499999999997,0.4566419110063595
333,2785.35,0.41616662791627784
334,2798.2000000000003,0.3288691370797506
335,2804.65,0.3538516377882641
336,2817.6,0.44811893145884557
337,2824.1,0.48774022442091347
338,2837.13,0.470820605697182
339,2843.6699999999996,0.45153789246209336
340,2856.7999999999997,0.41914935824547056
341,2863.3799999999997,0.4865765388132255
342,2876.6000000000004,0.49749759065300053
343,2883.23,0.4893475634743098
344,2884.0315,0.489664251594053
345,2896.5400000000004,0.49460849963864684
346,2909.91,0.5519295572469881
347,2930.08,0.5240107932948744
348,2950.39,0.5138097288988691
349,2970.84,0.5275435640589722
350,2991.43,0.5293139987751835
351,3012.17,0.5384482330157965
352,3033.0499999999997,0.5402675668125178
353,3047.05,0.5435488224233462
354,3068.17,0.5516274554591103
355,3089.44,0.5547572880192762
356,3110.85,0.5629892201355501
357,3132.42,0.5519800517445194
358,3146.88,0.5540504058968465
359,3168.69,0.5622801367448587
360,3190.65,0.5264846671172724
361,3212.77,0.5530405969823814
362,3227.6,0.5168879499615661
363,3249.97,0.5711682790340112
364,3272.5,0.6027239075991516
365,3287.6,0.5966649597222594
366,3310.3900000000003,0.5917181874630294
367,3311.31121,0.5918490108314572
368,3325.67,0.5938873142457081
369,3333.34,0.6101927493615487
370,3341.02,0.5784855838712821
371,3348.7200000000003,0.6324602171688015
372,3356.44,0.6065084492541065
373,3364.18,0.5231965801271973
374,3371.94,0.5326887097880738
375,3379.71,0.6070103388428434
376,3387.5,0.6039304666853985
377,3395.3100000000004,0.5831786933157396
378,3403.14,0.6361390187338662
379,3410.98,0.5759075435458859
380,3418.84,0.5756546671456912
381,3426.73,0.5996839889271753
382,3434.63,0.6407316101025522
383,3442.54,0.5747941306718221
384,3450.48,0.5946865494227704
385,3458.4300000000003,0.5971090675676118
386,3466.41,0.5819103838941317
387,3474.4,0.6132130996145446
388,3482.4100000000003,0.5880172141227432
389,3490.43,0.6140216280248347
390,3498.48,0.5610055401086049
391,3506.5499999999997,0.6190674509801608
392,3514.63,0.5787779612456097
393,3522.73,0.6198246702988442
394,3530.85,0.5715574781398646
395,3538.9900000000002,0.6235099847686706
396,3547.15,0.6435557901852625
397,3555.33,0.6300220943896401
398,3563.52,0.6196725979879105
399,3571.74,0.5674634997678597
400,3579.9700000000003,0.5697867009417017
401,3588.22,0.5052608009033296
402,3596.49,0.5837737996527431
403,3604.78,0.6208812971899424
404,3608.7999999999997,0.713632853534881
405,3611.51,0.6287569892798521
406,3614.21,0.47250622563093037
407,3616.92,0.48865666137590136
408,3619.62,0.6267892977269797
409,3622.3300000000004,0.5197483334719506
410,3625.03,0.5835694698230288
411,3627.74,0.660565305568
412,3630.4500000000003,0.588009241312971
413,3633.15,0.5789225776640492
414,3635.86,0.6642995134090203
415,3638.56,0.7509425497600984
416,3641.27,0.7153449855050695
417,3643.9700000000003,0.8130455218561476
418,3646.68,0.5614509576011187
419,3649.3799999999997,0.4130312939521969
420,3652.09,0.5514538296971679
421,3654.79,0.5979062660482463
422,3657.5,0.6572810017932172
423,3660.2000000000003,0.6573332381442955
424,3662.91,0.7590690738892665
425,3665.61,0.8478329102403447
426,3668.3199999999997,0.6387507459853158
427,3671.02,0.587252382336394
428,3673.73,0.702519818081365
429,3676.43,0.6501126544324433
430,3679.1400000000003,0.5242387901774144
431,3681.85,0.3478804259223854
432,3684.5499999999997,0.5501905622734635
433,3687.2599999999998,0.37370589801843457
434,3689.96,0.4036021343695128
435,3692.67,0.7021136701144839
436,3695.37,0.714182506465562
437,3698.0800000000004,0.6773732422105331
438,3700.78,0.7197363785616113
439,3703.49,0.6768683143065823
440,3706.1899999999996,0.6491003506576606
441,3708.9,0.6471294864026317
442,3711.6,0.5881079227537098
443,3714.31,0.7080204584986809
444,3717.01,0.607142694849759
445,3719.7200000000003,0.5050245305947302
446,3722.42,0.6861598669458084
447,3725.1299999999997,0.8518669026907794
448,3727.84,1.1169369384357506
449,3730.54,1.1720247747868286
450,3733.25,1.2191296105317997
451,3735.9500000000003,0.810616146882878
452,3738.66,0.6035035826278491
453,3741.36,0.6820678189789272
454,3744.0699999999997,0.6472782547238982
455,3746.77,0.5938107910749764
456,3749.48,0.5816410268199474
457,3752.18,0.7539658631710258
458,3754.8900000000003,0.7022617989159967
459,3757.59,0.6597003352670749
460,3760.2999999999997,0.8358081710120461
461,3763.0000000000005,0.8283377073631242
462,3765.71,0.8534796431080953
463,3768.41,0.6975172794591734
464,3771.12,0.8259623152041445
465,3773.82,0.5570530515552228
466,3776.53,0.6728759873001937
467,3779.24,0.8076826230451648
468,3781.9399999999996,0.7969809593962431
469,3784.65,0.9203260951412141
470,3787.35,0.8050087314922924
471,3790.06,0.8218197672372635
472,3792.76,0.8167729035883415
473,3795.4700000000003,0.7716829393333127
474,3798.17,0.6415210756843908
475,3800.8799999999997,0.7641094114293618
476,3801.8939600000003,0.7101087320361975
477,3803.58,0.6203149690733778
478,3806.29,0.7901622390428401
479,3808.99,0.86458700949212
480,3811.7000000000003,0.8765508794615823
481,3814.4,0.9709701499108622
482,3817.11,0.8067229198803244
483,3819.81,0.8360093903296042
484,3822.52,0.8758945602990665
485,3825.23,0.8635221302685289
486,3827.93,0.7754190007178087
487,3830.6400000000003,0.7608253706872711
488,3833.34,0.6473756411365509
489,3836.0499999999997,0.5049313111060132
490,3838.75,0.6231402815552929
491,3841.46,0.7643090515247553
492,3844.16,0.7643110219740351
493,3846.87,0.8994710919434974
494,3849.5699999999997,0.8568595623927773
495,3852.28,0.8489809323622396
496,3854.98,0.9201240028115194
497,3857.6899999999996,0.9714701727809817
498,3860.3900000000003,0.9656662432302615
499,3863.1,0.8092956131997239
500,3865.7999999999997,1.0072193836490038
501,3868.51,0.964956953618466
502,3871.21,0.8423689240677458
503,3873.92,0.9714701940372081
504,3876.6299999999997,0.9626823640066704
505,3879.33,0.9242617344559503
506,3882.04,0.8287322044254126
507,3884.74,0.8150514748746924
508,3887.4500000000003,0.7590053448441548
509,3890.15,0.6620659152934345
510,3892.86,0.6238936852628969
511,3895.56,0.7173022557121768
512,3898.27,0.774606725681639
513,3900.9700000000003,0.8867980961309188
514,3903.68,0.8473124661003811
515,3906.3799999999997,0.891746136549661
516,3909.09,0.9734369065191233
517,3911.79,1.024434176968403
518,3914.5,0.9437992469378654
519,3917.2000000000003,0.9722782173871451
520,3919.91,1.0089817873566076
521,3922.62,0.9742926573260698
522,3925.3199999999997,0.9416280277753497
523,3928.03,0.902142497744812
524,3930.73,0.8018206681940919
525,3933.44,0.8123711381635542
526,3936.1400000000003,0.813584908612834
527,3938.85,0.8283764785822962
528,3941.5499999999997,0.7567327490315762
529,3944.2599999999998,0.8362529190010385
530,3946.96,0.9302678894503184
531,3949.67,0.8693238594197806
532,3952.37,0.9344585298690604
533,3955.0800000000004,0.8735649998385228
534,3957.78,0.9592492702878026
535,3960.49,0.8655876402572649
536,3963.1899999999996,0.7528953107065447
537,3965.9,0.6462076806760071
538,3968.6,0.6482793511252868
539,3971.31,0.5603237210947491
540,3974.02,0.6217686910642115
541,3976.7200000000003,0.6679687615134913
542,3979.43,0.8309492314829536
543,3982.1299999999997,0.8424630019322334
544,3984.84,0.7551634719016959
545,3987.54,0.9328909423509756
546,3990.25,0.9813088123204379
547,3992.9500000000003,1.0031732827697177
548,3995.66,1.05916415273918
549,3998.36,1.05462302318846
550,4001.0699999999997,1.0225088931579223
551,4003.77,1.039324763607202
552,4006.48,1.0629006335766644
553,4009.18,1.143385504025944
554,4011.8900000000003,1.1564083739954063
555,4014.59,1.1186452444446862
556,4017.2999999999997,1.1235901144141485
557,4020.0099999999998,1.165947984383611
558,4022.71,1.1846328548328908
559,4025.42,1.151154724802353
560,4028.12,1.290965595251633
561,4030.8300000000004,1.1445404652210953
562,4033.53,1.200537335670375
563,4036.24,1.0849122056398375
564,4038.9399999999996,1.1257610760891172
565,4041.65,1.2074519460585795
566,4044.35,1.1578228165078592
567,4047.06,1.2756136864773215
568,4049.76,1.2468375569266015
569,4052.4700000000003,1.2205794268960637
570,4055.17,1.1726672973453436
571,4057.8799999999997,1.1510541673148058
572,4060.58,1.1766560377640858
573,4063.29,1.1378259077335482
574,4065.99,1.153127778182828
575,4068.7000000000003,1.1119246481522902
576,4071.41,1.1246455181217525
577,4074.11,1.2174993885710321
578,4076.8199999999997,1.0966232585404945
579,4079.52,1.0528001289897744
580,4082.23,1.1315119989592368
581,4084.93,1.1098038694085166
