,lambda (Angstroms),Total Flux (erg/s/cm^2/Angstrom)
0,102.03,0.02529175066625112
1,103.92,0.02957023041601757
2,104.712855,0.03136505267228087
3,106.1,0.028744978816299935
4,108.07000000000001,0.025023993997578826
5,110.08,0.02122745622297548
6,113.95,0.013917704367592421
7,117.95,0.0063624053212021974
8,120.22644299999999,0.0020626039235677575
9,120.97999999999999,0.001996744056852187
10,124.94,0.001650644964046979
11,126.97,0.0014732255501592184
12,128.15,0.0013700950597451203
13,131.13,0.0011096470234743842
14,132.04,0.0010301145409567331
15,133.88,0.0008693012042867678
16,137.0,0.0005966181978923915
17,138.038426,0.0005058614837491133
18,139.86,0.000500239809668663
19,143.12,0.0004901833288348584
20,147.13,0.0004778171049524392
21,150.91,0.00046615774265694167
22,155.13,0.00045314297217255044
23,158.489319,0.0004427857120346008
24,159.11,0.00043984424666975965
25,162.07,0.00042581919659715384
26,165.85,0.00040791336507010987
27,170.1,0.00038778293495613176
28,172.87,0.0003746692630884566
29,176.89,0.0003556404101725528
30,180.18,0.0003400694529640143
31,181.85,0.0003321739986827807
32,181.970086,0.0003316060402953831
33,186.07999999999998,0.00033793230802274445
34,190.85999999999999,0.00034531095055948327
35,193.96,0.00035010282327410474
36,198.02,0.00035638995994422186
37,202.17,0.00036282881539766653
38,204.98,0.00036720620212156533
39,208.929613,0.00037334363920398525
40,210.24,0.0003855249936507054
41,216.13,0.00044038837219101976
42,220.14,0.00047775061327466335
43,223.21,0.0005063569108299718
44,226.82999999999998,0.0005401526351199441
45,229.98999999999998,0.000570499462704561
46,234.27,0.0006123303368761311
47,239.88329199999998,0.0006662538551226294
48,240.27,0.0006634321716250171
49,245.87,0.0006214575755004684
50,252.18,0.0005747458314137002
51,256.87,0.0005383619291843907
52,259.84,0.00051767961777905
53,264.06,0.00048678696879233635
54,268.97,0.0004505160342367051
55,273.97,0.00041358117591121517
56,275.42287,0.0004028540896552081
57,279.07,0.00043349974375834886
58,284.25,0.00047716021337230135
59,290.21000000000004,0.0005267149851288957
60,296.28000000000003,0.0005784057225722723
61,301.1,0.0006186519381203902
62,308.11,0.0006784454250690015
63,316.227766,0.0007478758325462282
64,318.21000000000004,0.0007368369849806383
65,327.86999999999995,0.0006828712872653409
66,337.84000000000003,0.0006270494876150792
67,348.1,0.0005696579471224334
68,357.03,0.0005201308742862421
69,363.078055,0.00048676478460467934
70,366.19,0.0005026777107013043
71,374.71999999999997,0.0005461517096068307
72,385.22,0.0005979755625268812
73,395.1,0.0006498945358078428
74,405.23999999999995,0.0007018569002277765
75,413.71999999999997,0.0007453491404527317
76,416.86938299999997,0.0007611979774418995
77,422.38,0.0007786578123862058
78,430.24,0.0008038331318716975
79,441.27,0.0008400267802209302
80,450.51,0.0008700275080130346
81,459.95,0.0008999893978785614
82,469.58,0.000931056221713839
83,478.630092,0.0009601309537960515
84,480.52,0.000953990848146811
85,489.45000000000005,0.0009246536563336532
86,499.7,0.0008920376664025375
87,505.48,0.000876562471007235
88,512.52,0.0008775069610447905
89,519.65,0.0008555456357561216
90,530.53,0.0008209815385414346
91,540.39,0.0007861966816906245
92,549.5408739999999,0.0007677380988536359
93,550.44,0.0007681476295272739
94,559.38,0.0007746405201851804
95,569.78,0.0007757109692726777
96,580.37,0.0007644319273338888
97,589.8,0.0007726610937661101
98,599.39,0.0007667727624919851
99,610.5300000000001,0.0007660977096876312
100,620.45,0.0007883859518941672
101,630.53,0.000790965996394357
102,630.957344,0.0007910075622726662
103,639.3,0.0008151897383107355
104,649.6899999999999,0.0008558841737238088
105,658.73,0.0008831273823026523
106,664.83,0.0009133788591091725
107,675.63,0.0009456339737830121
108,685.03,0.00096328944951765
109,694.5600000000001,0.0010411833967252139
110,704.22,0.0010488479154057036
111,715.6600000000001,0.001136805605023178
112,724.43596,0.0011724517670231483
113,725.62,0.0011764403169172333
114,735.7099999999999,0.0012088386670876462
115,744.23,0.0012660953049917017
116,754.5799999999999,0.0013120069654737408
117,765.08,0.001351152181904795
118,775.73,0.0014209118542848646
119,784.71,0.001483910010432566
120,795.6199999999999,0.0015339807931242615
121,804.84,0.001584562558790387
122,814.16,0.0016312573284225228
123,825.48,0.0017186827773748594
124,831.763771,0.001664420757840005
125,835.04,0.0016265962602093527
126,844.71,0.0017799172631133178
127,854.49,0.0018098788348197073
128,864.39,0.0018714610270378308
129,874.4000000000001,0.0019330487880583782
130,884.52,0.0020125271178813497
131,894.76,0.0020728020682160555
132,905.12,0.0020925886390624963
133,915.6,0.0028076458304206716
134,924.08,0.0140049276799166
135,934.7800000000001,0.030074923008879623
136,945.6,0.05916769895835439
137,954.35,0.08277069420400171
138,954.992586,0.0838709797980329
139,965.4,0.10170884089455906
140,974.33,0.022849785263348396
141,985.62,0.1076975655235535
142,994.7400000000001,0.1084379899852958
143,1003.9399999999999,0.1395487892230183
144,1015.5699999999999,0.12760022228113926
145,1024.96,0.05167738161181471
146,1034.45,0.09983882941246543
147,1044.02,0.17634535198909632
148,1056.11,0.17837554000910336
149,1065.88,0.15400125952568477
150,1075.74,0.1783729506652439
151,1085.7,0.15328771027477825
152,1095.74,0.1876158446602928
153,1096.4782,0.18730553150525556
154,1105.88,0.18334703390202536
155,1116.1100000000001,0.18292233860356333
156,1123.85,0.17032850051850992
157,1134.25,0.20095443745848984
158,1144.74,0.1871341855835273
159,1155.34,0.19682082515696836
160,1166.03,0.20512177591546696
161,1174.1100000000001,0.15857510230729754
162,1184.97,0.1995348853042381
163,1195.94,0.15005505974958233
164,1204.23,0.1157520789065471
165,1215.3700000000001,0.06104732559033329
166,1223.79,0.1346751764590478
167,1235.12,0.19811079564462208
168,1243.68,0.22120694835675941
169,1255.1899999999998,0.21968128991244876
170,1258.92541,0.2096271181288835
171,1263.89,0.19626975216603282
172,1275.5800000000002,0.2408501727194539
173,1284.42,0.25217979322349515
174,1296.31,0.21967922781546917
175,1305.29,0.2171695581464975
176,1314.34,0.2556855933910194
177,1326.5,0.24987374693503991
178,1335.7,0.23268399270847653
179,1344.96,0.261631942693479
180,1354.28,0.2574617968900474
181,1363.6699999999998,0.2402898560001093
182,1376.28,0.24987754113087401
183,1385.8200000000002,0.25510121076985065
184,1395.43,0.23269008532232088
185,1405.1,0.24140556408635694
186,1414.84,0.24702174776388655
187,1424.65,0.2504553363549097
188,1434.52,0.25045772915749875
189,1441.1499999999999,0.2622441945355297
190,1445.43977,0.2641992115943165
191,1447.8,0.2652748346923746
192,1454.48,0.26164202822498267
193,1464.56,0.24930552205861878
194,1474.7099999999998,0.24874432001609958
195,1484.9399999999998,0.25161392268654575
196,1495.2299999999998,0.2556990288917159
197,1505.59,0.24874443922073083
198,1512.54,0.23002744865959698
199,1516.03,0.24197725426271108
200,1526.5400000000002,0.23701067342853602
201,1533.58,0.21668038816948823
202,1544.22,0.2332326149938819
203,1554.9199999999998,0.2227562453529996
204,1565.6999999999998,0.22584448042508265
205,1576.55,0.23921001962101038
206,1583.83,0.2481701485008587
207,1594.8100000000002,0.2551106953553552
208,1605.8600000000001,0.24817214633369633
209,1613.27,0.24931368287211333
210,1624.46,0.2397597420981439
211,1635.72,0.2516206054480191
212,1643.27,0.25570565023412556
213,1654.66,0.23921322124256952
214,1659.58691,0.24833688594732684
215,1666.13,0.260455826490039
216,1673.82,0.23812133491102996
217,1677.68,0.26408349557488237
218,1685.42,0.27273102550706313
219,1693.2,0.25987707264819565
220,1704.94,0.25396592347556024
221,1716.75,0.24934170441859055
222,1724.68,0.2487793160932925
223,1736.63,0.26290025726765426
224,1744.65,0.2581094076624978
225,1756.74,0.273384509068191
226,1764.8500000000001,0.25166959818317625
227,1773.0000000000002,0.2635199045071133
228,1785.29,0.26656899195756567
229,1793.5300000000002,0.28299353700164437
230,1805.96,0.2804030846834282
231,1814.3000000000002,0.2696693727498865
232,1826.87,0.2709170806630017
233,1835.3,0.26476060744960167
234,1843.78,0.2459861557473914
235,1856.56,0.25112965400750376
236,1865.1200000000001,0.2605460367231972
237,1873.73,0.27281424095008044
238,1886.72,0.25935642955718996
239,1895.4299999999998,0.2546396768064527
240,1904.18,0.2635768412646674
241,1905.46072,0.263138086359636
242,1912.97,0.2605581278900928
243,1926.2299999999998,0.25639447438126955
244,1935.12,0.253458144313891
245,1944.05,0.27531589206398216
246,1953.03,0.2641567120859103
247,1966.56,0.28366120884500695
248,1975.6399999999999,0.2875930734106091
249,1984.7600000000002,0.2778477157936809
250,1993.92,0.2721426359942222
251,2003.12,0.27403063401223327
252,2017.01,0.2708899311285564
253,2026.3200000000002,0.27463656814460885
254,2035.67,0.2733754829781309
255,2045.07,0.28296617008349
256,2054.5099999999998,0.2733641350063187
257,2063.99,0.27461647774661696
258,2073.52,0.29287969275875225
259,2078.2999999999997,0.2915331419463711
260,2083.09,0.29694288558835724
261,2092.7000000000003,0.28490435623543175
262,2107.21,0.2842298095225339
263,2116.94,0.2888410136220173
264,2126.71,0.29150679553897024
265,2136.52,0.2720648552733929
266,2146.39,0.28552178173401993
267,2156.29,0.2914916915577492
268,2166.25,0.2809503681076828
269,2176.25,0.2802965224750861
270,2186.29,0.28418805465995894
271,2187.7616199999998,0.28614013225783613
272,2196.38,0.29758084916286537
273,2206.52,0.2888123325551278
274,2216.71,0.27393713805484715
275,2226.94,0.27081076124053205
276,2237.2200000000003,0.29419310653367386
277,2247.54,0.2816146695127812
278,2252.72,0.26896155984531755
279,2263.1200000000003,0.271448358196356
280,2273.57,0.2809772786548513
281,2284.06,0.29220891679931216
282,2294.61,0.27664298147272126
283,2305.2,0.2832278638320959
284,2315.84,0.27502126829892753
285,2326.53,0.22997369487321603
286,2337.2599999999998,0.2557532391334701
287,2342.65,0.23822222231732557
288,2353.47,0.27046210637100204
289,2364.33,0.24176620811064403
290,2375.2400000000002,0.256794731957743
291,2386.21,0.22796468233379022
292,2397.22,0.24550375039580297
293,2402.75,0.23943059548053783
294,2413.8399999999997,0.24568299891448164
295,2424.98,0.2713608244558824
296,2436.17,0.2635022721047401
297,2447.42,0.279884646282546
298,2453.06,0.27802494000368605
299,2464.38,0.2756209451319317
300,2475.7599999999998,0.2633751767891256
301,2487.18,0.2629047261322851
302,2492.92,0.254060464068339
303,2504.42,0.2891179487834295
304,2510.2000000000003,0.2484832044054489
305,2511.88643,0.24701906094120032
306,2515.98,0.2434625495535777
307,2527.6,0.23749916110016367
308,2533.42,0.2458978651622231
309,2545.1200000000003,0.24771236301894042
310,2556.87,0.2748541523194899
311,2562.76,0.26378604440291425
312,2574.59,0.28276012001359513
313,2586.4700000000003,0.2796698870681082
314,2592.4399999999996,0.27528086546166397
315,2604.4,0.26364971882630833
316,2616.42,0.25719696192355135
317,2622.4500000000003,0.27946303004970563
318,2634.5600000000004,0.29957675774584647
319,2646.7200000000003,0.33781507688581935
320,2652.82,0.3579022330333387
321,2665.07,0.3162648367722094
322,2677.37,0.33362413195491225
323,2683.54,0.34226767612379655
324,2695.9300000000003,0.31451465590539723
325,2702.14,0.3316865932293472
326,2714.61,0.3047870593210793
327,2727.1400000000003,0.3007720151454099
328,2733.43,0.3216091387794913
329,2746.0499999999997,0.2664811792027198
330,2752.3799999999997,0.2836238959918669
331,2765.08,0.30405602272522675
332,2777.8399999999997,0.3207506391911852
333,2784.25,0.2866338422904636
334,2797.1000000000004,0.20931354335531988
335,2803.55,0.22847623960966407
336,2816.49,0.31980502527341814
337,2822.98,0.34990621468282807
338,2836.0099999999998,0.3405820849454799
339,2842.5499999999997,0.3223696657987219
340,2855.67,0.29285702066027164
341,2862.25,0.3480959946685794
342,2875.46,0.3613408341290269
343,2882.09,0.3573133995811667
344,2884.0315,0.35819079746913507
345,2895.4,0.36333032753179356
346,2908.76,0.4116141807440305
347,2928.92,0.39255331014213657
348,2949.23,0.3848460390149309
349,2969.6699999999996,0.39595876743245506
350,2990.25,0.4008947953596883
351,3010.9799999999996,0.40777602276160985
352,3031.85,0.4138081496732404
353,3052.87,0.4218747760595593
354,3066.96,0.43096682671527925
355,3088.22,0.4353386522610994
356,3109.6200000000003,0.4458892773166286
357,3131.1800000000003,0.4361475018118253
358,3152.88,0.44059062581673114
359,3167.44,0.4542416748264744
360,3189.39,0.4272860979558607
361,3211.5,0.4498992205249145
362,3226.3199999999997,0.4230720686241174
363,3248.69,0.4751083902826309
364,3271.21,0.5083703114158327
365,3286.31,0.5063628585344537
366,3309.09,0.5033602787571152
367,3311.31121,0.5010854290118599
368,3324.36,0.48772069741080937
369,3332.02,0.5026996846025945
370,3339.7,0.4639535704554548
371,3347.3999999999996,0.5303599549693903
372,3355.12,0.511354638144401
373,3362.85,0.4496928206499492
374,3370.61,0.4656356011471101
375,3378.38,0.5002252809748087
376,3386.16,0.5003865601330447
377,3393.9700000000003,0.5040198372828937
378,3401.79,0.56435651376328
379,3409.64,0.4974386882352792
380,3417.5,0.48404676203781594
381,3425.37,0.5260275351708903
382,3433.27,0.5742794062955773
383,3441.18,0.516776476750802
384,3449.12,0.4959784451976393
385,3457.0699999999997,0.5123852129750143
386,3465.04,0.4872609794134643
387,3473.02,0.544335945182452
388,3481.0299999999997,0.5035544089430525
389,3489.06,0.5434509713647281
390,3497.1000000000004,0.5027300331169411
391,3505.16,0.5488491935302295
392,3513.2400000000002,0.5159610526045929
393,3521.34,0.5659039103400315
394,3529.46,0.47745846673654535
395,3537.5899999999997,0.5572465224635967
396,3545.7499999999995,0.5690927761822607
397,3553.92,0.5852393292314624
398,3562.12,0.5565356802722768
399,3570.33,0.4962150306436288
400,3578.56,0.5067796796760561
401,3586.8100000000004,0.4592009273695583
402,3595.08,0.5261426737241358
403,3603.3599999999997,0.5905188194092508
404,3611.67,0.5074840630859786
405,3620.0,0.5630399054237815
406,3628.3399999999997,0.606289647092122
407,3636.7,0.5319419874215376
408,3645.09,0.6095041257425661
409,3653.49,0.5612498633941321
410,3661.91,0.6565506997067732
411,3670.35,0.6214968346804894
412,3678.8199999999997,0.6274545676458185
413,3687.3,0.5898609999416851
414,3695.8,0.6322590308986268
415,3701.81,0.4959924285517116
416,3704.54,0.5076951457884705
417,3707.2699999999995,0.4825567630252295
418,3710.0,0.4947213802619884
419,3712.73,0.5454730974987473
420,3715.46,0.47753381473550627
421,3718.19,0.4143422319722652
422,3720.9199999999996,0.5494836492090241
423,3723.65,0.5650825664457831
424,3726.38,0.6831524836825421
425,3729.11,0.837053000919301
426,3731.83,0.9403510188255224
427,3734.56,0.7990176360622814
428,3737.29,0.5843049532990403
429,3740.02,0.6379716705357992
430,3742.7500000000005,0.6069023877725582
431,3745.48,0.7698803050093171
432,3748.21,0.670742122246076
433,3750.94,0.39236253948283495
434,3753.67,0.3838337567195939
435,3756.3999999999996,0.5993674739563528
436,3759.13,0.6851564911931118
437,3761.86,0.6794125084298708
438,3764.5899999999997,0.6459044256666296
439,3767.31,0.517893943572851
440,3770.04,0.43719796080961
441,3772.7699999999995,0.49968187804636893
442,3775.5,0.5535939952831278
443,3778.23,0.6455017125198869
444,3780.96,0.7907589297566457
445,3783.69,0.7720565469934046
446,3786.4199999999996,0.7605981642301637
447,3789.15,0.7728780814669226
448,3791.88,0.8345679987036815
449,3794.61,0.6389042159404406
450,3797.34,0.5952082331771994
451,3800.0699999999997,0.7057454504139584
452,3801.8939600000003,0.6890455663022746
453,3802.79,0.6808415808190836
454,3805.52,0.6820965361367402
455,3808.2500000000005,0.7805845914543968
456,3810.98,0.8136733467720534
457,3813.71,0.8944118020897099
458,3816.44,0.8318116574073666
459,3819.17,0.7873796127250232
460,3821.8999999999996,0.7172612680426798
461,3824.63,0.6427705233603365
462,3827.36,0.527816678677993
463,3830.0899999999997,0.5398368339956495
464,3832.82,0.5659701893133062
465,3835.5499999999997,0.47528854463096276
466,3838.2699999999995,0.5185391004785913
467,3841.0,0.4989421557962479
468,3843.73,0.6088159111139045
469,3846.46,0.7539868664315611
470,3849.19,0.7825300217492178
471,3851.9199999999996,0.8220114770668744
472,3854.65,0.8941925323845309
473,3857.38,0.8970491877021876
474,3860.11,0.8393410430198441
475,3862.84,0.8659070983375007
476,3865.5699999999997,0.9127337536551574
477,3868.3,1.0453927089728139
478,3871.0299999999997,0.9093847642904704
479,3873.7500000000005,0.869690420138099
480,3876.48,0.9027071754557556
481,3879.21,0.7751261307734122
482,3881.94,0.7949243860910689
483,3884.67,0.7322809414087255
484,3887.3999999999996,0.659016796726382
485,3890.13,0.5673536520440386
486,3892.86,0.5785224073616952
487,3895.5899999999997,0.6444551626793518
488,3898.32,0.7310954179970085
489,3901.0499999999997,0.806552073314665
490,3903.78,0.7907503286323216
491,3906.51,0.8478512839499783
492,3909.23,0.9082615397976068
493,3911.96,1.0040513951152634
494,3914.69,0.97034075043292
495,3917.4199999999996,0.9145951057505766
496,3920.15,0.9026604610682332
497,3922.88,0.8580552163858898
498,3925.61,0.8847943717035464
499,3928.34,0.809105927021203
500,3931.0699999999997,0.7034307823388596
501,3933.8,0.6191273376565162
502,3936.5299999999997,0.5739882929741728
503,3939.2599999999998,0.6226042482918294
504,3941.9900000000002,0.724122403609486
505,3944.71,0.7733050594571145
506,3947.44,0.8856032147747711
507,3950.17,0.9085328700924277
508,3952.8999999999996,0.9172195254100842
509,3955.63,0.892283080727741
510,3958.36,0.9170020360453975
511,3961.0899999999997,0.786650591363054
512,3963.82,0.7165178466807107
513,3966.5499999999997,0.6013618019983673
514,3969.28,0.5213154573160239
515,3972.01,0.43838301263368046
516,3974.74,0.5131038679513371
517,3977.4700000000003,0.6375088232689936
518,3980.19,0.7809512791166223
519,3982.9199999999996,0.9399756344342789
520,3985.65,0.9078960897519354
521,3988.38,0.919079245069592
522,3991.11,0.9728035003872486
523,3993.84,0.9716774557049052
524,3996.5699999999997,0.9779686110225618
525,3999.3,1.0282297663402185
526,4002.0299999999997,1.026107621657875
527,4004.7599999999998,1.0554444769755316
528,4007.4900000000002,1.0146053322931883
529,4010.22,1.0441871876108448
530,4012.9500000000003,1.0892530429285014
531,4015.67,1.04808789877613
532,4018.3999999999996,1.0397037540937866
533,4021.13,1.1213366094114432
534,4023.86,1.1226344647290998
535,4026.5899999999997,1.1313643200467565
536,4029.32,1.123759175364413
537,4032.0499999999997,1.0789230306820696
538,4034.78,1.0107958859997261
539,4037.51,1.0879257413173826
540,4040.24,1.1450705966350394
541,4042.9700000000003,1.112673451952696
542,4045.7,1.0575913072703527
543,4048.4300000000003,1.0357431625880091
544,4051.15,1.0516220184356377
545,4053.88,1.0839168737532943
546,4056.61,1.118722729070951
547,4059.34,1.1099915843886075
548,4062.0699999999997,1.069094439706264
549,4064.8,1.0936692950239209
550,4067.5299999999997,1.0244021503415774
551,4070.2599999999998,1.013175005659234
552,4072.9900000000002,1.0065078609768905
553,4075.72,1.014688716294547
554,4078.4500000000003,0.9940673716122037
555,4081.18,0.9771831269298603
556,4083.91,1.018482282247517
557,4086.63,1.0045331380951454
558,4089.36,1.010520993412802
559,4092.0899999999997,0.9944302487304586
560,4094.82,0.9191600040481153
561,4097.55,0.8728232593657718
562,4100.28,0.7752291146834284
563,4103.01,0.778042570001085
564,4105.74,0.7609274253187416
565,4108.47,0.7851701806363982
566,4111.2,0.8372783359540549
567,4113.93,0.9020130912717114
568,4116.66,0.9959409465893679
569,4119.39,1.0307904019070244
570,4122.11,1.0295682577546532
571,4124.84,0.9813405130723097
572,4127.57,0.9612527683899664
573,4130.3,0.998035623707623
574,4133.03,0.9961302790252795
575,4135.76,1.0110225343429362
576,4138.49,1.0980373896605928
577,4141.22,1.1048052449782493
578,4143.95,1.1045591002959059
579,4146.679999999999,1.0404149556135627
580,4149.41,1.0894058109312192
581,4152.14,1.1097086662488758
