,lambda (Angstroms),Total Flux (erg/s/cm^2/Angstrom)
0,102.07000000000001,0.002872527459297844
1,103.96000000000001,0.0033567251449163386
2,104.712855,0.003549598511214944
3,105.9,0.0032958353521453762
4,108.11,0.0028234275537484753
5,110.11999999999999,0.0023937716926691363
6,113.99,0.0015665238867726488
7,118.0,0.0007093500093584982
8,120.22644299999999,0.00023343089042870908
9,121.02999999999999,0.00022548423049476414
10,124.99,0.00018631952272181782
11,127.02,0.00016624288164265852
12,127.89999999999999,0.0001575402266217816
13,130.88,0.00012806902101108463
14,132.09,0.00011610512382237878
15,133.93,9.790942500872693e-05
16,137.05,6.706105945470867e-05
17,138.038426,5.728775709641781e-05
18,139.92,5.663655907481023e-05
19,142.85,5.571176427210684e-05
20,146.85,5.4604750099815493e-05
21,150.97,5.3278115596355425e-05
22,154.84,5.207122451616357e-05
23,158.489319,5.094716477243862e-05
24,159.18,5.060498496130112e-05
25,162.14,4.916880391955681e-05
26,165.91000000000003,4.7404761582267555e-05
27,170.17000000000002,4.539561512421661e-05
28,172.93,4.416636695421178e-05
29,176.96,4.236519059366123e-05
30,179.84,4.1129979720612694e-05
31,181.92,4.024725553452209e-05
32,181.970086,4.0226249101806955e-05
33,186.16,4.144150635738117e-05
34,190.92999999999998,4.298840027760243e-05
35,194.03,4.4055656965796554e-05
36,198.10000000000002,4.54685119564256e-05
37,201.78,4.694074318628184e-05
38,205.06,4.81951994563711e-05
39,208.929613,4.958160417470407e-05
40,209.84,5.070543422343303e-05
41,216.21,5.946519296457721e-05
42,220.23000000000002,6.503733703355675e-05
43,222.78,6.861000431611838e-05
44,226.92000000000002,7.459350155133613e-05
45,230.08,8.639389359560858e-05
46,233.82,0.0001081159436100323
47,239.82,0.00012893915192194207
48,239.88329199999998,0.00012903327754359642
49,245.97,0.00012644177194542436
50,252.28,0.0001306662030416412
51,256.97,0.00012102074290554878
52,259.94,0.0001306587051647824
53,264.17,0.00013519250171581206
54,269.08000000000004,0.00013678715359892213
55,274.08,0.00013828676221716053
56,275.42287,0.00013869974345163727
57,279.18,0.0001465673676655023
58,283.71,0.0001571115579183108
59,290.32,0.0001659159446668901
60,295.72,0.00018079903172321814
61,301.21999999999997,0.00019115826668799664
62,308.23,0.00020860494507037806
63,316.227766,0.00022923960796665955
64,318.33,0.00023130375720042246
65,328.0,0.00023898262921377854
66,337.97,0.0002457071940507134
67,348.24,0.0002515623517112271
68,357.16999999999996,0.00025782053475975554
69,363.078055,0.00026289258213543933
70,366.34,0.00026961720057666703
71,374.87,0.0002854560863448393
72,385.37,0.00029633084936544986
73,395.26,0.00032182372958200586
74,405.4,0.0003416596470133383
75,413.88,0.00035625276533855527
76,416.86938299999997,0.0003606108533461133
77,421.58,0.00036648456747261744
78,430.41,0.00037662180796631695
79,441.45,0.00039398459959150855
80,450.69,0.00040553316540824507
81,460.13,0.0004158970118703654
82,469.76,0.0004272557749456005
83,478.630092,0.0004398717750832866
84,479.6,0.00044054203241615335
85,489.64,0.00044035601846343275
86,499.9,0.000448284637073501
87,505.68,0.00045005349258677536
88,511.53999999999996,0.00048361165994106393
89,519.85,0.0004885346399264117
90,529.52,0.0004911321212090004
91,540.6,0.0004846424611894641
92,549.39,0.0005064398122208969
93,549.5408739999999,0.0005067765621201437
94,559.6,0.0005320432891831449
95,570.01,0.0005547936797911995
96,580.6,0.0005511252659140907
97,590.04,0.0005846835306921921
98,599.62,0.0005894184919818331
99,609.37,0.0005820744990354865
100,620.7,0.000659212866719373
101,629.33,0.0006791471016807093
102,630.957344,0.0006812327736912447
103,639.56,0.0006949856007860329
104,649.9499999999999,0.0007376688383998639
105,657.48,0.0007611950401546422
106,665.09,0.0007921758023530305
107,674.3399999999999,0.0008056892536454208
108,685.3,0.0008042987344199722
109,694.83,0.0009269636472649971
110,704.5,0.0009072419408863393
111,715.94,0.0010222974843225499
112,724.43596,0.0010542397137689567
113,725.9,0.0010596292055273587
114,734.31,0.0010927659071642733
115,744.5300000000001,0.001189376244230773
116,754.88,0.0012537390435104479
117,765.38,0.0012877653761130163
118,774.2499999999999,0.0014114559132734719
119,785.02,0.0014979722058572492
120,794.1099999999999,0.0015623135252246158
121,805.15,0.0016332257777896021
122,814.48,0.0016923899504735988
123,825.8100000000001,0.0018366122341295134
124,831.763771,0.0016791318713323673
125,835.37,0.001582557652732295
126,845.04,0.0019422895943245245
127,854.83,0.0020054564452229653
128,864.7299999999999,0.002145636462985434
129,874.74,0.00229638364761193
130,884.87,0.0024915767415446374
131,895.1199999999999,0.002632501744783557
132,905.48,0.002647933914886504
133,915.97,0.004042655736737847
134,924.4399999999999,0.027132795585267957
135,935.15,0.060937077740847355
136,945.97,0.11903544506329078
137,954.73,0.17203156744264425
138,954.992586,0.1725939293528342
139,965.78,0.19569862323845966
140,974.72,0.030427684235271348
141,986.01,0.16772960137777737
142,995.13,0.1809675759517061
143,1004.3399999999999,0.2707375473141933
144,1015.97,0.262753532324587
145,1025.3700000000001,0.11134559690736441
146,1034.85,0.18348175863552715
147,1044.4299999999998,0.36435951679542156
148,1054.09,0.36101697210070127
149,1063.85,0.2841437238377127
150,1076.17,0.343977384227055
151,1086.12,0.27136472918435656
152,1096.17,0.3677217705733899
153,1096.4782,0.3672488996707238
154,1103.77,0.3560605452252928
155,1113.98,0.3431851049690341
156,1124.29,0.31012235354474155
157,1134.7,0.4013340909524152
158,1145.19,0.3651929194256616
159,1155.79,0.39310963561407086
160,1163.8,0.40973864105455743
161,1174.5700000000002,0.2821847382573091
162,1185.44,0.40133622429202687
163,1193.66,0.27197090627964227
164,1204.7,0.19300057332870246
165,1215.85,0.1290015280929254
166,1224.28,0.2738530866276697
167,1235.6000000000001,0.42707112240623507
168,1244.17,0.4758779653057319
169,1255.68,0.45550867986503285
170,1258.92541,0.4309093019600574
171,1264.3899999999999,0.38948976082587894
172,1276.08,0.5157962536883111
173,1284.93,0.5451259239904944
174,1293.84,0.4280447947693028
175,1305.81,0.4241232898559847
176,1314.86,0.541343661746918
177,1323.9699999999998,0.5193799341144762
178,1336.2199999999998,0.45971883142540804
179,1345.49,0.5565364050639663
180,1354.81,0.5401317790997119
181,1364.2,0.4813895536915201
182,1373.6599999999999,0.5110987288393907
183,1386.3700000000001,0.5193792298044472
184,1395.98,0.4555097061438803
185,1405.6599999999999,0.4758708830393758
186,1415.4,0.48583876041149626
187,1425.21,0.5040693383396793
188,1435.09,0.5017548168239245
189,1441.71,0.5327128694115465
190,1445.43977,0.5389576876724879
191,1448.37,0.5438638185760635
192,1455.06,0.5302815631790124
193,1465.14,0.48808433038345544
194,1475.3,0.48920659812126716
195,1485.52,0.5017592662591053
196,1495.82,0.513422534930312
197,1506.19,0.48695970406821626
198,1513.14,0.43201345040461303
199,1516.6299999999999,0.46611567367281803
200,1523.6299999999999,0.45133472034257016
201,1534.19,0.3930969907472248
202,1544.8300000000002,0.43902966168524815
203,1555.53,0.41447833302329784
204,1566.32,0.4221788049613872
205,1573.55,0.45341225316457406
206,1584.45,0.47917822583604525
207,1595.4399999999998,0.4925966991075561
208,1606.4999999999998,0.48360287284576453
209,1613.91,0.4869598222490307
210,1625.1,0.4597176968539631
211,1636.3600000000001,0.493735171925593
212,1643.92,0.5040675223289253
213,1655.3100000000002,0.46397449826727916
214,1659.58691,0.481547742180851
215,1666.78,0.5111034770036488
216,1670.6299999999999,0.45341086445490303
217,1678.3400000000001,0.5170047398442977
218,1686.0800000000002,0.5413489166943516
219,1693.8700000000001,0.5087270959788374
220,1705.61,0.4892059675834409
221,1713.48,0.46505225076301765
222,1725.36,0.4650493291840306
223,1733.3200000000002,0.4983122167455847
224,1745.34,0.4880888019830068
225,1753.3899999999999,0.5241835939265382
226,1765.55,0.4780753859803696
227,1773.7,0.49374068279276484
228,1785.99,0.504080381176119
229,1794.23,0.5426174823704917
230,1806.6699999999998,0.5388783880571415
231,1815.01,0.49946209412037784
232,1823.39,0.5098941021311597
233,1836.03,0.490345517555537
234,1844.5,0.45030222994829616
235,1853.02,0.4555178447754873
236,1865.8600000000001,0.4715277699375921
237,1874.47,0.5111113891467606
238,1883.13,0.47261131079036084
239,1896.18,0.45657324617707956
240,1904.93,0.4836190722026572
241,1905.46072,0.4826931093792097
242,1913.7199999999998,0.46828197968866436
243,1926.99,0.45972864686087167
244,1935.88,0.4704432889227347
245,1944.82,0.498314627846588
246,1953.8,0.46827816426003344
247,1967.34,0.514640614486988
248,1976.42,0.5290296446244139
249,1985.5400000000002,0.501768972251432
250,1994.71,0.4892109967404404
251,2003.9199999999998,0.5029172187190409
252,2013.17,0.4869652381872336
253,2027.1200000000001,0.508730362682508
254,2036.48,0.4869612752470793
255,2045.8799999999999,0.5075678853012426
256,2055.3199999999997,0.4847273928449982
257,2064.81,0.4880861972507441
258,2074.34,0.525388799146082
259,2079.1200000000003,0.5087272991523482
260,2083.91,0.5302868985310123
261,2093.53,0.5017595947779327
262,2103.19,0.5040715885144453
263,2112.9,0.5110990791129482
264,2122.6600000000003,0.5182121665734412
265,2137.37,0.48027614337096713
266,2147.23,0.4994499245554407
267,2157.15,0.5182147019743024
268,2167.1000000000004,0.5006003775103585
269,2177.1099999999997,0.4971494492808026
270,2187.15,0.49486791916844103
271,2187.7616199999998,0.496351804127208
272,2197.25,0.5193731555648317
273,2207.39,0.5052374629525272
274,2212.48,0.47696661764713966
275,2222.69,0.46504592853751164
276,2232.95,0.5029100419297954
277,2243.2599999999998,0.4813814578239907
278,2253.61,0.45866497571971543
279,2264.02,0.4682233966177342
280,2274.4700000000003,0.48327301951728246
281,2284.96,0.50109944441836
282,2295.51,0.47060187232173156
283,2306.11,0.4768509027270149
284,2316.75,0.4540619351338276
285,2327.4500000000003,0.3596232705429343
286,2332.81,0.4175462387478701
287,2343.58,0.39942147765965325
288,2354.39,0.44172681857296575
289,2365.2599999999998,0.39983206248857234
290,2376.18,0.4155248089060906
291,2387.15,0.3804696578255206
292,2392.65,0.4075424330358091
293,2403.7,0.3925464859582979
294,2414.79,0.404212440882316
295,2425.94,0.43683319880862814
296,2437.13,0.42172885873646976
297,2442.75,0.4486242399513463
298,2454.03,0.443193404382629
299,2465.35,0.437827770815441
300,2476.73,0.41977354025054703
301,2482.44,0.4244882259688647
302,2493.9,0.40047069940702956
303,2505.4100000000003,0.45526847534710607
304,2511.1899999999996,0.3945674645681002
305,2511.88643,0.39543368272520923
306,2516.9799999999996,0.40176870077356996
307,2522.78,0.3870992884501083
308,2534.42,0.3976690630285405
309,2546.12,0.3928408364450058
310,2557.88,0.4304342086995042
311,2563.7700000000004,0.41472239463309224
312,2575.6099999999997,0.4420202653383016
313,2587.4900000000002,0.4346479352688663
314,2593.46,0.42656161965316525
315,2605.4300000000003,0.4098951878407798
316,2617.4599999999996,0.4030507548664274
317,2623.49,0.42775873808875947
318,2635.6000000000004,0.453816403565118
319,2647.76,0.5029919680731708
320,2653.87,0.5265060497462137
321,2666.1200000000003,0.4624682125113163
322,2672.26,0.4885643936033759
323,2684.6,0.4938541546255282
324,2696.9900000000002,0.4605490146793747
325,2703.2099999999996,0.48206669422214515
326,2715.68,0.4474955527267026
327,2721.94,0.44322283149482844
328,2734.51,0.4691264880627745
329,2747.1299999999997,0.3953355436624148
330,2753.4599999999996,0.4119077210749127
331,2766.17,0.43397167493160277
332,2772.5499999999997,0.456341951375795
333,2785.35,0.41586840348953474
334,2798.2000000000003,0.3285726546349688
335,2804.65,0.353556029723533
336,2817.6,0.4478250789323557
337,2824.1,0.48744725305261416
338,2837.13,0.47052940071214777
339,2843.6699999999996,0.45124757405776167
340,2856.7999999999997,0.41886081978068385
341,2863.3799999999997,0.4862888923516532
342,2876.6000000000004,0.4972117363316251
343,2883.23,0.48906260793428874
344,2884.0315,0.489379404707615
345,2896.5400000000004,0.49432368745483085
346,2909.91,0.5516447821558735
347,2930.08,0.5237260741618592
348,2950.39,0.5135250661123586
349,2970.84,0.5272589580073715
350,2991.43,0.5290294498468979
351,3012.17,0.5381637416269746
352,3033.0499999999997,0.5399831333515647
353,3047.05,0.5432644278029183
354,3068.17,0.5513431194323888
355,3089.44,0.5544730110024095
356,3110.85,0.5627050025169438
357,3132.42,0.5516958939680648
358,3146.88,0.5537662882371058
359,3168.69,0.5619960795931074
360,3190.65,0.526200670889659
361,3212.77,0.5527566621227977
362,3227.6,0.5166040562451957
363,3249.97,0.5708844473792514
364,3272.5,0.602440138449894
365,3287.6,0.5963812324652824
366,3310.3900000000003,0.5914345234328786
367,3311.31121,0.5915653493570407
368,3325.67,0.5936044142807135
369,3333.34,0.6099102561701936
370,3341.02,0.5782034979839102
371,3348.7200000000003,0.6321785396461003
372,3356.44,0.6062271811567633
373,3364.18,0.5229157225158997
374,3371.94,0.5324082637235092
375,3379.71,0.6067303048553554
376,3387.5,0.6036508458356747
377,3395.3100000000004,0.5828994866644674
378,3403.14,0.6358602273417332
379,3410.98,0.5756291679432357
380,3418.84,0.5753767083932114
381,3426.73,0.5994064486158969
382,3434.63,0.6404544887628191
383,3442.54,0.5745174288339777
384,3450.48,0.5944102686778463
385,3458.4300000000003,0.5968332084459516
386,3466.41,0.5816349479867665
387,3474.4,0.612938087451818
388,3482.4100000000003,0.587742626765343
389,3490.43,0.6137474660031044
390,3498.48,0.5607318050135757
391,3506.5499999999997,0.6187941438725201
392,3514.63,0.5785050826557012
393,3522.73,0.6195522212873555
394,3530.85,0.5712854597674831
395,3538.9900000000002,0.6232383980960838
396,3547.15,0.6432846362731578
397,3555.33,0.629751374298705
398,3563.52,0.6194023122484887
399,3571.74,0.5671936499709825
400,3579.9700000000003,0.5695172876177127
401,3588.22,0.5049918251129162
402,3596.49,0.583505262456593
403,3604.78,0.6206131996487428
404,3608.7999999999997,0.7133649691918601
405,3611.51,0.6284892486599815
406,3614.21,0.4722386282038663
407,3616.92,0.4883892076719877
408,3619.62,0.6265219872158725
409,3622.3300000000004,0.5194811666839938
410,3625.03,0.5833024462278785
411,3627.74,0.6602984256960001
412,3630.4500000000003,0.5877425051641214
413,3633.15,0.5786559847080062
414,3635.86,0.6640330641761275
415,3638.56,0.7506762437200123
416,3641.27,0.7150788231881338
417,3643.9700000000003,0.8127795027320185
418,3646.68,0.5611850822001399
419,3649.3799999999997,0.41276556174402457
420,3652.09,0.5511882412121459
421,3654.79,0.5976408207560309
422,3657.5,0.6570157002241521
423,3660.2000000000003,0.6570680797680369
424,3662.91,0.7588040592361582
425,3665.61,0.847568038780043
426,3668.3199999999997,0.6384860182481645
427,3671.02,0.5869877977920492
428,3673.73,0.7022553772601706
429,3676.43,0.6498483568040554
430,3679.1400000000003,0.5239746362721768
431,3681.85,0.34761641574029817
432,3684.5499999999997,0.5499266952841829
433,3687.2599999999998,0.3734421747523043
434,3689.96,0.40333855429618914
435,3692.67,0.7018502337643104
436,3695.37,0.7139192133081953
437,3698.0800000000004,0.6771100927763166
438,3700.78,0.7194733723202014
439,3703.49,0.6766054517883228
440,3706.1899999999996,0.6488376313322075
441,3708.9,0.646866910800329
442,3711.6,0.5878454903442137
443,3714.31,0.7077581698123351
444,3717.01,0.6068805493562198
445,3719.7200000000003,0.5047625288243414
446,3722.42,0.6858980083682261
447,3725.1299999999997,0.8516051878363474
448,3727.84,1.116675367304469
449,3730.54,1.1717633468483537
450,3733.25,1.218868326316475
451,3735.9500000000003,0.8103550058603598
452,3738.66,0.6032425853284812
453,3741.36,0.6818069648723659
454,3744.0699999999997,0.6470175443404872
455,3746.77,0.5935502238843721
456,3749.48,0.5813806033524934
457,3752.18,0.7537055828963782
458,3754.8900000000003,0.7020016623644996
459,3757.59,0.6594403419083843
460,3760.2999999999997,0.8355483213765058
461,3763.0000000000005,0.8280780009203905
462,3765.71,0.8532200803885119
463,3768.41,0.6972578599323966
464,3771.12,0.825703039400518
465,3773.82,0.5567939189444029
466,3776.53,0.6726169984125242
467,3779.24,0.8074237778806456
468,3781.9399999999996,0.7967222574245304
469,3784.65,0.9200675368926517
470,3787.35,0.8047503164365366
471,3790.06,0.821561495904658
472,3792.76,0.8165147754485427
473,3795.4700000000003,0.7714249549166641
474,3798.17,0.6412632344605488
475,3800.8799999999997,0.7638517139286702
476,3801.8939600000003,0.7098510883102385
477,3803.58,0.6200573961341722
478,3806.29,0.789904779880355
479,3808.99,0.864329663686515
480,3811.7000000000003,0.8762936474326978
481,3814.4,0.9707130312388578
482,3817.11,0.8064659149850405
483,3819.81,0.8357524987912005
484,3822.52,0.8756377825373833
485,3825.23,0.8632654662835662
486,3827.93,0.7751624500897261
487,3830.6400000000003,0.760568933835909
488,3833.34,0.6471193176420689
489,3836.0499999999997,0.5046751013882517
490,3838.75,0.6228841851944116
491,3841.46,0.7640530689405944
492,3844.16,0.7640551527467544
493,3846.87,0.8992153364929372
494,3849.5699999999997,0.8566039202990972
495,3852.28,0.84872540404528
496,3854.98,0.91986858785144
497,3857.6899999999996,0.9712148715976228
498,3860.3900000000003,0.9654110554037827
499,3863.1,0.8090405391499654
500,3865.7999999999997,1.0069644229561254
501,3868.51,0.9647021067023082
502,3871.21,0.8421141905084683
503,3873.92,0.971215574254651
504,3876.6299999999997,0.9624278580008337
505,3879.33,0.9240073418069937
506,3882.04,0.8284779255531766
507,3884.74,0.8147973093593365
508,3887.4500000000003,0.7587512931055194
509,3890.15,0.6618119769116793
510,3892.86,0.6236398606578621
511,3895.56,0.7170485444640221
512,3898.27,0.7743531282102049
513,3900.9700000000003,0.8865446120163648
514,3903.68,0.8470590957625477
515,3906.3799999999997,0.8914928795687076
516,3909.09,0.9731837633148904
517,3911.79,1.0241811471210505
518,3914.5,0.9435463308672332
519,3917.2000000000003,0.9720254146733931
520,3919.91,1.008729098419576
521,3922.62,0.9740400821657588
522,3925.3199999999997,0.9413755659719187
523,3928.03,0.9018901497181016
524,3930.73,0.8015684335242615
525,3933.44,0.8121190172704442
526,3936.1400000000003,0.8133329010766043
527,3938.85,0.828124584822787
528,3941.5499999999997,0.7564809686289471
529,3944.2599999999998,0.8360012523751298
530,3946.96,0.9300163361812899
531,3949.67,0.8690724199274725
532,3952.37,0.9342072037336326
533,3955.0800000000004,0.8733137874798154
534,3957.78,0.9589981712859753
535,3960.49,0.8653366550321581
536,3963.1899999999996,0.752644438838318
537,3965.9,0.6459569225845009
538,3968.6,0.6480287063906608
539,3971.31,0.5600731901368436
540,3974.02,0.6215182738830265
541,3976.7200000000003,0.6677184576891864
542,3979.43,0.8306990414353692
543,3982.1299999999997,0.8422129252415291
544,3984.84,0.754913508987712
545,3987.54,0.932641092793872
546,3990.25,0.9810590765400548
547,3992.9500000000003,1.0029236603462146
548,3995.66,1.0589146440923973
549,3998.36,1.0543736278985574
550,4001.0699999999997,1.0222596116447402
551,4003.77,1.0390755954509001
552,4006.48,1.062651579197083
553,4009.18,1.1431365630032428
554,4011.8900000000003,1.1561595467494257
555,4014.59,1.1183965305555856
556,4017.2999999999997,1.1233415143017684
557,4020.0099999999998,1.1656994980479514
558,4022.71,1.1843844818541114
559,4025.42,1.150906465600294
560,4028.12,1.2907174494064542
561,4030.8300000000004,1.144292433152637
562,4033.53,1.2002894169587968
563,4036.24,1.0846644007049797
564,4038.9399999999996,1.1255133845111396
565,4041.65,1.2072043682573224
566,4044.35,1.1575753520634824
567,4047.06,1.2753663358096652
568,4049.76,1.2465903196158252
569,4052.4700000000003,1.220332303362008
570,4055.17,1.172420287168168
571,4057.8799999999997,1.1508072709143506
572,4060.58,1.1764092547205107
573,4063.29,1.1375792384666936
574,4065.99,1.1528812222728535
575,4068.7000000000003,1.1116782060190362
576,4071.41,1.124399189765219
577,4074.11,1.217253173571379
578,4076.8199999999997,1.0963771573175618
579,4079.52,1.0525541411237218
580,4082.23,1.1312661248699047
