,lambda (Angstroms),Total Flux (erg/s/cm^2/Angstrom)
0,102.00000000000001,0.0002165050095041576
1,103.89,0.000253221575225429
2,104.712855,0.0002692114896431593
3,106.07000000000001,0.0002472855788241685
4,108.03999999999999,0.00021548748213082362
5,110.05,0.00018316218708634452
6,113.91,0.00012090715570192215
7,117.92,5.622687610074754e-05
8,120.22644299999999,2.1007497210565764e-05
9,120.94000000000001,2.112772418506731e-05
10,124.89999999999999,1.8879980645790605e-05
11,126.92999999999999,1.763840679611087e-05
12,128.10999999999999,1.6977200307134483e-05
13,131.09,1.5143123936668654e-05
14,132.0,1.5321060279915673e-05
15,134.15,1.4000034838136643e-05
16,136.96,1.3316084139811494e-05
17,138.038426,1.269232223490878e-05
18,140.15,1.2996742857698707e-05
19,143.07999999999998,2.5067995560969705e-05
20,147.09,5.0166616284559023e-05
21,150.86,5.235531589252204e-05
22,155.09,5.5106136805435474e-05
23,158.489319,5.7820752958797504e-05
24,159.07000000000002,5.8276230263255426e-05
25,162.02,6.046293624691905e-05
26,166.18,6.421403126117012e-05
27,170.04999999999998,6.70712334499085e-05
28,172.81,6.950427206513277e-05
29,176.83999999999997,7.23029709851885e-05
30,180.13000000000002,7.443651752290148e-05
31,181.79000000000002,7.620728611031897e-05
32,181.970086,7.63242499872186e-05
33,186.03,7.917923886323962e-05
34,190.8,8.320946899528866e-05
35,193.9,8.60695160412744e-05
36,197.96,8.903912959182349e-05
37,202.10999999999999,9.252276031467537e-05
38,204.92,9.485374424990761e-05
39,208.929613,9.490807518145264e-05
40,210.17000000000002,9.5007183100719e-05
41,216.06,0.00010386305773481834
42,220.07999999999998,0.00010769746765486577
43,223.14000000000001,0.00010913932445967798
44,226.76999999999998,0.0001133600565516611
45,229.92,0.00016908126208602662
46,234.2,0.00027460742389145027
47,239.88329199999998,0.00032811872680396615
48,240.2,0.00033105482694982725
49,245.8,0.0003096559103393476
50,252.1,0.00032141169165255816
51,256.79,0.00026783721774128154
52,259.76,0.00030528388607465223
53,263.99,0.00031626451067066506
54,268.89,0.00031167679613649537
55,273.89,0.00030642573844856725
56,275.42287,0.00030487222543996485
57,278.98,0.0003017484318372584
58,284.17,0.00029867509112527853
59,290.12,0.0002825994419468045
60,296.2,0.0002836657742148512
61,301.01,0.0002757845877361184
62,308.02,0.0002768961872754288
63,316.227766,0.00027797544746644624
64,318.11,0.00027799514832640396
65,327.78000000000003,0.0002743902485519723
66,337.74,0.0002683604099011616
67,348.0,0.00026364022068857954
68,356.93,0.00027351898563318395
69,363.078055,0.0002934329106186953
70,366.08000000000004,0.0003034298811673294
71,374.61,0.000310758526302686
72,385.10999999999996,0.00029670264329228097
73,394.97999999999996,0.00036269500126250015
74,405.12,0.00042757584166959467
75,413.6,0.00045602839005738177
76,416.86938299999997,0.0004577317297960909
77,422.26,0.00046045411463981463
78,430.11,0.0004766165046414476
79,441.14,0.0005733368890641242
80,451.42,0.0006311337031044792
81,459.81,0.0006241856317813838
82,470.52,0.0006855374488409365
83,478.630092,0.000786463971241078
84,480.37000000000006,0.0008080200101524556
85,490.43,0.0007751932670583314
86,499.55,0.0009805023548298609
87,506.5,0.0009258067149189104
88,512.37,0.001423539004087647
89,519.49,0.0014530873234882271
90,530.37,0.0014660265194261922
91,540.23,0.0013372847594949732
92,549.5408739999999,0.0014012057505561133
93,550.27,0.0014062267953922026
94,560.51,0.0018861920900050783
95,569.61,0.00220005504127238
96,580.2,0.002277026757087844
97,589.63,0.002467648334060443
98,600.59,0.0022560312665757865
99,610.35,0.0022872764692536836
100,620.27,0.002986050035909907
101,630.3499999999999,0.002978933966544456
102,630.957344,0.0030027561627541644
103,640.59,0.0033808145220485687
104,649.4999999999999,0.003427843327451146
105,658.54,0.0032965879246272737
106,664.63,0.0037583358623266786
107,675.4300000000001,0.004073446717360105
108,684.82,0.003698643138541946
109,694.35,0.004384982489326072
110,705.63,0.0037850459601387622
111,715.4499999999999,0.004852131307956193
112,724.43596,0.00502703975875408
113,725.4,0.005045798720332279
114,735.49,0.005211044846371439
115,745.73,0.005235023148714451
116,754.36,0.00535699182539611
117,764.86,0.0049997991666658
118,775.4999999999999,0.005674186605819086
119,784.48,0.005431654027209735
120,795.39,0.005914168583709956
121,804.6,0.0061785248087665124
122,815.79,0.006336878561033925
123,825.24,0.006589668668176646
124,831.763771,0.0058246317752804685
125,834.79,0.005469673091402403
126,844.4599999999999,0.006727454773264531
127,854.24,0.006758329574568732
128,864.13,0.007108925495315005
129,874.1400000000001,0.007274202364543537
130,884.26,0.007426239353214141
131,894.5,0.0075813792903670066
132,904.86,0.00756374617600213
133,915.33,0.007704212181079327
134,925.93,0.02091936696367897
135,934.5,0.03634931045112039
136,945.32,0.05590819547260417
137,954.07,0.07054480588276899
138,954.992586,0.07121797648433206
139,965.12,0.07860765274426267
140,974.0500000000001,0.02363252861388534
141,985.3199999999999,0.06614115816043041
142,994.44,0.06644621351664079
143,1005.96,0.08819871238764339
144,1015.2700000000001,0.08678742723044147
145,1024.66,0.048360021857065984
146,1034.14,0.0687809762404952
147,1046.12,0.10900682386849962
148,1055.8,0.10603579771149486
149,1065.56,0.08718874133831651
150,1075.42,0.09918953469492114
151,1085.37,0.0828831978083305
152,1095.42,0.10220189065152287
153,1096.4782,0.10176869748270859
154,1105.55,0.09805494106912856
155,1115.78,0.09494385455092252
156,1126.1100000000001,0.08481244718698623
157,1133.91,0.10267407122002563
158,1144.4,0.09516108250292092
159,1154.99,0.09805413294008594
160,1165.68,0.0987316925315207
161,1173.76,0.06925794419651535
162,1184.62,0.09450474235020867
163,1195.58,0.07302364965817171
164,1203.87,0.05854165954713281
165,1215.01,0.042901875332781385
166,1226.25,0.07022088027269968
167,1234.75,0.09363995838562722
168,1246.18,0.09964412171865804
169,1254.8100000000002,0.09604231873213623
170,1258.92541,0.09290575713281507
171,1266.43,0.08718619844134763
172,1275.2,0.10386132371704998
173,1284.04,0.1070174290348617
174,1295.92,0.08901405618142315
175,1304.9099999999999,0.08819743158946923
176,1313.95,0.10410124702759344
177,1326.1100000000001,0.09941430434259237
178,1335.3000000000002,0.09087870987095092
179,1344.56,0.10219956544141885
180,1353.88,0.09895806104798055
181,1366.41,0.09025135858555756
182,1375.8799999999999,0.0923523242823536
183,1385.41,0.09214109001524338
184,1395.02,0.07628848579625817
185,1404.69,0.07681716161336669
186,1414.42,0.08559747746656896
187,1424.23,0.08520260336789622
188,1434.1000000000001,0.08599179930531721
189,1440.72,0.08880827328766037
190,1445.43977,0.08924517778352817
191,1447.3700000000001,0.08942385710144109
192,1454.05,0.08658700047407394
193,1464.1299999999999,0.08099576556331632
194,1474.28,0.08080867068790068
195,1484.5,0.08155523584782699
196,1494.79,0.08174408104309526
197,1505.15,0.07770678627370549
198,1512.1000000000001,0.07054366978265735
199,1515.58,0.0740396915396577
200,1526.09,0.0723529568460007
201,1536.67,0.06316269218768567
202,1543.7600000000002,0.06374768576732144
203,1554.46,0.061440911169592625
204,1565.24,0.06463347661225463
205,1576.08,0.06846489208520974
206,1583.3600000000001,0.07054429576077367
207,1594.33,0.07136145129936386
208,1605.3899999999999,0.06941658688339371
209,1616.51,0.06877972249771666
210,1623.9799999999998,0.0662919362692088
211,1635.23,0.06941678194916681
212,1646.57,0.06973548767456451
213,1654.17,0.0661395015116917
214,1659.58691,0.06791569296449748
215,1665.6299999999999,0.0698972265279762
216,1673.3200000000002,0.06345380488163507
217,1677.18,0.07086875911377075
218,1684.92,0.07202094765178373
219,1696.6000000000001,0.06814962071689891
220,1704.43,0.06583645958674923
221,1716.25,0.06258439316805586
222,1724.1699999999998,0.061725162369743555
223,1736.12,0.06493255643037082
224,1744.13,0.06345465596389588
225,1756.22,0.06598776054071459
226,1764.3300000000002,0.06172521044294781
227,1776.5600000000002,0.06201033553595797
228,1784.76,0.06287298577002857
229,1792.9999999999998,0.06523163615158242
230,1805.43,0.06478261198200895
231,1813.76,0.06032119269540017
232,1826.33,0.06115932904201814
233,1834.76,0.05908406012411753
234,1843.2299999999998,0.05488771135370021
235,1856.01,0.054887638474605344
236,1864.5700000000002,0.055906990036025374
237,1873.18,0.0589476117817995
238,1886.16,0.05451007964012099
239,1894.87,0.05229647175460329
240,1903.6200000000001,0.055012914016568853
241,1905.46072,0.05471836234164964
242,1916.81,0.05290215686385087
243,1925.6599999999999,0.051342734802549354
244,1934.55,0.05302476255114027
245,1943.48,0.0546349701096236
246,1956.95,0.0508706260908969
247,1965.98,0.0546352231741113
248,1975.06,0.05590669001969121
249,1984.17,0.05302438672269045
250,1993.3300000000002,0.05157894318805522
251,2007.15,0.052657667505887205
252,2016.4099999999999,0.051342433495983025
253,2025.72,0.05290180924844438
254,2035.07,0.05005795481079815
255,2044.4599999999998,0.051223890183044345
256,2053.9,0.047148435317656064
257,2063.38,0.04824736026216022
258,2072.91,0.05193632496902989
259,2077.6800000000003,0.04948473229870128
260,2087.2799999999997,0.05086967667288269
261,2096.91,0.04835839090448342
262,2106.59,0.04869324489844968
263,2116.31,0.04903094870230836
264,2126.08,0.04925603226853257
265,2135.89,0.0467161856446492
266,2145.75,0.046931278783131365
267,2155.66,0.04813563168397905
268,2165.61,0.04671572439471916
269,2175.6,0.0463938369153517
270,2185.65,0.04544289915082286
271,2187.7616199999998,0.045754700811893194
272,2195.73,0.04693137930940151
273,2205.87,0.04575771773273856
274,2216.05,0.04390066630764696
275,2226.2799999999997,0.04280297507201955
276,2236.56,0.04440792402585633
277,2246.88,0.04299987313126445
278,2257.25,0.04144459242613677
279,2262.45,0.04202061213041218
280,2272.9,0.04250799172842718
281,2283.39,0.04290167147801355
282,2293.9300000000003,0.0405951714170641
283,2304.52,0.04079068154557882
284,2315.15,0.03932268182566491
285,2325.84,0.03316888233310802
286,2336.57,0.03722305299212247
287,2347.36,0.036299233878493944
288,2352.77,0.037925764378518946
289,2363.63,0.03572902553014028
290,2374.54,0.03614969687122581
291,2385.5,0.034134268401775525
292,2396.51,0.03550257012178942
293,2407.57,0.03438373203126752
294,2413.12,0.034704533061792234
295,2424.26,0.03593170527441302
296,2435.4500000000003,0.03471878767649799
297,2446.69,0.03586356026804715
298,2452.33,0.035293441639607404
299,2463.65,0.034895584534299265
300,2475.02,0.03387364761845531
301,2486.4500000000003,0.034194500929968376
302,2492.18,0.030974442642564166
303,2503.68,0.034680736219327095
304,2511.88643,0.03267396152838803
305,2515.2400000000002,0.0318538723976321
306,2526.85,0.03171421537095677
307,2532.68,0.031863656820955294
308,2544.3700000000003,0.031289219676955755
309,2556.1099999999997,0.03261918245962858
310,2567.91,0.03195637515430827
311,2573.83,0.03300692647231705
312,2585.71,0.03263631904967253
313,2597.64,0.03212032155370037
314,2603.63,0.031249362769050482
315,2615.65,0.030756165141088598
316,2627.7200000000003,0.03155155743979909
317,2633.78,0.032067558552490515
318,2645.94,0.033662630719211266
319,2652.04,0.03397738177324059
320,2664.28,0.03157146382263715
321,2676.58,0.03238798578404054
322,2682.75,0.03231693673541118
323,2695.13,0.031011188579490374
324,2707.57,0.03144876033557641
325,2713.81,0.030175821184288378
326,2726.3399999999997,0.030043212808384682
327,2732.62,0.030817213598434545
328,2745.24,0.02804751509054112
329,2757.9100000000003,0.028314026509320064
330,2764.26,0.02891004719671125
331,2777.02,0.02972534848350046
332,2783.4300000000003,0.028456469082898492
333,2796.27,0.024619290252363497
334,2802.7200000000003,0.025723990793099425
335,2815.66,0.029001021815909175
336,2822.15,0.029749352297983
337,2835.17,0.028678973203468544
338,2848.26,0.02809731400629541
339,2854.83,0.027209214371045027
340,2868.0,0.028894215056547688
341,2874.61,0.028831445362635204
342,2884.0315,0.028694759446791257
343,2887.88,0.028638931430003876
344,2894.54,0.028445031230115103
345,2907.9,0.02986206082913703
346,2928.06,0.02879142022406832
347,2948.3500000000004,0.02821132961509788
348,2968.79,0.02828550900162544
349,2989.37,0.028035908383951133
350,3010.09,0.02798178776207496
351,3030.9599999999996,0.027735217135696783
352,3051.97,0.02755402650511675
353,3073.12,0.027437325870334844
354,3087.3,0.02725492544474584
355,3108.71,0.02714071480216047
356,3130.25,0.026593504155673367
357,3151.95,0.02641958350438413
358,3166.5,0.026305423067690195
359,3188.45,0.025130972408897632
360,3210.5499999999997,0.02554859174560306
361,3232.8,0.024577971077806494
362,3247.7299999999996,0.025505800629707497
363,3270.24,0.025930529954107464
364,3292.91,0.025644099273705298
365,3308.11,0.025357428817502702
366,3311.31121,0.02539567972185595
367,3323.38,0.025539881797085447
368,3331.04,0.02554280740224294
369,3338.72,0.024736072995925652
370,3346.4100000000003,0.02537331858387097
371,3354.13,0.02445952415460411
372,3361.8599999999997,0.02463190971959986
373,3369.61,0.024296995273120823
374,3377.3799999999997,0.023638360815167004
375,3385.16,0.02430410635147579
376,3392.9700000000003,0.0251022718705724
377,3400.7900000000004,0.02586921738393162
378,3408.63,0.024145762885816054
379,3416.49,0.024316868376225702
380,3424.36,0.025290513860897958
381,3432.25,0.02582368933409543
382,3440.17,0.024892774790080726
383,3448.1,0.023558460240328625
384,3456.05,0.023561375679101743
385,3464.01,0.022764591112137474
386,3472.0,0.02417141652796102
387,3479.9999999999995,0.022613451938047174
388,3488.02,0.023682587336658546
389,3496.07,0.023522842718057744
390,3504.12,0.02379799809945694
391,3512.2,0.023367563463643957
392,3520.3,0.02397042881635619
393,3528.4100000000003,0.02252791416333103
394,3536.55,0.023812149493093696
395,3544.7000000000003,0.024258364817118967
396,3552.8700000000003,0.024429450129669454
397,3561.06,0.024041765430745158
398,3569.27,0.022440890720346076
399,3577.5,0.02203466599847221
400,3585.7499999999995,0.02114225126512356
401,3594.01,0.021838026526037516
402,3602.2999999999997,0.023673911769739295
403,3610.6,0.022405287007703684
404,3618.92,0.023088112234193284
405,3623.13,0.022047479818751124
406,3625.87,0.025096528246705635
407,3628.6099999999997,0.02544720667466014
408,3631.35,0.02190781510261465
409,3634.0899999999997,0.02287856353056916
410,3636.84,0.023484261952786276
411,3639.58,0.022765850380740783
412,3642.32,0.022268378808695293
413,3645.06,0.023852057236649803
414,3647.7999999999997,0.023407335664604307
415,3650.54,0.020877174092558817
416,3653.2799999999997,0.02119648252051333
417,3656.02,0.022623370948467836
418,3658.7599999999998,0.023604099376422345
419,3661.4999999999995,0.024778677804376852
420,3664.25,0.02250496622659397
421,3666.99,0.023183494654548477
422,3669.73,0.024050173082502985
423,3672.47,0.023287571510457496
424,3675.21,0.023498549938412005
425,3677.95,0.02314932836636651
426,3680.6899999999996,0.02281578679432102
427,3683.43,0.02482568522227553
428,3686.1699999999996,0.023635443650230036
429,3688.92,0.022336742072447152
430,3691.66,0.022549140500401663
431,3694.4,0.023736548928356173
432,3697.14,0.02306232735631068
433,3699.8799999999997,0.02328043578426519
434,3702.62,0.022504994212219697
435,3705.3599999999997,0.020314092640174204
436,3708.1,0.021923431068128715
437,3710.84,0.023100869496083223
438,3713.5800000000004,0.02535024792403773
439,3716.33,0.02641920634625485
440,3719.0699999999997,0.03260281477420936
441,3721.81,0.05647195320216386
442,3724.5499999999997,0.09468113163011838
443,3727.29,0.1218274300580729
444,3730.0299999999997,0.1093919284860274
445,3732.7700000000004,0.0729901969139819
446,3735.51,0.04226746534193641
447,3738.25,0.028886773769890916
448,3740.9900000000002,0.026349482197845428
449,3743.74,0.023479920620062544
450,3746.48,0.02354122904801705
451,3749.22,0.02079155747597156
452,3751.9599999999996,0.02442788590392607
453,3754.7000000000003,0.022935444331880574
454,3757.44,0.022993902759835084
455,3760.1800000000003,0.023418701187789596
456,3762.92,0.0246189396157441
457,3765.6600000000003,0.02429964804369861
458,3768.4,0.02382498647165312
459,3771.1499999999996,0.023662374893870238
460,3773.89,0.025970183321824745
461,3776.63,0.026570301749779254
462,3779.3700000000003,0.027913090177733763
463,3782.11,0.02743557860568827
464,3784.8500000000004,0.026694357033642778
465,3787.59,0.026550405461597287
466,3790.33,0.024822763889551798
467,3793.07,0.026219722317506303
468,3795.81,0.025792100745460813
469,3798.5600000000004,0.02418263916767793
470,3801.3,0.02746973759563244
471,3801.8939600000003,0.027479628639817788
472,3804.0400000000004,0.027515366280136157
473,3806.78,0.026829735035645064
474,3809.52,0.02597733379115397
475,3812.26,0.02618546254666288
476,3815.0,0.02738143130217179
477,3817.7400000000002,0.026861150057680694
478,3820.48,0.0258519388131896
479,3823.23,0.02631794756415657
480,3825.9700000000003,0.024117066319665478
481,3828.71,0.023516965075174385
482,3831.4500000000003,0.023603923830683292
483,3834.19,0.022608972586192197
484,3836.93,0.022336721341701105
485,3839.67,0.02441647009721001
486,3842.41,0.024748608852718918
487,3845.15,0.027995807608227827
488,3847.89,0.026423546363736734
489,3850.6400000000003,0.0276079651147037
490,3853.38,0.028446133870212605
491,3856.12,0.027908752625721515
492,3858.86,0.028279391381230423
493,3861.6,0.02994290013673933
494,3864.34,0.030146758892248236
495,3867.08,0.03133986764775715
496,3869.8199999999997,0.031389776403266054
497,3872.56,0.030444715158774956
498,3875.2999999999997,0.027883193914283864
499,3878.05,0.027995672665250833
500,3880.79,0.02682967142075974
501,3883.53,0.026460490176268645
502,3886.27,0.030598578931777556
503,3889.0099999999998,0.02923444768728646
504,3891.75,0.029144656442795368
505,3894.49,0.027998605198304275
506,3897.23,0.02468729395381318
507,3899.97,0.028645792709322087
508,3902.7099999999996,0.027954461464830993
509,3905.46,0.029784600215797964
510,3908.2,0.02770915897130687
511,3910.94,0.029002057726815775
512,3913.68,0.029482446482324683
513,3916.42,0.02827510523783359
514,3919.16,0.0279586739933425
515,3921.8999999999996,0.027938722748851407
516,3924.64,0.025284551504360313
517,3927.3799999999997,0.02505934025986922
518,3930.12,0.022226969015378125
519,3932.87,0.022289587766345095
520,3935.61,0.023666586521854
521,3938.35,0.02474423527736291
522,3941.0899999999997,0.025843264032871814
523,3943.83,0.02727158278838072
524,3946.5699999999997,0.02722027154388963
525,3949.31,0.027553840299398537
526,3952.0499999999997,0.025985859054907443
527,3954.7900000000004,0.026852547810416353
528,3957.54,0.026366346561383317
529,3960.2799999999997,0.024654395316892227
530,3963.02,0.023499794072401135
531,3965.7599999999998,0.023267462827910042
532,3968.5,0.027506761583418946
533,3971.24,0.027012140338927855
534,3973.9799999999996,0.02553253909443676
535,3976.7200000000003,0.025196137849945666
536,3979.46,0.026591666605454575
537,3982.2000000000003,0.027895965360963483
538,3984.95,0.02901482411193045
539,3987.69,0.028591472867439356
540,3990.43,0.030525821622948264
541,3993.1699999999996,0.029774620378457173
542,3995.91,0.03018801913396608
543,3998.65,0.029315657889474985
544,4001.3900000000003,0.030755376644983894
545,4004.13,0.0317332554004928
546,4006.8700000000003,0.030781064156001705
547,4009.61,0.030391922911510612
548,4012.3599999999997,0.031887081662477584
549,4015.1,0.03120146041798649
550,4017.8399999999997,0.030799499173495396
551,4020.5800000000004,0.031315517929004305
552,4023.32,0.030845136684513212
553,4026.0600000000004,0.03038900544002212
554,4028.8,0.028748334195531026
555,4031.54,0.02957653295103993
556,4034.28,0.03067557170654884
557,4037.02,0.031848730462057745
558,4039.7699999999995,0.030731039213024714
559,4042.51,0.03009957796853362
560,4045.2500000000005,0.030113846724042527
561,4047.9900000000002,0.029797415479551434
562,4050.73,0.03039754423506034
563,4053.4700000000003,0.03204965299056925
