,lambda (Angstroms),Total Flux (erg/s/cm^2/Angstrom)
0,102.07000000000001,0.004058751533876571
1,103.97,0.004746520870695331
2,104.712855,0.005015422445452107
3,105.9,0.004656866932883857
4,108.12,0.003986356461271878
5,109.88,0.0034547817549955818
6,114.0,0.0022104120678933126
7,118.01,0.0009992663794722498
8,120.22644299999999,0.0003298417893052816
9,121.04,0.00031847639421746015
10,125.0,0.0002631437507197901
11,127.03,0.00023477959716653991
12,127.91,0.00022248473978483553
13,130.89,0.00018084868428770002
14,132.1,0.00016394635833285627
15,133.94,0.0001382407606083832
16,137.06,9.465914179688543e-05
17,138.038426,8.099226335930106e-05
18,139.93,8.00723683369912e-05
19,142.86,7.869611740899876e-05
20,146.85999999999999,7.682127783528896e-05
21,150.98,7.486276824336785e-05
22,154.85,7.30442865060536e-05
23,158.489319,7.134965391349197e-05
24,158.82,7.110811131769207e-05
25,162.15,6.867988028869283e-05
26,165.92,6.596944193393996e-05
27,170.17999999999998,6.29093920436887e-05
28,172.95000000000002,6.0956480983830446e-05
29,176.97,5.813009168035391e-05
30,179.85000000000002,5.613523723905726e-05
31,181.93,5.469482175367638e-05
32,181.970086,5.46672805722066e-05
33,186.17000000000002,5.5991803888096e-05
34,190.95000000000002,5.75862145705795e-05
35,194.04999999999998,5.8636554096876305e-05
36,198.10999999999999,6.0056533140994076e-05
37,201.8,6.142892541261836e-05
38,205.07000000000002,6.262049464519597e-05
39,208.929613,6.405747029613888e-05
40,209.85,6.55395726746952e-05
41,216.23,7.608210203450245e-05
42,220.25,8.27792557439735e-05
43,222.8,8.711477261192154e-05
44,226.94,9.412165287988422e-05
45,230.1,0.00010595846492016491
46,233.83999999999997,0.00012100695699315535
47,239.83,0.0001372496945378647
48,239.88329199999998,0.00013734769432135574
49,245.98999999999998,0.00013207173867875569
50,251.72,0.00012923469367911655
51,256.99,0.00011983983682953571
52,259.96,0.00012248346073024635
53,264.19,0.00012090801143731902
54,269.1,0.00011770008835734899
55,274.1,0.00011431990933497626
56,275.42287,0.00011341899507439028
57,279.2,0.00012038113158737275
58,283.72999999999996,0.0001291930679189732
59,289.67,0.0001383793376120653
60,295.74,0.00015084921201224524
61,301.24,0.000159176206542886
62,308.26,0.0001733374907256311
63,316.227766,0.00018921665304095202
64,318.35,0.0001886538037162725
65,328.03,0.00018517639462681718
66,337.99999999999994,0.00018086643675265706
67,348.27,0.00017617975289431953
68,357.20000000000005,0.00017241464376530747
69,363.078055,0.0001700147515232455
70,366.36,0.00017425357979768843
71,374.90000000000003,0.00018489780338395583
72,385.4,0.00019493516189166162
73,395.29,0.00020921819728606265
74,405.43,0.00022162611264493282
75,413.90999999999997,0.0002315778290397276
76,416.86938299999997,0.00023499761628418132
77,421.60999999999996,0.00023906278001651954
78,430.44,0.00024595204906052145
79,441.48,0.00025636012802380355
80,450.72,0.0002645850930256809
81,460.16,0.00027237347068993664
82,469.8,0.0002813433610165706
83,478.630092,0.0002899270387005192
84,479.64,0.0002898652965336742
85,489.67999999999995,0.000288608180707778
86,499.93,0.0002896272698297465
87,505.71999999999997,0.0003630820633923024
88,511.58000000000004,0.0006768248252708131
89,519.89,0.0006836438782077456
90,529.5500000000001,0.0006966466058095228
91,539.4,0.0006748352616974632
92,549.43,0.0008056126075407164
93,549.5408739999999,0.0008068733875669971
94,559.64,0.0009257064647815092
95,570.05,0.0010101942028942557
96,580.65,0.000989332692038839
97,590.0799999999999,0.00112784099851369
98,599.67,0.0011453273795416668
99,609.41,0.001291894142963199
100,619.31,0.0014655633809378572
101,629.38,0.001555726185625211
102,630.957344,0.0015650631032098445
103,639.6,0.0016200938467225456
104,650.0,0.001771024368176727
105,657.5200000000001,0.0018523822529205197
106,665.14,0.0019760348542167566
107,674.39,0.0020718706353178313
108,685.35,0.002074700169465699
109,694.88,0.0024612879569136173
110,704.5500000000001,0.0023940397475349573
111,716.0,0.0028293422927898014
112,724.43596,0.0029348505468994902
113,725.9599999999999,0.0029537427271398753
114,734.36,0.0030961218081936043
115,744.5799999999999,0.003363405190142308
116,754.94,0.0035498920567752406
117,765.44,0.0037384984080924017
118,774.3,0.00401723679596574
119,785.0699999999999,0.004317353653459628
120,794.17,0.004516632157934501
121,805.2099999999999,0.004715257521605116
122,814.54,0.004911113679489793
123,825.8699999999999,0.005291142475720598
124,831.763771,0.005025005924061171
125,835.4300000000001,0.004857749384121347
126,845.11,0.00567031763244885
127,854.89,0.005915628982515272
128,864.79,0.006284617054668399
129,874.8000000000001,0.00666249803873434
130,884.9300000000001,0.007079635744886985
131,895.18,0.007421969173126334
132,905.55,0.007623666323452388
133,916.0300000000001,0.010972997385691253
134,924.5100000000001,0.06444737241315171
135,935.21,0.13547964929921621
136,946.04,0.2610615947175413
137,954.8,0.3393785004298707
138,954.992586,0.34067369400559794
139,965.85,0.41369569158916397
140,974.79,0.11745974085222537
141,986.08,0.4262588716329819
142,995.1999999999999,0.41369441182080285
143,1004.4100000000001,0.49165034747100367
144,1016.04,0.45884056110963944
145,1025.44,0.2092891871804199
146,1034.93,0.3869774087135801
147,1044.51,0.5762956257091202
148,1054.17,0.56579093867122
149,1063.92,0.5008003470956998
150,1073.77,0.5554467504783792
151,1086.2,0.4950594237826133
152,1096.25,0.5723349170816924
153,1096.4782,0.5715994680210411
154,1103.85,0.5478406423120212
155,1114.0700000000002,0.5465659296040024
156,1124.37,0.49963240427204614
157,1134.78,0.5657771615821757
158,1145.28,0.5304484046903756
159,1155.8799999999999,0.5478310320186536
160,1163.89,0.5567240680469089
161,1174.66,0.4321601685493196
162,1185.53,0.5415469532718085
163,1193.74,0.47167165774021996
164,1204.79,0.3842929140588494
165,1215.9399999999998,0.21169735459755684
166,1224.3700000000001,0.42135902435014017
167,1235.69,0.5231591380629804
168,1244.26,0.5478163857236731
169,1255.77,0.5390517694546618
170,1258.92541,0.531122860122291
171,1264.48,0.517166233879009
172,1276.18,0.5618620652016267
173,1285.02,0.5657643644231602
174,1293.93,0.5077330644303845
175,1305.9,0.5136036987835241
176,1314.96,0.5618567004743718
177,1324.07,0.5427831027264272
178,1336.32,0.5183576402223302
179,1345.5800000000002,0.5465504441580089
180,1354.91,0.5440413488793784
181,1364.3,0.5183580542741973
182,1373.76,0.5207538604547071
183,1386.47,0.5243688031137217
184,1396.0800000000002,0.4620056109778547
185,1405.76,0.4760334196276786
186,1415.5,0.5042425289509518
187,1425.32,0.49732253917215746
188,1435.2,0.5030749500668125
189,1441.82,0.513605324370721
190,1445.43977,0.5116840063018341
191,1448.48,0.5100702936395164
192,1455.16,0.5030803565672433
193,1465.2499999999998,0.4848804516182558
194,1475.4,0.48488544723448745
195,1485.63,0.48266064360434463
196,1495.93,0.480435440633624
197,1506.3,0.46306503832232576
198,1513.2499999999998,0.4341552037935385
199,1516.74,0.44734913667044973
200,1523.74,0.44734920261267846
201,1534.3000000000002,0.4098742020912406
202,1544.9399999999998,0.4165330023234283
203,1555.65,0.40238610321503826
204,1566.43,0.41653130476607053
205,1573.66,0.4341551728749725
206,1584.57,0.4371609756506461
207,1595.55,0.442230779085742
208,1606.61,0.4311656832744634
209,1614.03,0.4281962531732259
210,1625.22,0.42232155858658865
211,1636.4799999999998,0.43415666465937375
212,1644.04,0.4321515358769808
213,1655.43,0.42232394317440725
214,1659.58691,0.42769526768809113
215,1666.91,0.43715818612449214
216,1670.75,0.4174834502966066
217,1678.46,0.4412056807046801
218,1686.21,0.4422295138645465
219,1693.99,0.4281986490882576
220,1705.73,0.4184558567394617
221,1713.6100000000001,0.4070577988426549
222,1725.48,0.4042520154371858
223,1733.45,0.41653636373191294
224,1745.46,0.4089299899577188
225,1753.52,0.4184585444439799
226,1765.68,0.39962248098900893
227,1773.8300000000002,0.402396441666804
228,1786.12,0.4051829871551599
229,1794.3700000000001,0.41462085471243704
230,1806.8000000000002,0.4146268098320679
231,1815.14,0.395060883580879
232,1823.5199999999998,0.399629660081483
233,1836.16,0.39233862964802635
234,1844.6399999999999,0.3686890130281124
235,1853.15,0.3686931984720432
236,1865.9999999999998,0.3764125824854991
237,1874.61,0.38785697480891196
238,1883.26,0.36448346988411773
239,1896.32,0.35049456834448617
240,1905.0700000000002,0.36785387029917405
241,1905.46072,0.3673719069425093
242,1913.86,0.3570098523532959
243,1927.1299999999999,0.3488846756056537
244,1936.03,0.3561827863777701
245,1944.96,0.3695461944895679
246,1953.94,0.348075698167501
247,1967.48,0.3670072974769905
248,1976.56,0.37554209228719465
249,1985.69,0.35946598266353424
250,1994.85,0.35210187037955526
251,2004.06,0.3570002536617117
252,2013.3100000000002,0.3553607333967765
253,2027.27,0.361124495461804
254,2036.6200000000001,0.3488743663291398
255,2046.02,0.35290503276261104
256,2055.4700000000003,0.3401381947622178
257,2064.96,0.34408325321473293
258,2074.49,0.36112130812015647
259,2079.27,0.3480629842427089
260,2084.06,0.3537194594784884
261,2093.68,0.34093110640295576
262,2103.35,0.34566634889355863
263,2113.06,0.34725348783706994
264,2122.81,0.3496711232334896
265,2132.61,0.33934955419604473
266,2147.3900000000003,0.3385802435456942
267,2157.3,0.34407526475374745
268,2167.26,0.33779618152793617
269,2177.26,0.3354650947550332
270,2187.31,0.3346941035482658
271,2187.7616199999998,0.3349724358077486
272,2197.41,0.34092024565708373
273,2202.48,0.33469260411490637
274,2212.64,0.3263290224445864
275,2222.85,0.3218464443093535
276,2233.11,0.3308722697092076
277,2243.42,0.32482899864414866
278,2253.7799999999997,0.31670363111417676
279,2264.1800000000003,0.3174387664122745
280,2274.63,0.3203724052454591
281,2285.13,0.32409684761373087
282,2295.68,0.31171409351708956
283,2306.27,0.31611304224851794
284,2316.92,0.3096876952220507
285,2327.61,0.27417135102365303
286,2332.98,0.2979012306919977
287,2343.75,0.28916989214973926
288,2354.57,0.3021643571425678
289,2365.44,0.2886206256704834
290,2376.35,0.2933754970264686
291,2387.32,0.27893747262455815
292,2392.83,0.28677926219114647
293,2403.87,0.28160174273835786
294,2414.97,0.2829561275276737
295,2426.11,0.2929624151450591
296,2437.31,0.286355607004549
297,2442.9300000000003,0.29238960434832867
298,2454.21,0.2911055018639577
299,2465.5299999999997,0.28783510220765635
300,2476.91,0.2813402067934594
301,2482.62,0.28072961050039574
302,2494.08,0.26814972074233806
303,2505.6,0.28804423522638467
304,2511.37,0.2682356431754255
305,2511.88643,0.26829339676098213
306,2517.16,0.2688826353849358
307,2522.96,0.26460737667701345
308,2534.61,0.266499457892997
309,2546.31,0.2647152377408088
310,2552.18,0.27595347711744594
311,2563.96,0.270969054776183
312,2575.79,0.27798063106674825
313,2587.68,0.2761350057155075
314,2593.65,0.27299534235580114
315,2605.6200000000003,0.26684021481548553
316,2617.65,0.2626371856333638
317,2623.68,0.27002772063185143
318,2635.79,0.2770144892606549
319,2647.9599999999996,0.2921334562476523
320,2654.06,0.2982904893306995
321,2666.31,0.28166545412862215
322,2672.46,0.28759038584349755
323,2684.7900000000004,0.2903141484523454
324,2697.19,0.27668130914575273
325,2703.4,0.2825083392188221
326,2715.88,0.27047749772315466
327,2722.1400000000003,0.2674107264280523
328,2734.71,0.27495858246967575
329,2747.33,0.25198393714312745
330,2753.66,0.2578840639325846
331,2766.3700000000003,0.26578591614332714
332,2772.75,0.27200154156461254
333,2785.55,0.258626691312646
334,2791.97,0.223231615639394
335,2804.86,0.23272106292471828
336,2817.81,0.2684945085682365
337,2824.3,0.27604323097954403
338,2837.3399999999997,0.2704483741603531
339,2843.8799999999997,0.26310829520348894
340,2857.0099999999998,0.2507468359215888
341,2863.5899999999997,0.2711932558701873
342,2876.8100000000004,0.275662294125578
343,2883.44,0.27317101270600475
344,2884.0315,0.27325842386463517
345,2896.75,0.27513828939818746
346,2910.12,0.2901602819110027
347,2930.29,0.2817094706158257
348,2950.6,0.27604315924224876
349,2971.06,0.2786924477846721
350,2991.65,0.2781556362542955
351,3012.39,0.27826402463991917
352,3033.27,0.2790092129471429
353,3047.2700000000004,0.28036490510715883
354,3068.39,0.28047659327998287
355,3089.6600000000003,0.2792914813688071
356,3111.08,0.2813428693736315
357,3132.64,0.2763118573000561
358,3147.1,0.2751142492024725
359,3168.92,0.27841103698329733
360,3190.8799999999997,0.2678343246857224
361,3212.9999999999995,0.27480871229854753
362,3227.83,0.26432830399376445
363,3250.21,0.28075599146098995
364,3272.7400000000002,0.2900627788442156
365,3287.84,0.2881455703882328
366,3310.63,0.28496945762585874
367,3311.31121,0.2845082789671868
368,3318.26,0.27980388285743896
369,3325.9100000000003,0.28048870096402817
370,3333.58,0.289049718856517
371,3341.27,0.2704227365349054
372,3348.97,0.29113645410624356
373,3356.69,0.2799981714634813
374,3364.43,0.2495847886066187
375,3372.1800000000003,0.25251670564270584
376,3379.96,0.2781893223576423
377,3387.75,0.28015633896552866
378,3395.5600000000004,0.2757094553593145
379,3403.39,0.28742307153899993
380,3411.23,0.2670509876116352
381,3419.09,0.27710350347017004
382,3426.98,0.28424751900755424
383,3434.88,0.2949578344378882
384,3442.79,0.27722554976117203
385,3450.73,0.28241536476330514
386,3458.6899999999996,0.2766613795513379
387,3466.66,0.2760632942323204
388,3474.65,0.28778900869920243
389,3482.6600000000003,0.2787023229519841
390,3490.69,0.2925515369906654
391,3498.73,0.2724372509222965
392,3506.7999999999997,0.2872879645327769
393,3514.88,0.2750377780362071
394,3522.99,0.29003499121848664
395,3531.11,0.280227604293716
396,3539.25,0.29279581715484493
397,3547.41,0.30243272980187347
398,3555.58,0.30040544234185174
399,3563.7799999999997,0.29293065456067946
400,3572.0,0.27468176656540677
401,3580.23,0.27283917846308375
402,3588.48,0.2494495901466604
403,3596.7599999999998,0.2779919015090864
404,3605.05,0.2918058127644622
405,3613.36,0.27361942380573756
406,3621.69,0.27115223463291255
407,3630.04,0.31137244524598706
408,3638.4,0.2919768557520114
409,3646.79,0.29134156593688504
410,3648.0099999999998,0.2822546528767594
411,3650.7400000000002,0.16772542365205206
412,3653.47,0.23039479442734467
413,3656.2,0.29115876520263734
414,3658.9300000000003,0.36046023597793
415,3661.66,0.4062868067532226
416,3664.3900000000003,0.3818713775285152
417,3667.12,0.3084660483038078
418,3669.85,0.31254551907910044
419,3672.59,0.2692214897473429
420,3675.32,0.3330508605226355
421,3678.0499999999997,0.24964283129792814
422,3680.78,0.23565800207322077
423,3683.5099999999998,0.2949683728485134
424,3686.2400000000002,0.29329514362380604
425,3688.97,0.31393661439909865
426,3691.7,0.2767821851743913
427,3694.4300000000003,0.2583148559496839
428,3697.16,0.28991212672497657
429,3699.8900000000003,0.18468989750026918
430,3702.62,0.15937056827556184
431,3705.35,0.2666937390508545
432,3708.0800000000004,0.3106637098261471
433,3710.81,0.2641288806014397
434,3713.54,0.26996715137673233
435,3716.27,0.31142112215202494
436,3719.0,0.19537719292731762
437,3721.7299999999996,0.2713963637026103
438,3724.46,0.4516244344779029
439,3727.2,0.7603996051461452
440,3729.9300000000003,0.893640375921438
441,3732.66,0.8649992466967305
442,3735.39,0.5473543174720232
443,3738.12,0.3589682882473158
444,3740.85,0.32371925902260845
445,3743.5800000000004,0.2705647297979011
446,3746.31,0.30383520057319374
447,3749.04,0.23918747134848636
448,3751.77,0.231846942123779
449,3754.5,0.3878423128990716
450,3757.2299999999996,0.27640318367436423
451,3759.96,0.28992395444965685
452,3762.69,0.2874323252249495
453,3765.42,0.36489279600024216
454,3768.15,0.29962186677553476
455,3770.8799999999997,0.2571787375508274
456,3773.61,0.28439130832612003
457,3776.34,0.29616547910141267
458,3779.0800000000004,0.30569074976965505
459,3781.81,0.4095449205449477
460,3784.54,0.4576918913202403
461,3787.27,0.35063776209553293
462,3790.0,0.36186233287082564
463,3792.7300000000005,0.3461066036461182
464,3795.46,0.32523327442141087
465,3798.19,0.2818253451967035
466,3800.92,0.2694527159719961
467,3801.8939600000003,0.28100429926002257
468,3803.65,0.3018316906641686
469,3806.3799999999997,0.37987826752877707
470,3809.11,0.3448123443933855
471,3811.84,0.3825898212579939
472,3814.5699999999997,0.3627057981226023
473,3817.3,0.4111826749872108
474,3820.0299999999997,0.29129145185181915
475,3822.76,0.3105039287164276
476,3825.49,0.261758405581036
477,3828.22,0.37208638244564446
478,3830.9500000000003,0.2672547593102529
479,3833.69,0.3298736360901163
480,3836.4199999999996,0.2597420129547247
481,3839.15,0.3037972898193331
482,3841.8799999999997,0.2622947666839416
483,3844.61,0.31435014354854995
484,3847.34,0.3623994204131584
485,3850.0699999999997,0.2991928972777668
486,3852.8,0.31767247414237526
487,3855.5299999999997,0.4029618510069837
488,3858.26,0.4318720278715921
489,3860.9900000000002,0.36965480473620055
490,3863.72,0.338277481600809
491,3866.4500000000003,0.4264494584654174
492,3869.18,0.38459263533002586
493,3871.91,0.45062081219463423
494,3874.64,0.4230175890592427
495,3877.37,0.37548126592385106
496,3880.1000000000004,0.3936189427884595
497,3882.83,0.3814540196530679
498,3885.56,0.3646111965176763
499,3888.3,0.24431547329753975
500,3891.0299999999997,0.2680591501621482
501,3893.76,0.3907226270267566
502,3896.4900000000002,0.394594503891365
503,3899.22,0.2988503807559734
504,3901.9500000000003,0.3743685576205819
505,3904.68,0.37601753448519026
506,3907.41,0.37072901134979874
507,3910.14,0.3217393882144071
508,3912.87,0.3717306650790156
509,3915.6000000000004,0.394192041943624
510,3918.33,0.3317060188082324
511,3921.06,0.4002868956728408
512,3923.79,0.37342867253744927
513,3926.52,0.3842502494020577
514,3929.2500000000005,0.37896172626666613
515,3931.98,0.2983747031312745
516,3934.71,0.27790427999588296
517,3937.44,0.26879275686049137
518,3940.18,0.3037596336403548
519,3942.91,0.3294576105049632
520,3945.6400000000003,0.3641814873695716
521,3948.37,0.34164706423418006
522,3951.1000000000004,0.3438455410987885
523,3953.83,0.3808535179633969
524,3956.56,0.38914689482800535
525,3959.29,0.35780627169261375
526,3962.02,0.3747957485572222
527,3964.75,0.3260137254218306
528,3967.48,0.25016580228643903
529,3970.21,0.25069107915104744
530,3972.9399999999996,0.2633446560156559
531,3975.67,0.2688042328802643
532,3978.4,0.27459370974487274
533,3981.13,0.31778198660948115
534,3983.86,0.3999324634740896
535,3986.5899999999997,0.397013440338698
536,3989.32,0.40850681720330645
537,3992.0499999999997,0.4152855940679149
538,3994.7899999999995,0.39338417084777827
539,3997.52,0.4169081477123867
540,4000.25,0.3615429245769951
541,4002.98,0.40896930144160354
542,4005.71,0.40620897830621194
543,4008.4399999999996,0.4091892551708204
544,4011.17,0.4248841320354288
545,4013.9,0.4192292089000373
546,4016.63,0.45633498576464565
547,4019.36,0.48788336262925414
548,4022.0899999999997,0.45463743949386254
549,4024.82,0.409165316358471
550,4027.5499999999997,0.42774269322307934
551,4030.28,0.43992007008768774
552,4033.01,0.42922074695229623
553,4035.74,0.4421064238169046
554,4038.4700000000003,0.4331049006815131
555,4041.2,0.44316927754612145
556,4043.93,0.40702845441072993
557,4046.6600000000003,0.4223203312753383
558,4049.4,0.40418080805520173
559,4052.13,0.48405928491981015
560,4054.86,0.47445926178441855
561,4057.5899999999997,0.424285038649027
562,4060.32,0.43432481551363544
563,4063.05,0.4855008923782439
564,4065.7799999999997,0.4062942692428523
565,4068.51,0.41547914610746073
566,4071.24,0.4356442229720691
567,4073.9700000000003,0.4661789998366776
568,4076.7,0.433714676701286
569,4079.43,0.4444751535658944
570,4082.1600000000003,0.42608113043050283
571,4084.89,0.3925053072951113
572,4087.6200000000003,0.4083467841597197
573,4090.35,0.4794682610243281
574,4093.08,0.45689703788893654
575,4095.81,0.41585851475354496
576,4098.54,0.4234189916181534
577,4101.27,0.4368543684827618
578,4104.01,0.44416844526262517
579,4106.74,0.3836123221272336
580,4109.47,0.384577298991842
