,lambda (Angstroms),Total Flux (erg/s/cm^2/Angstrom)
0,102.00000000000001,4.3567379740831524e-05
1,103.89,5.0950180405085807e-05
2,104.712855,5.416896506303186e-05
3,106.07000000000001,4.9818091524833695e-05
4,108.03999999999999,4.3531508666164725e-05
5,110.05,3.72357277372689e-05
6,113.91,2.496772346038443e-05
7,117.92,1.2216972020149508e-05
8,120.22644299999999,6.8660461773745945e-06
9,120.94000000000001,7.413848837013463e-06
10,124.89999999999999,7.539005729158122e-06
11,126.92999999999999,7.513842959222175e-06
12,128.10999999999999,7.559712861426896e-06
13,131.09,7.5113039873337316e-06
14,132.0,8.234528055983135e-06
15,134.15,8.201819767627329e-06
16,136.96,9.2016696279623e-06
17,138.038426,9.22411921817473e-06
18,140.15,9.573226971539741e-06
19,143.07999999999998,2.1706487112193943e-05
20,147.09,4.68899712569118e-05
21,150.86,4.9158455178504405e-05
22,155.09,5.19987953610871e-05
23,158.489319,5.478535112538361e-05
24,159.07000000000002,5.525971005265108e-05
25,162.02,5.7542339249383806e-05
26,166.18,6.142870225223402e-05
27,170.04999999999998,6.44117426899817e-05
28,172.81,6.693452641302655e-05
29,176.83999999999997,6.98642661970377e-05
30,180.13000000000002,7.21047915045803e-05
31,181.79000000000002,7.39295372220638e-05
32,181.970086,7.405235683718333e-05
33,186.03,7.686486377264792e-05
34,190.8,8.084518179905773e-05
35,193.9,8.367279120825487e-05
36,197.96,8.65999219183647e-05
37,202.10999999999999,9.004012806293508e-05
38,204.92,9.234170884998152e-05
39,208.929613,9.235408417825015e-05
40,210.17000000000002,9.23743726201438e-05
41,216.06,0.00010085597154696367
42,220.07999999999998,0.00010443493353097316
43,223.14000000000001,0.0001056823448919356
44,226.76999999999998,0.00010967241131033222
45,229.92,0.00016519345241720532
46,234.2,0.00027044764477829005
47,239.88329199999998,0.0003235978070909799
48,240.2,0.00032655048538996547
49,245.8,0.0003054447020678695
50,252.1,0.0003175302583305116
51,256.79,0.0002642012835482563
52,259.76,0.0003018034172149305
53,263.99,0.00031300546213413303
54,268.89,0.00030867423922729904
55,273.89,0.00030368490768971346
56,275.42287,0.0003022116331139262
57,278.98,0.0002988890463674517
58,284.17,0.0002955256582250557
59,290.12,0.0002791174883893609
60,296.2,0.00027984403484297026
61,301.01,0.0002716940375472237
62,308.02,0.00027241387745508575
63,316.227766,0.0002730344398738958
64,318.11,0.0002731311896652808
65,327.78000000000003,0.00026992212971039447
66,337.74,0.0002643000019802323
67,348.0,0.0002599998041377159
68,356.93,0.0002702441171266368
69,363.078055,0.0002904097117069521
70,366.08000000000004,0.0003003107762334659
71,374.61,0.0003073669052605372
72,385.10999999999996,0.0002929755686584562
73,394.97999999999996,0.0003586526002525
74,405.12,0.00042320948833391895
75,413.6,0.00045139111801147634
76,416.86938299999997,0.00045299000762924127
77,422.26,0.0004556090629279629
78,430.11,0.00047162098092828956
79,441.14,0.0005681299378128248
80,451.42,0.0006257297006208958
81,459.81,0.0006186208063562768
82,470.52,0.0006797673297681872
83,478.630092,0.0007805383946174983
84,480.37000000000006,0.0008021381620304911
85,490.43,0.0007695642534116663
86,499.55,0.0009751025509659722
87,506.5,0.0009205815829837821
88,512.37,0.0014184614008175295
89,519.49,0.0014481886646976454
90,530.37,0.0014614013038852383
91,540.23,0.0013329073518989947
92,549.5408739999999,0.0013970623499126565
93,550.27,0.0014020893590784406
94,560.51,0.0018821384180010157
95,569.61,0.002196075808254476
96,580.2,0.0022731341514175686
97,589.63,0.0024638328668120887
98,600.59,0.002252305453315157
99,610.35,0.002283630493850737
100,620.27,0.0029824852071819816
101,630.3499999999999,0.0029754515933088912
102,630.957344,0.002999278757658337
103,640.59,0.0033772309044097135
104,649.4999999999999,0.003424161465490229
105,658.54,0.003292806384925455
106,664.63,0.0037544871724653358
107,675.4300000000001,0.004069478943472021
108,684.82,0.003694571827708389
109,694.35,0.004380806097865214
110,705.63,0.0037807451920277525
111,715.4499999999999,0.004847722261591239
112,724.43596,0.00502253163050941
113,725.4,0.005041284544066455
114,735.49,0.0052064673692742884
115,745.73,0.00523038142974289
116,754.36,0.005352295965079222
117,764.86,0.00499503743333316
118,775.4999999999999,0.005669358121163817
119,784.48,0.005426769205441947
120,795.39,0.005909215316741991
121,804.6,0.006173513761753302
122,815.79,0.006331797312206785
123,825.24,0.0065845281336353294
124,831.763771,0.005819450313075357
125,834.79,0.005464533018280481
126,844.4599999999999,0.006722446954652906
127,854.24,0.006753455514913746
128,864.13,0.007104186699063
129,874.1400000000001,0.007269600472908707
130,884.26,0.007421775870642828
131,894.5,0.0075770558580734015
132,904.86,0.0075595644352004256
133,915.33,0.007700173636215865
134,925.93,0.020915473392735792
135,934.5,0.03634553409022408
136,945.32,0.05590456709452084
137,954.07,0.0705412971765538
138,954.992586,0.07121448039612718
139,965.12,0.07860417854885253
140,974.0500000000001,0.023629073722777068
141,985.3199999999999,0.06613772763208609
142,994.44,0.06644280270332815
143,1005.96,0.08819532647752869
144,1015.2700000000001,0.08678406144608829
145,1024.66,0.04835667637141319
146,1034.14,0.06877765124809904
147,1046.12,0.10900352477369991
148,1055.8,0.10603251954229898
149,1065.56,0.0871854842676633
150,1075.42,0.09918629893898423
151,1085.37,0.08287998356166609
152,1095.42,0.10219869813030456
153,1096.4782,0.10176550724903927
154,1105.55,0.09805181221382571
155,1115.78,0.0949407949101845
156,1126.1100000000001,0.08480945743739725
157,1133.91,0.10267113424400512
158,1144.4,0.09515821650058419
159,1154.99,0.09805133858801718
160,1165.68,0.09872897050630414
161,1173.76,0.06925527683930306
162,1184.62,0.09450214847004174
163,1195.58,0.07302112993163434
164,1203.87,0.058539195909426564
165,1215.01,0.04289948706655628
166,1226.25,0.07021856805453994
167,1234.75,0.09363770367712544
168,1246.18,0.09964194434373161
169,1254.8100000000002,0.09604019974642725
170,1258.92541,0.09290366599132037
171,1266.43,0.08718410368826952
172,1275.2,0.10385922474341
173,1284.04,0.10701532580697233
174,1295.92,0.08901194723628462
175,1304.9099999999999,0.08819531831789384
176,1313.95,0.10409912940551869
177,1326.1100000000001,0.09941218086851848
178,1335.3000000000002,0.09087658197419018
179,1344.56,0.10219743308828376
180,1353.88,0.09895592420959612
181,1366.41,0.09024921571711152
182,1375.8799999999999,0.09235017685647072
183,1385.41,0.09213893800304868
184,1395.02,0.07628632915925164
185,1404.69,0.07681500032267334
186,1414.42,0.08559531149331379
187,1424.23,0.08520043267357924
188,1434.1000000000001,0.08598962386106344
189,1440.72,0.08880609465753207
190,1445.43977,0.08924299688201089
191,1447.3700000000001,0.08942167542028821
192,1454.05,0.08658481609481479
193,1464.1299999999999,0.08099357711266326
194,1474.28,0.08080647813758013
195,1484.5,0.0815530391695654
196,1494.79,0.08174188020861906
197,1505.15,0.0777045812547411
198,1512.1000000000001,0.07054146195653146
199,1515.58,0.07403748230793154
200,1526.09,0.07235074336920014
201,1536.67,0.06316047443753713
202,1543.7600000000002,0.06374546515346428
203,1554.46,0.06143868623391852
204,1565.24,0.06463124732245093
205,1576.08,0.06846265841704195
206,1583.3600000000001,0.07054205915215472
207,1594.33,0.07135921025987277
208,1605.3899999999999,0.06941434137667873
209,1616.51,0.06877747249954333
210,1623.9799999999998,0.06628968325384177
211,1635.23,0.06941452438983337
212,1646.57,0.0697332255349129
213,1654.17,0.06613723630233834
214,1659.58691,0.06791342556721014
215,1665.6299999999999,0.06989494130559523
216,1673.3200000000002,0.06345149697632702
217,1677.18,0.07086643982275415
218,1684.92,0.07201860553035674
219,1696.6000000000001,0.06814724414337979
220,1704.43,0.06583405991734985
221,1716.25,0.06258195863361117
222,1724.1699999999998,0.06172270447394871
223,1736.12,0.06493006328607417
224,1744.13,0.06345213919277917
225,1756.22,0.06598520810814293
226,1764.3300000000002,0.06172263408858956
227,1776.5600000000002,0.06200772310719159
228,1784.76,0.06287034915400572
229,1792.9999999999998,0.06522897523031648
230,1805.43,0.0647799143964018
231,1813.76,0.06031847053908004
232,1826.33,0.06115656980840363
233,1834.76,0.059081276024823506
234,1843.2299999999998,0.05488490227074004
235,1856.01,0.05488479169492107
236,1864.5700000000002,0.05590411800720507
237,1873.18,0.0589447143563599
238,1886.16,0.05450714392802419
239,1894.87,0.05229351035092066
240,1903.6200000000001,0.05500992680331377
241,1905.46072,0.054715369698886414
242,1916.81,0.05289920737277018
243,1925.6599999999999,0.05133981896050987
244,1934.55,0.053021880510228055
245,1943.48,0.05463212202192472
246,1956.95,0.05086782921817938
247,1965.98,0.054632460634822265
248,1975.06,0.05590396200393824
249,1984.17,0.053021693344538094
250,1993.3300000000002,0.05157628463761105
251,2007.15,0.05265506150117744
252,2016.4099999999999,0.0513398626991966
253,2025.72,0.05289927384968887
254,2035.07,0.05005545496215963
255,2044.4599999999998,0.05122142603660887
256,2053.9,0.04714600706353121
257,2063.38,0.048244968052432044
258,2072.91,0.05193396899380598
259,2077.6800000000003,0.04948239445974026
260,2087.2799999999997,0.05086737533457653
261,2096.91,0.048356126180896686
262,2106.59,0.04869101697968994
263,2116.31,0.04902875774046168
264,2126.08,0.04925387845370651
265,2135.89,0.046714069128929836
266,2145.75,0.04692919975662627
267,2155.66,0.04813359033679581
268,2165.61,0.046713720878943835
269,2175.6,0.04639187138307034
270,2185.65,0.04544097183016457
271,2187.7616199999998,0.04575278151993416
272,2195.73,0.0469294358618803
273,2205.87,0.04575574354654771
274,2216.05,0.043898661261529394
275,2226.2799999999997,0.04280093901440391
276,2236.56,0.04440585680517127
277,2246.88,0.04299777462625289
278,2257.25,0.04144246248522736
279,2262.45,0.04201846642608244
280,2272.9,0.042505814345685435
281,2283.39,0.04289946229560271
282,2293.9300000000003,0.04059293028341282
283,2304.52,0.040788408309115766
284,2315.15,0.039320376365132984
285,2325.84,0.0331665444666216
286,2336.57,0.03722068259842449
287,2347.36,0.036296830775698785
288,2352.77,0.03792334487570379
289,2363.63,0.03572657310602806
290,2374.54,0.03614721137424516
291,2385.5,0.03413174968035511
292,2396.51,0.035500018024357885
293,2407.57,0.034381146406253504
294,2413.12,0.03470193061235845
295,2424.26,0.035929069054882606
296,2435.4500000000003,0.0347161175352996
297,2446.69,0.035860856053609426
298,2452.33,0.03529072032792148
299,2463.65,0.03489282890685985
300,2475.02,0.03387085752369107
301,2486.4500000000003,0.034191676185993676
302,2492.18,0.030971600528512833
303,2503.68,0.03467785924386542
304,2511.88643,0.032671059675732986
305,2515.2400000000002,0.031850974479526416
306,2526.85,0.03171133107419136
307,2532.68,0.03186077936419106
308,2544.3700000000003,0.031286355935391155
309,2556.1099999999997,0.03261633249192571
310,2567.91,0.03195353903086166
311,2573.83,0.03300409729446341
312,2585.71,0.0326335038099345
313,2597.64,0.03211752031074007
314,2603.63,0.031246568553810094
315,2615.65,0.030753385028217717
316,2627.7200000000003,0.03154879148795982
317,2633.78,0.0320647997104981
318,2645.94,0.03365988614384225
319,2652.04,0.033974644354648115
320,2664.28,0.03156874076452743
321,2676.58,0.032385277156808105
322,2682.75,0.032314235347082235
323,2695.13,0.031008501715898074
324,2707.57,0.03144608806711528
325,2713.81,0.030173156236857675
326,2726.3399999999997,0.030040562561676937
327,2732.62,0.03081457071968691
328,2745.24,0.028044887018108224
329,2757.9100000000003,0.028311413301864014
330,2764.26,0.028907441439342253
331,2777.02,0.029722757696700092
332,2783.4300000000003,0.028453885816579698
333,2796.27,0.0246167220504727
334,2802.7200000000003,0.025721430158619885
335,2815.66,0.028998476363181834
336,2822.15,0.0297468144595966
337,2835.17,0.02867645064069371
338,2848.26,0.028094806801259083
339,2854.83,0.027206714874209004
340,2868.0,0.028891731011309537
341,2874.61,0.02882896907252704
342,2884.0315,0.02869229421038312
343,2887.88,0.028636466286000774
344,2894.54,0.02844256624602302
345,2907.9,0.029859596165827406
346,2928.06,0.028788956044813664
347,2948.3500000000004,0.028208865923019577
348,2968.79,0.028283045800325087
349,2989.37,0.02803344567679023
350,3010.09,0.02797932555241499
351,3030.9599999999996,0.027732755427139356
352,3051.97,0.027551565301023352
353,3073.12,0.02743486517406697
354,3087.3,0.027252465088949167
355,3108.71,0.027138254960432096
356,3130.25,0.026591044831134676
357,3151.95,0.026417124700876825
358,3166.5,0.026302964613538038
359,3188.45,0.025128514481779527
360,3210.5499999999997,0.025546134349120612
361,3232.8,0.024575514215561298
362,3247.7299999999996,0.0255033441259415
363,3270.24,0.025928073990821494
364,3292.91,0.025641643854741058
365,3308.11,0.02535497376350054
366,3311.31121,0.025393224744716964
367,3323.38,0.02553743235941709
368,3331.04,0.025540361480448588
369,3338.72,0.02473363059918513
370,3346.4100000000003,0.025370879716774195
371,3354.13,0.02445708883092082
372,3361.8599999999997,0.024629477943919974
373,3369.61,0.024294567054624166
374,3377.3799999999997,0.0236359361630334
375,3385.16,0.024301685270295158
376,3392.9700000000003,0.02509985437411448
377,3400.7900000000004,0.025866803476786323
378,3408.63,0.024143352577163213
379,3416.49,0.02431446167524514
380,3424.36,0.02528811077217959
381,3432.25,0.025821289866819086
382,3440.17,0.024890378958016147
383,3448.1,0.023556068048065724
384,3456.05,0.023558987135820348
385,3464.01,0.022762206222427497
386,3472.0,0.024169035305592203
387,3479.9999999999995,0.022611074387609433
388,3488.02,0.023680213467331707
389,3496.07,0.02352047254361155
390,3504.12,0.02379563161989139
391,3512.2,0.023365200692728794
392,3520.3,0.023968069763271236
393,3528.4100000000003,0.022525558832666204
394,3536.55,0.02380979789861874
395,3544.7000000000003,0.024256016963423794
396,3552.8700000000003,0.02442710602593389
397,3561.06,0.024039425086149032
398,3569.27,0.022438554144069218
399,3577.5,0.022032333199694443
400,3585.7499999999995,0.02113992225302471
401,3594.01,0.021835701305207504
402,3602.2999999999997,0.02367159035394786
403,3610.6,0.022402969401540736
404,3618.92,0.023085798446838657
405,3623.13,0.022045167963750223
406,3625.87,0.025094217649341128
407,3628.6099999999997,0.025444897334932028
408,3631.35,0.021905507020522928
409,3634.0899999999997,0.02287625670611383
410,3636.84,0.023481956390557255
411,3639.58,0.022763546076148156
412,3642.32,0.02226607576173906
413,3645.06,0.02384975544732996
414,3647.7999999999997,0.02340503513292086
415,3650.54,0.020874874818511763
416,3653.2799999999997,0.021194184504102667
417,3656.02,0.022621074189693568
418,3658.7599999999998,0.02360180387528447
419,3661.4999999999995,0.02477638356087537
420,3664.25,0.022502673245318794
421,3666.99,0.023181202930909695
422,3669.73,0.024047882616500597
423,3672.47,0.0232852823020915
424,3675.21,0.023496261987682402
425,3677.95,0.023147041673273302
426,3680.6899999999996,0.022813501358864202
427,3683.43,0.024823401044455108
428,3686.1699999999996,0.023633160730046007
429,3688.92,0.02233446041448943
430,3691.66,0.02254686010008033
431,3694.4,0.023734269785671235
432,3697.14,0.023060049471262136
433,3699.8799999999997,0.023278159156853037
434,3702.62,0.02250271884244394
435,3705.3599999999997,0.02031181852803484
436,3708.1,0.02192115821362574
437,3710.84,0.023098597899216644
438,3713.5800000000004,0.025347977584807547
439,3716.33,0.02641693726925097
440,3719.0699999999997,0.03260054695484187
441,3721.81,0.05646968664043277
442,3724.5499999999997,0.09467886632602368
443,3727.29,0.12182516601161458
444,3730.0299999999997,0.10938966569720548
445,3732.7700000000004,0.07298793538279638
446,3735.51,0.04226520506838728
447,3738.25,0.028884514753978182
448,3740.9900000000002,0.026347224439569085
449,3743.74,0.02347766412401251
450,3746.48,0.02353897380960341
451,3749.22,0.02078930349519431
452,3751.9599999999996,0.024425633180785215
453,3754.7000000000003,0.022933192866376115
454,3757.44,0.022991652551967015
455,3760.1800000000003,0.023416452237557922
456,3762.92,0.02461669192314882
457,3765.6600000000003,0.02429740160873972
458,3768.4,0.023822741294330624
459,3771.1499999999996,0.02366013097877405
460,3773.89,0.02596794066436495
461,3776.63,0.02656806034995585
462,3779.3700000000003,0.027910850035546754
463,3782.11,0.027433339721137654
464,3784.8500000000004,0.026692119406728554
465,3787.59,0.026548169092319458
466,3790.33,0.02482052877791036
467,3793.07,0.02621748846350126
468,3795.81,0.025789868149092163
469,3798.5600000000004,0.024180407833535585
470,3801.3,0.027467507519126487
471,3801.8939600000003,0.02747739883593436
472,3804.0400000000004,0.02751313725602723
473,3806.78,0.026827507007129013
474,3809.52,0.025975106758230792
475,3812.26,0.026183236509332575
476,3815.0,0.027379206260434358
477,3817.7400000000002,0.02685892601153614
478,3820.48,0.02584971576263792
479,3823.23,0.026315725512831314
480,3825.9700000000003,0.024114845263933097
481,3828.71,0.023514745015034876
482,3831.4500000000003,0.02360170476613666
483,3834.19,0.02260675451723844
484,3836.93,0.022334504268340223
485,3839.67,0.024414254019442003
486,3842.41,0.024746393770543784
487,3845.15,0.027993593521645564
488,3847.89,0.026421333272747347
489,3850.6400000000003,0.02760575302294074
490,3853.38,0.02844392277404252
491,3856.12,0.027906542525144303
492,3858.86,0.028277182276246086
493,3861.6,0.029940692027347865
494,3864.34,0.030144551778449647
495,3867.08,0.03133766152955143
496,3869.8199999999997,0.03138757128065321
497,3872.56,0.030442511031754993
498,3875.2999999999997,0.027880990782856774
499,3878.05,0.027993470533050166
500,3880.79,0.026827470284151948
501,3883.53,0.02645829003525373
502,3886.27,0.030596379786355512
503,3889.0099999999998,0.029232249537457292
504,3891.75,0.029142459288559075
505,3894.49,0.027996409039660854
506,3897.23,0.024685098790762635
507,3899.97,0.028643598541864417
508,3902.7099999999996,0.0279522682929662
509,3905.46,0.029782408043159594
510,3908.2,0.027706967794261374
511,3910.94,0.028999867545363153
512,3913.68,0.029480257296464935
513,3916.42,0.02827291704756672
514,3919.16,0.0279564867986685
515,3921.8999999999996,0.027936536549770283
516,3924.64,0.025282366300872064
517,3927.3799999999997,0.025057156051973842
518,3930.12,0.022224785803075624
519,3932.87,0.022287405553269017
520,3935.61,0.0236644053043708
521,3938.35,0.024742055055472584
522,3941.0899999999997,0.025841084806574363
523,3943.83,0.027269404557676142
524,3946.5699999999997,0.027218094308777925
525,3949.31,0.027551664059879705
526,3952.0499999999997,0.025983683810981487
527,3954.7900000000004,0.026850373562083273
528,3957.54,0.026364173312276664
529,3960.2799999999997,0.024652223063378446
530,3963.02,0.023497622814480226
531,3965.7599999999998,0.023265292565582008
532,3968.5,0.027504592316683788
533,3971.24,0.027009972067785572
534,3973.9799999999996,0.025530371818887353
535,3976.7200000000003,0.02519397156998913
536,3979.46,0.026589501321090912
537,3982.2000000000003,0.027893801072192696
538,3984.95,0.02901266082238609
539,3987.69,0.02858931057348787
540,3990.43,0.030523660324589655
541,3993.1699999999996,0.029772460075691436
542,3995.91,0.030185859826793216
543,3998.65,0.029313499577894996
544,4001.3900000000003,0.03075321932899678
545,4004.13,0.03173109908009856
546,4006.8700000000003,0.030778908831200342
547,4009.61,0.03038976858230212
548,4012.3599999999997,0.03188492833249552
549,4015.1,0.031199308083597298
550,4017.8399999999997,0.03079734783469908
551,4020.5800000000004,0.03131336758580086
552,4023.32,0.030842987336902643
553,4026.0600000000004,0.030386857088004426
554,4028.8,0.028746186839106205
555,4031.54,0.029574386590207984
556,4034.28,0.03067342634130977
557,4037.02,0.03184658609241155
558,4039.7699999999995,0.030728895842604943
559,4042.51,0.030097435593706725
560,4045.2500000000005,0.030111705344808504
561,4047.9900000000002,0.029795275095910286
562,4050.73,0.03039540484701207
563,4053.4700000000003,0.03204751459811385
