,lambda (Angstroms),Total Flux (erg/s/cm^2/Angstrom)
0,102.07000000000001,0.0056822515312948
1,103.97,0.006645128467999063
2,104.712855,0.00702159059860476
3,105.9,0.006519612762665001
4,108.12,0.00558089785277063
5,109.88,0.004836692600829015
6,114.0,0.003094574136373838
7,118.01,0.00139896907970395
8,120.22644299999999,0.00046176978241989347
9,121.04,0.00044585644135244424
10,125.0,0.0003683866076157062
11,127.03,0.0003286743489651559
12,127.91,0.0003114601159747697
13,130.89,0.00025316526580278003
14,132.1,0.0002294987983859988
15,133.94,0.00019350723347973648
16,137.06,0.00013248419205563964
17,138.038426,0.00011334771702794159
18,139.93,0.00011205436339178768
19,142.86,0.00011009963457259828
20,146.85999999999999,0.00010743506408940455
21,150.98,0.000104663131660715
22,154.85,0.00010208058526847505
23,158.489319,9.966743199997039e-05
24,158.82,9.93255771647689e-05
25,162.15,9.588718904416998e-05
26,165.92,9.203311938751595e-05
27,170.17999999999998,8.768079646116418e-05
28,172.95000000000002,8.488760457736264e-05
29,176.97,8.084174635249548e-05
30,179.85000000000002,7.797324253468017e-05
31,181.93,7.590185805514693e-05
32,181.970086,7.586215676641773e-05
33,186.17000000000002,7.759666784333442e-05
34,190.95000000000002,7.96576931988113e-05
35,194.04999999999998,8.101064893562683e-05
36,198.10999999999999,8.282695759739172e-05
37,201.8,8.455956077766572e-05
38,205.07000000000002,8.607034130327437e-05
39,208.929613,8.788408516716206e-05
40,209.85,8.99118069445733e-05
41,216.23,0.00010423649724830344
42,220.25,0.00011331676804156291
43,222.8,0.00011916396365669017
44,226.94,0.00012862509883183792
45,230.1,0.00014233520688823088
46,233.83999999999997,0.00015960082779041751
47,239.83,0.00017939452835301063
48,239.88329199999998,0.00017952412044387208
49,245.98999999999998,0.000171266030150258
50,251.72,0.00016563081115076317
51,256.99,0.00015366241556135
52,259.96,0.00015485567702234492
53,264.19,0.00015121456001224664
54,269.1,0.0001456088997002886
55,274.1,0.00013978703306896678
56,275.42287,0.00013824011175093073
57,279.2,0.00014717152422232186
58,283.72999999999996,0.00015834525908656248
59,289.67,0.00017062845665689145
60,295.74,0.00018626303681714334
61,301.24,0.00019745755716004044
62,308.26,0.0002152788470158836
63,316.227766,0.0002353121501804805
64,318.35,0.0002339388452027815
65,328.03,0.00022676476047754404
66,337.99999999999994,0.0002186473794537199
67,348.27,0.00021003870605204735
68,357.20000000000005,0.00020286333727143047
69,363.078055,0.00019821868648553715
70,366.36,0.0002034356917167638
71,374.90000000000003,0.00021662524473753817
72,385.4,0.00022979210664832628
73,395.29,0.0002470228362004877
74,405.43,0.00026245295770290595
75,413.90999999999997,0.0002749321206556186
76,416.86938299999997,0.0002792339459162175
77,421.60999999999996,0.0002841468520231274
78,430.44,0.0002926151486847301
79,441.48,0.00030499745923332497
80,450.72,0.00031487477023595334
81,460.16,0.0003243512589659113
82,469.8,0.0003350450254231989
83,478.630092,0.00034520774717667805
84,479.64,0.0003449092151471439
85,489.67999999999995,0.0003412980529908892
86,499.93,0.0003399138577616451
87,505.71999999999997,0.00041201108874922335
88,511.58000000000004,0.0007243798753791384
89,519.89,0.0007292505094908439
90,529.5500000000001,0.0007399882881333319
91,539.4,0.0007158674463764485
92,549.43,0.000844293090557003
93,549.5408739999999,0.0008455278743150734
94,559.64,0.0009635902506941129
95,570.05,0.0010472835640519581
96,580.65,0.0010256131288543745
97,590.0799999999999,0.0011634017979191662
98,599.67,0.0011801563313583335
99,609.41,0.0013259798001484786
100,619.31,0.001498893533313
101,629.38,0.0015882878598752956
102,630.957344,0.0015975044046337432
103,639.6,0.0016534241854115636
104,650.0,0.0018054245154474177
105,657.5200000000001,0.0018875559540887277
106,665.14,0.002011992395903459
107,674.39,0.0021087796894449637
108,685.35,0.002112736637251979
109,694.88,0.0025003047396790646
110,704.5500000000001,0.00243405124654894
111,716.0,0.0028705316099057222
112,724.43596,0.0029769076392464344
113,725.9599999999999,0.0029958890179958256
114,734.36,0.0031387597314710466
115,744.5799999999999,0.0034066412661992312
116,754.94,0.0035937344794853368
117,765.44,0.0037829553713293624
118,774.3,0.004062212314352036
119,785.0699999999999,0.004362959514843479
120,794.17,0.004562770621108301
121,805.2099999999999,0.004762042130247163
122,814.54,0.004958444351285711
123,825.8699999999999,0.005339136266008836
124,831.763771,0.005073344663028987
125,835.4300000000001,0.004905620337769886
126,845.11,0.005716953485428389
127,854.89,0.005961016975521381
128,864.79,0.0063287418765357595
129,874.8000000000001,0.006705345654228076
130,884.9300000000001,0.0071211908428417785
131,895.18,0.007462216442376868
132,905.55,0.007662590452833342
133,916.0300000000001,0.011010584339967756
134,924.5100000000001,0.0644838773784124
135,935.21,0.13551478901890268
136,946.04,0.26109535260455785
137,954.8,0.33941114060181904
138,954.992586,0.34070630960491216
139,965.85,0.4137280882248296
140,974.79,0.1174919571931155
141,986.08,0.42629086028617463
142,995.1999999999999,0.413726216549124
143,1004.4100000000001,0.4916819664594051
144,1016.04,0.45887194555349525
145,1025.44,0.20932038205258782
146,1034.93,0.38700841219901216
147,1044.51,0.5763264359927682
148,1054.17,0.565821554139708
149,1063.92,0.5008307659339796
150,1073.77,0.5554769706697309
151,1086.2,0.49508939329565865
152,1096.25,0.5723646839143693
153,1096.4782,0.5716292302515628
154,1103.85,0.5478699392368298
155,1114.0700000000002,0.5465945814456035
156,1124.37,0.49966040598086464
157,1134.78,0.5658045062150461
158,1145.28,0.5304750865665259
159,1155.8799999999999,0.547857044826115
160,1163.89,0.5567495752656725
161,1174.66,0.43218499596904747
162,1185.53,0.5415710945805319
163,1193.74,0.47169528083630796
164,1204.79,0.38431583968238914
165,1215.9399999999998,0.2117195764365796
166,1224.3700000000001,0.42138071409019623
167,1235.69,0.5231801132881726
168,1244.26,0.5478368200131424
169,1255.77,0.5390714772365265
170,1258.92541,0.5311423687356622
171,1264.48,0.5171857674306126
172,1276.18,0.5618816512822774
173,1285.02,0.5657839901924243
174,1293.93,0.5077527302025382
175,1305.9,0.5136234182969338
176,1314.96,0.5618764606641204
177,1324.07,0.5428029038169979
178,1336.32,0.5183774963112624
179,1345.5800000000002,0.5465703418212124
180,1354.91,0.5440612884311298
181,1364.3,0.5183780359838762
182,1373.76,0.5207738846365899
183,1386.47,0.5243888843592103
184,1396.0800000000002,0.4620257353689966
185,1405.76,0.47605358747875004
186,1415.5,0.5042627405313326
187,1425.32,0.4973427948410205
188,1435.2,0.5030952500935375
189,1441.82,0.5136256541190094
190,1445.43977,0.5117043523016668
191,1448.48,0.5100906510953229
192,1455.16,0.5031007391941406
193,1465.2499999999998,0.48490087226555817
194,1475.4,0.48490590612828244
195,1485.63,0.48268114104608245
196,1495.93,0.4804559768870736
197,1506.3,0.46308561365125606
198,1513.2499999999998,0.4341758053109539
199,1516.74,0.4473697513386296
200,1523.74,0.44736984365774984
201,1534.3000000000002,0.40989488292773685
202,1544.9399999999998,0.4165537232527996
203,1555.65,0.40240686450105356
204,1566.43,0.4165521066724987
205,1573.66,0.4341760020249615
206,1584.57,0.4371818459109046
207,1595.55,0.44225169072003884
208,1606.61,0.4311866365842488
209,1614.03,0.42821723444251625
210,1625.22,0.42234258202122416
211,1636.4799999999998,0.4341777305231232
212,1644.04,0.4321726302277731
213,1655.43,0.42234508044417013
214,1659.58691,0.4277164206216203
215,1666.91,0.437179540574289
216,1670.75,0.41750491041524923
217,1678.46,0.44122735298655213
218,1686.21,0.4422513994103651
219,1693.99,0.42822074872356064
220,1705.73,0.41847827943524635
221,1713.6100000000001,0.40708043837971686
222,1725.48,0.4042749816120601
223,1733.45,0.4165595492246781
224,1745.46,0.4089535059408063
225,1753.52,0.41848228222157186
226,1765.68,0.3996465533846125
227,1773.8300000000002,0.4024207383335256
228,1786.12,0.4052076220172238
229,1794.3700000000001,0.41464571659741184
230,1806.8000000000002,0.4146520137648951
231,1815.14,0.3950863170132306
232,1823.5199999999998,0.39965532411407617
233,1836.16,0.39236464150723693
234,1844.6399999999999,0.3687152582393574
235,1853.15,0.36871967786086046
236,1865.9999999999998,0.3764394154796987
237,1874.61,0.3878840447324768
238,1883.26,0.3645107778377648
239,1896.32,0.35052223568228064
240,1905.0700000000002,0.3678817784188437
241,1905.46072,0.367399825813984
242,1913.86,0.35703747329461427
243,1927.1299999999999,0.3489118258479152
244,1936.03,0.35620962092887815
245,1944.96,0.369572712285395
246,1953.94,0.34810189743450143
247,1967.48,0.3670330164677867
248,1976.56,0.3755674892020725
249,1985.69,0.35949105572894796
250,1994.85,0.35212661853137733
251,2004.06,0.3570246751263963
252,2013.3100000000002,0.35538482675548705
253,2027.27,0.36114809364652556
254,2036.6200000000001,0.3488976328607957
255,2046.02,0.35292796586765546
256,2055.4700000000003,0.34016079266710486
257,2064.96,0.3441055145006261
258,2074.49,0.361143231368219
259,2079.27,0.3480847379397924
260,2084.06,0.35374104326988376
261,2093.68,0.34095234896413806
262,2103.35,0.3456872484509821
263,2113.06,0.3472740429718979
264,2122.81,0.34969133252688545
265,2132.61,0.3393694158744626
266,2147.3900000000003,0.3385995809639719
267,2157.3,0.34409425065524646
268,2167.26,0.33781481413911063
269,2177.26,0.33548337265704653
270,2187.31,0.33471202496757213
271,2187.7616199999998,0.33499034120767984
272,2197.41,0.34093842391991724
273,2202.48,0.3347109257608689
274,2212.64,0.32634763142242096
275,2222.85,0.3218653420330949
276,2233.11,0.3308914575928906
277,2243.42,0.32484847810180817
278,2253.7799999999997,0.31672340355984746
279,2264.1800000000003,0.31745883297718425
280,2274.63,0.3203927673436428
281,2285.13,0.3241175066592232
282,2295.68,0.31173505092392545
283,2306.27,0.3161342991479251
284,2316.92,0.30970925331087096
285,2327.61,0.2741932114331142
286,2332.98,0.2979232429687968
287,2343.75,0.28919220900963494
288,2354.57,0.30218697999959493
289,2365.44,0.2886435559386768
290,2376.35,0.293398735837056
291,2387.32,0.2789610216743814
292,2392.83,0.28680296706760505
293,2403.87,0.28162575983370103
294,2414.97,0.2829804585387432
295,2426.11,0.29298706120308277
296,2437.31,0.28638056980636856
297,2442.9300000000003,0.2924147260876601
298,2454.21,0.2911309426095408
299,2465.5299999999997,0.2878608630907189
300,2476.91,0.2813662895108432
301,2482.62,0.2807558547005541
302,2494.08,0.26817628903927326
303,2505.6,0.28807112931693857
304,2511.37,0.26826270044559564
305,2511.88643,0.26832046863615217
306,2517.16,0.26890964953891006
307,2522.96,0.2646343273478188
308,2534.61,0.26652628105019577
309,2546.31,0.2647419328371323
310,2552.18,0.27598010796442435
311,2563.96,0.2709955566866562
312,2575.79,0.2780070034934476
313,2587.68,0.27616124800171044
314,2593.65,0.27302151929812163
315,2605.6200000000003,0.26686626074167974
316,2617.65,0.26266309988670933
317,2623.68,0.27005356888459203
318,2635.79,0.2770402049649169
319,2647.9599999999996,0.29215903874671323
320,2654.06,0.29831600506297934
321,2666.31,0.281690835780071
322,2672.46,0.28761570018089655
323,2684.7900000000004,0.29033932783328353
324,2697.19,0.27670635280405387
325,2703.4,0.282533314906351
326,2715.88,0.27050233681241653
327,2722.1400000000003,0.2674354969992732
328,2734.71,0.274983215457546
329,2747.33,0.2520084320003784
330,2753.66,0.25790848950561845
331,2766.3700000000003,0.265810202600658
332,2772.75,0.27202575819045755
333,2785.55,0.25865076783770435
334,2791.97,0.2232556218951516
335,2804.86,0.2327449280946056
336,2817.81,0.26851823199553104
337,2824.3,0.27606688337136165
338,2837.3399999999997,0.27047188382449433
339,2843.8799999999997,0.2631317332848845
340,2857.0099999999998,0.2507701302902243
341,2863.5899999999997,0.27121647821826217
342,2876.8100000000004,0.2756853717758092
343,2883.44,0.27319401778840663
344,2884.0315,0.27328142247284837
345,2896.75,0.27516128515746247
346,2910.12,0.2901832746754038
347,2930.29,0.2817324588621559
348,2950.6,0.2760661429391483
349,2971.06,0.27871542689854095
350,2991.65,0.27817861075601374
351,3012.39,0.27828699449588684
352,3033.27,0.2790321781260001
353,3047.2700000000004,0.2803878671500224
354,3068.39,0.280499550591976
355,3089.6600000000003,0.27931443391632993
356,3111.08,0.2813658171230841
357,3132.64,0.2763348002200785
358,3147.1,0.2751371888834615
359,3168.92,0.2784339717766163
360,3190.8799999999997,0.2678572545600113
361,3212.9999999999995,0.27483163721796655
362,3227.83,0.2643512255912702
363,3250.21,0.2807789080453859
364,3272.7400000000002,0.29008569038190185
365,3287.84,0.2881684785435259
366,3310.63,0.2849923606762022
367,3311.31121,0.28453118186493953
368,3318.26,0.2798267560004145
369,3325.9100000000003,0.2805115413496394
370,3333.58,0.2890725263991238
371,3341.27,0.2704455111488675
372,3348.97,0.291159195748741
373,3356.69,0.2800208800488739
374,3364.43,0.24960746404926618
375,3372.1800000000003,0.25253934789978816
376,3379.96,0.27821193130069927
377,3387.75,0.2801789145517401
378,3395.5600000000004,0.2757319975030403
379,3403.39,0.2874455801545999
380,3411.23,0.2670734626562893
381,3419.09,0.27712594485823805
382,3426.98,0.28426992661057593
383,3434.88,0.2949802082130435
384,3442.79,0.2772478896656408
385,3450.73,0.2824376706686272
386,3458.6899999999996,0.276683651371873
387,3466.66,0.27608553192524854
388,3474.65,0.28781121217888345
389,3482.6600000000003,0.2787244921327778
390,3490.69,0.29257367178693156
391,3498.73,0.27245935129121507
392,3506.7999999999997,0.28731003034588765
393,3514.88,0.2750598092506899
394,3522.99,0.29005698770588134
395,3531.11,0.2802495660112024
396,3539.25,0.2928177440167829
397,3547.41,0.30245462172262283
398,3555.58,0.30042729927859246
399,3563.7799999999997,0.2929524763849512
400,3572.0,0.2747035531915694
401,3580.23,0.2728609298483173
402,3588.48,0.24947130620532457
403,3596.7599999999998,0.278013582112721
404,3605.05,0.2918274578702471
405,3613.36,0.27364103332803263
406,3621.69,0.2711738084860775
407,3630.04,0.3113939833443819
408,3638.4,0.29199835805281593
409,3646.79,0.29136303231163907
410,3648.0099999999998,0.28227611402746317
411,3650.7400000000002,0.1677468731128729
412,3653.47,0.23041623219828256
413,3656.2,0.29118019128369227
414,3658.9300000000003,0.36048165036910196
415,3661.66,0.4063082094545116
416,3664.3900000000003,0.38189276853992127
417,3667.12,0.30848742762533093
418,3669.85,0.3125668867107407
419,3672.59,0.2692428456462801
420,3675.32,0.33307220473168975
421,3678.0499999999997,0.2496641638170994
422,3680.78,0.2356793229025091
423,3683.5099999999998,0.29498968198791875
424,3686.2400000000002,0.29331644107332844
425,3688.97,0.31395790015873815
426,3691.7,0.27680345924414784
427,3694.4300000000003,0.2583361183295575
428,3697.16,0.28993337741496716
429,3699.8900000000003,0.18471113650037688
430,3702.62,0.15939179558578656
431,3705.35,0.26671495467119627
432,3708.0800000000004,0.31068491375660595
433,3710.81,0.2641500728420156
434,3713.54,0.2699883319274253
435,3716.27,0.31144229101283494
436,3719.0,0.19539835009824466
437,3721.7299999999996,0.27141750918365437
438,3724.46,0.45164556826906405
439,3727.2,0.7604207272046034
440,3729.9300000000003,0.8936614862900132
441,3732.66,0.8650203453754227
442,3735.39,0.5473754044608325
443,3738.12,0.35898936354624217
444,3740.85,0.32374032263165187
445,3743.5800000000004,0.2705857817170615
446,3746.31,0.3038562408024712
447,3749.04,0.2392084998878809
448,3751.77,0.23186795897329057
449,3754.5,0.3878633180587003
450,3757.2299999999996,0.27642417714410994
451,3759.96,0.2899449362295196
452,3762.69,0.2874532953149293
453,3765.42,0.36491375440033896
454,3768.15,0.2996428134857486
455,3770.8799999999997,0.25719967257115833
456,3773.61,0.28441223165656804
457,3776.34,0.2961863907419777
458,3779.0800000000004,0.30571164967751707
459,3781.81,0.40956580876292675
460,3784.54,0.4577127678483364
461,3787.27,0.35065862693374616
462,3790.0,0.36188318601915587
463,3792.7300000000005,0.3461274451045655
464,3795.46,0.3252541041899752
465,3798.19,0.28184616327538486
466,3800.92,0.2694735223607945
467,3801.8939600000003,0.2810251014783161
468,3803.65,0.3018524869298361
469,3806.3799999999997,0.3798990545402879
470,3809.11,0.3448331221507397
471,3811.84,0.38261058976119144
472,3814.5699999999997,0.3627265573716432
473,3817.3,0.41120342498209506
474,3820.0299999999997,0.29131219259254687
475,3822.76,0.3105246602029987
476,3825.49,0.2617791278134505
477,3828.22,0.37210709542390225
478,3830.9500000000003,0.26727546303435407
479,3833.69,0.3298943305261628
480,3836.4199999999996,0.25976269813661457
481,3839.15,0.3038179657470664
482,3841.8799999999997,0.26231543335751817
483,3844.61,0.31437080096796993
484,3847.34,0.36242006857842174
485,3850.0699999999997,0.2992135361888736
486,3852.8,0.31769310379932536
487,3855.5299999999997,0.40298247140977717
488,3858.26,0.43189263902022895
489,3860.9900000000002,0.36967540663068077
490,3863.72,0.33829807424113256
491,3866.4500000000003,0.4264700418515843
492,3869.18,0.38461320946203614
493,3871.91,0.4506413770724879
494,3874.64,0.4230381446829397
495,3877.37,0.37550181229339147
496,3880.1000000000004,0.3936394799038433
497,3882.83,0.3814745475142951
498,3885.56,0.3646317151247469
499,3888.3,0.24433598261655565
500,3891.0299999999997,0.26807965022700747
501,3893.76,0.39074311783745924
502,3896.4900000000002,0.394614985447911
503,3899.22,0.2988708530583628
504,3901.9500000000003,0.37438902066881463
505,3904.68,0.3760379882792664
506,3907.41,0.3707494558897182
507,3910.14,0.32175982350017
508,3912.87,0.3717510911106218
509,3915.6000000000004,0.39421245872107363
510,3918.33,0.3317264263315254
511,3921.06,0.40030729394197717
512,3923.79,0.37344906155242896
513,3926.52,0.3842706291628808
514,3929.2500000000005,0.37898209677333256
515,3931.98,0.2983950643837843
516,3934.71,0.2779246319942361
517,3937.44,0.2688130996046879
518,3940.18,0.30377996709649674
519,3942.91,0.3294779347069485
520,3945.6400000000003,0.3642018023174003
521,3948.37,0.3416673699278521
522,3951.1000000000004,0.3438658375383039
523,3953.83,0.3808738051487557
524,3956.56,0.3891671727592075
525,3959.29,0.3578265403696593
526,3962.02,0.37481600798011105
527,3964.75,0.32603397559056285
528,3967.48,0.2501860432010146
529,3970.21,0.25071131081146647
530,3972.9399999999996,0.26336487842191825
531,3975.67,0.26882444603237005
532,3978.4,0.27461391364282184
533,3981.13,0.31780218125327364
534,3983.86,0.39995264886372545
535,3986.5899999999997,0.39703361647417723
536,3989.32,0.408526984084629
537,3992.0499999999997,0.4153057516950808
538,3994.7899999999995,0.39340431918688956
539,3997.52,0.41692828679734134
540,4000.25,0.3615630544077932
541,4002.98,0.40898942201824495
542,4005.71,0.40622908962869675
543,4008.4399999999996,0.40920935723914853
544,4011.17,0.42490422484960033
545,4013.9,0.41924929246005216
546,4016.63,0.4563550600705039
547,4019.36,0.48790342768095574
548,4022.0899999999997,0.45465749529140753
549,4024.82,0.4091853629018593
550,4027.5499999999997,0.42776273051231106
551,4030.28,0.43994009812276286
552,4033.01,0.42924076573321474
553,4035.74,0.4421264333436665
554,4038.4700000000003,0.4331249009541183
555,4041.2,0.4431892685645701
556,4043.93,0.4070484361750219
557,4046.6600000000003,0.42234030378547366
558,4049.4,0.40420077127728243
559,4052.13,0.4840792388877342
560,4054.86,0.474479206498186
561,4057.5899999999997,0.42430497410863777
562,4060.32,0.43434474171908966
563,4063.05,0.48552080932954145
564,4065.7799999999997,0.4063141769399932
565,4068.51,0.415499044550445
566,4071.24,0.4356641121608968
567,4073.9700000000003,0.4661988797713486
568,4076.7,0.4337345473818004
569,4079.43,0.44449501499225214
570,4082.1600000000003,0.42610098260270396
571,4084.89,0.39252515021315576
572,4087.6200000000003,0.40836661782360756
573,4090.35,0.4794880854340593
574,4093.08,0.4569168530445112
575,4095.81,0.41587832065496294
576,4098.54,0.42343878826541476
577,4101.27,0.43687415587586653
578,4104.01,0.4441882233676753
579,4106.74,0.38363209097812706
