,lambda (Angstroms),Total Flux (erg/s/cm^2/Angstrom)
0,100.04,8.27989759690047
1,101.89999999999999,8.256868369319061
2,104.03,8.230494551931477
3,104.712855,8.222039849701785
4,105.97,8.140268157176878
5,107.94,8.012129357682001
6,109.94999999999999,7.881395923597384
7,114.07000000000001,7.613412190933784
8,118.08000000000001,7.35258342944198
9,120.22644299999999,7.213052885299608
10,121.11,7.164904781171117
11,125.08,6.948433280095685
12,127.11,6.8377409208704645
13,127.99,6.789760499370369
14,130.97,6.627266109220045
15,131.88,6.577676374894947
16,134.02,6.460985973944715
17,137.14000000000001,6.290899547844374
18,138.038426,6.241912787807366
19,140.02,6.164689463848244
20,142.95000000000002,6.050946157101232
21,146.95,5.895892097687905
22,151.07,5.735407358395177
23,154.95,5.584300030061248
24,158.489319,5.446471329689188
25,158.92,5.4337957430166535
26,161.87,5.346976256830154
27,166.03,5.224554325482414
28,169.89000000000001,5.110950877001095
29,173.05,5.017954073208098
30,177.08,4.899344666902475
31,179.96,4.814592454584808
32,181.970086,4.755443448759563
33,182.04000000000002,4.753874661383777
34,185.85999999999999,4.668151040843736
35,191.06,4.551449703092892
36,194.17000000000002,4.481674515226524
37,197.78,4.400682129153343
38,201.92000000000002,4.3077818635209395
39,205.2,4.234167776324255
40,208.929613,4.150366854629504
41,209.98,4.132626775745173
42,215.86,4.033661382677996
43,219.88,3.9659056575810507
44,222.94000000000003,3.9142715379848676
45,227.07999999999998,3.844511834825326
46,230.23999999999998,3.7936526461769797
47,233.98,3.7355797042260885
48,239.88329199999998,3.6388796163659034
49,239.98,3.637670448809296
50,246.14000000000001,3.5566084682372336
51,251.87,3.482720779490819
52,257.15,3.411183546143338
53,260.12,3.374685690510379
54,263.74,3.3282163537456277
55,269.26,3.2562050175187154
56,274.27,3.190800417410594
57,275.42287,3.17573675514586
58,278.72999999999996,3.142542506844166
59,283.90999999999997,3.090689236863048
60,289.85,3.030477250050723
61,295.92,2.9698992616751654
62,300.73,2.921282193835556
63,307.74,2.851303775695085
64,316.227766,2.766510585565437
65,317.82,2.754632645153691
66,328.22999999999996,2.6765794427035043
67,338.20000000000005,2.601755990568214
68,347.68,2.530539813783606
69,356.59999999999997,2.4636666173997774
70,363.078055,2.4151931856569897
71,365.75000000000006,2.4002093704963507
72,375.13,2.347410747683914
73,384.75,2.292868796654527
74,394.61999999999995,2.237706301232485
75,404.74,2.180905051417786
76,414.17,2.1278361977268174
77,416.86938299999997,2.1126178317464945
78,421.87,2.0910341200262232
79,429.71000000000004,2.0572370301554685
80,440.74,2.009874798551589
81,451.0,1.965715837435015
82,460.45000000000005,1.925027033090802
83,470.09000000000003,1.8835596893925795
84,478.630092,1.8468919355199722
85,479.93,1.842592361043889
86,489.98,1.8091803543814649
87,500.24,1.7753479187857961
88,506.03000000000003,1.7561016130549068
89,511.89,1.7371075420129365
90,520.2099999999999,1.709551965038671
91,529.88,1.677458638064975
92,539.73,1.644683684291356
93,549.5408739999999,1.6122145629603999
94,549.77,1.6116347195009937
95,559.99,1.5860308879583456
96,570.4,1.559835170960404
97,579.67,1.5363370856942251
98,590.4399999999999,1.5092145853073051
99,600.04,1.4848168979345637
100,609.79,1.4596578141497478
101,619.6999999999999,1.4353748991920527
102,629.76,1.4099346208222836
103,630.957344,1.4069253824431076
104,640.0,1.388894137959855
105,650.4,1.3680532298986359
106,657.9300000000001,1.35289263296008
107,665.5500000000001,1.3377588848190718
108,674.81,1.3192559353222562
109,685.77,1.2972006113346637
110,695.31,1.278277244874661
111,704.98,1.2587538047888929
112,716.4399999999999,1.236071554009896
113,724.43596,1.2200936948535481
114,726.4,1.217174296139643
115,734.82,1.204664217129656
116,745.04,1.1894608092719283
117,755.4,1.1740752317038208
118,764.15,1.1607893073050815
119,774.7800000000001,1.1453073005098127
120,785.5600000000001,1.1292541338105657
121,794.65,1.1158165278294754
122,805.71,1.0994476507094684
123,815.04,1.085612637082013
124,824.4799999999999,1.0716344853249729
125,831.763771,1.0606948613478753
126,835.95,1.0559659307582914
127,845.63,1.0454378493108691
128,855.4200000000001,1.0345596183015442
129,865.3199999999999,1.023609896730317
130,875.34,1.0125207621824688
131,885.48,1.0012844186579997
132,895.73,0.9899357565716279
133,904.02,0.9807176097700648
134,914.49,0.9696337445598882
135,925.08,0.9623246433730903
136,935.79,0.9559852172096719
137,944.45,0.9543435540635274
138,954.992586,0.948734262574374
139,955.39,0.9485322739416499
140,964.2299999999999,0.9423749183963281
141,975.39,0.9086921542146773
142,984.4200000000001,0.9173608493284492
143,995.8100000000001,0.9052113602604385
144,1005.03,0.9039807620333044
145,1014.3299999999999,0.8920646627152622
146,1026.07,0.8611142251245292
147,1035.57,0.8606019680792173
148,1045.1499999999999,0.8679301299429976
149,1054.8200000000002,0.856506639329506
150,1064.58,0.8383738162387437
151,1074.43,0.8328758206707098
152,1084.3700000000001,0.8143840926254043
153,1094.4099999999999,0.8121786107164645
154,1096.4782,0.8096072693614953
155,1104.53,0.801170078041842
156,1114.75,0.7907200816433243
157,1125.07,0.7779414524816117
158,1135.48,0.7758078678330237
159,1145.98,0.7629784876975604
160,1153.93,0.7575631930235666
161,1164.6,0.748878899190672
162,1175.38,0.7283433753182628
163,1186.26,0.7278606086826591
164,1194.48,0.710297037548039
165,1205.53,0.6939224472150038
166,1213.8899999999999,0.6787347842119111
167,1225.12,0.681439132905125
168,1233.61,0.684847185309879
169,1245.03,0.6778801557530225
170,1253.66,0.6687178562893035
171,1258.92541,0.6618750699259962
172,1265.26,0.655248280971002
173,1274.03,0.6576207992800058
174,1285.81,0.65157679926633
175,1294.73,0.6382180253001172
176,1303.7,0.6319252672421652
177,1315.77,0.6311613854964043
178,1324.8899999999999,0.6236433451632362
179,1334.07,0.6137877379199812
180,1346.41,0.6113126400788301
181,1355.75,0.6040416077420108
182,1365.1399999999999,0.5944013013134527
183,1374.61,0.5896169023381124
184,1384.14,0.5837907464526852
185,1393.73,0.5729537936571718
186,1403.3899999999999,0.5677082411332238
187,1416.3799999999999,0.5605431500994676
188,1426.19,0.554767365300303
189,1436.0800000000002,0.5482236079543561
190,1442.71,0.5455048793897831
191,1445.43977,0.5440595601615369
192,1446.0300000000002,0.54385921846019
193,1456.0600000000002,0.5383886595695935
194,1466.1499999999999,0.5314661859099606
195,1476.3100000000002,0.5267057150197849
196,1486.5500000000002,0.5225054344375607
197,1493.41,0.519718175844391
198,1503.76,0.5134813181855999
199,1510.7,0.5073742799003815
200,1517.67,0.5059043942306449
201,1524.6799999999998,0.5019507087148841
202,1535.25,0.4938887769029593
203,1545.89,0.4909648078604919
204,1556.6,0.48480442158748205
205,1563.79,0.4820625017646118
206,1574.6299999999999,0.4787171134920229
207,1585.54,0.4748238779888915
208,1596.54,0.4705185603322053
209,1603.9,0.4664366086637316
210,1615.02,0.4614224714689726
211,1626.2199999999998,0.4550635845821649
212,1633.7199999999998,0.45307886845260614
213,1645.0500000000002,0.44829514956621924
214,1656.4499999999998,0.44124245344929003
215,1659.58691,0.44070319891633325
216,1664.1000000000001,0.44052131558706664
217,1671.78,0.4353488715171752
218,1675.6299999999999,0.4370405830706801
219,1683.37,0.4355089505314925
220,1695.03,0.4302449946649646
221,1706.78,0.42552565109449253
222,1714.66,0.4219266687936142
223,1726.55,0.41804022546145153
224,1734.52,0.4169913554566292
225,1746.54,0.4125824987743251
226,1754.6000000000001,0.4116074610655586
227,1766.76,0.4055568346215638
228,1774.92,0.403676912797304
229,1783.11,0.40144906173839634
230,1795.47,0.3992204270634147
231,1803.76,0.39623722188901367
232,1816.26,0.39055579745234126
233,1824.6499999999999,0.3883198881624468
234,1833.07,0.38476403963790423
235,1845.77,0.37877916697024505
236,1854.2900000000002,0.3764657143302091
237,1867.1499999999999,0.3732973690777607
238,1875.77,0.3720205923222314
239,1884.42,0.3676662963320541
240,1893.1200000000001,0.3643657482841301
241,1905.46072,0.36140524346232294
242,1906.2399999999998,0.3612823504380386
243,1915.04,0.35866769767923806
244,1923.88,0.3559599371351702
245,1937.22,0.35270273574853395
246,1946.16,0.35260451074129795
247,1955.1399999999999,0.34931813794879474
248,1968.6899999999998,0.3482948331895053
249,1977.7800000000002,0.3464132914875169
250,1982.34,0.34461076396704754
251,1996.0800000000002,0.3409750347277386
252,2005.3000000000002,0.3391101952236316
253,2014.55,0.3365468323805743
254,2023.8500000000001,0.3345028673059328
255,2033.19,0.3323447344460241
256,2047.29,0.3301867851393096
257,2056.74,0.32693012336991584
258,2066.23,0.3246865738152548
259,2075.77,0.32426601202900973
260,2085.35,0.3280611424574973
261,2094.97,0.32400043510071763
262,2104.6400000000003,0.3213652055123538
263,2114.36,0.3206273636924059
264,2124.12,0.31716918408719086
265,2133.92,0.3132005366967084
266,2143.77,0.3141321470746419
267,2153.67,0.3122421352209913
268,2163.61,0.3077506655820734
269,2173.59,0.3054374181578882
270,2183.63,0.3059761540558022
271,2187.7616199999998,0.3052753805244901
272,2193.71,0.3047002203245305
273,2203.83,0.3021748549419091
274,2214.0,0.2966384233469229
275,2224.2200000000003,0.2964922255395721
276,2234.4900000000002,0.30008815151985646
277,2244.8,0.2969079465302491
278,2255.17,0.2908415400858041
279,2265.58,0.2885918426714672
280,2276.03,0.2885271142872386
281,2286.54,0.2917769244481723
282,2297.09,0.2862707336392142
283,2302.39,0.28869184512855284
284,2313.02,0.2837662223798112
285,2323.69,0.27669790866117777
286,2334.42,0.2752679934877067
287,2345.19,0.26980067734434376
288,2356.02,0.2756120597461432
289,2366.8900000000003,0.26720250117805083
290,2372.35,0.26920559878782235
291,2383.2999999999997,0.2623723682799464
292,2394.3,0.2629672115597057
293,2405.35,0.26082750862710036
294,2416.45,0.2608517094821303
295,2427.61,0.26676018888232245
296,2433.2000000000003,0.26557668833994563
297,2444.43,0.2678358410428272
298,2455.7200000000003,0.2671643522908711
299,2467.05,0.2622148325690232
300,2472.74,0.258629379601917
301,2484.15,0.2506975379402855
302,2495.62,0.25067353482381644
303,2507.14,0.2570682354949826
304,2511.88643,0.2464003547455639
305,2512.92,0.2441175313148547
306,2518.71,0.2417853254232659
307,2524.52,0.24148627666158523
308,2536.1699999999996,0.2453119498330862
309,2547.88,0.2447252343943116
310,2553.75,0.2560883270223554
311,2565.54,0.24781140010321343
312,2577.38,0.2522609210088419
313,2583.32,0.24862082859156423
314,2595.25,0.24481836158177936
315,2607.2200000000003,0.2403522888318108
316,2613.24,0.23787679493416583
317,2625.2999999999997,0.24255087426878397
318,2637.4199999999996,0.2566801849931266
319,2643.49,0.269709688920252
320,2655.7,0.28740340172918133
321,2667.95,0.2603213387979269
322,2674.11,0.26592653480963896
323,2686.4500000000003,0.27234091396297133
324,2692.64,0.2554688506695456
325,2705.07,0.2641733019074647
326,2717.56,0.2478292145351082
327,2723.82,0.23964306619636103
328,2736.3900000000003,0.24674594734363714
329,2742.7000000000003,0.22812526682966042
330,2755.36,0.23473217006152325
331,2768.08,0.24279683468311059
332,2774.46,0.24506162912381238
333,2787.27,0.22644149582998638
334,2793.6899999999996,0.21081887453050452
335,2806.59,0.21205254332126516
336,2813.06,0.23555018984655368
337,2826.0400000000004,0.25157884715694695
338,2832.56,0.24749485150700595
339,2845.63,0.23182425090198594
340,2852.19,0.21516657951186113
341,2865.36,0.24427745455638195
342,2871.96,0.2611222974260735
343,2884.0315,0.2535806752578246
344,2885.22,0.25287784130848723
345,2891.8700000000003,0.26573276487167985
346,2911.91,0.2908926921959476
347,2932.1000000000004,0.27590867057803165
348,2952.42,0.2675758252102233
349,2972.8900000000003,0.2701500109002313
350,2986.61,0.27033972898850234
351,3007.3100000000004,0.26953030496716207
352,3028.16,0.27330391200363824
353,3049.15,0.2761402626940763
354,3070.28,0.28228127703847633
355,3091.57,0.2781888498445472
356,3113.0,0.29212168630458
357,3127.36,0.2821516582395343
358,3149.04,0.27982402979592774
359,3170.87,0.2894245624101375
360,3192.85,0.27116615608216366
361,3207.59,0.2820029293635862
362,3229.8199999999997,0.2615681581319729
363,3252.21,0.2995089453620305
364,3267.2200000000003,0.3214651485475224
365,3289.87,0.31611326827779507
366,3311.31121,0.3052778218888643
367,3312.6699999999996,0.3046229588087021
368,3320.3100000000004,0.29510313039004443
369,3327.9599999999996,0.3069818334786923
370,3335.63,0.31518999958195093
371,3343.32,0.29995502869982044
372,3351.0299999999997,0.29739752083230075
373,3358.76,0.315360675979392
374,3366.5,0.28705176263378857
375,3374.26,0.260366312302796
376,3382.04,0.28132762498641434
377,3389.83,0.30738366917733806
378,3397.6499999999996,0.28717560789017804
379,3405.48,0.31493117811032345
380,3413.33,0.30080961134507966
381,3421.2,0.3112487075944468
382,3429.09,0.30542146685842475
383,3436.99,0.30684225762970807
384,3444.91,0.2520505114156023
385,3452.8599999999997,0.31131275972341277
386,3460.82,0.29617543953852865
387,3468.79,0.29714625086095003
388,3476.79,0.2871810567052876
389,3484.81,0.300231825564236
390,3492.8399999999997,0.28863192593048986
391,3500.89,0.28073058931135453
392,3508.96,0.31355211570683006
393,3517.0499999999997,0.27977280511691643
394,3525.16,0.28431215754161365
395,3533.2799999999997,0.31250614147361633
396,3541.43,0.32594941992753523
397,3549.59,0.3258971298887595
398,3557.77,0.30310140286459475
399,3565.9800000000005,0.3205708703623461
400,3574.2000000000003,0.26443456936740306
401,3582.44,0.2639472313870707
402,3590.7,0.24426105642134932
403,3598.9700000000003,0.30898431296293327
404,3607.27,0.2874724640264335
405,3611.1,0.27203533132441016
406,3613.83,0.28007223281879035
407,3616.57,0.288397265820476
408,3619.2999999999997,0.2944923673148562
409,3622.0299999999997,0.29367266880923637
410,3624.76,0.2883514703036165
411,3627.5,0.29448100330530214
412,3630.23,0.30955960479968236
413,3632.96,0.2971057062940625
414,3635.6899999999996,0.3007764077884428
415,3638.42,0.31371460928282296
416,3641.16,0.3178581422845086
417,3643.8900000000003,0.30357284377888877
418,3646.62,0.29580244527326893
419,3649.35,0.30908544676764915
420,3652.09,0.33414717976933483
421,3654.8199999999997,0.350334481263715
422,3657.55,0.34541618275809516
423,3660.28,0.3453025842524754
424,3663.0099999999998,0.3489925857468556
425,3665.75,0.34937381874854123
426,3668.48,0.34016642024292143
427,3671.2099999999996,0.3332925217373016
428,3673.94,0.34189212323168183
429,3676.68,0.32414635623336746
430,3679.4100000000003,0.3167649577277476
431,3682.14,0.30654525922212783
432,3684.87,0.30877056071650805
433,3687.6,0.3122564622108882
434,3690.3399999999997,0.3140250952125739
435,3693.07,0.33421189670695406
436,3695.8,0.3609052982013342
437,3698.5299999999997,0.3564475996957145
438,3701.27,0.3432583326974001
439,3704.0,0.3316238341917803
440,3706.7299999999996,0.31446723568616053
441,3709.46,0.30412623718054066
442,3712.19,0.3287813386749209
443,3714.9300000000003,0.34521807167660645
444,3717.66,0.3339337731709867
445,3720.39,0.3213475746653669
446,3723.12,0.34865607615974714
447,3725.85,0.3895571776541273
448,3728.59,0.39583521065581295
449,3731.32,0.3676597121501931
450,3734.0499999999997,0.3261013136445733
451,3736.78,0.2963094151389535
452,3739.52,0.28698744814063915
453,3742.2499999999995,0.29711224963501937
454,3744.98,0.28763725112939953
455,3747.71,0.27980885262377975
456,3750.44,0.2886401541181599
457,3753.18,0.3112995871198456
458,3755.91,0.31542528861422575
459,3758.64,0.30969599010860593
460,3761.37,0.30001689160298617
461,3764.11,0.3064497246046718
462,3766.84,0.31611112609905195
463,3769.5699999999997,0.33293022759343216
464,3772.3,0.33663952908781236
465,3775.0299999999997,0.3446212305821926
466,3777.7699999999995,0.3497382635838783
467,3780.5,0.3696216650782584
468,3783.23,0.3740012665726386
469,3785.96,0.3501671680670188
470,3788.7,0.33741930106870444
471,3791.4300000000003,0.3297841025630846
472,3794.16,0.30750000405746486
473,3796.89,0.314483305551845
474,3799.6200000000003,0.31492130704622523
475,3801.8939600000003,0.3228557120186758
476,3802.36,0.3244895241068717
477,3805.0899999999997,0.3554507377911138
478,3807.82,0.3432020514753559
479,3810.5499999999997,0.3376142651595979
480,3813.28,0.34434197884384
481,3816.02,0.31798058891520387
482,3818.75,0.3012883025994459
483,3821.48,0.297642316283688
484,3824.21,0.28264622996793004
485,3826.9500000000003,0.27386044003929383
486,3829.68,0.26048075372353596
487,3832.41,0.277322667407778
488,3835.1400000000003,0.24996978109202006
489,3837.87,0.25564929477626214
490,3840.6099999999997,0.283266304847626
491,3843.34,0.29495041853186804
492,3846.0699999999997,0.3175073322161101
493,3848.8,0.30813814590035216
494,3851.54,0.318880255971716
495,3854.27,0.31498056965595805
496,3857.0,0.30520308334020013
497,3859.73,0.3144571970244422
498,3862.4599999999996,0.31636621070868426
499,3865.2,0.3310112207800481
500,3867.93,0.33331203446429014
501,3870.6600000000003,0.32296354814853223
502,3873.39,0.3242630618327743
503,3876.1299999999997,0.3121258719041381
504,3878.86,0.30731868558838016
505,3881.5899999999997,0.30220809927262227
506,3884.32,0.3174310129568643
507,3887.05,0.3086244266411064
508,3889.7900000000004,0.3111250367124702
509,3892.52,0.3230546503967123
510,3895.25,0.3329183640809543
511,3897.9799999999996,0.34593197776519646
512,3900.72,0.3383677878365603
513,3903.45,0.34181870152080235
514,3906.1800000000003,0.3286928152050444
515,3908.91,0.35646562888928646
516,3911.6400000000003,0.3666990425735285
517,3914.38,0.36237015264489236
518,3917.1099999999997,0.3667477663291344
519,3919.84,0.3343089800133765
520,3922.57,0.3131400936976185
521,3925.2999999999997,0.2991259073818607
522,3928.04,0.2728779174532245
523,3930.77,0.24270903113746656
524,3933.5,0.22393134482170857
525,3936.23,0.23445975850595063
526,3938.97,0.26180376857731447
527,3941.7000000000003,0.28442968226155657
528,3944.43,0.3143868959457986
529,3947.1600000000003,0.3341112096300407
530,3949.89,0.34644632331428277
531,3952.6299999999997,0.3682322333856466
532,3955.36,0.35028764706988863
533,3958.09,0.33055316075413077
534,3960.8199999999997,0.31399877443837276
535,3963.56,0.27641998450973665
536,3966.29,0.2528982981939787
537,3969.02,0.23549161187822076
538,3971.75,0.26390962556246284
539,3974.48,0.29068673924670485
540,3977.2200000000003,0.3344832493180687
541,3979.95,0.3617401630023108
542,3982.6800000000003,0.3821209766865528
543,3985.41,0.40019599037079495
544,3988.1499999999996,0.4165783004421588
545,3990.88,0.4207713141264008
546,3993.61,0.4172412278106429
547,3996.3399999999997,0.41842774149488493
548,3999.07,0.426096055179127
549,4001.81,0.4279149652504909
550,4004.54,0.42499177893473294
551,4007.27,0.427722892618975
552,4010.0000000000005,0.43569460630321705
553,4012.73,0.4375982199874591
554,4015.47,0.44556793005882295
555,4018.2000000000003,0.459056043743065
556,4020.93,0.4494304574273071
557,4023.66,0.44289407111154916
558,4026.4,0.440161881182913
559,4029.13,0.43649399486715507
560,4031.8599999999997,0.42488230855139714
561,4034.59,0.4245518222356392
562,4037.3199999999997,0.44195663591988127
563,4040.06,0.44079664599124513
564,4042.79,0.4250478596754872
565,4045.5200000000004,0.42049727335972925
566,4048.25,0.4330200870439713
567,4050.99,0.43585949711533517
568,4053.7200000000003,0.4294885107995772
569,4056.45,0.4184562244838193
570,4059.18,0.40927183816806134
571,4061.9100000000003,0.40797595185230334
572,4064.65,0.4105672619236672
573,4067.38,0.4134086756079093
574,4070.11,0.42642788929215136
575,4072.8399999999997,0.42990370297639346
576,4075.58,0.4237238130477573
577,4078.31,0.4323023267319993
578,4081.0400000000004,0.4412670404162414
579,4083.77,0.44711495410048346
580,4086.5,0.4600238677847256
581,4089.2400000000002,0.4651524778560894
582,4091.97,0.45497529154033145
583,4094.7,0.4391161052245735
584,4097.43,0.4161958189088156
585,4100.17,0.4034515289801794
586,4102.9,0.4122782426644215
