,lambda (Angstroms),Total Flux (erg/s/cm^2/Angstrom)
0,102.00000000000001,0.0001300361946224946
1,103.89,0.00015208587781525746
2,104.712855,0.00016169022735309558
3,106.07000000000001,0.0001485518351745011
4,108.03999999999999,0.0001295094953984942
5,110.05,0.00011019895741180673
6,113.91,7.293743958115331e-05
7,117.92,3.422192406044853e-05
8,120.22644299999999,1.393677169397018e-05
9,120.94000000000001,1.4270786511040389e-05
10,124.89999999999999,1.3209493187474365e-05
11,126.92999999999999,1.2576124877666524e-05
12,128.10999999999999,1.226845658428069e-05
13,131.09,1.1327213962001195e-05
14,132.0,1.1777794167949406e-05
15,134.15,1.1100927302881987e-05
16,136.96,1.1258876883886898e-05
17,138.038426,1.0958220726541756e-05
18,140.15,1.1284984914619225e-05
19,143.07999999999998,2.3387241336581824e-05
20,147.09,4.852829377073541e-05
21,150.86,5.075688553551323e-05
22,155.09,5.3552466083261285e-05
23,158.489319,5.630305204209055e-05
24,159.07000000000002,5.6767970157953254e-05
25,162.02,5.900263774815142e-05
26,166.18,6.282136675670208e-05
27,170.04999999999998,6.57414880699451e-05
28,172.81,6.821939923907967e-05
29,176.83999999999997,7.108361859111309e-05
30,180.13000000000002,7.327065451374089e-05
31,181.79000000000002,7.506841166619138e-05
32,181.970086,7.518830341220096e-05
33,186.03,7.802205131794377e-05
34,190.8,8.20273253971732e-05
35,193.9,8.487115362476464e-05
36,197.96,8.781952575509409e-05
37,202.10999999999999,9.128144418880523e-05
38,204.92,9.359772654994458e-05
39,208.929613,9.363107967985139e-05
40,210.17000000000002,9.36907778604314e-05
41,216.06,0.000102359514640891
42,220.07999999999998,0.00010606620059291946
43,223.14000000000001,0.0001074108346758068
44,226.76999999999998,0.00011151623393099665
45,229.92,0.00016713735725161597
46,234.2,0.0002725275343348702
47,239.88329199999998,0.000325858266947473
48,240.2,0.00032880265616989636
49,245.8,0.00030755030620360855
50,252.1,0.0003194709749915349
51,256.79,0.0002660192506447689
52,259.76,0.0003035436516447914
53,263.99,0.00031463498640239905
54,268.89,0.00031017551768189723
55,273.89,0.00030505532306914033
56,275.42287,0.0003035419292769455
57,278.98,0.00030031873910235505
58,284.17,0.0002971003746751671
59,290.12,0.0002808584651680827
60,296.2,0.0002817549045289107
61,301.01,0.00027373931264167107
62,308.02,0.00027465503236525724
63,316.227766,0.000275504943670171
64,318.11,0.0002755631689958424
65,327.78000000000003,0.0002721561891311834
66,337.74,0.00026633020594069696
67,348.0,0.0002618200124131477
68,356.93,0.0002718815513799104
69,363.078055,0.0002919213111628237
70,366.08000000000004,0.00030187032870039767
71,374.61,0.00030906271578161164
72,385.10999999999996,0.0002948391059753686
73,394.97999999999996,0.00036067380075750007
74,405.12,0.0004253926650017568
75,413.6,0.0004537097540344291
76,416.86938299999997,0.00045536086871266607
77,422.26,0.0004580315887838888
78,430.11,0.0004741187427848686
79,441.14,0.0005707334134384746
80,451.42,0.0006284317018626876
81,459.81,0.0006214032190688303
82,470.52,0.0006826523893045618
83,478.630092,0.0007835011829292881
84,480.37000000000006,0.0008050790860914734
85,490.43,0.0007723787602349988
86,499.55,0.0009778024528979165
87,506.5,0.0009231941489513462
88,512.37,0.0014210002024525883
89,519.49,0.0014506379940929363
90,530.37,0.0014637139116557153
91,540.23,0.001335096055696984
92,549.5408739999999,0.001399134050234385
93,550.27,0.0014041580772353216
94,560.51,0.001884165254003047
95,569.61,0.002198065424763428
96,580.2,0.0022750804542527063
97,589.63,0.002465740600436266
98,600.59,0.002254168359945472
99,610.35,0.0022854534815522102
100,620.27,0.002984267621545944
101,630.3499999999999,0.0029771927799266736
102,630.957344,0.0030010174602062506
103,640.59,0.0033790227132291413
104,649.4999999999999,0.0034260023964706875
105,658.54,0.003294697154776364
106,664.63,0.003756411517396007
107,675.4300000000001,0.004071462830416063
108,684.82,0.0036966074831251677
109,694.35,0.004382894293595643
110,705.63,0.0037828955760832576
111,715.4499999999999,0.004849926784773716
112,724.43596,0.005024785694631745
113,725.4,0.005043541632199367
114,735.49,0.005208756107822864
115,745.73,0.00523270228922867
116,754.36,0.005354643895237666
117,764.86,0.00499741829999948
118,775.4999999999999,0.005671772363491452
119,784.48,0.005429211616325841
120,795.39,0.005911691950225974
121,804.6,0.006176019285259907
122,815.79,0.006334337936620355
123,825.24,0.006587098400905988
124,831.763771,0.005822041044177913
125,834.79,0.005467103054841442
126,844.4599999999999,0.006724950863958719
127,854.24,0.006755892544741239
128,864.13,0.0071065560971890025
129,874.1400000000001,0.007271901418726122
130,884.26,0.007424007611928485
131,894.5,0.0075792175742202044
132,904.86,0.007561655305601278
133,915.33,0.007702192908647596
134,925.93,0.020917420178207382
135,934.5,0.03634742227067223
136,945.32,0.055906381283562505
137,954.07,0.0705430515296614
138,954.992586,0.07121622844022962
139,965.12,0.0786059156465576
140,974.0500000000001,0.023630801168331207
141,985.3199999999999,0.06613944289625824
142,994.44,0.06644450810998448
143,1005.96,0.08819701943258604
144,1015.2700000000001,0.08678574433826489
145,1024.66,0.04835834911423959
146,1034.14,0.06877931374429712
147,1046.12,0.10900517432109977
148,1055.8,0.10603415862689693
149,1065.56,0.08718711280298991
150,1075.42,0.09918791681695269
151,1085.37,0.0828815906849983
152,1095.42,0.10220029439091372
153,1096.4782,0.10176710236587393
154,1105.55,0.09805337664147713
155,1115.78,0.09494232473055352
156,1126.1100000000001,0.08481095231219174
157,1133.91,0.10267260273201538
158,1144.4,0.09515964950175256
159,1154.99,0.09805273576405156
160,1165.68,0.09873033151891242
161,1173.76,0.06925661051790921
162,1184.62,0.0945034454101252
163,1195.58,0.07302238979490303
164,1203.87,0.058540427728279686
165,1215.01,0.04290068119966883
166,1226.25,0.07021972416361981
167,1234.75,0.09363883103137634
168,1246.18,0.09964303303119483
169,1254.8100000000002,0.09604125923928174
170,1258.92541,0.09290471156206771
171,1266.43,0.08718515106480858
172,1275.2,0.10386027423022999
173,1284.04,0.10701637742091702
174,1295.92,0.08901300170885389
175,1304.9099999999999,0.08819637495368153
176,1313.95,0.10410018821655606
177,1326.1100000000001,0.09941324260555542
178,1335.3000000000002,0.09087764592257055
179,1344.56,0.1021984992648513
180,1353.88,0.09895699262878833
181,1366.41,0.09025028715133454
182,1375.8799999999999,0.09235125056941215
183,1385.41,0.09214001400914602
184,1395.02,0.0762874074777549
185,1404.69,0.07681608096802
186,1414.42,0.08559639447994137
187,1424.23,0.08520151802073772
188,1434.1000000000001,0.08599071158319033
189,1440.72,0.08880718397259622
190,1445.43977,0.08924408733276953
191,1447.3700000000001,0.08942276626086465
192,1454.05,0.08658590828444436
193,1464.1299999999999,0.0809946713379898
194,1474.28,0.0808075744127404
195,1484.5,0.0815541375086962
196,1494.79,0.08174298062585716
197,1505.15,0.0777056837642233
198,1512.1000000000001,0.0705425658695944
199,1515.58,0.07403858692379461
200,1526.09,0.07235185010760041
201,1536.67,0.0631615833126114
202,1543.7600000000002,0.06374657546039286
203,1554.46,0.061439798701755574
204,1565.24,0.06463236196735278
205,1576.08,0.06846377525112585
206,1583.3600000000001,0.0705431774564642
207,1594.33,0.07136033077961831
208,1605.3899999999999,0.06941546413003621
209,1616.51,0.06877859749863
210,1623.9799999999998,0.06629080976152528
211,1635.23,0.06941565316950009
212,1646.57,0.0697343566047387
213,1654.17,0.06613836890701502
214,1659.58691,0.06791455926585381
215,1665.6299999999999,0.06989608391678571
216,1673.3200000000002,0.06345265092898104
217,1677.18,0.07086759946826245
218,1684.92,0.07201977659107023
219,1696.6000000000001,0.06814843243013935
220,1704.43,0.06583525975204954
221,1716.25,0.06258317590083351
222,1724.1699999999998,0.061723933421846136
223,1736.12,0.0649313098582225
224,1744.13,0.06345339757833753
225,1756.22,0.06598648432442876
226,1764.3300000000002,0.061723922265768685
227,1776.5600000000002,0.06200902932157478
228,1784.76,0.06287166746201714
229,1792.9999999999998,0.06523030569094945
230,1805.43,0.06478126318920537
231,1813.76,0.060319831617240104
232,1826.33,0.061157949425210884
233,1834.76,0.05908266807447052
234,1843.2299999999998,0.05488630681222012
235,1856.01,0.054886215084763205
236,1864.5700000000002,0.05590555402161523
237,1873.18,0.058946163069079696
238,1886.16,0.05450861178407259
239,1894.87,0.052294991052761974
240,1903.6200000000001,0.05501142040994131
241,1905.46072,0.054716866020268026
242,1916.81,0.052900682118310526
243,1925.6599999999999,0.05134127688152961
244,1934.55,0.05302332153068416
245,1943.48,0.05463354606577416
246,1956.95,0.05086922765453814
247,1965.98,0.05463384190446678
248,1975.06,0.05590532601181473
249,1984.17,0.05302304003361427
250,1993.3300000000002,0.05157761391283313
251,2007.15,0.052656364503532324
252,2016.4099999999999,0.051341148097589814
253,2025.72,0.05290054154906663
254,2035.07,0.05005670488647889
255,2044.4599999999998,0.0512226581098266
256,2053.9,0.04714722119059364
257,2063.38,0.04824616415729613
258,2072.91,0.051935146981417935
259,2077.6800000000003,0.04948356337922077
260,2087.2799999999997,0.05086852600372961
261,2096.91,0.04835725854269005
262,2106.59,0.04869213093906981
263,2116.31,0.04902985322138502
264,2126.08,0.04925495536111954
265,2135.89,0.04671512738678952
266,2145.75,0.04693023926987882
267,2155.66,0.048134611010387435
268,2165.61,0.0467147226368315
269,2175.6,0.04639285414921102
270,2185.65,0.04544193549049372
271,2187.7616199999998,0.04575374116591368
272,2195.73,0.046930407585640904
273,2205.87,0.04575673063964313
274,2216.05,0.04389966378458818
275,2226.2799999999997,0.042801957043211734
276,2236.56,0.0444068904155138
277,2246.88,0.042998823878758675
278,2257.25,0.04144352745568206
279,2262.45,0.04201953927824731
280,2272.9,0.04250690303705631
281,2283.39,0.04290056688680813
282,2293.9300000000003,0.040594050850238456
283,2304.52,0.04078954492734729
284,2315.15,0.03932152909539895
285,2325.84,0.03316771339986481
286,2336.57,0.03722186779527348
287,2347.36,0.036298032327096365
288,2352.77,0.03792455462711137
289,2363.63,0.035727799318084175
290,2374.54,0.036148454122735485
291,2385.5,0.03413300904106532
292,2396.51,0.035501294073073654
293,2407.57,0.03438243921876051
294,2413.12,0.03470323183707534
295,2424.26,0.03593038716464781
296,2435.4500000000003,0.0347174526058988
297,2446.69,0.03586220816082829
298,2452.33,0.03529208098376444
299,2463.65,0.03489420672057956
300,2475.02,0.03387225257107319
301,2486.4500000000003,0.034193088557981026
302,2492.18,0.0309730215855385
303,2503.68,0.03467929773159626
304,2511.88643,0.03267251060206051
305,2515.2400000000002,0.031852423438579254
306,2526.85,0.03171277322257406
307,2532.68,0.031862218092573176
308,2544.3700000000003,0.03128778780617345
309,2556.1099999999997,0.03261775747577715
310,2567.91,0.03195495709258496
311,2573.83,0.03300551188339023
312,2585.71,0.032634911429803515
313,2597.64,0.03211892093222022
314,2603.63,0.031247965661430288
315,2615.65,0.030754775084653158
316,2627.7200000000003,0.031550174463879456
317,2633.78,0.03206617913149431
318,2645.94,0.03366125843152676
319,2652.04,0.033976013063944356
320,2664.28,0.031570102293582286
321,2676.58,0.032386631470424324
322,2682.75,0.03231558604124671
323,2695.13,0.031009845147694226
324,2707.57,0.03144742420134585
325,2713.81,0.030174488710573027
326,2726.3399999999997,0.03004188768503081
327,2732.62,0.030815892159060727
328,2745.24,0.02804620105432467
329,2757.9100000000003,0.02831271990559204
330,2764.26,0.02890874431802675
331,2777.02,0.029724053090100275
332,2783.4300000000003,0.028455177449739095
333,2796.27,0.024618006151418098
334,2802.7200000000003,0.025722710475859653
335,2815.66,0.028999749089545505
336,2822.15,0.0297480833787898
337,2835.17,0.02867771192208113
338,2848.26,0.028096060403777247
339,2854.83,0.027207964622627014
340,2868.0,0.028892973033928612
341,2874.61,0.02883020721758112
342,2884.0315,0.02869352682858719
343,2887.88,0.028637698858002325
344,2894.54,0.028443798738069064
345,2907.9,0.029860828497482218
346,2928.06,0.02879018813444099
347,2948.3500000000004,0.02821009776905873
348,2968.79,0.028284277400975263
349,2989.37,0.02803467703037068
350,3010.09,0.027980556657244974
351,3030.9599999999996,0.02773398628141807
352,3051.97,0.02755279590307005
353,3073.12,0.027436095522200905
354,3087.3,0.027253695266847504
355,3108.71,0.027139484881296284
356,3130.25,0.02659227449340402
357,3151.95,0.02641835410263048
358,3166.5,0.026304193840614117
359,3188.45,0.025129743445338578
360,3210.5499999999997,0.025547363047361837
361,3232.8,0.024576742646683896
362,3247.7299999999996,0.0255045723778245
363,3270.24,0.02592930197246448
364,3292.91,0.02564287156422318
365,3308.11,0.02535620129050162
366,3311.31121,0.025394452233286458
367,3323.38,0.025538657078251266
368,3331.04,0.025541584441345765
369,3338.72,0.024734851797555392
370,3346.4100000000003,0.025372099150322583
371,3354.13,0.024458306492762465
372,3361.8599999999997,0.024630693831759917
373,3369.61,0.024295781163872494
374,3377.3799999999997,0.0236371484891002
375,3385.16,0.024302895810885475
376,3392.9700000000003,0.02510106312234344
377,3400.7900000000004,0.02586801043035897
378,3408.63,0.024144557731489633
379,3416.49,0.02431566502573542
380,3424.36,0.025289312316538772
381,3432.25,0.025822489600457257
382,3440.17,0.024891576874048436
383,3448.1,0.023557264144197176
384,3456.05,0.023560181407461047
385,3464.01,0.022763398667282483
386,3472.0,0.024170225916776613
387,3479.9999999999995,0.022612263162828303
388,3488.02,0.023681400401995126
389,3496.07,0.023521657630834646
390,3504.12,0.023796814859674165
391,3512.2,0.023366382078186376
392,3520.3,0.023969249289813713
393,3528.4100000000003,0.022526736497998617
394,3536.55,0.02381097369585622
395,3544.7000000000003,0.024257190890271382
396,3552.8700000000003,0.024428278077801673
397,3561.06,0.024040595258447095
398,3569.27,0.022439722432207647
399,3577.5,0.022033499599083326
400,3585.7499999999995,0.021141086759074133
401,3594.01,0.02183686391562251
402,3602.2999999999997,0.023672751061843578
403,3610.6,0.02240412820462221
404,3618.92,0.023086955340515972
405,3623.13,0.022046323891250674
406,3625.87,0.02509537294802338
407,3628.6099999999997,0.025446052004796084
408,3631.35,0.02190666106156879
409,3634.0899999999997,0.022877410118341494
410,3636.84,0.023483109171671766
411,3639.58,0.02276469822844447
412,3642.32,0.022267227285217177
413,3645.06,0.023850906341989882
414,3647.7999999999997,0.023406185398762585
415,3650.54,0.02087602445553529
416,3653.2799999999997,0.021195333512308
417,3656.02,0.022622222569080704
418,3658.7599999999998,0.023602951625853408
419,3661.4999999999995,0.02477753068262611
420,3664.25,0.02250381973595638
421,3666.99,0.023182348792729086
422,3669.73,0.02404902784950179
423,3672.47,0.0232864269062745
424,3675.21,0.023497405963047203
425,3677.95,0.023148185019819908
426,3680.6899999999996,0.022814644076592613
427,3683.43,0.02482454313336532
428,3686.1699999999996,0.023634302190138023
429,3688.92,0.02233560124346829
430,3691.66,0.022548000300240997
431,3694.4,0.023735409357013702
432,3697.14,0.023061188413786408
433,3699.8799999999997,0.023279297470559113
434,3702.62,0.022503856527331816
435,3705.3599999999997,0.020312955584104522
436,3708.1,0.021922294640877228
437,3710.84,0.02309973369764993
438,3713.5800000000004,0.02534911275442264
439,3716.33,0.02641807180775291
440,3719.0699999999997,0.03260168086452561
441,3721.81,0.056470819921298314
442,3724.5499999999997,0.09467999897807103
443,3727.29,0.12182629803484374
444,3730.0299999999997,0.10939079709161643
445,3732.7700000000004,0.07298906614838914
446,3735.51,0.04226633520516184
447,3738.25,0.02888564426193455
448,3740.9900000000002,0.026348353318707256
449,3743.74,0.023478792372037528
450,3746.48,0.02354010142881023
451,3749.22,0.020790430485582937
452,3751.9599999999996,0.024426759542355642
453,3754.7000000000003,0.022934318599128346
454,3757.44,0.02299277765590105
455,3760.1800000000003,0.02341757671267376
456,3762.92,0.024617815769446463
457,3765.6600000000003,0.024298524826219168
458,3768.4,0.02382386388299187
459,3771.1499999999996,0.023661252936322142
460,3773.89,0.025969061993094848
461,3776.63,0.026569181049867552
462,3779.3700000000003,0.027911970106640257
463,3782.11,0.02743445916341296
464,3784.8500000000004,0.026693238220185666
465,3787.59,0.02654928727695837
466,3790.33,0.024821646333731077
467,3793.07,0.02621860539050378
468,3795.81,0.025790984447276486
469,3798.5600000000004,0.024181523500606757
470,3801.3,0.027468622557379464
471,3801.8939600000003,0.027478513737876076
472,3804.0400000000004,0.027514251768081692
473,3806.78,0.02682862102138704
474,3809.52,0.02597622027469238
475,3812.26,0.026184349527997728
476,3815.0,0.02738031878130307
477,3817.7400000000002,0.026860038034608416
478,3820.48,0.02585082728791376
479,3823.23,0.02631683653849394
480,3825.9700000000003,0.024115955791799287
481,3828.71,0.02351585504510463
482,3831.4500000000003,0.023602814298409977
483,3834.19,0.022607863551715318
484,3836.93,0.022335612805020666
485,3839.67,0.024415362058326007
486,3842.41,0.02474750131163135
487,3845.15,0.027994700564936695
488,3847.89,0.02642243981824204
489,3850.6400000000003,0.02760685906882222
490,3853.38,0.028445028322127565
491,3856.12,0.027907647575432907
492,3858.86,0.028278286828738255
493,3861.6,0.029941796082043597
494,3864.34,0.030145655335348943
495,3867.08,0.03133876458865429
496,3869.8199999999997,0.03138867384195963
497,3872.56,0.030443613095264974
498,3875.2999999999997,0.02788209234857032
499,3878.05,0.0279945715991505
500,3880.79,0.026828570852455845
501,3883.53,0.026459390105761187
502,3886.27,0.030597479359066534
503,3889.0099999999998,0.029233348612371875
504,3891.75,0.02914355786567722
505,3894.49,0.027997507118982565
506,3897.23,0.02468619637228791
507,3899.97,0.028644695625593252
508,3902.7099999999996,0.027953364878898598
509,3905.46,0.029783504129478777
510,3908.2,0.027708063382784122
511,3910.94,0.029000962636089464
512,3913.68,0.02948135188939481
513,3916.42,0.028274011142700155
514,3919.16,0.0279575803960055
515,3921.8999999999996,0.027937629649310843
516,3924.64,0.02528345890261619
517,3927.3799999999997,0.02505824815592153
518,3930.12,0.022225877409226876
519,3932.87,0.022288496659807054
520,3935.61,0.0236654959131124
521,3938.35,0.024743145166417745
522,3941.0899999999997,0.02584217441972309
523,3943.83,0.02727049367302843
524,3946.5699999999997,0.02721918292633378
525,3949.31,0.02755275217963912
526,3952.0499999999997,0.025984771432944465
527,3954.7900000000004,0.02685146068624981
528,3957.54,0.02636525993682999
529,3960.2799999999997,0.024653309190135336
530,3963.02,0.02349870844344068
531,3965.7599999999998,0.023266377696746023
532,3968.5,0.027505676950051367
533,3971.24,0.027011056203356712
534,3973.9799999999996,0.025531455456662057
535,3976.7200000000003,0.0251950547099674
536,3979.46,0.026590583963272744
537,3982.2000000000003,0.027894883216578088
538,3984.95,0.02901374246715827
539,3987.69,0.028590391720463616
540,3990.43,0.03052474097376896
541,3993.1699999999996,0.029773540227074305
542,3995.91,0.03018693948037965
543,3998.65,0.029314578733684992
544,4001.3900000000003,0.030754297986990337
545,4004.13,0.03173217724029568
546,4006.8700000000003,0.030779986493601023
547,4009.61,0.030390845746906366
548,4012.3599999999997,0.03188600499748655
549,4015.1,0.031200384250791895
550,4017.8399999999997,0.030798423504097238
551,4020.5800000000004,0.03131444275740258
552,4023.32,0.030844062010707926
553,4026.0600000000004,0.030387931264013273
554,4028.8,0.028747260517318615
555,4031.54,0.02957545977062396
556,4034.28,0.030674499023929304
557,4037.02,0.031847658277234646
558,4039.7699999999995,0.030729967527814827
559,4042.51,0.030098506781120173
560,4045.2500000000005,0.030112776034425515
561,4047.9900000000002,0.029796345287730862
562,4050.73,0.030396474541036205
563,4053.4700000000003,0.03204858379434155
