,lambda (Angstroms),Total Flux (erg/s/cm^2/Angstrom)
0,102.03,0.0016027322925752055
1,103.92999999999999,0.0018752966885180109
2,104.712855,0.001987601946736421
3,106.1,0.0018215790770719777
4,108.08,0.001584605291459818
5,110.09,0.001344057617636565
6,113.96,0.0008809067712155275
7,117.96,0.0004022143567364181
8,120.22644299999999,0.00013148076363874532
9,120.99000000000001,0.00012743454619447965
10,124.94999999999999,0.00010585531256699645
11,126.97999999999999,9.478281725795825e-05
12,127.86,9.002967834073969e-05
13,131.14000000000001,7.214855664928878e-05
14,132.05,6.75059802348924e-05
15,133.89,5.755352940798109e-05
16,137.0,4.12015812005383e-05
17,138.038426,3.563898522448394e-05
18,139.87,3.561332700373351e-05
19,143.13,4.2617174050318776e-05
20,147.14,6.145410195731478e-05
21,150.92,6.525084821378481e-05
22,155.14,7.000598980169581e-05
23,158.489319,7.495928416629072e-05
24,159.12,7.582581502087372e-05
25,162.08,7.992354587824461e-05
26,165.86,8.719425650015745e-05
27,170.10999999999999,9.356604479199065e-05
28,172.88000000000002,9.95591276551384e-05
29,176.9,0.00010741624942764888
30,180.19,0.00011355356311709152
31,181.86,0.00011805034654000009
32,181.970086,0.00011829312804508228
33,186.09,0.0001290157397049949
34,190.87,0.00014344262648111172
35,193.97,0.00015394743589658495
36,198.03,0.00016638758951814024
37,202.18,0.0001806622472840157
38,204.99,0.000191827810012235
39,208.929613,0.00020009900836491658
40,209.76999999999998,0.0002022756940635337
41,216.14000000000001,0.0002376650019258346
42,220.16,0.00025764201536483764
43,223.22000000000003,0.0002695985046990042
44,226.85,0.0002916687645954174
45,230.0,0.00044323271243941237
46,233.73999999999998,0.0007361672771811715
47,239.73999999999998,0.0009682319778363999
48,239.88329199999998,0.00096787225895497
49,245.89,0.0009463591413866673
50,252.19,0.0010471081500835046
51,256.88,0.0008982461898911499
52,259.86,0.0010669313416239396
53,264.08,0.0011465696712589638
54,268.99,0.0011754431732750703
55,273.99,0.0011997961325582742
56,275.42287,0.0012068187203544297
57,279.08,0.0012284009252041162
58,284.27,0.0012618617293311029
59,290.21999999999997,0.0012396850982242765
60,296.3,0.0012910316163537714
61,301.12,0.0012993033034235356
62,308.13,0.001359324196859022
63,316.227766,0.0014287601838540737
64,318.22,0.0014440602032542757
65,327.89,0.0014862455981070402
66,337.85999999999996,0.0015092744891806766
67,348.12,0.0015293856599344886
68,357.05,0.0015538450307757698
69,363.078055,0.0015819902244175578
70,366.21,0.0015987231524397705
71,374.74,0.0016121689208588308
72,385.24,0.0015757343978107803
73,395.12,0.0016587527989808052
74,405.26,0.0017070779738658306
75,413.75,0.0017095469309441214
76,416.86938299999997,0.0017036089927930894
77,422.41,0.0016924076461769227
78,430.26,0.0016862954047901584
79,441.3,0.0017148723251838042
80,450.53999999999996,0.001705052345513269
81,459.97,0.0016802770275161749
82,469.61,0.0016819279145265686
83,478.630092,0.0016990654327920104
84,480.55,0.0017019269950894025
85,489.47999999999996,0.0016439596269604586
86,499.72999999999996,0.0016861516333074155
87,505.52,0.0016292186622585258
88,512.5500000000001,0.001748452649050634
89,519.68,0.0017311924066363707
90,530.56,0.0016903370689831895
91,540.42,0.001613911669234994
92,549.5408739999999,0.0015922007807088901
93,550.47,0.0015901347152753157
94,559.42,0.0016513790433572769
95,569.8199999999999,0.0016996137430279356
96,580.41,0.001660956077596424
97,589.84,0.001667770114893954
98,599.4200000000001,0.0015721838113213493
99,610.57,0.0013946688066413344
100,620.49,0.0016319667970964243
101,630.57,0.0015912176906233706
102,630.957344,0.0015924690253843945
103,639.34,0.0016210376993772274
104,649.73,0.0015931215662581789
105,657.2600000000001,0.0015443689644885506
106,664.87,0.0015982355156881694
107,675.6700000000001,0.0016065341665365113
108,685.0699999999999,0.0015061081404230314
109,694.5999999999999,0.0015940973628845775
110,704.26,0.0014713508339211502
111,715.7099999999999,0.0015926287276446238
112,724.43596,0.0015872993370947836
113,725.6600000000001,0.001586497984427031
114,735.76,0.0015834956311024696
115,744.28,0.0015663636617633345
116,754.63,0.0015599568046436106
117,765.13,0.0014271326452467894
118,775.77,0.001561214603724677
119,784.75,0.0015102793074024431
120,795.67,0.001548434501629749
121,804.8900000000001,0.0015628841216641593
122,814.2099999999999,0.0015599165401805044
123,825.53,0.0015851869283355503
124,831.763771,0.001454167104119183
125,835.09,0.0013836439251224616
126,844.76,0.0015593305442294196
127,854.5400000000001,0.0015442402582796833
128,864.4399999999999,0.0015743328031771896
129,874.4499999999999,0.0015979454430180013
130,884.5699999999999,0.0016256321778021188
131,894.82,0.0016389534793374157
132,905.1800000000001,0.0016048578758160181
133,915.66,0.0020045291031418632
134,924.13,0.008447556413776397
135,934.8299999999999,0.017248141830988852
136,945.66,0.03215970281495249
137,954.41,0.04711400673089725
138,954.992586,0.04717182262742582
139,965.46,0.048211723945948755
140,974.39,0.007918049523226521
141,985.6800000000001,0.03406108994735485
142,994.8,0.040756907728404485
143,1004.0,0.06761730391104227
144,1015.63,0.06808584154192027
145,1025.02,0.030923783928329913
146,1034.51,0.04316905431672476
147,1044.08,0.09332725310670777
148,1056.17,0.09183445154671764
149,1065.94,0.06638214634067102
150,1075.81,0.08337165913660961
151,1085.76,0.06040445033413635
152,1095.81,0.08974344953364828
153,1096.4782,0.08949037289573383
154,1105.95,0.08590258387103898
155,1116.1799999999998,0.07998606414569905
156,1123.92,0.06998888013063248
157,1134.3200000000002,0.09771881977447067
158,1144.81,0.08709379379022668
159,1155.4,0.09549577155255808
160,1166.1000000000001,0.09816804243612236
161,1174.1799999999998,0.06209169715941203
162,1185.04,0.09527250803749691
163,1196.01,0.0578133620368147
164,1204.3,0.037335213627912645
165,1215.44,0.03120097699640855
166,1223.87,0.065014039832712
167,1235.19,0.10640111194504358
168,1243.75,0.11774217665189501
169,1255.26,0.10938115688271978
170,1258.92541,0.1013648698023552
171,1263.96,0.0903545100630254
172,1275.66,0.12587090210486043
173,1284.5,0.133944641425358
174,1296.39,0.09570796431231685
175,1305.37,0.09417728425553724
176,1314.42,0.12850747451011904
177,1323.53,0.12159901503158205
178,1335.78,0.10161146951982811
179,1345.0400000000002,0.13180191070849412
180,1354.36,0.12703465216404133
181,1363.75,0.10887779393094997
182,1376.3700000000001,0.11720075006496349
183,1385.9099999999999,0.11828519249907513
184,1395.51,0.10114543520006797
185,1405.19,0.10518297825690243
186,1414.93,0.10689082158061808
187,1424.7399999999998,0.11244176521569514
188,1434.6100000000001,0.1109013091176534
189,1441.23,0.11910653856354639
190,1445.43977,0.12103584557607525
191,1447.89,0.12215876643583168
192,1454.57,0.11720149137345809
193,1464.65,0.10542652900388834
194,1474.8,0.10615586689564104
195,1485.03,0.10988470508604793
196,1495.32,0.11270424350044549
197,1505.68,0.10469958217616547
198,1512.63,0.08994180812174983
199,1516.12,0.09884537115053967
200,1526.6299999999999,0.09439683038623631
201,1533.68,0.07888009670513842
202,1544.3100000000002,0.09035584638881636
203,1555.01,0.08491140633381673
204,1565.79,0.08609224657747132
205,1576.65,0.09267332711978012
206,1583.92,0.0995288842599813
207,1594.8999999999999,0.1013794152502714
208,1605.9599999999998,0.0999889265392157
209,1613.3700000000001,0.10114548420206176
210,1624.55,0.0939636059389874
211,1635.81,0.10208246797456723
212,1643.3700000000001,0.10374009619738991
213,1654.7600000000002,0.09461495871828283
214,1659.58691,0.09896061814041873
215,1666.23,0.10494153784654564
216,1673.92,0.09014864749668634
217,1677.7800000000002,0.10542615273069716
218,1685.52,0.11244476374397272
219,1693.3000000000002,0.10421977584775617
220,1705.04,0.09930298591182013
221,1716.8600000000001,0.09225005815689988
222,1724.78,0.09182796407746092
223,1736.74,0.09976185013931825
224,1744.75,0.09726646851352203
225,1756.8500000000001,0.10591410839215695
226,1764.9599999999998,0.09505391949263045
227,1773.1,0.09749167141098486
228,1785.39,0.09999320646953223
229,1793.6399999999999,0.10888211138678332
230,1806.07,0.1083827502621083
231,1814.3999999999999,0.09771744736037513
232,1826.98,0.10068492032510468
233,1835.41,0.09593541014964123
234,1843.8899999999999,0.08669455133731266
235,1856.67,0.08649464975458161
236,1865.24,0.08994698339589577
237,1873.85,0.10022599812771782
238,1886.84,0.09078011227015315
239,1895.55,0.0868941897282449
240,1904.29,0.09332406800421757
241,1905.46072,0.09271025240120229
242,1913.0800000000002,0.08871494216507496
243,1926.35,0.08729474583179803
244,1935.24,0.09057110342013022
245,1944.17,0.09483796960278561
246,1953.1399999999999,0.0881025743797642
247,1966.68,0.0988497985581689
248,1975.76,0.1018506894695363
249,1984.8799999999999,0.09571357897522692
250,1994.04,0.09267742707524075
251,2003.25,0.09637578341815857
252,2017.13,0.0918285856483105
253,2026.4399999999998,0.09749101847703634
254,2035.8000000000002,0.09140448954866617
255,2045.19,0.09615248956603843
256,2054.63,0.09077634782631466
257,2064.1200000000003,0.09098241432949493
258,2073.64,0.09930287977841758
259,2078.42,0.09527029180004051
260,2083.21,0.10068201347024425
261,2092.83,0.09439707540497491
262,2107.34,0.09483260549571733
263,2117.06,0.096372523916256
264,2126.84,0.09748627022827949
265,2136.65,0.08952643548604537
266,2146.52,0.09331499863529608
267,2156.42,0.09748647073028917
268,2166.38,0.09374413071676707
269,2176.38,0.09288456929756819
270,2186.42,0.09203464647269251
271,2187.7616199999998,0.0926407443053123
272,2196.51,0.09659351444111121
273,2206.65,0.09374412854758411
274,2216.84,0.08748926405497653
275,2227.0699999999997,0.08510561068310454
276,2237.35,0.09288569871215203
277,2242.51,0.08850092328704358
278,2252.8599999999997,0.08278659327737838
279,2263.26,0.08510621466863265
280,2273.71,0.08809631746080641
281,2284.2000000000003,0.09224835137371577
282,2294.7400000000002,0.08569595668754464
283,2305.3399999999997,0.08687716368247689
284,2315.98,0.08106950179814472
285,2326.67,0.060931631314732046
286,2337.41,0.07307418223223887
287,2342.79,0.07010455297117618
288,2353.6099999999997,0.0784640561301542
289,2364.47,0.06976567040986778
290,2375.39,0.07270725637068479
291,2386.3500000000004,0.06599898345223737
292,2397.37,0.07152665221489335
293,2402.89,0.06846283687640524
294,2413.98,0.0710210476003485
295,2425.12,0.07804089972521125
296,2436.3199999999997,0.0752098135311774
297,2447.57,0.08094731873806303
298,2453.21,0.0803858867617817
299,2464.53,0.07836557392995464
300,2475.91,0.07500128277923095
301,2487.33,0.07464787274924285
302,2493.07,0.0701462935748005
303,2504.58,0.0818304560664675
304,2510.35,0.06853612773257683
305,2511.88643,0.06900088380363495
306,2516.14,0.07028738465577718
307,2527.7500000000005,0.067581938758626
308,2533.5800000000004,0.07059779553895404
309,2545.27,0.06946109877429449
310,2557.02,0.07955180135900367
311,2562.92,0.07440941738026188
312,2574.74,0.08082782920590124
313,2586.6299999999997,0.0784346402724708
314,2592.59,0.07646716564309775
315,2604.5600000000004,0.07284895584215892
316,2616.58,0.07134424549902738
317,2622.61,0.0767930701105845
318,2634.72,0.08575122879150605
319,2646.8799999999997,0.09775938693023487
320,2652.9799999999996,0.1081736907827222
321,2665.23,0.08771629794550409
322,2677.53,0.09440715456609328
323,2683.7,0.09682274765951077
324,2696.0899999999997,0.08788559330415305
325,2702.3,0.09459689596381636
326,2714.7799999999997,0.08449424063251172
327,2727.31,0.08124006475901437
328,2733.59,0.08804827665960786
329,2746.21,0.07041973981016361
330,2752.54,0.07475585116856437
331,2765.25,0.0808297933431732
332,2778.01,0.08521218497558929
333,2784.42,0.0752461454664817
334,2797.27,0.05734001612295088
335,2803.7200000000003,0.062145356180089116
336,2816.6600000000003,0.08285186586061138
337,2823.1499999999996,0.09402694548399544
338,2836.18,0.0910304641885708
339,2842.7200000000003,0.08455936326976213
340,2855.84,0.07500801099839058
341,2862.42,0.09617289964582772
342,2875.64,0.10350697629007073
343,2882.27,0.09906947439531515
344,2884.0315,0.09965395940251201
345,2895.57,0.10348268273321921
346,2908.94,0.12211827976612306
347,2929.1,0.11315747529217703
348,2949.3999999999996,0.10954417078716192
349,2969.85,0.1144134662488585
350,2990.43,0.11491366168170525
351,3011.16,0.1172909570812637
352,3032.03,0.1194420524497531
353,3053.0499999999997,0.12079394778495418
354,3067.14,0.12501624465807423
355,3088.4,0.12614193994001408
356,3109.81,0.13205093518866565
357,3131.37,0.1278314304040289
358,3153.07,0.12809192558832308
359,3167.63,0.13257022235713983
360,3189.59,0.12032031748373431
361,3211.6899999999996,0.12948431257925974
362,3226.52,0.11565170928815754
363,3248.88,0.13836370432598327
364,3271.3999999999996,0.1516688993283015
365,3286.5,0.1488756959772804
366,3309.28,0.1461187909218989
367,3311.31121,0.1461152145844142
368,3324.56,0.1460918342658883
369,3332.2200000000003,0.14982490176992883
370,3339.91,0.1394911691467006
371,3347.6,0.16051123652347238
372,3355.32,0.15362570377297535
373,3363.06,0.12007067093763252
374,3370.8100000000004,0.13595473805986674
375,3378.58,0.15043230509725514
376,3386.3700000000003,0.14938327204979765
377,3394.17,0.14902693895991725
378,3402.0,0.1706916057427681
379,3409.84,0.14695527248319604
380,3417.7000000000003,0.1396849391387781
381,3425.58,0.1552730057095143
382,3433.48,0.17102187219540468
383,3441.39,0.14963063863887216
384,3449.33,0.14222640495507083
385,3457.2799999999997,0.1506391712288466
386,3465.2500000000005,0.13928303741777648
387,3473.2400000000002,0.15953100352186056
388,3481.24,0.14514836958352167
389,3489.27,0.15515543551791408
390,3497.31,0.1441219014098835
391,3505.37,0.16431696721700711
392,3513.4500000000003,0.15019213293928485
393,3521.55,0.16849899857671674
394,3529.6699999999996,0.1353831641293028
395,3537.81,0.16274542959704302
396,3545.96,0.1669035950223603
397,3554.14,0.1695999603204088
398,3562.3300000000004,0.16120822557603443
399,3570.54,0.14039549074681415
400,3578.77,0.14564855583274805
401,3587.02,0.1239590208338361
402,3595.29,0.15353868575007829
403,3603.58,0.17465025058147465
404,3611.89,0.14097251532802516
405,3620.21,0.15208638003215275
406,3628.56,0.18324494460901156
407,3634.1200000000003,0.12376072102186605
408,3636.86,0.136782309397985
409,3639.6099999999997,0.09954829773168102
410,3642.35,0.11491198610779996
411,3645.09,0.12734527448391889
412,3647.8300000000004,0.14384366286003783
413,3650.57,0.16468045123615677
414,3653.3199999999997,0.1576159395698528
415,3656.06,0.16070732794597173
416,3658.7999999999997,0.17485921632209067
417,3661.54,0.1929948046982096
418,3664.2799999999997,0.16377039307432856
419,3667.03,0.16806828140802457
420,3669.77,0.18046636978414352
421,3672.5099999999998,0.17529545816026243
422,3675.25,0.18488214653638138
423,3677.99,0.15333113491250033
424,3680.7400000000002,0.14141502324619634
425,3683.48,0.13462021162231527
426,3686.2200000000003,0.17732239999843422
427,3688.96,0.17952148837455317
428,3691.7,0.16889957675067208
429,3694.4500000000003,0.15381286508436812
430,3697.19,0.17973695346048707
431,3699.9300000000003,0.182372341836606
432,3702.67,0.15449193021272492
433,3705.4100000000003,0.16683501858884386
434,3708.16,0.15047920692253988
435,3710.8999999999996,0.15189829529865884
436,3713.6400000000003,0.17457918367477776
437,3716.38,0.2271808720508967
438,3719.1200000000003,0.19849196042701567
439,3721.87,0.2205261487607117
440,3724.6099999999997,0.24128133713683061
441,3727.35,0.21708282551294955
442,3730.0899999999997,0.2277977138890685
443,3732.83,0.18401620226518745
444,3735.58,0.14996799059888344
445,3738.32,0.1453081789750024
446,3741.06,0.15243596735112133
447,3743.7999999999997,0.13961955572724027
448,3746.54,0.1505259441033592
449,3749.29,0.15053633243705522
450,3752.03,0.16762742081317417
451,3754.77,0.15672570918929313
452,3757.51,0.18880359756541204
453,3760.25,0.15167608594153098
454,3763.0000000000005,0.192048474275227
455,3765.7400000000002,0.18744376265134594
456,3768.48,0.1905924510274649
457,3771.2200000000003,0.17104063940358383
458,3773.96,0.18981292777970277
459,3776.7099999999996,0.21925681611339876
460,3779.45,0.2037371044895177
461,3782.19,0.22202459286563667
462,3784.9300000000003,0.2085582812417556
463,3787.67,0.20080946961787452
464,3790.42,0.19408865795157054
465,3793.16,0.1870118463276895
466,3795.8999999999996,0.18228813470380845
467,3798.64,0.18429772307992737
468,3801.3799999999997,0.19827351145604633
469,3801.8939600000003,0.19954822352295196
470,3804.13,0.20509400176624992
471,3806.87,0.21671219256434293
472,3809.61,0.20786608336243587
473,3812.35,0.21124397416052887
474,3815.0899999999997,0.18868686495862186
475,3817.84,0.20286205572313123
476,3820.58,0.1794257465212242
477,3823.32,0.17663443731931716
478,3826.06,0.16532502811741015
479,3828.8,0.14246161891550313
480,3831.55,0.15866180968001253
481,3834.2900000000004,0.15358990047810547
482,3837.03,0.13987899127619846
483,3839.77,0.14989748207429146
484,3842.51,0.19456957287238444
485,3845.2599999999998,0.1799498636368938
486,3847.9999999999995,0.19711595443498678
487,3850.7400000000002,0.20117904523307975
488,3853.48,0.19976243603117275
489,3856.2200000000003,0.19421032682926573
490,3858.97,0.1912263175937751
491,3861.71,0.20068960839186806
492,3864.45,0.20707939918996104
493,3867.1899999999996,0.20960238998805403
494,3869.93,0.214987480786147
495,3872.68,0.18721187155065638
496,3875.42,0.19606046234874935
497,3878.16,0.17403435314684235
498,3880.9,0.17539394394493532
499,3883.64,0.1954595347430283
500,3886.3900000000003,0.17492622550753767
501,3889.13,0.18480381630563064
502,3891.87,0.20022040710372363
503,3894.61,0.2227073979018166
504,3897.35,0.18926598869990957
505,3900.1000000000004,0.21177617946441896
506,3902.84,0.23907737026251194
507,3905.5800000000004,0.23359146106060494
508,3908.32,0.22909695185869788
509,3911.06,0.23204964265679087
510,3913.81,0.24213973342130024
511,3916.5499999999997,0.23085912421939325
512,3919.2900000000004,0.21426411501748618
513,3922.03,0.2000663058155792
514,3924.77,0.18987399661367216
515,3927.52,0.16110928737818156
516,3930.2599999999998,0.13958547817627454
517,3933.0,0.1426459689743675
518,3935.74,0.13901945977246047
519,3938.4799999999996,0.16780795057055345
520,3941.23,0.18049604133506283
521,3943.97,0.2067924321331558
522,3946.71,0.20056392293124878
523,3949.45,0.21923711372934176
524,3952.19,0.20853590452743476
525,3954.94,0.20719319529194413
526,3957.6800000000003,0.19904338609003708
527,3960.42,0.17592007688813008
528,3963.16,0.17213276768622307
529,3965.9,0.14957995848431602
530,3968.65,0.1515468492488254
531,3971.3900000000003,0.16257454004691838
532,3974.13,0.19114923084501137
533,3976.8700000000003,0.21005362164310434
534,3979.61,0.2311680124411973
535,3982.3599999999997,0.24048700320570668
536,3985.1,0.2463920940037997
537,3987.84,0.25701218480189264
538,3990.5800000000004,0.2650764755999856
539,3993.32,0.2696816663980786
540,3996.0699999999997,0.273734557162588
541,3998.81,0.26549454796068095
542,4001.5499999999997,0.2672354387587739
543,4004.29,0.2710033295568669
544,4007.0299999999997,0.2721933203549599
545,4009.78,0.27968341111946926
546,4012.52,0.28499370191756224
547,4015.2599999999998,0.2839583927156552
548,4018.0,0.2940276835137482
549,4020.74,0.2907450743118412
550,4023.4900000000002,0.29103036507635055
551,4026.23,0.3005928558744435
552,4028.9700000000003,0.2849939466725365
553,4031.71,0.2812706374706295
554,4034.45,0.2861181282687225
555,4037.2000000000003,0.28527971903323185
556,4039.94,0.2838699098313248
557,4042.6800000000003,0.2793314006294178
558,4045.42,0.2794417914275108
559,4048.1600000000003,0.27882518222560376
560,4050.91,0.2893557729901131
561,4053.6499999999996,0.29028146378820613
562,4056.3900000000003,0.2858310545862991
563,4059.13,0.2725674453843921
564,4061.8700000000003,0.26827123618248505
565,4064.62,0.2738665269469944
566,4067.3599999999997,0.2875052177450874
567,4070.1,0.2787143085431804
