,lambda (Angstroms),Total Flux (erg/s/cm^2/Angstrom)
0,100.09,0.0034798109333395487
1,101.96000000000001,0.004184651207536131
2,104.09,0.004987481484162716
3,104.712855,0.005222251943348449
4,106.03,0.004808086886955838
5,108.0,0.004188660434987449
6,110.0,0.0035598846463769014
7,113.86999999999999,0.002343147593738494
8,117.87,0.0010855963744173932
9,120.22644299999999,0.0003471152520927038
10,120.9,0.00033804519028639583
11,125.14000000000001,0.0002777215814840897
12,126.88,0.0002530525341406908
13,128.06,0.00023634346135608666
14,131.04,0.00019400763456106984
15,131.95,0.00018235204677802776
16,134.09,0.0001520382683212033
17,136.9,0.00011435230874939193
18,138.038426,9.840252255954819e-05
19,140.09,9.845766816627725e-05
20,143.02,0.00012679170177003893
21,147.03,0.00020022850885232025
22,151.15,0.00021128398545556192
23,155.03,0.0002252658012857992
24,158.489319,0.00023942083239654704
25,159.0,0.0002413696692405175
26,161.95999999999998,0.00025229040814495854
27,166.11999999999998,0.0002715821087674161
28,169.98,0.0002887594939603696
29,173.14,0.0003033897098178134
30,177.18,0.0003216407642684693
31,180.06,0.0003368456723917092
32,181.970086,0.00034686756332770626
33,182.14000000000001,0.0003479364142018518
34,185.96,0.00037345446874854915
35,191.17,0.00040700701958318097
36,193.82,0.0004309777794126962
37,197.88,0.0004586512174911233
38,202.03,0.000490225624393949
39,204.83999999999997,0.000514346139911284
40,208.929613,0.0005278079110440324
41,210.09,0.0005331232796590036
42,215.98,0.0006116996568562762
43,219.99,0.0006538066321637574
44,223.04999999999998,0.0006773990756652268
45,227.20000000000002,0.0007247234830283307
46,229.83,0.001072489199501816
47,234.1,0.0017930472771983106
48,239.88329199999998,0.0022189149927820864
49,240.11,0.0022349712187845327
50,246.26999999999998,0.002154855040643271
51,252.01000000000002,0.002314778738284368
52,257.28000000000003,0.0019906798683485805
53,260.26,0.002289155892559464
54,263.88,0.002415163391768657
55,268.79,0.00243582312964632
56,273.78,0.002446125176898772
57,275.42287,0.0024510983070525705
58,278.87,0.0024705930101712893
59,284.06,0.0024999104180666483
60,290.01,0.0024147812305863763
61,296.08,0.002488364896467847
62,300.89,0.002489419602051022
63,307.90000000000003,0.0025490299525994745
64,316.227766,0.0026214553148743366
65,317.99,0.0026326379153048607
66,327.65000000000003,0.002640570423398135
67,338.38,0.002624024301435489
68,347.85999999999996,0.0026030837379493856
69,356.79,0.0025824699001929614
70,363.078055,0.002580284867707527
71,365.94,0.0025843556130463624
72,375.33,0.0025685884956402182
73,384.95,0.0024807008151879178
74,394.83,0.002538410846074744
75,404.96,0.0025349988301722696
76,414.39,0.002508946745279838
77,416.86938299999997,0.002496828924728643
78,422.09000000000003,0.002469693368720876
79,429.94,0.002441074376896406
80,440.96999999999997,0.0024195876074920865
81,451.23999999999995,0.002372196074238926
82,459.63,0.0023351914409386323
83,470.34,0.0022999727183348005
84,478.630092,0.0022830129286423844
85,480.19,0.002278143548931062
86,490.24,0.002204321910229896
87,500.51,0.0021838070028208445
88,506.3,0.0021381552945542027
89,512.16,0.0021909438644259613
90,520.49,0.0021527179628955426
91,530.16,0.0020914232428716354
92,540.02,0.0020094035635090986
93,549.5408739999999,0.001970739203558958
94,550.06,0.0019688447362652996
95,560.2900000000001,0.001971072620203996
96,569.39,0.0019692489705306956
97,579.97,0.0019077903294819573
98,589.4,0.0018933771276776472
99,600.36,0.0018141220023568372
100,610.11,0.0016247892348497295
101,620.03,0.001802280698063011
102,630.0999999999999,0.0017574473648531061
103,630.957344,0.0017559907924471713
104,640.3399999999999,0.0017444263472957517
105,650.7400000000001,0.0017170070376654333
106,658.28,0.0016782509381834524
107,664.37,0.0016945555886018525
108,675.1600000000001,0.001675527704860397
109,684.5600000000001,0.0016034636365406861
110,695.6800000000001,0.0016486541131667306
111,705.36,0.0015646500172800495
112,716.8199999999999,0.0016190235318604871
113,724.43596,0.0016052701577839185
114,726.79,0.0016007474007396249
115,735.21,0.0015883181570399553
116,745.43,0.0015763621367774108
117,755.8,0.00156450096846796
118,764.56,0.0014566265225286362
119,775.19,0.0015508849642712147
120,784.17,0.001522857034529762
121,795.0799999999999,0.0015309881332514488
122,804.28,0.0015291447197078665
123,815.4699999999999,0.0015179144754086619
124,824.92,0.0015322611484535694
125,831.763771,0.001425695326634734
126,834.4699999999999,0.0013822449734302133
127,844.13,0.0014971706735016899
128,855.87,0.001477547559509882
129,865.78,0.0014868232290449063
130,875.8100000000001,0.0014993870439224332
131,885.9499999999999,0.001515329325363921
132,894.15,0.00152232892376828
133,904.5,0.0014898614595591478
134,914.9699999999999,0.0019072481406925187
135,925.57,0.007532312645946933
136,934.13,0.015313146680378802
137,944.9499999999999,0.02817166311876114
138,954.992586,0.03897113016999356
139,955.89,0.03993643064396209
140,964.74,0.0430820760647967
141,975.91,0.007521464697646717
142,984.9399999999999,0.033691415669413555
143,994.05,0.03727494744159472
144,1005.5600000000001,0.05702382322620561
145,1014.8699999999999,0.05585713449942259
146,1024.26,0.024653591573053888
147,1036.12,0.037443678984477445
148,1045.71,0.07480013555914455
149,1055.38,0.07310276793422599
150,1065.15,0.05547110505982533
151,1075.0,0.06744462798583899
152,1084.95,0.05118128566237057
153,1094.99,0.07110903861436825
154,1096.4782,0.07066224780608707
155,1105.12,0.06806682065000486
156,1115.35,0.06440963986830775
157,1125.67,0.057013874299674895
158,1136.08,0.0753108539441063
159,1143.96,0.0675919592657316
160,1154.54,0.07275197097928436
161,1165.22,0.0746179562629085
162,1176.01,0.04954613347361117
163,1184.1599999999999,0.07208148443442922
164,1195.1100000000001,0.04688322535724611
165,1206.17,0.032229148207141525
166,1214.53,0.023470604665109484
167,1225.77,0.048300597941133394
168,1234.27,0.0756439413972013
169,1245.69,0.08331250509935371
170,1254.32,0.07847255719651441
171,1258.92541,0.07353789905160223
172,1265.93,0.06603377239008633
173,1274.7,0.0882474148806991
174,1283.54,0.09282738818936694
175,1295.4199999999998,0.07010658702499746
176,1304.4,0.06882606196977542
177,1316.46,0.08968103290897611
178,1325.5900000000001,0.0852516396067292
179,1334.7800000000002,0.07340746700567236
180,1344.03,0.09071817510580554
181,1356.4699999999998,0.08723722048587657
182,1365.87,0.0765155403389849
183,1375.34,0.0810446810101483
184,1384.87,0.08179581238250176
185,1394.4699999999998,0.07059337457291026
186,1404.14,0.07323858758137383
187,1413.8700000000001,0.07442852129102746
188,1423.6699999999998,0.07722140581873614
189,1433.5400000000002,0.0763412311644999
190,1443.48,0.0812313073283187
191,1445.43977,0.08223389425629302
192,1446.8,0.0829297635727984
193,1453.48,0.08012093909264481
194,1463.5600000000002,0.07290636796091607
195,1473.7,0.07273787741768892
196,1483.92,0.0746045976591306
197,1494.2,0.07634261848907391
198,1504.5600000000002,0.07173959010368602
199,1511.5,0.06263582817370611
200,1518.48,0.0677293666360606
201,1525.49,0.06603729539266591
202,1536.06,0.05673574906703368
203,1546.71,0.06513510352607027
204,1553.85,0.060509913557762404
205,1564.62,0.06093269919380222
206,1575.47,0.06665193561451085
207,1586.39,0.07092237272180471
208,1593.71,0.0734099445190017
209,1604.76,0.07141283290138237
210,1615.88,0.07108622197034828
211,1623.3400000000001,0.06573903514071569
212,1634.59,0.07108680548476842
213,1645.9199999999998,0.07374878661348998
214,1653.52,0.06528236115702782
215,1659.58691,0.0699469215356656
216,1664.98,0.07409374696305267
217,1672.67,0.06206214778712872
218,1676.52,0.07884341355730984
219,1684.26,0.08350863796281681
220,1695.94,0.07564604458508058
221,1703.76,0.07274253472087704
222,1715.57,0.0709274506548612
223,1723.49,0.0709279479535195
224,1735.44,0.07758413391551025
225,1743.45,0.07512534766074422
226,1755.53,0.08275256293445536
227,1763.6399999999999,0.07191753384255119
228,1775.86,0.07687674914426891
229,1784.0600000000002,0.0772325764989404
230,1796.43,0.0868499825449509
231,1804.72,0.08409789634619803
232,1813.05,0.07867305301258991
233,1825.6200000000001,0.07885384338432412
234,1834.0400000000002,0.07410581649729166
235,1846.75,0.06697158689703245
236,1855.28,0.06948138788914802
237,1863.84,0.07359460103012215
238,1876.76,0.07795589647187282
239,1885.4299999999998,0.07292418749199497
240,1894.1299999999999,0.07242343066097569
241,1902.8700000000001,0.07427965669510114
242,1905.46072,0.07407934528514434
243,1916.06,0.07325808363236003
244,1924.9099999999999,0.07142956651109758
245,1933.79,0.06774531661993254
246,1947.19,0.07759260939677808
247,1956.1799999999998,0.07393652934930356
248,1965.21,0.0821884756086256
249,1974.28,0.0827571281747442
250,1983.3999999999999,0.07921381612435847
251,1997.14,0.07687744750897475
252,2006.3600000000001,0.07687639622558042
253,2015.62,0.07410094124898263
254,2024.93,0.07547545165588054
255,2034.27,0.07495618929287587
256,2043.6599999999999,0.0797559923133669
257,2053.1,0.07547295071735362
258,2067.33,0.07460868686022766
259,2072.09,0.08274782736901758
260,2076.87,0.08370091603120576
261,2086.46,0.08624370058567955
262,2096.0899999999997,0.0810475914469499
263,2105.76,0.07866126861501681
264,2115.48,0.08012105116657939
265,2125.25,0.08123106910163767
266,2135.06,0.07206969334349252
267,2144.91,0.0784712838921439
268,2154.81,0.080856049824291
269,2164.76,0.07615631113993376
270,2174.75,0.0756369187623731
271,2184.79,0.07721507176830812
272,2187.7616199999998,0.07845209977980601
273,2194.87,0.0814123606752811
274,2205.0,0.0782886663859822
275,2215.18,0.07108048577738763
276,2225.41,0.06978365884949742
277,2235.68,0.07919823486617068
278,2246.0,0.07425761456354829
279,2256.37,0.06804285794163026
280,2266.7799999999997,0.0691489342642757
281,2277.2400000000002,0.07257387426762549
282,2282.4900000000002,0.07757764074158213
283,2293.03,0.07124939663405887
284,2303.61,0.0736139354710991
285,2314.25,0.06858809872498454
286,2324.93,0.05031275492343346
287,2335.66,0.059277754802586735
288,2346.44,0.053731968362444364
289,2357.27,0.06583370560300635
290,2362.7000000000003,0.05428348532749863
291,2373.6099999999997,0.05928045845718756
292,2384.57,0.049922825267580836
293,2395.5699999999997,0.0555322450225376
294,2406.6299999999997,0.053440079194339574
295,2417.74,0.0562519170468459
296,2423.31,0.06610367707731037
297,2434.5,0.06390441081894366
298,2445.73,0.06946708750514041
299,2457.02,0.0693610086081824
300,2462.69,0.06733603600005557
301,2474.06,0.0633261529922245
302,2485.47,0.06178786292895692
303,2496.95,0.05918812801867543
304,2502.7,0.07199275129967554
305,2511.88643,0.059339358627494884
306,2514.2599999999998,0.0560697599259234
307,2520.0499999999997,0.055193704965408555
308,2525.8599999999997,0.05309646943508192
309,2537.52,0.05666691723480505
310,2543.37,0.05681914056485482
311,2555.1099999999997,0.06818472608533077
312,2566.8999999999996,0.06252145018127724
313,2572.82,0.06968439151698572
314,2584.7,0.0675233930487791
315,2596.6299999999997,0.06483272315604299
316,2602.61,0.06109295278231609
317,2614.6200000000003,0.058656050610332806
318,2626.69,0.06691932672891412
319,2632.75,0.07756245407594005
320,2644.9,0.09245337791527418
321,2657.1099999999997,0.10500273004517294
322,2663.2299999999996,0.08192788568276346
323,2675.5299999999997,0.08947980524850913
324,2687.88,0.09311784338972531
325,2694.07,0.08151510703297456
326,2706.5099999999998,0.08985106261003767
327,2712.75,0.07775200482875741
328,2725.27,0.07414186812657335
329,2737.85,0.08229168971495388
330,2744.16,0.061043689939332346
331,2756.83,0.06743982896355981
332,2763.1800000000003,0.07499806804831469
333,2775.94,0.08041220450838905
334,2782.33,0.06585437245352034
335,2795.18,0.043263286349441626
336,2808.08,0.04846018882083344
337,2814.55,0.07732614448671753
338,2827.54,0.09238620439395626
339,2834.06,0.08887765863531089
340,2847.1400000000003,0.08001609597839653
341,2853.71,0.06908402879522164
342,2866.88,0.09217617357415421
343,2873.4900000000002,0.10180446525135574
344,2884.0315,0.09875952373266027
345,2886.75,0.09797435333273771
346,2893.3999999999996,0.10405495945534653
347,2906.7599999999998,0.12751985166558022
348,2926.91,0.11670623991679348
349,2947.2,0.11210372808637743
350,2967.63,0.1172594161743321
351,2988.2,0.11875990418065749
352,3008.9100000000003,0.12055379210535358
353,3029.77,0.12408407994258971
354,3050.77,0.12625576769819657
355,3071.92,0.13328395536634347
356,3093.21,0.1337522429528611
357,3107.49,0.14310433462667374
358,3129.0299999999997,0.13715352206742476
359,3150.7200000000003,0.13891910942071586
360,3172.56,0.14564739668654697
361,3187.2,0.13052598815045577
362,3209.2900000000004,0.1413275752705203
363,3231.54,0.12583856229729423
364,3246.46,0.15529265359794445
365,3268.96,0.17286384047895179
366,3291.62,0.1707147272666685
367,3306.81,0.1658242184098908
368,3311.31121,0.16497429530740512
369,3322.0699999999997,0.1629426958681033
370,3329.73,0.17588101048987848
371,3337.4100000000003,0.16726772488873404
372,3345.1,0.16773113917612978
373,3352.81,0.15732975324060583
374,3360.5400000000004,0.17218126708216225
375,3368.29,0.17186428070079904
376,3376.0499999999997,0.145010394207976
377,3383.84,0.14540980738077347
378,3391.6400000000003,0.17488712044211113
379,3399.46,0.17903843328052915
380,3407.29,0.16988464600748734
381,3415.15,0.16801655840006605
382,3423.02,0.19077697068118493
383,3430.91,0.1785368827393842
384,3438.82,0.1811030945746638
385,3446.75,0.13651440618702376
386,3454.69,0.1771431176879239
387,3462.6600000000003,0.15189582885444455
388,3470.64,0.1693249399095054
389,3478.64,0.14386335074164658
390,3486.66,0.16297896135086812
391,3494.6899999999996,0.15287747184862985
392,3502.75,0.1813508820120121
393,3510.83,0.1797702919524747
394,3518.9199999999996,0.16592920178147746
395,3527.0299999999997,0.15564631138756063
396,3535.16,0.17877802077072408
397,3543.31,0.19747052993096792
398,3551.48,0.19440193886829213
399,3559.6699999999996,0.18617214758269668
400,3567.8700000000003,0.1758450561856414
401,3576.1,0.15607946445420665
402,3584.3399999999997,0.13383377261131207
403,3592.6000000000004,0.15057478054549783
404,3600.89,0.19766188814530414
405,3609.19,0.16988199563365064
406,3617.5099999999998,0.18295090289907748
407,3625.85,0.18947110994158467
408,3633.65,0.16899682300292235
409,3636.4,0.16987069235147087
410,3639.15,0.1825784617000194
411,3641.89,0.18969183116002775
412,3644.6400000000003,0.1913554005085763
413,3647.39,0.19414136985712482
414,3650.1299999999997,0.18684313931713317
415,3652.88,0.2019989086656817
416,3655.62,0.19506157812569008
417,3658.3700000000003,0.2104937474742386
418,3661.12,0.20181251682278714
419,3663.8599999999997,0.21578478628279552
420,3666.61,0.21958045563134404
421,3669.3599999999997,0.2108145249798926
422,3672.1,0.21218029443990094
423,3674.85,0.2117905637884495
424,3677.59,0.19924103324845782
425,3680.3399999999997,0.19429380259700638
426,3683.09,0.20108457194555487
427,3685.83,0.20322304140556327
428,3688.5800000000004,0.18505431075411177
429,3691.33,0.20092078010266032
430,3694.0699999999997,0.20922434956266867
431,3696.82,0.21358971891121722
432,3699.56,0.21448728837122558
433,3702.31,0.2208493577197741
434,3705.06,0.21746452706832264
435,3707.8,0.187485596528331
436,3710.55,0.18678016587687954
437,3713.2999999999997,0.1965717352254281
438,3716.04,0.22368650468543644
439,3718.79,0.20721567403398497
440,3721.54,0.2123706433825335
441,3724.2799999999997,0.21986761284254186
442,3727.03,0.23281788219109037
443,3729.77,0.26617125165109873
444,3732.5199999999995,0.26402732099964726
445,3735.27,0.2291230903481958
446,3738.0099999999998,0.19951645980820415
447,3740.76,0.1720917291567527
448,3743.5099999999998,0.18976309850530124
449,3746.25,0.18142136796530958
450,3749.0,0.17362003731385814
451,3751.7400000000002,0.17008960677386648
452,3754.49,0.18950407612241502
453,3757.2400000000002,0.20227944547096358
454,3759.98,0.20716491493097192
455,3762.73,0.21234808427952045
456,3765.48,0.213244453628069
457,3768.22,0.21185762308807735
458,3770.9700000000003,0.2085517924366259
459,3773.71,0.22012686189663425
460,3776.46,0.24022933124518278
461,3779.21,0.2474375005937313
462,3781.95,0.26040027005373967
463,3784.7,0.2616294394022882
464,3787.45,0.2581542087508367
465,3790.19,0.2511663782108451
466,3792.94,0.22395584755939363
467,3795.6800000000003,0.21051511701940198
468,3798.43,0.1991432863679505
469,3801.1800000000003,0.20011875571649906
470,3801.8939600000003,0.19919148569447978
471,3803.92,0.19656012988177896
472,3806.6699999999996,0.2237246056169224
473,3809.42,0.23541698135206587
474,3812.16,0.24713885717544515
475,3814.9100000000003,0.24324073291058862
476,3817.65,0.2308999087339679
477,3820.4,0.21582788446911133
478,3823.15,0.2006487602042548
479,3825.8900000000003,0.1959846360276341
480,3828.64,0.19097541176277755
481,3831.39,0.17383908749792099
482,3834.13,0.16801856332130027
483,3836.8799999999997,0.16275553905644374
484,3839.6200000000003,0.16592041487982304
485,3842.37,0.17292559061496648
486,3845.1200000000003,0.19231746635010993
487,3847.86,0.2134927421734892
488,3850.6099999999997,0.22454781790863268
489,3853.36,0.22680349364377614
490,3856.1,0.22334096946715543
491,3858.85,0.22386504520229886
492,3861.5899999999997,0.21552902102567817
493,3864.34,0.2270183967608216
494,3867.09,0.2303740724959651
495,3869.8300000000004,0.23994684831934435
496,3872.58,0.2405498240544878
497,3875.3300000000004,0.22940929978963126
498,3878.07,0.22231977561301056
499,3880.8199999999997,0.22579955134815402
500,3883.56,0.2195787271715333
501,3886.31,0.20763160290667673
502,3889.06,0.2056569786418202
503,3891.8,0.2113094544651995
504,3894.55,0.21971343020034292
505,3897.3,0.2322858059354864
506,3900.04,0.2530550817588657
507,3902.79,0.25576205749400915
508,3905.5299999999997,0.25473063331738843
509,3908.28,0.26592660905253185
510,3911.0299999999997,0.26510818478767534
511,3913.7699999999995,0.28470996061105464
512,3916.52,0.2804508363461981
513,3919.2700000000004,0.2779684120813415
514,3922.01,0.2597727879047208
515,3924.7599999999998,0.2500084636398643
516,3927.5,0.22704083946324355
517,3930.25,0.20284801519838702
518,3933.0,0.17428389093353044
519,3935.74,0.16085426675690975
520,3938.4900000000002,0.1734154424920532
521,3941.24,0.19116021822719667
522,3943.9800000000005,0.21121869405057594
523,3946.73,0.2367078697857194
524,3949.47,0.25359644560909866
525,3952.2200000000003,0.2662195213442421
526,3954.97,0.2666814970793856
527,3957.71,0.2699031729027649
528,3960.46,0.2557278486379083
529,3963.2099999999996,0.2263345243730518
530,3965.95,0.1906417001964311
531,3968.7,0.16713147593157454
532,3971.44,0.15741895175495382
533,3974.19,0.17061192749009726
534,3976.94,0.20432510322524072
535,3979.68,0.24063967904862002
536,3982.4300000000003,0.2689830547837635
537,3985.18,0.2875060305189069
538,3987.9199999999996,0.3029000063422862
539,3990.67,0.3076600820774296
540,3993.4199999999996,0.3147947578125731
541,3996.1600000000003,0.3203065336359524
542,3998.91,0.3270915093710959
543,4001.65,0.32840678519447514
544,4004.4,0.33263646092961857
545,4007.15,0.33774053666476206
546,4009.89,0.34219201248814135
547,4012.64,0.3443290882232848
548,4015.39,0.35229856395842823
549,4018.1299999999997,0.3550240397818075
550,4020.88,0.353624515516951
551,4023.62,0.3517245913403303
552,4026.3700000000003,0.3493943670754737
553,4029.12,0.3483333428106172
554,4031.8599999999997,0.33905561863399647
555,4034.61,0.33421539436913994
556,4037.3599999999997,0.33855237010428335
557,4040.1,0.3433083459276627
558,4042.85,0.3486267216628061
559,4045.59,0.3443916974861854
560,4048.34,0.32940407322132886
561,4051.09,0.3306782489564723
562,4053.83,0.3338210247798516
563,4056.5800000000004,0.338423100514995
564,4059.33,0.3359292762501385
565,4062.0699999999997,0.3264541520735178
566,4064.82,0.32820772780866125
567,4067.56,0.32450290363204054
568,4070.31,0.32846757936718396
569,4073.06,0.3304862551023275
570,4075.8,0.3357950309257068
