,lambda (Angstroms),Total Flux (erg/s/cm^2/Angstrom)
0,100.05999999999999,1.949822e-06
1,101.92,2.570629e-06
2,104.05,3.104911e-06
3,104.712855,3.3490005201933e-06
4,105.99000000000001,3.819296e-06
5,107.96,4.79726e-06
6,109.97,6.776534e-06
7,114.09,9.506802e-06
8,118.1,1.259108e-05
9,120.22644299999999,3.5984135586709394e-05
10,121.13000000000001,4.592419e-05
11,125.10000000000001,5.649465e-05
12,127.13000000000001,6.095596e-05
13,128.01,6.427861e-05
14,131.0,7.079148e-05
15,131.9,8.337228e-05
16,134.05,8.831484e-05
17,136.85,0.0001111799
18,138.038426,0.00011465416468595607
19,140.04000000000002,0.0001205056
20,142.97,0.0003388857
21,146.98,0.0008492193
22,151.1,0.0009016514
23,154.97,0.0009684183
24,158.489319,0.0010338296185704273
25,158.95,0.001042392
26,161.9,0.001096529
27,166.06,0.001185727
28,169.92,0.001256201
29,173.08,0.001318405
30,177.11999999999998,0.001393214
31,179.99,0.001448938
32,181.970086,0.001487355458038278
33,182.07999999999998,0.001489488
34,185.89000000000001,0.00156694
35,191.1,0.001667425
36,194.2,0.001741901
37,197.81,0.001815663
38,201.95999999999998,0.001905477
39,204.76999999999998,0.001967979
40,208.929613,0.0019787084246182854
41,210.02,0.001981521
42,215.9,0.002192923
43,219.92000000000002,0.00229087
44,222.98,0.002322799
45,227.12,0.002432219
46,229.75,0.003681429
47,234.01999999999998,0.0062377
48,239.88329199999998,0.007538785993537333
49,240.01999999999998,0.007569122
50,246.18,0.007128989
51,251.92,0.007481986
52,257.19,0.006310273
53,260.16999999999996,0.007195148
54,263.79,0.007482123
55,268.69,0.007430604
56,273.69,0.007345517
57,275.42287,0.007316883110591356
58,278.78,0.00726141
59,283.96000000000004,0.007211405
60,289.90999999999997,0.006792238
61,295.98,0.006839466
62,300.79,0.006714725
63,307.79,0.006699388
64,316.227766,0.006686460974172818
65,317.87,0.006683945
66,328.28999999999996,0.006531686
67,338.26,0.006339478
68,347.74,0.006138027
69,356.66,0.005998404
70,363.078055,0.005912030306808743
71,365.81,0.005875264
72,375.18999999999994,0.005702028
73,384.82000000000005,0.005370721
74,394.69,0.005358308
75,404.81000000000006,0.005236373
76,414.24,0.005070395
77,416.86938299999997,0.005015437825981324
78,421.95000000000005,0.004909247
79,429.79,0.004775679
80,440.81,0.004634895
81,451.08000000000004,0.004446707
82,460.53,0.004305508
83,470.17,0.004168913
84,478.630092,0.004071319611808732
85,480.02000000000004,0.004055286
86,490.07,0.003872837
87,500.33,0.003784595
88,506.11999999999995,0.003690045
89,511.98,0.003741385
90,520.3,0.003647829
91,529.98,0.003499666
92,539.83,0.003326793
93,549.5408739999999,0.0032175708151816742
94,549.87,0.003213869
95,560.09,0.003184306
96,570.5,0.003133574
97,579.77,0.002999304
98,590.5500000000001,0.002944695
99,600.15,0.002799143
100,609.9,0.002466102
101,619.8100000000001,0.002704077
102,629.88,0.002606285
103,630.957344,0.0026012862502146623
104,640.11,0.002558819
105,650.51,0.002483285
106,658.0500000000001,0.002398982
107,665.67,0.002393411
108,674.93,0.002338899
109,684.32,0.002218285
110,695.43,0.002228598
111,705.11,0.002103976
112,716.5699999999999,0.002128209
113,724.43596,0.0020863132859397586
114,726.53,0.00207516
115,734.95,0.002037109
116,745.17,0.001990761
117,755.54,0.001945498
118,764.29,0.001778305
119,774.9200000000001,0.001870846
120,785.7,0.001807303
121,794.8,0.001794853
122,805.85,0.001770225
123,815.1899999999999,0.001737886
124,824.6199999999999,0.001721948
125,831.763771,0.0016032035652030368
126,834.1700000000001,0.001563207
127,845.78,0.001648265
128,855.5699999999999,0.001614434
129,865.48,0.0016033
130,875.5,0.001596018
131,885.64,0.001585023
132,895.89,0.001570493
133,904.18,0.001531223
134,914.6500000000001,0.001918802
135,925.2399999999999,0.005834871
136,935.96,0.01111795
137,944.62,0.01945495
138,954.992586,0.02629547135885917
139,955.5600000000001,0.02666967
140,964.4,0.02951365
141,975.57,0.006152063
142,984.59,0.02449281
143,995.9899999999999,0.02576499
144,1005.21,0.03706948
145,1014.51,0.03556502
146,1023.9,0.01574044
147,1035.75,0.02488988
148,1045.34,0.04645416
149,1055.01,0.04529222
150,1064.77,0.0354835
151,1074.6200000000001,0.04197971
152,1084.57,0.03273547
153,1094.6,0.04355431
154,1096.4782,0.04317314849990127
155,1104.73,0.04149853
156,1114.95,0.03953979
157,1125.27,0.03523981
158,1135.68,0.04467168
159,1146.19,0.04036739
160,1154.13,0.04266066
161,1164.81,0.04375538
162,1175.59,0.02999332
163,1183.74,0.04178489
164,1194.69,0.02857733
165,1205.75,0.02046565
166,1214.1100000000001,0.01380467
167,1225.3400000000001,0.02779914
168,1233.8300000000002,0.04188255
169,1245.25,0.04592218
170,1253.8799999999999,0.0435542
171,1258.92541,0.040733776664577524
172,1265.48,0.03706971
173,1274.2600000000002,0.04797595
174,1286.05,0.05012176
175,1294.96,0.0391769
176,1303.94,0.03837281
177,1316.0,0.04819812
178,1325.12,0.04581644
179,1334.31,0.040182
180,1343.56,0.04797605
181,1355.99,0.04613451
182,1365.3899999999999,0.0408341
183,1374.85,0.04285709
184,1384.38,0.04305562
185,1393.98,0.03715553
186,1403.6399999999999,0.03846183
187,1416.63,0.03917692
188,1426.45,0.04008916
189,1436.3400000000001,0.03963093
190,1442.97,0.04178475
191,1445.43977,0.0422183210991265
192,1446.29,0.04236758
193,1456.3200000000002,0.04102279
194,1466.4099999999999,0.0374995
195,1476.5800000000002,0.03724107
196,1483.3899999999999,0.03784649
197,1493.68,0.03837319
198,1504.0300000000002,0.03606044
199,1510.97,0.03191773
200,1517.95,0.03420005
201,1524.9499999999998,0.03296287
202,1535.52,0.0284459
203,1546.17,0.0313352
204,1553.3,0.02937805
205,1564.07,0.02978764
206,1574.9099999999999,0.03169798
207,1585.83,0.03319107
208,1596.82,0.03373093
209,1604.19,0.03296291
210,1615.3100000000002,0.03288705
211,1626.51,0.03090538
212,1634.02,0.03281117
213,1645.3400000000001,0.03326818
214,1656.75,0.03040996
215,1659.58691,0.03147133195006543
216,1664.39,0.03326831
217,1672.08,0.02937778
218,1675.9299999999998,0.03334515
219,1683.6699999999998,0.03475553
220,1695.34,0.03236163
221,1703.1599999999999,0.03090581
222,1714.97,0.02924384
223,1726.8600000000001,0.0289752
224,1734.83,0.03083417
225,1746.8500000000001,0.02999338
226,1754.92,0.03199047
227,1763.0199999999998,0.02904244
228,1775.2399999999998,0.02978766
229,1783.43,0.03020189
230,1795.79,0.03236184
231,1804.0800000000002,0.0318435
232,1816.59,0.02931098
233,1824.97,0.02978767
234,1833.4,0.02844563
235,1846.1,0.02594336
236,1854.6299999999999,0.02606315
237,1863.19,0.02691672
238,1876.1,0.02897551
239,1884.76,0.02666984
240,1893.4599999999998,0.02564641
241,1905.46072,0.026865017765544567
242,1906.59,0.02697969
243,1915.3899999999999,0.02594312
244,1924.23,0.02529512
245,1933.1100000000001,0.02564642
246,1946.51,0.02716668
247,1955.49,0.02541087
248,1969.05,0.02786331
249,1978.1399999999999,0.02838162
250,1982.7,0.02697952
251,1996.4399999999998,0.0261231
252,2005.6599999999999,0.02673106
253,2014.91,0.02576493
254,2024.2099999999998,0.0266087
255,2033.5600000000002,0.02552925
256,2042.94,0.02660855
257,2057.1,0.02535236
258,2066.6,0.02529505
259,2076.14,0.02716664
260,2085.7200000000003,0.02971918
261,2095.35,0.02786337
262,2105.02,0.02773491
263,2114.74,0.0284456
264,2124.5,0.02818581
265,2134.3,0.02612323
266,2144.16,0.02792745
267,2154.05,0.02864435
268,2163.9900000000002,0.02710399
269,2173.98,0.02685559
270,2184.02,0.02786345
271,2187.7616199999998,0.028177675553432525
272,2194.1,0.02870998
273,2204.23,0.02786317
274,2214.4,0.02523666
275,2224.62,0.02535226
276,2234.89,0.02870988
277,2245.21,0.02729084
278,2255.57,0.02466122
279,2265.98,0.02454862
280,2276.44,0.02564638
281,2286.9500000000003,0.02831589
282,2297.5,0.02565506
283,2302.8,0.02718111
284,2313.43,0.02491692
285,2324.11,0.01966481
286,2334.84,0.02157341
287,2345.61,0.01950498
288,2356.44,0.02378764
289,2367.32,0.01970472
290,2372.77,0.0212652
291,2383.73,0.01823439
292,2394.73,0.0199574
293,2405.7799999999997,0.01924655
294,2416.89,0.02025577
295,2422.46,0.02441566
296,2433.64,0.02387186
297,2444.87,0.02643159
298,2456.16,0.02681264
299,2467.5,0.02497952
300,2473.1800000000003,0.02331798
301,2484.6,0.02064991
302,2496.07,0.02085252
303,2507.59,0.02590477
304,2511.88643,0.020731600682283663
305,2513.37,0.01894529
306,2519.16,0.01851855
307,2524.9700000000003,0.01814305
308,2536.62,0.02074699
309,2542.47,0.02089683
310,2554.21,0.02807452
311,2566.0,0.02401742
312,2577.84,0.02771916
313,2583.7900000000004,0.02599457
314,2595.71,0.0246113
315,2607.6899999999996,0.02271837
316,2613.7,0.02170204
317,2625.77,0.0251609
318,2637.89,0.03419459
319,2643.97,0.04227481
320,2656.17,0.05386819
321,2662.3,0.03753658
322,2674.58,0.041658
323,2686.9300000000003,0.04612488
324,2693.12,0.03664878
325,2705.5600000000004,0.04278563
326,2718.04,0.03392782
327,2724.31,0.02935517
328,2736.8799999999997,0.03458864
329,2743.1899999999996,0.02382626
330,2755.8500000000004,0.02820318
331,2762.21,0.03368352
332,2774.96,0.03561784
333,2787.77,0.02605738
334,2794.1899999999996,0.01675112
335,2807.0899999999997,0.01871971
336,2813.56,0.03276709
337,2826.5499999999997,0.04282428
338,2833.06,0.04081579
339,2846.14,0.03251439
340,2852.7000000000003,0.02388906
341,2865.87,0.04144387
342,2872.48,0.05231032
343,2884.0315,0.0486116604716981
344,2885.73,0.04806782
345,2892.3900000000003,0.05662157
346,2912.44,0.0736838
347,2932.6200000000003,0.06512879
348,2952.95,0.06083744
349,2973.42,0.06361682
350,2987.15,0.0643932
351,3007.8500000000004,0.06489884
352,3028.7,0.06865078
353,3049.69,0.07096753
354,3070.83,0.0768194
355,3092.12,0.07548862
356,3113.5499999999997,0.08615851
357,3127.92,0.08027415
358,3149.61,0.08053787
359,3171.4399999999996,0.08778577
360,3193.42,0.0763567
361,3208.16,0.08416558
362,3230.4,0.07154154
363,3252.79,0.09817296
364,3267.81,0.1135744
365,3290.46,0.1113579
366,3311.31121,0.1055389406674266
367,3313.27,0.1049923
368,3320.9,0.1005325
369,3328.56,0.1092578
370,3336.23,0.1108158
371,3343.92,0.103932
372,3351.63,0.103014
373,3359.36,0.1140356
374,3367.1,0.1079433
375,3374.86,0.07840383
376,3382.64,0.09151461
377,3390.44,0.1108253
378,3398.26,0.1073462
379,3406.09,0.1109022
380,3413.9399999999996,0.1084159
381,3421.81,0.1154095
382,3429.7,0.1092423
383,3437.6099999999997,0.1113121
384,3445.53,0.07323154
385,3453.4700000000003,0.1169086
386,3461.44,0.09571845
387,3469.4199999999996,0.1037884
388,3477.4100000000003,0.09042816
389,3485.43,0.1033847
390,3493.4700000000003,0.09196256
391,3501.52,0.1053816
392,3509.59,0.1158561
393,3517.6800000000003,0.09662087
394,3525.79,0.09845229
395,3533.9199999999996,0.1181354
396,3542.0600000000004,0.1283916
397,3550.2299999999996,0.1255134
398,3558.4100000000003,0.1161048
399,3566.62,0.1199498
400,3574.84,0.08813681
401,3583.08,0.08556846
402,3591.34,0.08174716
403,3599.62,0.126657
404,3607.92,0.1046622
405,3616.2300000000005,0.1132266
406,3624.5699999999997,0.1117131
407,3632.92,0.1371715
408,3641.3,0.137855
409,3649.69,0.1139144
410,3658.11,0.1485098
411,3666.54,0.1488958
412,3674.9900000000002,0.1475971
413,3683.46,0.1239434
414,3691.95,0.1192299
415,3700.46,0.147754
416,3709.0,0.1056103
417,3717.55,0.1613866
418,3726.12,0.09506631
419,3734.7000000000003,0.1197265
420,3743.32,0.1331533
421,3751.94,0.07861666
422,3760.5899999999997,0.1218091
423,3769.2599999999998,0.1193554
424,3777.95,0.1438851
425,3786.66,0.1675538
426,3795.3900000000003,0.1271554
427,3801.8939600000003,0.1178840979337138
428,3804.14,0.1146824
429,3812.91,0.1505376
430,3821.7000000000003,0.1169036
431,3830.5099999999998,0.08810405
432,3839.34,0.07909727
433,3848.19,0.1277405
434,3857.06,0.133197
435,3865.9500000000003,0.133248
436,3874.86,0.1096048
437,3883.8,0.1180314
438,3892.75,0.1081842
439,3901.7200000000003,0.1497383
440,3910.72,0.1522361
441,3919.73,0.1658269
442,3928.77,0.1383057
443,3937.82,0.0530902
444,3946.8999999999996,0.1262346
445,3956.0,0.165713
446,3965.12,0.1257533
447,3976.5499999999997,0.1415882
448,3979.29,0.0960714
449,3982.0299999999997,0.1268141
450,3984.7700000000004,0.1325086
451,3987.51,0.2077116
452,3990.25,0.155905
453,3992.9900000000002,0.1836426
454,3995.73,0.1886818
455,3998.4599999999996,0.1810879
456,4001.2,0.1960345
457,4003.94,0.1894105
458,4006.6800000000003,0.279062
459,4009.42,0.1693958
460,4012.1600000000003,0.2390326
461,4014.9,0.1839854
462,4017.6400000000003,0.1337619
463,4020.38,0.1652126
464,4023.12,0.2157485
465,4025.8500000000004,0.2469277
466,4028.59,0.178975
467,4031.3300000000004,0.2534514
468,4034.07,0.267313
469,4036.81,0.2580194
470,4039.55,0.2647717
471,4042.29,0.2711671
472,4045.03,0.1905378
473,4047.77,0.1988319
474,4050.5,0.1830295
475,4053.2400000000002,0.1718658
476,4055.98,0.1970909
477,4058.7200000000003,0.1993035
478,4061.46,0.1806165
479,4064.2,0.2271981
480,4066.94,0.2367342
481,4069.68,0.1942781
482,4072.42,0.2940224
483,4075.16,0.2796037
484,4077.8900000000003,0.2095681
485,4080.63,0.1956063
486,4083.37,0.2267273
487,4086.11,0.199275
488,4088.85,0.2573485
489,4091.59,0.1838855
490,4094.33,0.2090821
491,4097.07,0.192408
492,4099.8099999999995,0.2027863
493,4102.55,0.1562617
494,4105.28,0.1989755
495,4108.02,0.1868267
496,4110.76,0.2047141
497,4113.5,0.21662
498,4116.24,0.2499108
499,4118.98,0.2123085
500,4121.72,0.2085396
501,4124.46,0.2300387
502,4127.2,0.18527
503,4129.9400000000005,0.1816867
504,4132.67,0.1922658
505,4135.41,0.1795603
506,4138.15,0.2276124
507,4140.889999999999,0.2265986
508,4143.63,0.1975189
509,4146.37,0.2481405
510,4149.11,0.2309239
511,4151.85,0.2299387
512,4154.59,0.2336218
513,4157.32,0.2722958
514,4160.0599999999995,0.2416028
515,4162.8,0.1667693
516,4165.54,0.1822012
517,4168.28,0.2226729
518,4171.0199999999995,0.2470271
519,4173.76,0.2112378
520,4176.5,0.2648858
521,4179.24,0.2702818
522,4181.9800000000005,0.2502387
523,4184.71,0.2323665
524,4187.45,0.2825741
525,4190.19,0.279362
526,4192.93,0.232723
527,4195.67,0.194721
528,4198.41,0.2563777
529,4201.150000000001,0.286585
530,4203.89,0.2219301
531,4206.63,0.1492239
532,4209.37,0.1860408
533,4212.099999999999,0.2406464
534,4214.84,0.2349788
535,4217.58,0.2250999
536,4220.320000000001,0.2414598
537,4223.06,0.2655571
538,4225.8,0.2574912
539,4228.54,0.1982325
540,4231.28,0.1785891
541,4234.02,0.2107236
542,4236.76,0.2073116
543,4239.49,0.2039862
544,4242.2300000000005,0.2166915
545,4244.97,0.2503393
546,4247.71,0.2344646
547,4250.45,0.2224015
548,4253.19,0.2317377
549,4255.93,0.1709374
550,4258.67,0.2332936
551,4261.41,0.2558062
552,4264.15,0.2368052
553,4266.88,0.2224019
554,4269.62,0.2290115
555,4272.36,0.2409745
556,4275.1,0.2193609
557,4277.84,0.2171338
558,4280.58,0.2316949
559,4283.32,0.2079686
560,4286.0599999999995,0.2115659
561,4288.8,0.1992316
562,4291.53,0.167626
563,4294.27,0.1980475
564,4297.01,0.2349502
565,4299.75,0.1817872
566,4302.49,0.1765479
567,4305.23,0.1826579
568,4307.97,0.1965623
569,4310.71,0.2102812
570,4313.45,0.2367482
571,4316.19,0.2349494
572,4318.92,0.2459142
573,4321.66,0.2567065
574,4324.4,0.2895692
575,4327.14,0.2625165
576,4329.88,0.2439865
577,4332.62,0.2650002
578,4335.36,0.273123
579,4338.099999999999,0.2693398
580,4340.84,0.2218587
581,4343.58,0.2132931
582,4346.3099999999995,0.1799316
583,4349.05,0.2216881
584,4351.79,0.2202176
585,4354.53,0.2233724
586,4357.2699999999995,0.2302675
587,4360.01,0.2867993
588,4362.75,0.2605746
589,4365.15832,0.24427510781897988
590,4365.49,0.2420303
591,4368.2300000000005,0.2239001
592,4370.97,0.3083407
593,4373.7,0.256264
594,4376.44,0.2211741
595,4379.179999999999,0.2643724
596,4381.92,0.2107384
597,4384.66,0.2264844
598,4387.400000000001,0.2598324
599,4390.14,0.2386471
600,4392.88,0.2481689
601,4395.62,0.2156344
602,4398.36,0.2914668
603,4401.09,0.2472846
604,4403.83,0.2652862
605,4406.570000000001,0.2308387
606,4409.31,0.3173495
607,4412.05,0.2581622
608,4414.79,0.2683407
609,4417.53,0.2787904
610,4420.27,0.19562
611,4423.01,0.1934072
612,4425.75,0.271124
613,4428.4800000000005,0.2158065
614,4431.22,0.2918247
615,4433.96,0.2608748
616,4436.7,0.2719526
617,4439.44,0.2633585
618,4442.18,0.2366057
619,4444.92,0.3082269
620,4447.66,0.2870273
621,4450.4,0.2929659
622,4453.13,0.2257711
623,4455.87,0.2516243
624,4458.61,0.2203889
625,4461.35,0.2552073
626,4464.09,0.214707
627,4466.83,0.2757356
628,4469.57,0.2444717
629,4472.3099999999995,0.2489827
630,4475.05,0.2866418
631,4477.79,0.2885546
632,4480.52,0.2766212
633,4483.26,0.2706682
634,4486.0,0.3154225
635,4488.74,0.2489688
636,4491.48,0.3536526
637,4494.22,0.2738226
638,4496.96,0.3086553
639,4499.7,0.277791
640,4502.44,0.2990331
641,4505.179999999999,0.3318385
642,4507.91,0.3141379
643,4510.65,0.3754093
644,4513.39,0.3010039
645,4516.13,0.3307402
646,4518.87,0.3573214
647,4521.61,0.2615455
648,4524.349999999999,0.3348796
649,4527.09,0.296792
650,4529.83,0.1919082
651,4532.570000000001,0.2831584
652,4535.3,0.3158796
653,4538.04,0.2656431
654,4540.78,0.2817745
655,4543.5199999999995,0.3089125
656,4546.259999999999,0.2529659
657,4549.0,0.2459706
658,4551.74,0.3296833
659,4554.4800000000005,0.2502817
660,4557.22,0.2316518
661,4559.96,0.2972199
662,4562.69,0.3602914
663,4565.429999999999,0.3410189
664,4568.17,0.3246445
665,4570.91,0.3917403
666,4573.650000000001,0.360462
667,4576.39,0.3048151
668,4579.13,0.2905393
669,4581.87,0.2296247
670,4584.61,0.2515521
671,4587.34,0.2392474
672,4590.08,0.2862573
673,4592.820000000001,0.2917819
674,4595.56,0.2515384
675,4598.3,0.2573914
676,4601.04,0.3128525
677,4603.78,0.2789618
678,4606.52,0.3435021
679,4609.26,0.2971345
680,4612.0,0.2616307
681,4614.7300000000005,0.3161509
682,4617.47,0.3097979
683,4620.21,0.3471717
684,4622.95,0.2753932
685,4625.6900000000005,0.304801
686,4628.43,0.314851
687,4631.17,0.2865993
688,4633.91,0.3030019
689,4636.65,0.3550082
690,4639.39,0.2973342
691,4642.12,0.2868712
692,4644.86,0.3231601
693,4647.6,0.3041732
694,4650.34,0.309298
695,4653.08,0.2789191
696,4655.82,0.3309683
697,4658.5599999999995,0.3275705
698,4661.3,0.2634725
699,4664.04,0.3112246
700,4666.78,0.3065706
701,4669.51,0.2717247
702,4672.25,0.2974209
703,4674.99,0.2845297
704,4677.73,0.2832591
705,4680.47,0.2412312
706,4683.21,0.2733515
707,4685.95,0.2890832
708,4688.69,0.3045008
709,4691.429999999999,0.2682547
710,4694.17,0.3089688
711,4696.9,0.3051441
712,4699.64,0.3544809
713,4702.38,0.2600183
714,4705.12,0.263844
715,4707.86,0.3133664
716,4710.599999999999,0.3270424
717,4713.34,0.3396621
718,4716.08,0.3518533
719,4718.820000000001,0.3555078
720,4721.55,0.3294416
721,4724.29,0.3083562
722,4727.03,0.3261721
723,4729.7699999999995,0.3144231
724,4732.51,0.3118105
725,4735.25,0.2908678
726,4737.990000000001,0.2776912
727,4740.7300000000005,0.2619165
728,4743.47,0.3027306
729,4746.21,0.2507955
730,4748.94,0.2667995
731,4751.679999999999,0.2813036
732,4754.42,0.2778916
733,4757.16,0.3121104
734,4759.900000000001,0.3308686
735,4762.64,0.3265714
736,4765.38,0.2969349
737,4768.12,0.3193619
738,4770.86,0.3355932
739,4773.6,0.3240298
740,4776.33,0.3206762
741,4779.070000000001,0.3158794
742,4781.81,0.3094123
743,4784.55,0.2941087
744,4787.29,0.3007324
745,4790.03,0.2990336
746,4792.77,0.323245
747,4795.51,0.3227024
748,4798.25,0.3365354
749,4800.99,0.3233445
750,4803.72,0.3055724
751,4806.46,0.3222606
752,4809.2,0.3451445
753,4811.9400000000005,0.3312969
754,4814.68,0.3364503
755,4817.42,0.3388485
756,4820.16,0.322988
757,4822.9,0.3053716
758,4825.64,0.2908388
759,4828.38,0.3152502
760,4831.11,0.3275428
761,4833.85,0.3259866
762,4836.59,0.3039304
763,4839.33,0.2995334
764,4842.07,0.2940942
765,4844.81,0.283787
766,4847.55,0.306471
767,4850.29,0.3201613
768,4853.03,0.3089405
769,4855.7699999999995,0.2875125
770,4858.5,0.282203
771,4861.24,0.3048013
772,4863.98,0.316179
773,4866.72,0.3184201
774,4869.46,0.296207
775,4872.2,0.2881981
776,4874.94,0.2517093
777,4877.679999999999,0.2835583
778,4880.42,0.2988761
779,4883.15,0.2993625
780,4885.89,0.3056152
781,4888.63,0.279933
782,4891.37,0.2791334
783,4894.11,0.3138804
784,4896.849999999999,0.3198761
785,4899.59,0.3135233
786,4902.33,0.3353793
787,4905.070000000001,0.3091832
788,4907.81,0.3030445
789,4910.54,0.3109401
790,4913.28,0.2972924
791,4916.0199999999995,0.3155509
792,4918.76,0.3075136
