,lambda (Angstroms),Total Flux (erg/s/cm^2/Angstrom)
0,102.07000000000001,0.0005785159676705778
1,103.97,0.000676441500761142
2,104.712855,0.0007147558281610792
3,105.9,0.0006639187824763462
4,108.12,0.0005688825675920778
5,109.88,0.000494167101449595
6,114.0,0.00031794732197969124
7,118.01,0.00014638098664369276
8,120.22644299999999,5.727194150697968e-05
9,121.02999999999999,5.787304371886864e-05
10,125.0,5.188000791069461e-05
11,127.03,4.867060753523032e-05
12,127.91,4.749575476163005e-05
13,130.89,4.271082332375638e-05
14,132.1,4.246912576005598e-05
15,133.94,3.962624359707356e-05
16,137.06,3.691982558158164e-05
17,138.038426,3.550919784826453e-05
18,139.93,3.64075645593174e-05
19,142.86,6.0328825675501903e-05
20,146.85999999999999,0.00010222153460544663
21,150.98,0.00010756663310328968
22,154.85,0.0001139939941680112
23,158.489319,0.00012076773306892844
24,158.82,0.00012137076985059451
25,162.15,0.0001267880463275322
26,165.92,0.00013506168426088205
27,170.17999999999998,0.00014174909290705457
28,172.94,0.00014772162386091282
29,176.97,0.00015452152992759716
30,179.85000000000002,0.00016004242309684055
31,181.93,0.00016409366816351633
32,181.970086,0.00016416268665892422
33,186.17000000000002,0.00017199246150423046
34,190.94,0.00018190515573591253
35,194.04999999999998,0.00018894955658717692
36,198.10999999999999,0.00019675011750554784
37,201.79,0.00020531549439707612
38,205.07000000000002,0.00021188699336561223
39,208.929613,0.00021392026751482245
40,209.85,0.0002145671224258359
41,216.23,0.00023576605369260407
42,220.25,0.0002456241458074016
43,222.8,0.000249983216924997
44,226.94,0.00026095359238650494
45,230.09,0.00038761048023765225
46,233.83,0.0006186005778767922
47,239.83,0.0007506359452123108
48,239.88329199999998,0.0007503044115340973
49,245.98,0.0007100336180864422
50,251.70999999999998,0.0007368504091175662
51,256.97999999999996,0.0006155369385650398
52,259.96,0.0007060171244765144
53,264.18,0.0007296724937873945
54,269.1,0.0007221718698560037
55,274.1,0.0007115714609826389
56,275.42287,0.0007088523187382096
57,279.19,0.0007024609156732721
58,283.72999999999996,0.0006969111838997326
59,289.67,0.0006596087740462471
60,295.74,0.0006637051533710523
61,301.24,0.0006411878109141213
62,308.25,0.0006424960735281055
63,316.227766,0.0006416850616182777
64,318.35,0.0006407880175843167
65,328.02,0.0006238538262364595
66,337.99,0.000601795216439341
67,348.26000000000005,0.0005804768881929611
68,357.20000000000005,0.0005650306784049732
69,363.078055,0.0005577286260888745
70,366.36,0.0005544447181403874
71,374.89000000000004,0.0005393354034206329
72,385.39,0.0005086175713505949
73,395.28000000000003,0.0005096523218103403
74,405.42,0.0005016499548398466
75,413.90999999999997,0.0004892674029089302
76,416.86938299999997,0.00048422052615782737
77,421.60999999999996,0.0004759350903070128
78,430.43,0.00046398156255662794
79,441.46999999999997,0.0004585403312228128
80,450.72,0.0004490733329585202
81,460.16,0.0004379238105136638
82,469.79,0.0004327930638882435
83,478.630092,0.0004350464791023188
84,479.63,0.0004351544881237608
85,489.66999999999996,0.00042207092814878713
86,499.93,0.0004353915349871109
87,505.71999999999997,0.00043876293884616497
88,511.57,0.0005749357427452091
89,519.88,0.0005794029482838515
90,529.5500000000001,0.0005824889213956049
91,539.39,0.0005586682279539974
92,549.42,0.0006144656013056921
93,549.5408739999999,0.0006156404982432148
94,559.64,0.0007143718110291232
95,570.04,0.0007870751329317212
96,580.64,0.0007939014302555229
97,590.0699999999999,0.0008809418613652824
98,599.66,0.000868769852812005
99,609.41,0.0009108900045956905
100,619.31,0.001112538987945279
101,629.3700000000001,0.0011562181316318303
102,630.957344,0.0011719644185182686
103,639.6,0.0012582490541637559
104,649.99,0.0013416669130345144
105,657.5200000000001,0.00136038521017569
106,665.13,0.00150445243212049
107,674.38,0.0016114416125395969
108,685.34,0.0015575943106361815
109,694.8699999999999,0.0018702887278679748
110,704.5400000000001,0.0017347932635061111
111,715.99,0.0021509488760248978
112,724.43596,0.002254196614150957
113,725.95,0.002272681155049093
114,734.36,0.0023847150958910524
115,744.5699999999999,0.0025138054794815877
116,754.9300000000001,0.0026438139833011715
117,765.43,0.002613952399334533
118,774.29,0.002951448700863637
119,785.0699999999999,0.002999296941324555
120,794.16,0.003242386027204865
121,805.1999999999999,0.0034260226760628
122,814.53,0.0035703577543095867
123,825.86,0.0038072624356103478
124,831.763771,0.0034913704615554355
125,835.4200000000001,0.0032954954393017892
126,845.1,0.004049914467782203
127,854.88,0.0041531529614328684
128,864.78,0.004438331013287836
129,874.79,0.0046463720768300815
130,884.92,0.00487529269857663
131,895.17,0.005080450878527481
132,905.54,0.005138622616682635
133,916.02,0.006006642366525067
134,924.5,0.024093604812962452
135,935.2,0.04795103958617944
136,946.0300000000001,0.08565248846411776
137,954.79,0.11579710121303184
138,954.992586,0.11612859055632789
139,965.84,0.13387851427512984
140,974.78,0.03039723019592273
141,986.07,0.12181406927262876
142,995.1899999999999,0.12266290390323628
143,1004.4,0.1639449378887511
144,1016.03,0.15441735452844033
145,1025.43,0.07042581715209281
146,1034.92,0.11553441913065263
147,1044.49,0.19984455053579672
148,1054.1599999999999,0.19619788122417114
149,1063.91,0.16132321133912983
150,1076.23,0.18608032303310842
151,1086.1899999999998,0.15300315164285086
152,1096.24,0.1908518796075006
153,1096.4782,0.19062219355015528
154,1103.84,0.1835234127485335
155,1114.05,0.17852038370155338
156,1124.36,0.16132155241121396
157,1134.77,0.1943948188775153
158,1145.27,0.1781071833247933
159,1155.86,0.18564904575304797
160,1163.8700000000001,0.1895379660599715
161,1174.64,0.1373084244501795
162,1185.51,0.18100508059702827
163,1193.73,0.13325939619289734
164,1204.78,0.10272794830169943
165,1215.92,0.06557188839147819
166,1224.35,0.12407820927629282
167,1235.68,0.17566575510368898
168,1244.25,0.19084426284780068
169,1255.76,0.18479490463715018
170,1258.92541,0.1769338471548272
171,1264.46,0.16318924245710403
172,1276.16,0.1998387611266394
173,1285.01,0.20686367524846744
174,1293.92,0.1720618894660367
175,1305.89,0.16931150856640748
176,1314.94,0.20122652300737287
177,1324.05,0.19305723754407947
178,1336.31,0.17526235710719945
179,1345.5700000000002,0.19891927188325909
180,1354.9,0.19260978677101676
181,1364.29,0.17607000175451565
182,1373.74,0.18142261683375577
183,1386.4599999999998,0.18225483713089166
184,1396.0700000000002,0.15764885246544164
185,1405.74,0.16094826789573285
186,1415.49,0.16970268345367898
187,1425.3,0.17048569910736633
188,1435.18,0.17009291487275177
189,1441.8,0.17647702543619828
190,1445.43977,0.17736768187010712
191,1448.46,0.17810673528895465
192,1455.14,0.17325304423510152
193,1465.2299999999998,0.16243775774806882
194,1475.39,0.16131747135478317
195,1485.61,0.16243748504185215
196,1495.91,0.1635652988360606
197,1506.2800000000002,0.1562033127240161
198,1513.23,0.1421328220317587
199,1516.72,0.14951732670571868
200,1523.72,0.14544333608042345
201,1534.2900000000002,0.12873335023622767
202,1544.9199999999998,0.13479976447238648
203,1555.63,0.12843887881568478
204,1566.41,0.13203689325273013
205,1573.64,0.13953570293546091
206,1584.5500000000002,0.14411091754660793
207,1595.53,0.14645193225150202
208,1606.59,0.14180664706353555
209,1614.01,0.1411509570007226
210,1625.2,0.13511077198685784
211,1636.46,0.14147868706674008
212,1644.02,0.14213119719142123
213,1655.4099999999999,0.13325941244540515
214,1659.58691,0.13672548927040248
215,1666.89,0.14278578946531306
216,1670.73,0.1293257270214532
217,1678.4399999999998,0.1437751024271408
218,1686.1899999999998,0.1471245782240382
219,1693.97,0.13921645431434296
220,1705.71,0.13418236913441725
221,1713.5900000000001,0.1284398462027465
222,1725.46,0.12696776229425258
223,1733.43,0.13356644024280384
224,1745.44,0.13022655770354422
225,1753.5,0.13636023653231752
226,1765.66,0.12638335546009463
227,1773.8100000000002,0.12873573516908998
228,1786.1,0.12992715536829888
229,1794.3500000000001,0.13573373605531872
230,1806.78,0.1344938576237619
231,1815.1200000000001,0.12609683919100376
232,1823.5000000000002,0.1272631211494554
233,1836.14,0.12322414477175002
234,1844.62,0.11420852770822615
235,1853.13,0.11473641093810961
236,1865.9800000000002,0.11713993661425565
237,1874.59,0.1232249208221636
238,1883.24,0.11473720542128135
239,1896.3,0.11058783315127879
240,1905.0500000000002,0.11553281872842103
241,1905.46072,0.11536163801362262
242,1913.84,0.11186911710908407
243,1927.11,0.10907084981625892
244,1936.0,0.11109693774141223
245,1944.94,0.11553222503622332
246,1953.92,0.10856931182676063
247,1967.46,0.1163322411300875
248,1976.54,0.11849622665994038
249,1985.6699999999998,0.11289931155945103
250,1994.83,0.10957429608075635
251,2004.04,0.11161097997171945
252,2013.2900000000002,0.10881786335840878
253,2027.2399999999998,0.11161198749292944
254,2036.6000000000001,0.1070799694928659
255,2046.0,0.10957375098852856
256,2055.4500000000003,0.10249243185384901
257,2064.9300000000003,0.10391931234096412
258,2074.47,0.11109419207166858
259,2079.25,0.10732303181095236
260,2084.04,0.10982587142416769
261,2093.66,0.1046398501463246
262,2103.3199999999997,0.10488062836420772
263,2113.0299999999997,0.10560900595174863
264,2122.79,0.10634128290894732
265,2132.58,0.10015925948794066
266,2147.37,0.10155327303271203
267,2157.28,0.10415824809888405
268,2167.23,0.1006241226607823
269,2177.24,0.0999299564662699
270,2187.29,0.09855901976748371
271,2187.7616199999998,0.09872092344513406
272,2197.38,0.10202306049947761
273,2207.53,0.0992399025206063
274,2212.62,0.09499286368194076
275,2222.83,0.09261728630615002
276,2233.09,0.0972074094329264
277,2243.4,0.09369224306226992
278,2253.75,0.09009592709366714
279,2264.15,0.09113975162763151
280,2274.61,0.09283367676467642
281,2285.1,0.09434010220326164
282,2295.65,0.08927630824492742
283,2306.25,0.08972587478916033
284,2316.89,0.08671576173544694
285,2327.59,0.07282951928481413
286,2332.95,0.08154217316001115
287,2343.72,0.07862984141297231
288,2354.54,0.08370927016850062
289,2365.41,0.07797567942659606
290,2376.33,0.07964269918725865
291,2387.29,0.07419013934997494
292,2392.7999999999997,0.07788143473287337
293,2403.8399999999997,0.07544715569969708
294,2414.94,0.07635307726960136
295,2426.0899999999997,0.07998564934207275
296,2437.28,0.07730708181659789
297,2442.9,0.080411888305144
298,2454.18,0.07916301168428998
299,2465.5099999999998,0.07829175556600305
300,2476.89,0.0758410599502833
301,2482.6,0.07656254734345028
302,2494.06,0.07115655253183793
303,2505.5699999999997,0.07895863822279273
304,2511.34,0.07153536621904026
305,2511.88643,0.07164653765709492
306,2517.13,0.07271327131320411
307,2522.94,0.07058518871152401
308,2534.5800000000004,0.07110924343036112
309,2546.28,0.07032508791579019
310,2552.15,0.07416722508070203
311,2563.93,0.07234672925492035
312,2575.76,0.07527045323463194
313,2587.65,0.0742734969809355
314,2593.62,0.0731028737568339
315,2605.5899999999997,0.0709829171919267
316,2617.62,0.06971800039361147
317,2623.65,0.07218885693610182
318,2635.7599999999998,0.07407619982657583
319,2647.93,0.07904493248364178
320,2654.03,0.08053401875382274
321,2666.2799999999997,0.07416294109967794
322,2672.4300000000003,0.0764361971753522
323,2684.7599999999998,0.07664943920999667
324,2697.1600000000003,0.07290147097233174
325,2703.37,0.07461572681459792
326,2715.8500000000004,0.07096682826572225
327,2722.1099999999997,0.07033262391348173
328,2734.68,0.07284198501449397
329,2747.2999999999997,0.0649537559209995
330,2753.63,0.06632912129644958
331,2766.3399999999997,0.06837796185284303
332,2772.7200000000003,0.0706354470337864
333,2785.5200000000004,0.06671858724006775
334,2791.94,0.05589459226540575
335,2804.83,0.058829982121575024
336,2817.77,0.0691500717832376
337,2824.27,0.07193162649736484
338,2837.31,0.06968542577001398
339,2843.85,0.06764842032853587
340,2856.97,0.06478404928997426
341,2863.56,0.07024111365398943
342,2876.7799999999997,0.0705994622264144
343,2883.4100000000003,0.06997308643482421
344,2884.0315,0.06996718887247766
345,2896.72,0.06984683300694286
346,2910.09,0.0745400819425241
347,2930.26,0.07156901033674047
348,2950.57,0.07015830871981112
349,2971.02,0.07070247709173601
350,2991.62,0.07043395545171904
351,3012.35,0.07065103380135244
352,3033.24,0.07038691213824785
353,3047.24,0.07026057102367321
354,3068.36,0.07015842934225776
355,3089.6299999999997,0.07005582764890043
356,3111.04,0.06995362594439734
357,3132.61,0.06857430422715628
358,3147.07,0.0684562630759599
359,3168.88,0.06867276133961182
360,3190.85,0.06533545959052575
361,3212.97,0.06691530782949781
362,3227.8,0.06394044664884482
363,3250.17,0.06747903486791378
364,3272.7000000000003,0.06942922307424472
365,3287.8,0.06867317187209636
366,3310.59,0.06810544005772806
367,3311.31121,0.06807791790927674
368,3318.2299999999996,0.06781387947071613
369,3325.88,0.06783319782830483
370,3333.54,0.06943339617067469
371,3341.23,0.06602499446738803
372,3348.93,0.07093076274888255
373,3356.65,0.06807008099993939
374,3364.39,0.06124892922055853
375,3372.1400000000003,0.06183247742595884
376,3379.92,0.06781750558570264
377,3387.71,0.06752592373022762
378,3395.52,0.0658591518443149
379,3403.35,0.0692990699279645
380,3411.19,0.06454701799639527
381,3419.06,0.06576456601916954
382,3426.94,0.06670237402672495
383,3434.84,0.07002801200384269
384,3442.76,0.06462577995052275
385,3450.69,0.066304357881984
386,3458.6499999999996,0.0652640957677887
387,3466.6200000000003,0.06438537363837459
388,3474.61,0.06651709147852278
389,3482.6200000000003,0.06442866928823329
390,3490.65,0.06671012706750613
391,3498.7000000000003,0.062277214816341304
392,3506.7599999999998,0.06614267254995763
393,3514.84,0.06275035025313627
394,3522.9500000000003,0.06618202791065841
395,3531.07,0.06469647555296172
396,3539.21,0.06668237316482734
397,3547.3700000000003,0.0685697707462553
398,3555.54,0.06718704831246439
399,3563.7400000000002,0.06628466583301698
400,3571.96,0.0620247533231319
401,3580.1899999999996,0.06133550079802798
402,3588.44,0.05634302824248638
403,3596.71,0.06251392565650711
404,3605.01,0.06487775302487131
405,3613.3199999999997,0.06084671037801669
406,3621.65,0.06086638770072438
407,3630.0,0.0699054849929944
408,3638.36,0.06541379227004558
409,3646.7500000000005,0.06498424950144024
410,3655.16,0.06590981670239723
411,3663.5800000000004,0.07015782388813538
412,3672.03,0.06702124102821702
413,3680.4900000000002,0.06521684815307982
414,3680.58,0.08298353801611028
415,3683.3199999999997,0.06923182384614858
416,3686.06,0.06489358967618689
417,3688.81,0.07546530549100634
418,3691.55,0.05747769132104466
419,3694.29,0.053608347151082966
420,3697.04,0.04907279296590243
421,3699.7799999999997,0.048485758795940734
422,3702.5200000000004,0.06088222462597904
423,3705.27,0.0676633304407985
424,3708.0099999999998,0.06265918627083682
425,3710.75,0.06946824210087511
426,3713.49,0.06929496793091343
427,3716.2400000000002,0.06897554374573289
428,3718.98,0.08684517957577119
429,3721.7200000000003,0.1588122154058095
430,3724.47,0.28445761122062896
431,3727.21,0.34531290705066725
432,3729.9500000000003,0.29983780288070555
433,3732.7,0.20931499869552506
434,3735.44,0.11971949452556335
435,3738.18,0.08195918035560165
436,3740.9300000000003,0.08114321617042113
437,3743.67,0.06137852200045943
438,3746.41,0.05710726783049773
439,3749.15,0.052185833660536037
440,3751.9,0.0716549294753555
441,3754.6400000000003,0.07409806530539381
442,3757.38,0.07383812113543213
443,3760.1299999999997,0.07875540695025159
444,3762.87,0.0824082327802899
445,3765.6099999999997,0.0684515886103282
446,3768.36,0.06698552442514766
447,3771.1,0.06603207025518597
448,3773.84,0.07784931608522427
449,3776.59,0.07545330190004373
450,3779.3300000000004,0.08188013773008204
451,3782.07,0.07825513356012034
452,3784.81,0.08529275939015865
453,3787.56,0.08804674520497813
454,3790.2999999999997,0.07803837103501643
455,3793.04,0.07947672686505473
456,3795.79,0.0677381326798742
457,3798.5299999999997,0.061788288509912505
458,3801.27,0.05822629433995081
459,3801.8939600000003,0.061236491980176055
460,3804.02,0.07149324082894314
461,3806.76,0.08695531752784262
462,3809.5,0.0859388342267421
463,3812.25,0.08478400091359375
464,3814.99,0.08840137761249324
465,3817.7299999999996,0.08508373431139273
466,3820.4700000000003,0.0935044410102922
467,3823.22,0.08809005769714388
468,3825.96,0.07693896439604336
469,3828.7,0.07409808109494284
470,3831.4500000000003,0.0720291277817945
471,3834.19,0.06795884448069399
472,3836.93,0.06002700117959347
473,3839.68,0.06655199786644514
474,3842.4199999999996,0.07242324456534463
475,3845.1600000000003,0.0788028012642441
476,3847.91,0.09409501795109577
477,3850.65,0.09921368464999525
478,3853.39,0.09225516134889473
479,3856.1299999999997,0.09895786804779422
480,3858.88,0.09889447473464588
481,3861.62,0.09054499143354536
482,3864.36,0.09521840813244484
483,3867.11,0.10218851481929651
484,3869.8500000000004,0.10035641151819599
485,3872.59,0.08796807821709547
486,3875.3399999999997,0.09403984490394714
487,3878.08,0.08222679160284663
488,3880.8199999999997,0.08070988830174611
489,3883.57,0.07971663498859778
490,3886.31,0.07673784168749725
491,3889.05,0.07810526838639674
492,3891.8,0.08358601507324841
493,3894.5400000000004,0.06607127177214789
494,3897.28,0.08645485847104736
495,3900.02,0.08699875516994685
496,3902.77,0.08526863185679852
497,3905.5099999999998,0.095245758555698
498,3908.25,0.09967487525459749
499,3911.0,0.10006856194144916
500,3913.74,0.10157785864034863
501,3916.48,0.09453264533924811
502,3919.23,0.0931295520260998
503,3921.9700000000003,0.09129348872499927
504,3924.71,0.08468957542389875
505,3927.46,0.08141484211075041
506,3930.2,0.0755990088096499
507,3932.9399999999996,0.06804545550854937
508,3935.68,0.07354236220744886
509,3938.43,0.07656435889430054
510,3941.17,0.0848077055932
511,3943.91,0.08563137229209948
512,3946.6600000000003,0.08212809897895115
513,3949.4,0.08689999567785064
514,3952.14,0.09070258237675012
515,3954.89,0.09604536906360178
516,3957.6299999999997,0.08351124576250127
517,3960.37,0.07695854246140074
518,3963.12,0.07100045914825243
519,3965.86,0.0720171758471519
520,3968.6,0.06974764254605138
521,3971.3399999999997,0.06520055924495087
522,3974.09,0.07354205593180253
523,3976.83,0.08616315263070201
524,3979.57,0.0897174793296015
525,3982.3199999999997,0.08560343601645316
526,3985.0600000000004,0.09693604271535265
527,3987.8,0.09729081941425213
528,3990.5499999999997,0.0935156261011038
529,3993.29,0.09288531280000328
530,3996.0299999999997,0.09562793949890276
531,3998.78,0.08782571618575444
532,4001.52,0.09827961288465392
533,4004.26,0.0988274695835534
534,4007.0,0.09368544628245287
535,4009.7500000000005,0.09868148296930454
536,4012.4900000000002,0.10312243966820402
537,4015.23,0.09514726636710351
538,4017.98,0.10163673305395517
539,4020.72,0.10389072975285465
540,4023.46,0.10023422645175413
541,4026.21,0.1006003231386058
542,4028.95,0.09692019983750529
543,4031.69,0.08935878653640476
544,4034.44,0.10880011322325643
545,4037.1800000000003,0.10178250992215591
546,4039.92,0.1025905066210554
547,4042.6600000000003,0.09446953331995488
548,4045.41,0.09568284000680655
549,4048.1499999999996,0.09948936670570603
550,4050.89,0.09519058340460551
551,4053.64,0.09426820009145717
552,4056.38,0.09542680679035666
553,4059.12,0.09137624348925615
554,4061.8700000000003,0.10063578017610782
555,4064.61,0.09927254687500729
556,4067.35,0.10220437357390678
557,4070.1,0.09760558026075844
558,4072.8399999999997,0.09894544695965793
559,4075.58,0.09828361365855741
560,4078.3199999999997,0.08902389035745689
561,4081.07,0.08978407704430856
562,4083.81,0.08834992374320803
563,4086.5499999999997,0.09234951044210751
564,4089.3,0.08582791712895918
565,4092.04,0.08890545382785867
566,4094.78,0.08753435052675815
567,4097.53,0.08501617721360981
568,4100.2699999999995,0.0872110639125093
569,4103.01,0.09061174061140878
570,4105.76,0.08650558729826045
