,lambda (Angstroms),Total Flux (erg/s/cm^2/Angstrom)
0,100.00999999999999,2.3745464446932085
1,102.11,2.3670889873572447
2,104.0,2.3603772749306597
3,104.712855,2.357845805680038
4,105.94,2.334954906738124
5,107.91,2.2982069514190844
6,109.91000000000001,2.260899393066039
7,114.03999999999999,2.1838592679209454
8,118.05,2.1090575974594636
9,120.22644299999999,2.068458790800113
10,121.07,2.055266236452868
11,125.03999999999999,1.9931785022996218
12,127.07,1.9614308717194235
13,127.95,1.9476683564681503
14,130.93,1.9010634647628615
15,132.14,1.882140028557836
16,133.98,1.8533638621069557
17,137.1,1.8045695298420323
18,138.038426,1.789893285401013
19,139.97,1.7683009037255353
20,142.91,1.7354359923568148
21,146.91,1.690721848361515
22,151.03,1.644665990562206
23,154.9,1.6014048514081658
24,158.489319,1.561281359157141
25,158.86999999999998,1.5580641520247376
26,161.82999999999998,1.5330486677467106
27,165.98000000000002,1.4979763088863445
28,169.84,1.465354853178154
29,173.0,1.4386492183748683
30,177.03,1.4045911461030578
31,179.91,1.3802519321227342
32,181.970086,1.3628419152515832
33,181.99,1.3627135227080514
34,185.79999999999998,1.3381491886802916
35,191.01,1.3045585842877967
36,194.11,1.2845719246715956
37,198.17999999999998,1.2583314315358713
38,201.85999999999999,1.2346055548085944
39,205.14000000000001,1.2134584718349561
40,208.929613,1.189025704703803
41,209.92000000000002,1.1842251838642341
42,215.79999999999998,1.1557249637868336
43,219.81,1.1362884821486574
44,222.87,1.1214565697317451
45,227.01,1.1013900736859223
46,230.17,1.0860817289146665
47,233.91,1.067971756606218
48,239.88329199999998,1.0390309617579803
49,239.91,1.0389312582342975
50,246.06,1.015960066594084
51,251.8,0.9945247848878843
52,257.07,0.9748306483628719
53,260.05,0.963710406666622
54,264.27,0.947952194722134
55,269.18,0.9296141882401583
56,274.19,0.9109023790862283
57,275.42287,0.9062977057083025
58,279.28999999999996,0.8952134501398695
59,283.82,0.8822299790066751
60,289.77,0.86517218537727
61,295.83000000000004,0.8478043007082287
62,301.33,0.8320365378464257
63,308.35,0.8119167807978335
64,316.227766,0.7893386329641766
65,317.72,0.7861445214482481
66,328.13,0.7638588101479837
67,338.1,0.7425143803991234
68,348.38,0.7205057708345011
69,357.31,0.7013878385707778
70,363.078055,0.6890397533541573
71,365.64,0.6849326822045635
72,375.02,0.6698935650020839
73,384.64,0.6544663320767263
74,395.41,0.6372014033625785
75,404.62,0.6224352595471375
76,414.04999999999995,0.6073149164190584
77,416.86938299999997,0.6027941947722497
78,421.74,0.5968302648211947
79,429.59,0.5872175583664784
80,440.6,0.5737370433889715
81,450.87,0.561161233264903
82,460.31,0.5496011996183394
83,469.95000000000005,0.5377968555627386
84,478.630092,0.5271681844723091
85,479.79,0.5260758641562419
86,489.83,0.5166194094634305
87,500.09,0.5069578321970716
88,505.88,0.5015115849932491
89,511.73999999999995,0.49603352949784346
90,520.0500000000001,0.4882076636970204
91,529.72,0.47910096685972114
92,539.5699999999999,0.46981909534406474
93,549.5408739999999,0.4604447392754639
94,549.6,0.46040235612508534
95,559.8199999999999,0.4530756945338624
96,570.23,0.44560682226794945
97,579.49,0.4389486714856868
98,590.27,0.4312203653059037
99,599.86,0.4243294525518109
100,609.61,0.41733576022955815
101,619.51,0.4102501312746553
102,629.58,0.40302401541608235
103,630.957344,0.4020351508029873
104,639.81,0.39699757690799586
105,650.1999999999999,0.39109644360845364
106,657.73,0.38681462755825585
107,665.35,0.3824888575253866
108,674.6,0.37722792570635233
109,685.57,0.37097493711848134
110,695.1,0.3655957211533574
111,704.77,0.3600734697151886
112,716.22,0.3536049678197353
113,724.43596,0.3489349392039104
114,726.19,0.3481953750777871
115,734.6,0.3446515104539468
116,744.82,0.3403623103274726
117,755.1800000000001,0.33600178818145765
118,765.68,0.33157836061590196
119,774.55,0.3278623862278564
120,785.32,0.32334033487461494
121,794.42,0.3195127486044667
122,805.4699999999999,0.3148614352121438
123,814.8,0.31093377445989284
124,824.23,0.30698945249368426
125,831.763771,0.30376023906001276
126,835.7,0.30249327402404
127,845.37,0.29953883288631333
128,855.16,0.29646771820602946
129,865.07,0.2933765961831885
130,875.08,0.29025428224155
131,885.22,0.2870989517954746
132,895.47,0.2838975658687219
133,905.8299999999999,0.28063810106129183
134,914.22,0.27840027824417424
135,924.8000000000001,0.28155880277538947
136,935.51,0.2871779205021678
137,944.17,0.30063888691429674
138,954.992586,0.30954791728993264
139,955.1,0.30963707248678957
140,963.9399999999999,0.3169903695514408
141,975.1,0.27092287856066105
142,984.12,0.31403829318997706
143,995.52,0.30997777895208384
144,1004.73,0.3213841393441016
145,1014.03,0.31076887351845184
146,1025.77,0.2680676480138144
147,1035.26,0.2897014579508663
148,1044.84,0.3228571816702508
149,1054.51,0.32006523917196766
150,1064.26,0.30501397225798
151,1074.1100000000001,0.31222936732436163
152,1084.05,0.29719267617307576
153,1094.0800000000002,0.30823296880412226
154,1096.4782,0.30683689563619404
155,1104.2,0.3027744928822838
156,1114.42,0.2992235441841724
157,1124.73,0.2903414527284455
158,1135.14,0.29932104709759033
159,1145.64,0.28998790870911967
160,1156.24,0.2905813961455208
161,1164.26,0.2911353793002318
162,1175.03,0.2687604326389148
163,1185.9,0.2815148518024695
164,1194.1200000000001,0.2593780066069239
165,1205.17,0.24200096025524767
166,1216.32,0.21505291972844315
167,1224.75,0.24277662476512812
168,1236.09,0.26376217730557994
169,1244.6599999999999,0.2697809924970853
170,1256.17,0.2656757409398189
171,1258.92541,0.26219915230703117
172,1264.8799999999999,0.25511884309618194
173,1273.65,0.2684432541547028
174,1285.4299999999998,0.26932620898587467
175,1294.34,0.2558730155687049
176,1306.32,0.25238286829174716
177,1315.37,0.2630567103988868
178,1324.49,0.2584281102681811
179,1333.67,0.2507028925050365
180,1346.01,0.2570928094334457
181,1355.34,0.25349284258920396
182,1364.74,0.2456837535071169
183,1374.1999999999998,0.2461710767925911
184,1383.72,0.24566930244562632
185,1396.53,0.23498510291993113
186,1406.21,0.23568424488646278
187,1415.95,0.23546914922055556
188,1425.77,0.23388833671139658
189,1435.65,0.2317156365697987
190,1442.28,0.2336820231853054
191,1445.43977,0.2336877821564582
192,1445.6,0.23369680623706698
193,1455.62,0.23082864108460183
194,1465.71,0.22547986848097173
195,1475.87,0.22344508842617677
196,1486.1,0.22234356092021684
197,1496.4099999999999,0.2216119563272113
198,1503.31,0.21794926756952573
199,1513.73,0.21098406698183242
200,1517.22,0.2136706240594668
201,1524.23,0.21120804930709347
202,1534.79,0.20324037381707033
203,1545.43,0.20614533124000156
204,1556.14,0.20118830121176784
205,1563.32,0.2009265726494226
206,1574.16,0.20302926735473972
207,1585.0700000000002,0.20354506460889193
208,1596.06,0.20373935477599858
209,1603.43,0.20019834313191986
210,1614.54,0.19862811766845806
211,1625.73,0.19453207511795056
212,1633.24,0.19627251857154204
213,1644.56,0.19518875075458547
214,1655.96,0.18925703585058318
215,1659.58691,0.19126256430751093
216,1663.6000000000001,0.19363309068320025
217,1671.28,0.18712594855779535
218,1675.1299999999999,0.192438780265763
219,1686.74,0.19316521201368608
220,1694.53,0.18901955536565168
221,1706.28,0.18581549590295546
222,1714.15,0.18318376142028142
223,1726.03,0.18149901297629578
224,1734.0,0.18386769620032223
225,1746.02,0.1810144065457172
226,1754.0800000000002,0.18342863970577405
227,1766.24,0.17716410884054967
228,1774.39,0.17867194193663694
229,1786.69,0.17790819986079318
230,1794.9399999999998,0.17998982066358094
231,1803.22,0.17859041477837878
232,1815.72,0.17438331811593594
233,1824.1,0.1739599399374343
234,1836.75,0.17094316983504215
235,1845.22,0.16581296159257086
236,1853.74,0.16549962220344983
237,1866.59,0.16570958751445863
238,1875.21,0.16786634583203802
239,1883.86,0.16328687746162762
240,1896.92,0.16009543595670733
241,1905.46072,0.1616218820927982
242,1905.6799999999998,0.16166624186130452
243,1914.47,0.15962670733331374
244,1923.31,0.15789906024259268
245,1936.64,0.1574708690186886
246,1945.5800000000002,0.15998606680250688
247,1954.56,0.1563117185361409
248,1968.1100000000001,0.15913436403622339
249,1977.19,0.15946866064439674
250,1981.75,0.1564493509233913
251,1995.49,0.1540991326850986
252,2004.7,0.15408176463017312
253,2013.9499999999998,0.1524727105250634
254,2023.25,0.15303232385722335
255,2037.27,0.15067592326764082
256,2046.6799999999998,0.15136757496179404
257,2056.12,0.14832239711830908
258,2065.61,0.1481316667120938
259,2075.15,0.15056049374314823
260,2079.9300000000003,0.14907386074612933
261,2084.73,0.14994106472401836
262,2094.35,0.14655709965470423
263,2104.02,0.14636006202265978
264,2113.73,0.14602128834043107
265,2123.48,0.14582498860801812
266,2133.29,0.14180725980032877
267,2143.13,0.14269707145500124
268,2153.0299999999997,0.14304657403439733
269,2162.96,0.1405744670761552
270,2172.95,0.1393771810426367
271,2182.98,0.13886777895893393
272,2187.7616199999998,0.1394890865486303
273,2193.05,0.14028682899269598
274,2203.1800000000003,0.13829671567941093
275,2213.34,0.13527811017467492
276,2223.56,0.1339103102870369
277,2233.82,0.13682286081079753
278,2244.14,0.13419766695165625
279,2254.4900000000002,0.13164761090106392
280,2264.9,0.1314539304675696
281,2275.35,0.13230323044547398
282,2285.86,0.13317617604047638
283,2296.4100000000003,0.12993656204687742
284,2307.0099999999998,0.13005134106752686
285,2317.66,0.12797956310242464
286,2323.0,0.119872243024148
287,2333.72,0.12411660327899346
288,2344.49,0.12103061654808725
289,2355.31,0.12461597283142939
290,2366.19,0.11996232473186953
291,2377.11,0.12114477704370837
292,2382.59,0.11684665340532711
293,2393.5899999999997,0.11872638653996331
294,2404.63,0.11696004008599815
295,2415.73,0.11707759924913104
296,2426.8799999999997,0.11962251142651228
297,2432.48,0.11771816902232704
298,2443.71,0.11938174202250562
299,2454.99,0.11834849803693256
300,2466.3199999999997,0.11708462706560784
301,2477.7,0.11480947910853145
302,2483.41,0.11452844533569259
303,2494.8799999999997,0.11209639080426323
304,2506.39,0.11615624668423254
305,2511.88643,0.11088017260167589
306,2512.17,0.11061113291313449
307,2517.96,0.11028637797904026
308,2523.77,0.10871436124897334
309,2535.42,0.10920589009488045
310,2547.12,0.10865987945085584
311,2552.99,0.11178265733287085
312,2564.77,0.10979577950495545
313,2576.6099999999997,0.11166796628912201
314,2582.55,0.11087852288523257
315,2594.47,0.10964769248550837
316,2606.4500000000003,0.10757258669786605
317,2612.4599999999996,0.10650467200807223
318,2624.52,0.10828490903653916
319,2636.6299999999997,0.11016790657507439
320,2642.7099999999996,0.11447117059937613
321,2654.91,0.11615545505603421
322,2667.1600000000003,0.11050105002276056
323,2673.31,0.1121760227611579
324,2685.65,0.11255815464600714
325,2698.04,0.10850076704092468
326,2704.26,0.11013601849341756
327,2716.75,0.10620026190847165
328,2723.01,0.10518929976901914
329,2735.5800000000004,0.10705905600018245
330,2741.8799999999997,0.1004008602687846
331,2754.54,0.10165086341807077
332,2767.25,0.10350301707742524
333,2773.63,0.10503134416213658
334,2786.44,0.10065000884162759
335,2792.8599999999997,0.0914871323343936
336,2805.75,0.09332215982999381
337,2812.2200000000003,0.10266234383282806
338,2825.2,0.10523148824655118
339,2838.2400000000002,0.10323075727235623
340,2844.78,0.10065570998928605
341,2857.9100000000003,0.09682731593321398
342,2864.5,0.1026769191602121
343,2877.72,0.10367259202226294
344,2884.0315,0.1027641197852892
345,2884.36,0.10271998067767442
346,2897.67,0.10303243469886367
347,2911.05,0.10754771758417637
348,2931.22,0.10444593028946467
349,2951.5400000000004,0.10276357056073178
350,2972.0,0.10288537856024582
351,2992.6000000000004,0.1024024942880068
352,3013.3500000000004,0.1021564875817466
353,3027.2599999999998,0.10223454186685123
354,3048.24,0.10210722142842527
355,3069.3700000000003,0.10185385855597812
356,3090.64,0.10122578341177793
357,3112.07,0.10145971567128848
358,3126.43,0.09980206265432963
359,3148.1,0.09904163101940633
360,3169.9300000000003,0.09949617678819381
361,3191.8999999999996,0.09608925028522822
362,3206.6299999999997,0.09755772126435049
363,3228.86,0.09420066054241485
364,3251.2400000000002,0.09832631738645808
365,3266.25,0.10082832382207421
366,3288.89,0.09962212644714744
367,3311.31121,0.09818978615072878
368,3311.6800000000003,0.09816870248638482
369,3319.32,0.09648128916715976
370,3326.9700000000003,0.09705219282002991
371,3334.64,0.09971596041709062
372,3342.33,0.09582245195834181
373,3350.0299999999997,0.09791836047168827
374,3357.76,0.09722473990132048
375,3365.5,0.09002006630304796
376,3373.25,0.0897356596768707
377,3381.0299999999997,0.09407857396697919
378,3388.82,0.09637587522918292
379,3396.6400000000003,0.09300020740767244
380,3404.47,0.09715899655825722
381,3412.31,0.09324056268093725
382,3420.18,0.09527050971990303
383,3428.0699999999997,0.09584284070305935
384,3435.97,0.09578371865831088
385,3443.89,0.09028870055775295
386,3451.8300000000004,0.09644029640138552
387,3459.78,0.09447514921711336
388,3467.7599999999998,0.09379350294912696
389,3475.7500000000005,0.0944822736532358
390,3483.77,0.09416928527363043
391,3491.7999999999997,0.0949912138661203
392,3499.85,0.08982539640280068
393,3507.92,0.09486742288367157
394,3516.0000000000005,0.09086399633663772
395,3524.1099999999997,0.09187807070588963
396,3532.23,0.09417156204723681
397,3540.37,0.09539312733277448
398,3548.54,0.09745425353459793
399,3556.72,0.09475171670851662
400,3564.91,0.09533583685453059
401,3573.13,0.0871378779168303
402,3581.37,0.08901349292332053
403,3589.62,0.08268661490190601
404,3597.9,0.09090175779677725
405,3606.19,0.08998410766374378
406,3614.51,0.08931403844699604
407,3619.71,0.07692789393652871
408,3622.45,0.07635875429062863
409,3625.1899999999996,0.08737428464472854
410,3627.94,0.09610647197092369
411,3630.68,0.0855039123250236
412,3633.4300000000003,0.07706979965121875
413,3636.17,0.08555353000531866
414,3638.9100000000003,0.08444486035941856
415,3641.66,0.09230726768561373
416,3644.3999999999996,0.08853944803971364
417,3647.15,0.0955791353659088
418,3649.89,0.09067977572000871
419,3652.63,0.08778548607410862
420,3655.3799999999997,0.09447620340030378
421,3658.1200000000003,0.11008267375440367
422,3660.87,0.09599776108059885
423,3663.61,0.08903391143469874
424,3666.35,0.10757738178879866
425,3669.1000000000004,0.09729814911499382
426,3671.84,0.08741925946909372
427,3674.5899999999997,0.08867226679528889
428,3677.33,0.1006164671493888
429,3680.0699999999997,0.0985111875034887
430,3682.82,0.10136725482968387
431,3685.56,0.09655890518378377
432,3688.3100000000004,0.08819060250997893
433,3691.05,0.09867461286407883
434,3693.79,0.10624149321817875
435,3696.54,0.0981996505443739
436,3699.2799999999997,0.09138406089847381
437,3702.03,0.09976938822466898
438,3704.77,0.09823147857876888
439,3707.5099999999998,0.1000924689328688
440,3710.26,0.09408998625906395
441,3713.0,0.08620387661316387
442,3715.7400000000002,0.09553710696726375
443,3718.49,0.10430246429345894
444,3721.23,0.10144246464755882
445,3723.98,0.104983661973754
446,3726.7200000000003,0.09688346232785389
447,3729.46,0.0996758126819538
448,3732.21,0.08677810000814896
449,3734.9500000000003,0.09356990036224888
450,3737.7,0.07771758768844403
451,3740.44,0.09396206804254395
452,3743.18,0.09459730839664385
453,3745.9300000000003,0.09308031572283901
454,3748.67,0.09819569607693893
455,3751.4199999999996,0.0977866834031341
456,3754.1600000000003,0.09853968375723399
457,3756.9,0.09088372411133389
458,3759.65,0.10454673143752906
459,3762.39,0.10061621179162897
460,3765.1400000000003,0.10384695911782411
461,3767.88,0.09734717947192403
462,3770.62,0.10392382982602394
463,3773.37,0.1062660371522191
464,3776.1099999999997,0.10493688750631902
465,3778.86,0.11300637483251416
466,3781.6,0.11096535518661407
467,3784.34,0.10937928554071398
468,3787.09,0.11647994286690914
469,3789.83,0.11282777322100906
470,3792.58,0.10551387054720421
471,3795.3199999999997,0.10376186090130413
472,3798.06,0.09828444125540403
473,3800.81,0.0996364385815992
474,3801.8939600000003,0.10206032361190281
475,3803.55,0.10577128918115866
476,3806.3,0.10526285931828465
477,3809.0400000000004,0.11091041520036653
478,3811.78,0.1127790310824484
479,3814.5299999999997,0.11411186121957438
480,3817.27,0.11594302710165624
481,3820.02,0.11285996723878224
482,3822.76,0.10530800312086411
483,3825.5,0.10532461900294599
484,3828.2500000000005,0.09836093914007195
485,3830.9900000000002,0.09951763502215383
486,3833.74,0.0928002151592798
487,3836.48,0.09633881104136169
488,3839.22,0.09310635692344356
489,3841.9700000000003,0.10007019706056952
490,3844.71,0.11009618294265142
491,3847.4599999999996,0.1086831330797774
492,3850.2,0.10929923896185925
493,3852.94,0.11163354484394114
494,3855.69,0.11399408498106711
495,3858.43,0.113668140863149
496,3861.1800000000003,0.11628025100027495
497,3863.92,0.11664479688235682
498,3866.6600000000003,0.12126468276443872
499,3869.41,0.12024234290156469
500,3872.1499999999996,0.11517399878364656
501,3874.9,0.11294734892077253
502,3877.64,0.1135420648028544
503,3880.38,0.11169597068493628
504,3883.13,0.10972625082206225
505,3885.8700000000003,0.10287546670414413
506,3888.62,0.09753899684127011
507,3891.3599999999997,0.10082067272335199
508,3894.1,0.10747986860543386
509,3896.85,0.11076106874255984
510,3899.59,0.11167157462464171
511,3902.34,0.11459413476176769
512,3905.0800000000004,0.11568128064384955
513,3907.82,0.11536070652593144
514,3910.5699999999997,0.11916108666305741
515,3913.31,0.11908136254513929
516,3916.06,0.11887799268226526
517,3918.8,0.11956904856434714
518,3921.54,0.11917353444642902
519,3924.2899999999995,0.112964544583555
520,3927.03,0.10487730046563687
521,3929.7799999999997,0.09696624060276285
522,3932.52,0.09145893648484471
523,3935.2599999999998,0.0904317623669266
524,3938.01,0.09298506250405256
525,3940.75,0.10002961838613444
526,3943.5,0.10470251852326042
527,3946.24,0.1107247444053423
528,3948.9800000000005,0.11485752028742417
529,3951.73,0.11219197042455015
530,3954.47,0.11327374630663202
531,3957.2200000000003,0.113423666443758
532,3959.96,0.10683517232583987
533,3962.7000000000003,0.10195413820792175
534,3965.45,0.09338469834504773
535,3968.1899999999996,0.0872190242271296
536,3970.94,0.08451179436425557
537,3973.68,0.08652381024633744
538,3976.42,0.09386810612841932
539,3979.17,0.10418267626554528
540,3981.9100000000003,0.11297220214762718
541,3984.66,0.12240351228475316
542,3987.3999999999996,0.12722679816683502
543,3990.14,0.1296949540489169
544,3992.89,0.12812662418604287
545,3995.63,0.12883376006812475
546,3998.38,0.12816469020525073
547,4001.1200000000003,0.1331967260873326
548,4003.86,0.13141489196941447
549,4006.6099999999997,0.13307418210654046
550,4009.35,0.13252346798862233
551,4012.1,0.1362060381257483
552,4014.84,0.13703092400783018
553,4017.58,0.13642670988991207
554,4020.33,0.13810738002703804
555,4023.07,0.1374496659091199
556,4025.82,0.13513193604624588
557,4028.56,0.13689352192832777
558,4031.2999999999997,0.13729560781040964
559,4034.05,0.1355720779475356
560,4036.79,0.13426126382961748
561,4039.54,0.13857013396674345
562,4042.2799999999997,0.13601751984882532
563,4045.0199999999995,0.13497970573090723
564,4047.77,0.13491547586803318
565,4050.5099999999998,0.13682696175011508
566,4053.26,0.13842733188724105
567,4056.0,0.13130362776932292
568,4058.7400000000002,0.13166290365140476
569,4061.49,0.13381997378853078
570,4064.2299999999996,0.13453775967061266
571,4066.98,0.1352229298077386
572,4069.72,0.13353211568982049
573,4072.46,0.13646060157190237
574,4075.21,0.13735977170902833
575,4077.9500000000003,0.13079809759111022
576,4080.7,0.12950276772823618
577,4083.44,0.13002255361031806
578,4086.18,0.13654259949239994
579,4088.9300000000003,0.1393366696295259
580,4091.67,0.13609895551160778
581,4094.4199999999996,0.13234682564873376
582,4097.16,0.12678600153081565
583,4099.900000000001,0.1210753774128975
584,4102.65,0.1167290775500235
