,lambda (Angstroms),Total Flux (erg/s/cm^2/Angstrom)
0,100.03,0.022643614858261565
1,101.89,0.02723527721564252
2,104.02,0.03249347120559303
3,104.712855,0.03420387777704964
4,105.96,0.03163503248618818
5,107.92,0.02759786217363965
6,109.92999999999999,0.023457702824071346
7,114.05999999999999,0.014950808241314837
8,118.07,0.006691087356669009
9,120.22644299999999,0.0022492876012379127
10,121.09,0.0021669826086336747
11,125.06,0.0017886047400495647
12,127.09,0.00159512689755565
13,127.97,0.001511254743813523
14,130.95000000000002,0.0012272331187888298
15,131.85999999999999,0.0011405017620307986
16,134.01,0.0009355868647853569
17,137.13,0.0006382221831630676
18,138.038426,0.0005516408342662501
19,140.0,0.0005450382073694905
20,142.93,0.0005351784970924217
21,146.93,0.0005217230689163993
22,151.05,0.0005078595018444663
23,154.93,0.0004948055078123546
24,158.489319,0.00048283230034319724
25,158.9,0.0004807091889809364
26,161.85000000000002,0.0004654599457206548
27,166.01000000000002,0.0004439584620571055
28,169.86999999999998,0.0004240108270051104
29,173.03,0.00040768267404674103
30,177.06,0.0003868631019648651
31,179.94,0.00037198857053394633
32,181.970086,0.0003615042756484232
33,182.01999999999998,0.00036158772180556266
34,185.82999999999998,0.00036796484338445584
35,191.04,0.00037669048885821796
36,194.14000000000001,0.0003818912398754276
37,198.20999999999998,0.00038872344612479645
38,201.89,0.0003949198893684518
39,205.17000000000002,0.00040044036144214467
40,208.929613,0.00040676913729827835
41,209.95,0.00041710172913213647
42,215.83,0.000476725294617564
43,219.85000000000002,0.0005174938829188257
44,222.91,0.0005485235221347112
45,227.04999999999998,0.0005905435113091447
46,230.21,0.0006232493135360071
47,233.95,0.0006625107612665339
48,239.88329199999998,0.0007240097122396169
49,239.95,0.0007234715190939658
50,246.11,0.00067266138600741
51,251.84,0.0006262187625178054
52,257.11,0.0005819674598528462
53,260.09000000000003,0.0005586636429018824
54,263.71,0.0005296829407601083
55,269.23,0.00048472749186436327
56,274.23,0.0004441379842486525
57,275.42287,0.0004344980646411709
58,278.69,0.0004643385705159018
59,283.87,0.000511644474449247
60,289.82,0.0005654242845078191
61,295.88,0.0006210693840128523
62,300.69,0.0006648941298081014
63,307.7,0.0007295598945325706
64,316.227766,0.0008084671858165255
65,317.78000000000003,0.0007989256739739408
66,328.19,0.0007346965104250398
67,338.15999999999997,0.000673246442511251
68,347.63,0.0006152663169100889
69,357.37,0.0005557161762601082
70,363.078055,0.0005217022542688628
71,365.7,0.0005364730776481798
72,375.08,0.00058800663053689
73,384.7,0.0006396244396402369
74,394.57,0.0006966366602171633
75,404.69,0.0007538644622676697
76,414.11999999999995,0.0008061824814510957
77,416.86938299999997,0.0008212663631726044
78,421.81000000000006,0.0008383293264289901
79,429.65999999999997,0.0008660174928386373
80,440.68,0.0009062750255181681
81,450.94,0.0009424621969784208
82,460.39,0.000974841974376022
83,470.03000000000003,0.0010096589845784427
84,478.630092,0.0010415144958377
85,479.87,0.0010373703823773268
86,489.92,0.0010004643601632967
87,500.17,0.0009673789064126692
88,505.97,0.0009507661618513382
89,511.83,0.0009812781668290286
90,520.14,0.0009582215779833977
91,529.8100000000001,0.0009312215786889029
92,539.66,0.0008927374280114707
93,549.5408739999999,0.0009044488722715447
94,549.6899999999999,0.0009050277307219326
95,559.91,0.0009367862078218897
96,570.32,0.0009648414762769342
97,579.5899999999999,0.0009535607966014552
98,590.37,0.0010125877587479854
99,599.96,0.0010242051276705478
100,609.7099999999999,0.0010799261208921315
101,619.61,0.0011638800493940465
102,629.68,0.0012158438912136722
103,630.957344,0.0012178734654824754
104,639.9100000000001,0.0012594478342242768
105,650.3100000000001,0.0013910443830440619
106,657.8399999999999,0.0014757289179106944
107,665.4599999999999,0.0015582243950267292
108,674.72,0.0016144289086874224
109,685.6800000000001,0.0016496680870590418
110,695.22,0.0019848063654956524
111,704.89,0.00197473963829251
112,716.34,0.002299692680021985
113,724.43596,0.002403380582244386
114,726.3100000000001,0.0024259654250632294
115,734.7199999999999,0.0025438904205003473
116,744.94,0.0028425195409958713
117,755.3,0.003055934361772155
118,765.81,0.003254421861420682
119,774.68,0.003567702872066014
120,785.46,0.00387707879368458
121,794.55,0.0040925633333425354
122,805.6,0.0043318656769311395
123,814.93,0.004550742702784685
124,824.37,0.005026408493144542
125,831.763771,0.004598134102576555
126,835.84,0.004349089090541379
127,845.52,0.005420648417855358
128,855.31,0.0056508954534342706
129,865.21,0.0061248811972781135
130,875.23,0.006621503895592792
131,885.36,0.007257700302172401
132,895.62,0.007752449909428747
133,905.99,0.007861272224950025
134,914.37,0.012185524545496634
135,924.9599999999999,0.08519809727754778
136,935.67,0.19257490896406976
137,944.33,0.37748847017838166
138,954.992586,0.5424975228329719
139,955.26,0.5466363830612978
140,964.0999999999999,0.6275270435350216
141,975.26,0.09878193630501712
142,984.2900000000001,0.5466235014495564
143,995.6800000000001,0.5910921851368546
144,1004.9,0.8861622149522093
145,1014.1999999999999,0.8660066172605388
146,1025.94,0.3722817806046021
147,1035.43,0.6160620175837469
148,1045.01,1.2202381236174886
149,1054.68,1.2146167987058267
150,1064.44,0.9671410428487619
151,1074.29,1.1734000560462936
152,1084.23,0.9343159382984222
153,1094.26,1.2689051896051475
154,1096.4782,1.2607091304381655
155,1104.3899999999999,1.2314699126196602
156,1114.6100000000001,1.197919914365526
157,1124.9199999999998,1.0875378192578817
158,1135.33,1.4105836165352261
159,1145.8300000000002,1.292430316959061
160,1153.78,1.3943987615656785
161,1164.45,1.4567392790439941
162,1175.23,1.0125876781457979
163,1186.1,1.4433649803940913
164,1194.32,0.991828334440179
165,1205.3700000000001,0.7120203429814526
166,1213.73,0.4770803463665247
167,1224.96,1.0078911612007784
168,1236.29,1.5680179684200208
169,1244.86,1.7512337458135696
170,1256.38,1.687869348564291
171,1258.92541,1.6202937181798218
172,1265.0900000000001,1.4566430811948452
173,1273.86,1.920099752501988
174,1285.65,2.0384846549776108
175,1294.56,1.615637337001173
176,1303.53,1.6082080236174865
177,1315.5900000000001,2.04789194676049
178,1324.71,1.9785246448586815
179,1333.89,1.7592913475496246
180,1346.24,2.1248782928909256
181,1355.5700000000002,2.076433007063747
182,1364.97,1.8634947265947777
183,1374.43,1.98301045071856
184,1383.9499999999998,2.019950179435093
185,1393.55,1.7714729142752952
186,1406.4399999999998,1.8592269009513578
187,1416.19,1.9157166472734377
188,1426.01,1.9874963989537273
189,1435.8899999999999,1.9875211552267682
190,1442.52,2.1151256627257826
191,1445.43977,2.15383169008994
192,1445.85,2.1592699125769497
193,1455.87,2.1102305563033315
194,1465.96,1.9558462045268037
195,1476.12,1.9648368572473665
196,1486.35,2.0199705144650197
197,1496.6499999999999,2.0717491761797637
198,1503.56,1.9738516201068392
199,1510.5,1.7592920659612397
200,1517.48,1.8937735143854058
201,1524.48,1.8464269640944548
202,1535.05,1.6119216431551193
203,1545.69,1.796127326712874
204,1556.4,1.7034970147677193
205,1563.59,1.7471894766831568
206,1574.42,1.8807671724473
207,1585.3400000000001,1.9875228739934168
208,1596.33,2.047895580036624
209,1603.7,2.0152610535160087
210,1614.8100000000002,2.038539767268514
211,1626.0,1.9334484861605512
212,1633.51,2.076437968634117
213,1644.83,2.1249126958778937
214,1656.23,1.9693714282612023
215,1659.58691,2.057093626181853
216,1663.88,2.1692816580820082
217,1671.56,1.9379132612538361
218,1675.4099999999999,2.1995930675313806
219,1683.1499999999999,2.303147698852988
220,1694.81,2.17439116929355
221,1706.56,2.095632681958781
222,1714.44,2.0014243789632085
223,1726.3200000000002,2.00143995261963
224,1734.29,2.1493896918487274
225,1746.3100000000002,2.1103073311879688
226,1754.3700000000001,2.2664591126417357
227,1766.53,2.0814008176637966
228,1774.6899999999998,2.149380646033864
229,1786.99,2.1996374167387445
230,1795.2399999999998,2.3622222873334815
231,1803.5200000000002,2.3515051720031086
232,1816.0200000000002,2.184401036540589
233,1824.4099999999999,2.240487972818146
234,1837.0500000000002,2.1594109030384456
235,1845.53,1.9923078815406723
236,1854.05,2.015379878809419
237,1866.8999999999999,2.086138907553949
238,1875.52,2.266505951738995
239,1884.18,2.1005850146905614
240,1892.8700000000001,2.024582091717018
241,1905.46072,2.149316738134039
242,1905.99,2.154559678731538
243,1914.7900000000002,2.0861403568758785
244,1923.63,2.0576070108299667
245,1936.97,2.1201099433805926
246,1945.9099999999999,2.230132536859048
247,1954.8899999999999,2.100573106147251
248,1968.4399999999998,2.3085059116990485
249,1977.5200000000002,2.3786734205116185
250,1982.08,2.255941662822777
251,1995.8200000000002,2.204716353470873
252,2005.03,2.2768277836651207
253,2014.29,2.209787183621552
254,2023.5900000000001,2.319220559387731
255,2032.93,2.209763910963656
256,2047.02,2.3031783899470386
257,2056.47,2.1995786749997683
258,2065.96,2.2249829358622453
259,2075.5,2.3950041664869057
260,2080.2799999999997,2.2820512757516727
261,2085.07,2.3676573789688766
262,2094.7,2.250777555165468
263,2104.3700000000003,2.2767547071718064
264,2114.08,2.3031428349878915
265,2123.8399999999997,2.3514159325661605
266,2133.64,2.1944800059541767
267,2143.4900000000002,2.255820049104377
268,2153.38,2.3459280680643233
269,2163.32,2.282008056786454
270,2173.31,2.2714400152707688
271,2183.34,2.2403689495648296
272,2187.7616199999998,2.2890527860204983
273,2193.42,2.3513600038502034
274,2203.54,2.297839883387264
275,2213.71,2.1995407870327086
276,2223.9300000000003,2.1395437147865386
277,2234.2000000000003,2.286898666648753
278,2244.51,2.1936726377976754
279,2254.87,2.1186376330549823
280,2265.28,2.172586652420674
281,2275.74,2.23296169589475
282,2286.24,2.289659758655534
283,2296.79,2.1712278455247023
284,2307.39,2.180623956502256
285,2312.71,2.0967805216343867
286,2323.39,1.6845096711853556
287,2334.11,1.9740668400230321
288,2344.89,1.9198630377907702
289,2355.71,2.070993254845216
290,2366.58,1.923418496008047
291,2377.5099999999998,1.9814987661009391
292,2382.9900000000002,1.8489624083799008
293,2393.99,1.9715317122245317
294,2405.04,1.8998930401775473
295,2416.14,1.9436913922389474
296,2427.29,2.0536437684087323
297,2432.89,1.9791834685478173
298,2444.12,2.0862788832910177
299,2455.4,2.0618613221426028
300,2466.73,2.0519027851025724
301,2472.42,1.9866235286367497
302,2483.83,2.046431030170135
303,2495.29,1.913885555811905
304,2506.81,2.1320471103837364
305,2511.88643,1.9553792547732474
306,2512.59,1.930893426779964
307,2518.38,1.9846983462988461
308,2524.19,1.9083092620854964
309,2535.8399999999997,1.929944088060449
310,2547.54,1.9030069047048221
311,2553.42,2.020053807428661
312,2565.2000000000003,1.9874256091441065
313,2577.04,2.0900183996628567
314,2582.9800000000005,2.07537129119
315,2594.9100000000003,2.055814064913707
316,2606.8799999999997,1.99934883117295
317,2612.89,1.9762787096372818
318,2624.95,2.0593334591014814
319,2637.07,2.101930197368986
320,2643.15,2.2518300627705066
321,2655.3500000000004,2.2825007861090834
322,2667.61,2.1101304982509648
323,2673.76,2.199247350589674
324,2686.1000000000004,2.1935760478026283
325,2692.29,2.109145892676873
326,2704.72,2.157605573094784
327,2717.2000000000003,2.0743562441821153
328,2723.4599999999996,2.078860075993549
329,2736.04,2.171088728419721
330,2742.3399999999997,1.934817552766691
331,2755.0,1.965692190263936
332,2767.7200000000003,2.029592816564485
333,2774.1,2.115194625982528
334,2786.9,2.0288172373541498
335,2793.33,1.6872660374416126
336,2806.22,1.7991116320181912
337,2812.69,2.1134244246411904
338,2825.67,2.187113002422726
339,2832.19,2.1077477857151456
340,2845.26,2.0733573467016373
341,2851.8199999999997,2.0258621225295936
342,2864.9799999999996,2.1652076667210425
343,2878.21,2.14976619784968
344,2884.0315,2.158179505834188
345,2884.84,2.159348108402596
346,2898.1600000000003,2.1388240575328727
347,2911.5299999999997,2.280717006472197
348,2931.71,2.212502929403803
349,2952.0400000000004,2.191185851762551
350,2972.5,2.220703773624823
351,2993.1000000000004,2.2250196949524286
352,3006.92,2.2447456421731813
353,3027.7599999999998,2.2437735625842152
354,3048.75,2.2427934824223916
355,3069.8799999999997,2.2470994017259014
356,3091.16,2.261559320456554
357,3112.59,2.250215238614349
358,3126.9599999999996,2.2289041837346253
359,3148.63,2.243180100975849
360,3170.46,2.242204017606025
361,3192.43,2.1550499337015343
362,3207.1699999999996,2.2097588774087624
363,3229.4,2.1435047925113193
364,3251.78,2.2279487070410187
365,3266.79,2.2738666497171036
366,3289.44,2.26232856321566
367,3311.31121,2.2613903198910847
368,3312.2400000000002,2.2613504118816823
369,3319.88,2.2871498541197273
370,3327.53,2.2973142956277166
371,3335.2,2.361221735675597
372,3342.89,2.228717174263367
373,3350.59,2.3334686121210817
374,3358.32,2.248649047788632
375,3366.06,2.2122964827261278
376,3373.82,2.131970916203513
377,3381.6000000000004,2.216784348220789
378,3389.39,2.31020977950801
379,3397.21,2.257242208605066
380,3405.0399999999995,2.2464866369720675
381,3412.89,2.2050610638789587
382,3420.75,2.282067490055795
383,3428.64,2.276586914042467
384,3436.54,2.286557337299084
385,3444.4700000000003,2.1434907583655356
386,3452.4100000000003,2.3498701787019325
387,3460.36,2.207803598308275
388,3468.3399999999997,2.2177600157244526
389,3476.34,2.1919614316805203
390,3484.35,2.2118958469065326
391,3492.38,2.226759260672436
392,3500.43,2.160700672978229
393,3508.5,2.200566083823912
394,3516.59,2.145058493209486
395,3524.7000000000003,2.2201009011349493
396,3532.8199999999997,2.2609533083303575
397,3540.97,2.2920207133356016
398,3549.1299999999997,2.3342281176107904
399,3557.3100000000004,2.28068352042587
400,3563.81,2.4827600458901746
401,3566.47,2.538657851695567
402,3569.1299999999997,2.37039465750096
403,3571.8,2.548034462576297
404,3574.46,2.5292772683816898
405,3577.12,2.395605074187082
406,3579.79,2.13078487926242
407,3582.45,2.0770456850678123
408,3585.11,2.351242490873205
409,3587.7799999999997,2.0875942959485423
410,3590.4399999999996,2.208572101753935
411,3593.1000000000004,2.4100679075593274
412,3595.77,2.414749712634665
413,3598.4300000000003,2.1606905184400578
414,3601.1,2.357678323515395
415,3603.7599999999998,2.5957211293207876
416,3606.42,2.04128093512618
417,3609.0899999999997,2.228888740201518
418,3611.7500000000005,2.3414625460069103
419,3614.4100000000003,2.0975653518123027
420,3617.08,2.3043261568876403
421,3619.7400000000002,2.3883659626930327
422,3622.4,2.1733937684984252
423,3625.07,2.145047573573763
424,3627.73,2.2881093793791556
425,3630.39,2.359056185184548
426,3633.0600000000004,2.3031529902598855
427,3635.7200000000003,2.2816597960652776
428,3638.38,2.2828366018706703
429,3641.05,2.0911084069460077
430,3643.71,2.3027672127514003
431,3646.37,2.2320240185567926
432,3649.04,2.2699298236321304
433,3651.7,2.369018629437523
434,3654.37,2.3209334345128605
435,3657.03,2.147393240318253
436,3659.69,2.457159046123645
437,3662.36,2.222239851198983
438,3665.02,2.2974866570043755
439,3667.68,2.255667462809768
440,3670.35,2.4950642678851054
441,3673.0099999999998,2.287324073690498
442,3675.6699999999996,2.3967708794958904
443,3678.34,2.2875146845712284
444,3681.0,2.371164490376621
445,3683.6600000000003,2.222248296182013
446,3686.33,2.1982021012573507
447,3688.99,2.3508399070627433
448,3691.65,2.206027712868136
449,3694.3199999999997,2.371942517943473
450,3696.9800000000005,2.283415323748866
451,3699.65,2.1682971288242032
452,3702.31,2.397348934629596
453,3704.9700000000003,2.2611357404349883
454,3707.64,2.360212545510326
455,3710.3,2.1434813513157187
456,3712.96,2.4237371571211113
457,3715.6299999999997,2.4239239621964486
458,3718.2900000000004,2.848799768001841
459,3720.9500000000003,3.8683815738072336
460,3723.6200000000003,5.640162378882572
461,3726.28,7.5376351846879635
462,3728.94,7.882784990493356
463,3731.61,6.284896795568694
464,3734.27,4.531090601374086
465,3736.93,3.1990224071794784
466,3739.6000000000004,2.901562212254816
467,3742.26,2.7729720180602087
468,3744.92,2.9148618238656008
469,3747.59,2.6359686289409385
470,3750.25,2.558581434746331
471,3752.92,2.540788239821669
472,3755.58,2.8484050456270613
473,3758.24,2.8343388514324537
474,3760.9100000000003,2.8923716565077915
475,3763.57,2.868339462313184
476,3766.23,2.7295862681185765
477,3768.9,2.810291073193914
478,3771.56,2.6256108789993062
479,3774.22,2.632846684804699
480,3776.89,2.7915294898800367
481,3779.5499999999997,3.028790295685429
482,3782.2099999999996,3.3948431014908214
483,3784.88,3.398348906566159
484,3787.54,3.2357547123715515
485,3790.2000000000003,3.062801518176944
486,3792.87,2.9123073232522816
487,3795.5299999999997,2.698117129057674
488,3798.2,2.4569449341330114
489,3800.8599999999997,2.547238739938404
490,3801.8939600000003,2.666735287446169
491,3803.5200000000004,2.8546595704784075
492,3806.19,3.02760841616862
493,3808.85,3.1317792624367713
494,3811.51,3.4012881087049225
495,3814.18,3.4616649543951343
496,3816.84,3.427469800663286
497,3819.5,3.2081996469314378
498,3822.1699999999996,3.2341814926216497
499,3824.8300000000004,3.2760093388898013
500,3827.4900000000002,2.996155185157953
501,3830.1600000000003,2.692637030848165
502,3832.82,2.5427448771163164
503,3835.48,2.332853723384468
504,3838.15,2.33929456907468
505,3840.81,2.5933624153428316
506,3843.47,2.913096261610983
507,3846.1400000000003,3.0948391073011954
508,3848.8,3.416136953569347
509,3851.4700000000003,3.379578799259559
510,3854.13,3.3100116455277107
511,3856.79,3.422195491795862
512,3859.46,3.403618337486074
513,3862.12,3.5683741837542255
514,3864.7799999999997,3.6158710300223773
515,3867.4500000000003,3.768296875712589
516,3870.11,3.9377437219807407
517,3872.77,3.589878568248892
518,3875.44,3.4778834139391046
519,3878.1,3.468313260207256
520,3880.7599999999998,3.3346431064754074
521,3883.43,3.05320895216562
522,3886.0899999999997,2.976212798433771
523,3888.7500000000005,2.9383046447019225
524,3891.42,2.981094490392135
525,3894.08,3.1544483366602862
526,3896.7400000000002,3.212889182928438
527,3899.41,3.3750870286186494
528,3902.07,3.5369118748868016
529,3904.74,3.6877747205770133
530,3907.3999999999996,3.706151566845165
531,3910.0600000000004,3.9195714131133164
532,3912.73,3.9070502588035287
533,3915.3900000000003,3.94164910507168
534,3918.05,3.9875829513398315
535,3920.72,3.996558797030044
536,3923.38,3.927969643298195
537,3926.04,3.876381489566347
538,3928.71,3.449347335256559
539,3931.3700000000003,3.1368561815247107
540,3934.03,3.055366027792862
541,3936.7000000000003,3.241407873483074
542,3939.36,3.5718907197512255
543,3942.02,3.650852566019377
544,3944.69,3.6463454117095893
545,3947.35,3.6911052579777404
546,3950.02,3.648294103667953
547,3952.6800000000003,3.7233469499361043
548,3955.34,3.626808796204256
549,3958.01,3.448757641894468
550,3960.67,3.1092964881626193
551,3963.33,2.972302334430771
552,3966.0,2.8075431801209834
553,3968.66,2.5826040263891348
554,3971.3199999999997,2.607427872657286
555,3973.9900000000002,2.703962718347498
556,3976.65,2.86637256461565
557,3979.31,2.9377114108838014
558,3981.98,3.2771682565740132
559,3984.64,3.5255701028421647
560,3987.2999999999997,3.5838149491103164
561,3989.97,3.7002807948005283
562,3992.6299999999997,3.77689764106868
563,3995.2900000000004,3.7460254873368313
564,3997.96,3.684842333027044
565,4000.62,3.591040179295195
566,4003.29,3.6480950249854076
567,4005.95,3.658654871253559
568,4008.61,3.8224337175217102
569,4011.2799999999997,3.823789563211922
570,4013.9399999999996,3.756372409480074
571,4016.6000000000004,3.7225682557482256
572,4019.27,3.7903711014384376
573,4021.9300000000003,3.857215947706589
574,4024.59,3.7841297939747407
575,4027.2599999999998,3.816950639664953
576,4029.92,3.830442485933104
577,4032.58,3.9735063322012554
578,4035.25,4.077072177891467
579,4037.9100000000003,4.09838202415962
580,4040.57,3.943213870427771
581,4043.2400000000002,3.854279716117983
