,lambda (Angstroms),Total Flux (erg/s/cm^2/Angstrom)
0,100.03,138.74796248981866
1,101.89,138.3620013461398
2,104.02,137.92001358483014
3,104.712855,137.77624202127996
4,105.96,136.41685568236602
5,107.92,134.28045837149133
6,109.92999999999999,132.08956112921842
7,114.05999999999999,127.5878667955941
8,118.07,123.21697229733496
9,120.22644299999999,120.86645238605192
10,121.09,120.0772913238678
11,125.06,116.44930913287487
12,127.09,114.59419481356072
13,127.97,113.79000732539957
14,130.95000000000002,111.06673605865852
15,131.85999999999999,110.23513308802141
16,134.01,108.2703568385606
17,137.13,105.41914665348905
18,138.038426,104.58898208182748
19,140.0,103.3076728754594
20,142.93,101.39378333088295
21,146.93,98.78096484492077
22,151.05,96.08976179990367
23,154.93,93.55532786629165
24,158.489319,91.23036424596538
25,158.9,91.02755572945136
26,161.85000000000002,89.57074345152213
27,166.01000000000002,87.51639122484065
28,169.86999999999998,85.61018940238264
29,173.03,84.04967185028133
30,177.06,82.05951814067384
31,179.94,80.63727430254391
32,181.970086,79.6347474613755
33,182.01999999999998,79.61594242669257
34,185.82999999999998,78.18052988183182
35,191.04,76.21766916298175
36,194.14000000000001,75.04974820673927
37,198.20999999999998,73.51638101992503
38,201.89,72.12994584290502
39,205.17000000000002,70.89421013920331
40,208.929613,69.47778086705247
41,209.95,69.1887612911154
42,215.83,67.52328042646424
43,219.85000000000002,66.38463535106767
44,222.91,65.51790551439007
45,227.04999999999998,64.3452710681859
46,230.21,63.45021738916421
47,233.95,62.390882258446936
48,239.88329199999998,60.71030803385847
49,239.95,60.69574761848396
50,246.11,59.35119774621252
51,251.84,58.10050526039865
52,257.11,56.95021586989644
53,260.09000000000003,56.29976931848658
54,263.71,55.5096288759434
55,269.23,54.304773072604284
56,274.23,53.213418309283064
57,275.42287,52.95304948166005
58,278.69,52.40576228972374
59,283.87,51.53804423947394
60,289.82,50.54134051559391
61,295.88,49.52621120735526
62,300.69,48.72047291567259
63,307.7,47.54620647204781
64,316.227766,46.11769466501754
65,317.78000000000003,45.923485805863436
66,328.19,44.621031024337384
67,338.15999999999997,43.37362722969175
68,347.63,42.18878168656202
69,357.37,40.9701549913675
70,363.078055,40.255988709975234
71,365.7,40.01031737986787
72,375.08,39.13142765922572
73,384.7,38.230049120813476
74,394.57,37.305250037201965
75,404.69,36.35702522956118
76,414.11999999999995,35.47345110546319
77,416.86938299999997,35.215838668845706
78,421.81000000000006,34.862319066691754
79,429.65999999999997,34.30062282014109
80,440.68,33.5121028533958
81,450.94,32.7779622800326
82,460.39,32.101779222475436
83,470.03000000000003,31.41200273621525
84,478.630092,30.796636181896094
85,479.87,30.728402744672607
86,489.92,30.175337391575468
87,500.17,29.611270317811478
88,505.97,29.292093009242585
89,511.83,28.969661163052635
90,520.14,28.512357868136164
91,529.8100000000001,27.980212949409058
92,539.66,27.438151559418785
93,549.5408739999999,26.894441439622955
94,549.6899999999999,26.88818177105624
95,559.91,26.459182182315786
96,570.32,26.02220276943015
97,579.5899999999999,25.633040746215578
98,590.37,25.180559858989334
99,599.96,24.777987266982883
100,609.7099999999999,24.368742045180493
101,619.61,23.953228118731907
102,629.68,23.53054567293765
103,630.957344,23.4769253329248
104,639.9100000000001,23.179007016687063
105,650.3100000000001,22.83300860865318
106,657.8399999999999,22.582481857177687
107,665.4599999999999,22.32895756083555
108,674.72,22.020824934345757
109,685.6800000000001,21.656092399463898
110,695.22,21.338919822000122
111,704.89,21.017075414473428
112,716.34,20.63632454516208
113,724.43596,20.3669806684584
114,726.3100000000001,20.320706076737498
115,734.7199999999999,20.113059356954345
116,744.94,19.860878239387894
117,755.3,19.605153280854783
118,765.81,19.345707723571675
119,774.68,19.1268923007552
120,785.46,18.86088742332209
121,794.55,18.636539219272287
122,805.6,18.363794059689187
123,814.93,18.13352017383939
124,824.37,17.90078558437292
125,831.763771,17.717698070340347
126,835.84,17.642189420598488
127,845.52,17.464538691804915
128,855.31,17.284015715627323
129,865.21,17.101705543065716
130,875.23,16.917202441903356
131,885.36,16.73080797935698
132,895.62,16.54187187399313
133,905.99,16.350518906245263
134,914.37,16.200122830626448
135,924.9599999999999,16.07761174311055
136,935.67,15.987249328993897
137,944.33,16.012272909306667
138,954.992586,15.980418143035047
139,955.26,15.97972589820342
140,964.0999999999999,15.900912995176466
141,975.26,15.170551172033834
142,984.2900000000001,15.455256631023264
143,995.6800000000001,15.293953415584683
144,1004.9,15.422454796590506
145,1014.1999999999999,15.234285268971648
146,1025.94,14.528465428300098
147,1035.43,14.600799192697629
148,1045.01,15.031902884892398
149,1054.68,14.8515832048844
150,1064.44,14.427783152673644
151,1074.29,14.456091928260122
152,1084.23,14.037431631643837
153,1094.26,14.190818762824788
154,1096.4782,14.142548671468077
155,1104.3899999999999,13.99628774850253
156,1114.6100000000001,13.81157596322107
157,1124.9199999999998,13.548700910750252
158,1135.33,13.717774672513464
159,1145.8300000000002,13.444318167087307
160,1153.78,13.428699898693221
161,1164.45,13.33322277746493
162,1175.23,12.729626551894079
163,1186.1,12.999628059133862
164,1194.32,12.426511189171672
165,1205.3700000000001,11.983265062032718
166,1213.73,11.62467413199818
167,1224.96,11.989384470480493
168,1236.29,12.381931723196844
169,1244.86,12.438390503053785
170,1256.38,12.204636302814803
171,1258.92541,12.09941206926818
172,1265.0900000000001,11.870756165818445
173,1273.86,12.241733663831678
174,1285.65,12.235793657169873
175,1294.56,11.718990873509426
176,1303.53,11.616973397703118
177,1315.5900000000001,11.929485276384934
178,1324.71,11.763948070213972
179,1333.89,11.447912171897148
180,1346.24,11.683269038540637
181,1355.5700000000002,11.536439409859156
182,1364.97,11.22437864034084
183,1374.43,11.244139178676662
184,1383.9499999999998,11.180691024866624
185,1393.55,10.830982281528767
186,1406.4399999999998,10.782811918859503
187,1416.19,10.73648844515699
188,1426.01,10.704716830617642
189,1435.8899999999999,10.600557523932435
190,1442.52,10.658249041814727
191,1445.43977,10.666166253237224
192,1445.85,10.668584974782698
193,1455.87,10.545793334584982
194,1465.96,10.317141463367918
195,1476.12,10.25134936113151
196,1486.35,10.231185027875757
197,1496.6499999999999,10.207150463600659
198,1503.56,10.058391801548142
199,1510.5,9.792750326201618
200,1517.48,9.875855433129756
201,1524.48,9.776985331195224
202,1535.05,9.46467944727408
203,1545.69,9.570569332333589
204,1556.4,9.399107986373753
205,1563.59,9.389878400243855
206,1574.42,9.443741801107999
207,1585.3400000000001,9.470120762090128
208,1596.33,9.449601492052913
209,1603.7,9.362720026158982
210,1614.8100000000002,9.304223502945744
211,1626.0,9.116768144281828
212,1633.51,9.204480216349207
213,1644.83,9.169634000077936
214,1656.23,8.93018294835598
215,1659.58691,8.99319658545551
216,1663.88,9.083251124918913
217,1671.56,8.81228765276871
218,1675.4099999999999,9.05411836529758
219,1683.1499999999999,9.117768584771204
220,1694.81,8.928897657001494
221,1706.56,8.789560766667524
222,1714.44,8.654726266596743
223,1726.3200000000002,8.593493208114397
224,1734.29,8.700352745479357
225,1746.3100000000002,8.599299967452607
226,1754.3700000000001,8.713897542253306
227,1766.53,8.46614704468215
228,1774.6899999999998,8.492057105522562
229,1786.99,8.478899888407
230,1795.2399999999998,8.598950986683151
231,1803.5200000000002,8.545545430771211
232,1816.0200000000002,8.313996185735075
233,1824.4099999999999,8.326827564466821
234,1837.0500000000002,8.180583599886276
235,1845.53,7.969761016053763
236,1854.05,7.948907226637131
237,1866.8999999999999,7.953416682739983
238,1875.52,8.08934237936306
239,1884.18,7.878773870402025
240,1892.8700000000001,7.7579687072529016
241,1905.46072,7.817790527269064
242,1905.99,7.821034288086084
243,1914.7900000000002,7.719375882818609
244,1923.63,7.657452366618097
245,1936.97,7.669567870451264
246,1945.9099999999999,7.745822576918169
247,1954.8899999999999,7.582344172452041
248,1968.4399999999998,7.739096343886779
249,1977.5200000000002,7.774967162088063
250,1982.08,7.635011515722189
251,1995.8200000000002,7.5318879102250165
252,2005.03,7.5692116178939415
253,2014.29,7.467194436896575
254,2023.5900000000001,7.541500144966174
255,2032.93,7.3967647421027385
256,2047.02,7.436958915941519
257,2056.47,7.297664958012241
258,2065.96,7.287223889149926
259,2075.5,7.421210931621323
260,2080.2799999999997,7.290203175123762
261,2085.07,7.357716640892942
262,2094.7,7.204462683765012
263,2104.3700000000003,7.193914615704044
264,2114.08,7.183626436710046
265,2123.8399999999997,7.195034369049754
266,2133.64,7.001082190456428
267,2143.4900000000002,7.025217123196809
268,2153.38,7.077968945004157
269,2163.32,6.976503878145212
270,2173.31,6.928201922619975
271,2183.34,6.859245856161703
272,2187.7616199999998,6.891228488526991
273,2193.42,6.939071023330502
274,2203.54,6.859680849561656
275,2213.71,6.7353838834322906
276,2223.9300000000003,6.649261124942408
277,2234.2000000000003,6.770362574092006
278,2244.51,6.650780789353192
279,2254.87,6.5492622122538595
280,2265.28,6.576599842794008
281,2275.74,6.6102356809736404
282,2286.24,6.640092285264856
283,2296.79,6.494691097195554
284,2307.39,6.4769901167657356
285,2312.71,6.379547009606618
286,2323.39,5.93997456139997
287,2334.11,6.202127879304907
288,2344.89,6.120366846377223
289,2355.71,6.243837579561124
290,2366.58,6.068475520384507
291,2377.5099999999998,6.0986151103752695
292,2382.9900000000002,5.952070067662493
293,2393.99,6.046519748348531
294,2405.04,5.946633636674049
295,2416.14,5.9620567326390495
296,2427.29,6.0435060362435316
297,2432.89,5.954730291865514
298,2444.12,6.033118127693168
299,2455.4,5.979865171160302
300,2466.73,5.940943422266919
301,2472.42,5.86111865163997
302,2483.83,5.891758434969759
303,2495.29,5.729917425939029
304,2506.81,5.9186300660756785
305,2511.88643,5.728985183320554
306,2512.59,5.703159662079221
307,2518.38,5.745939631833044
308,2524.19,5.658487515126603
309,2535.8399999999997,5.657939152023328
310,2547.54,5.608723572769392
311,2553.42,5.7145741534520305
312,2565.2000000000003,5.659515228357044
313,2577.04,5.739563043881268
314,2582.9800000000005,5.713605365183115
315,2594.9100000000003,5.671331791636156
316,2606.8799999999997,5.592074045168671
317,2612.89,5.557560063859598
318,2624.95,5.617650928320927
319,2637.07,5.637169533401467
320,2643.15,5.7754922494814736
321,2655.3500000000004,5.782932508720961
322,2667.61,5.587217508579659
323,2673.76,5.664623922048745
324,2686.1000000000004,5.63545557606639
325,2692.29,5.539238816614951
326,2704.72,5.5640300815614125
327,2717.2000000000003,5.457017130357214
328,2723.4599999999996,5.449601068294855
329,2736.04,5.517875684789342
330,2742.3399999999997,5.269608449806454
331,2755.0,5.276376720459889
332,2767.7200000000003,5.316056731732536
333,2774.1,5.389510150908595
334,2786.9,5.278759816340188
335,2793.33,4.92496501936559
336,2806.22,5.012266295726
337,2812.69,5.314259325830875
338,2825.67,5.363232213120101
339,2832.19,5.271452027074318
340,2845.26,5.212174525292358
341,2851.8199999999997,5.152188166326051
342,2864.9799999999996,5.266475275472908
343,2878.21,5.225842082008844
344,2884.0315,5.223170459931643
345,2884.84,5.223251706242135
346,2898.1600000000003,5.184813511457215
347,2911.5299999999997,5.308725071196378
348,2931.71,5.213370797115321
349,2952.0400000000004,5.164711786606505
350,2972.5,5.1667129378603
351,2993.1000000000004,5.14332380178152
352,3006.92,5.144463152237407
353,3027.7599999999998,5.115463237874215
354,3048.75,5.086253587083263
355,3069.8799999999997,5.06214164895974
356,3091.16,5.047981974408456
357,3112.59,5.007816563429415
358,3126.9599999999996,4.967179213650189
359,3148.63,4.952311024386734
360,3170.46,4.9219756496003395
361,3192.43,4.805273987481369
362,3207.1699999999996,4.840159021180339
363,3229.4,4.744007682586588
364,3251.78,4.798352607565079
365,3266.79,4.824083515694085
366,3289.44,4.782083315102611
367,3311.31121,4.751730356797594
368,3312.2400000000002,4.750805730239749
369,3319.88,4.769327693488897
370,3327.53,4.772205130511931
371,3335.2,4.8288065150827375
372,3342.89,4.688976847201316
373,3350.59,4.786393653093781
374,3358.32,4.694210880307906
375,3366.06,4.650485581295916
376,3373.82,4.562768229831699
377,3381.6000000000004,4.640170825915256
378,3389.39,4.726175895772698
379,3397.21,4.665759386951798
380,3405.0399999999995,4.647545351904787
381,3412.89,4.598642264405546
382,3420.75,4.668161650680192
383,3428.64,4.655165458276498
384,3436.54,4.65761073964669
385,3444.4700000000003,4.50699044233854
386,3452.4100000000003,4.705806618804276
387,3460.36,4.5561672690439
388,3468.3399999999997,4.558522340605183
389,3476.34,4.525103359714237
390,3484.35,4.537407852597179
391,3492.38,4.544622293027892
392,3500.43,4.470895681006379
393,3508.5,4.503074016532638
394,3516.59,4.43986029960667
395,3524.7000000000003,4.507177530228473
396,3532.8199999999997,4.540295234624164
397,3540.97,4.563599360341515
398,3549.1299999999997,4.59803395983275
399,3557.3100000000004,4.536697506871758
400,3563.81,4.732582459897865
401,3566.47,4.785946483751626
402,3569.1299999999997,4.615149507605388
403,3571.8,4.790246005233033
404,3574.46,4.768955029086795
405,3577.12,4.6327490529405555
406,3579.79,4.365385550568202
407,3582.45,4.309112574421963
408,3585.11,4.580775598275723
409,3587.7799999999997,4.314584095903371
410,3590.4399999999996,4.433028119757132
411,3593.1000000000004,4.631990143610892
412,3595.77,4.63412864123854
413,3598.4300000000003,4.3775356650923
414,3601.1,4.571980162719948
415,3603.7599999999998,4.807489186573708
416,3606.42,4.250515210427469
417,3609.0899999999997,4.435579708055116
418,3611.7500000000005,4.545619731908876
419,3614.4100000000003,4.299188755762637
420,3617.08,4.503406253390285
421,3619.7400000000002,4.584912277244046
422,3622.4,4.367406301097806
423,3625.07,4.336516798725453
424,3627.73,4.477044822579214
425,3630.39,4.545457846432974
426,3633.0600000000004,4.487011344060621
427,3635.7200000000003,4.462984367914382
428,3638.38,4.461627391768143
429,3641.05,4.267355889395789
430,3643.71,4.476480913249551
431,3646.37,4.403203937103312
432,3649.04,4.438566434730959
433,3651.7,4.535121458584719
434,3654.37,4.4844929562123665
435,3657.03,4.3084189800661274
436,3659.69,4.615651003919888
437,3662.36,4.378188501547534
438,3665.02,4.450901525401296
439,3667.68,4.4065485492550565
440,3670.35,4.643402046882704
441,3673.0099999999998,4.433128070736465
442,3675.6699999999996,4.540041094590225
443,3678.34,4.428241592217872
444,3681.0,4.509357616071632
445,3683.6600000000003,4.3579076399253935
446,3686.33,4.3313181375530405
447,3688.99,4.481422161406801
448,3691.65,4.334076185260562
449,3694.3199999999997,4.497447682888209
450,3696.9800000000005,4.406386706741969
451,3699.65,4.288725204369617
452,3702.31,4.515243228223378
453,3704.9700000000003,4.376496252077138
454,3707.64,4.473029749704786
455,3710.3,4.2537647735585455
456,3712.96,4.531486797412307
457,3715.6299999999997,4.529130295039954
458,3718.2900000000004,4.951472318893714
459,3720.9500000000003,5.968520342747475
460,3723.6200000000003,7.737757840375123
461,3726.28,9.632696864228883
462,3728.94,9.975312888082643
463,3731.61,8.37488138571029
464,3734.27,6.618541409564052
465,3736.93,5.283939433417812
466,3739.6000000000004,4.983935931045459
467,3742.26,4.85281195489922
468,3744.92,4.992167978752981
469,3747.59,4.710731476380627
470,3750.25,4.6308105002343884
471,3752.92,4.6104739978620355
472,3755.58,4.915557021715797
473,3758.24,4.898957045569557
474,3760.9100000000003,4.954446543197204
475,3763.57,4.9278805670509644
476,3766.23,4.786593590904726
477,3768.9,4.864755088532373
478,3771.56,4.677541112386134
479,3774.22,4.682243136239894
480,3776.89,4.838382633867541
481,3779.5499999999997,5.073109657721302
482,3782.2099999999996,5.436628681575063
483,3784.88,5.43759117920271
484,3787.54,5.27246320305647
485,3790.2000000000003,5.096976226910231
486,3792.87,4.943938724537878
487,3795.5299999999997,4.727214748391639
488,3798.2,4.483499246019286
489,3800.8599999999997,4.571259269873047
490,3801.8939600000003,4.68977091919032
491,3803.5200000000004,4.876595550586867
492,3806.19,5.04773873967128
493,3808.85,5.150110692092454
494,3811.51,5.417820644513629
495,3814.18,5.476391833598041
496,3816.84,5.440397786019215
497,3819.5,5.219328738440391
498,3822.1699999999996,5.243504927524803
499,3824.8300000000004,5.283533879945978
500,3827.4900000000002,5.001880832367152
501,3830.1600000000003,4.696557021451564
502,3832.82,4.5448659738727395
503,3835.48,4.333175926293915
504,3838.15,4.337811115378327
505,3840.81,4.5900800677995015
506,3843.47,4.9080150202206765
507,3846.1400000000003,5.087952209305088
508,3848.8,5.4074511617262635
509,3851.4700000000003,5.369087350810676
510,3854.13,5.29772130323185
511,3856.79,5.408106255653026
512,3859.46,5.387723444737437
513,3862.12,5.5506803971586125
514,3864.7799999999997,5.596378349579787
515,3867.4500000000003,5.746998538664199
516,3870.11,5.914646491085374
517,3872.77,5.564982443506549
518,3875.44,5.451181632590962
519,3878.1,5.439812585012136
520,3880.7599999999998,5.304343537433311
521,3883.43,5.021103726517724
522,3886.0899999999997,4.942308678938899
523,3888.7500000000005,4.902601631360072
524,3891.42,4.943585820444485
525,3894.08,5.11514077286566
526,3896.7400000000002,5.171782725286835
527,3899.41,5.332174914371247
528,3902.07,5.492200866792422
529,3904.74,5.641258055876834
530,3907.3999999999996,5.657836008298009
531,3910.0600000000004,5.869456960719184
532,3912.73,5.855130149803596
533,3915.3900000000003,5.887930102224771
534,3918.05,5.932065054645946
535,3920.72,5.939235243730359
536,3923.38,5.868847196151533
537,3926.04,5.815460148572708
538,3928.71,5.38662033765712
539,3931.3700000000003,5.072330290078295
540,3934.03,4.98904124249947
541,3936.7000000000003,5.173277431583882
542,3939.36,5.501961384005057
543,3942.02,5.579124336426232
544,3944.69,5.5728115255106445
545,3947.35,5.615772477931818
546,3950.02,5.571155667016232
547,3952.6800000000003,5.644409619437406
548,3955.34,5.546072571858581
549,3958.01,5.366215760942993
550,3960.67,5.024955713364168
551,3963.33,4.886162665785343
552,3966.0,4.719597854869755
553,3968.66,4.49285980729093
554,3971.3199999999997,4.515884759712105
555,3973.9900000000002,4.610613948796517
556,3976.65,4.771224901217692
557,3979.31,4.840764853638866
558,3981.98,5.178416042723279
559,3984.64,5.425018995144454
560,3987.2999999999997,5.4814649475656285
561,3989.97,5.59612513665004
562,3992.6299999999997,5.670943089071216
563,3995.2900000000004,5.63827204149239
564,3997.96,5.575283230576803
565,4000.62,5.479682182997977
566,4003.29,5.53493137208239
567,4005.95,5.5436923245035645
568,4008.61,5.705672276924739
569,4011.2799999999997,5.705222466009152
570,4013.9399999999996,5.636006418430327
571,4016.6000000000004,5.600403370851501
572,4019.27,5.666400559935914
573,4021.9300000000003,5.731446512357088
574,4024.59,5.656561464778263
575,4027.2599999999998,5.687576653862676
576,4029.92,5.699269606283851
577,4032.58,5.840534558705025
578,4035.25,5.942294747789437
579,4037.9100000000003,5.961805700210612
580,4040.57,5.804838652631787
581,4043.2400000000002,5.714098841716199
582,4045.9,5.7058577941373745
583,4048.56,5.773247746558549
584,4051.23,5.796640935642961
585,4053.89,5.860514888064136
586,4056.56,5.866708077148549
587,4059.2200000000003,5.782053029569723
588,4061.88,5.760326981990898
589,4064.55,5.87869917107531
590,4067.21,5.759061123496485
591,4069.87,5.79440107591766
592,4072.54,5.777729265002073
593,4075.2,5.842189217423247
594,4077.8599999999997,5.7247001698444215
595,4080.53,5.633178358928834
596,4083.19,5.656987311350009
597,4085.85,5.555524263771184
598,4088.52,5.586929452855596
599,4091.18,5.523967405276771
600,4093.84,5.155540357697946
601,4096.51,5.197696546782359
