,lambda (Angstroms),Total Flux (erg/s/cm^2/Angstrom)
0,102.03,0.005612428359317553
1,103.92999999999999,0.006566883494325894
2,104.712855,0.0069601476702389
3,106.1,0.00637874938034371
4,108.08,0.005548874738867508
5,110.09,0.004706449046745454
6,113.95,0.0030886458126458934
7,117.96,0.0014079956005170792
8,120.22644299999999,0.0004587565926152811
9,120.97999999999999,0.00044438132603495504
10,124.94999999999999,0.0003678286798350066
11,126.97999999999999,0.000328669954984655
12,127.86,0.0003117519883106109
13,131.14000000000001,0.00024848838061644656
14,132.05,0.00023134089244215112
15,133.88,0.0001961341309268099
16,137.0,0.00013668161790065378
17,138.038426,0.00011676369910177816
18,139.87,0.00011590007609176593
19,143.13,0.0001234013858063659
20,147.14,0.00014651594921297507
21,150.91,0.00014898604343814125
22,155.14,0.00015223759526107315
23,158.489319,0.0001559307515281317
24,159.12,0.00015639442435828784
25,162.08,0.0001586521413460405
26,165.86,0.00016366694844526517
27,170.10999999999999,0.00016737990499862628
28,172.87,0.0001715108673250443
29,176.9,0.00017624539775093728
30,180.19,0.0001799804939298921
31,181.86,0.0001836569413520363
32,181.970086,0.0001838103469760582
33,186.09,0.0001952826781958011
34,190.87,0.00021095942429310118
35,193.97,0.00022194590356122468
36,198.03,0.00023473060673173476
37,202.18,0.0002495943902680936
38,204.99,0.0002609775550240378
39,208.929613,0.00026931149610371307
40,209.76000000000002,0.0002724947260850225
41,216.14000000000001,0.0003159743376369101
42,220.16,0.0003404199869219552
43,223.22000000000003,0.0003555250244374374
44,226.85,0.0003815888689410975
45,230.0,0.0005356914075599763
46,233.73999999999998,0.0008423341867455654
47,239.73000000000002,0.001040258893516068
48,239.88329199999998,0.001040016422347162
49,245.88,0.0010080380826878934
50,252.19,0.0010770289169633703
51,256.88,0.0009406266715991846
52,259.85,0.0010685253676052332
53,264.08,0.001122580158886575
54,268.99,0.001133223587300615
55,273.99,0.0011366905368057475
56,275.42287,0.0011390634907415458
57,279.08,0.0011579309900445404
58,284.27,0.0011846576894614532
59,290.21999999999997,0.0011610660808931742
60,296.3,0.0012088956170116384
61,301.11,0.0012201309704211473
62,308.13,0.0012632397835052951
63,316.227766,0.001311611170982268
64,318.22,0.0013172685542384352
65,327.89,0.001323297769497555
66,337.85,0.0013183187637044662
67,348.12,0.0013074330388555683
68,357.05,0.001301031680247909
69,363.078055,0.0013003287895233155
70,366.21,0.0013073516353847546
71,374.74,0.0013133729145617813
72,385.24,0.0012834082335956363
73,395.12,0.0013261804537913018
74,405.26,0.0013394165218868527
75,413.74,0.001337224099544671
76,416.86938299999997,0.0013345715390192551
77,422.41,0.0013275834102989491
78,430.26,0.0013217225996914185
79,441.3,0.0013232528851554774
80,450.53999999999996,0.0013105194392938745
81,459.97,0.0013007918706277582
82,469.6,0.0012913893832200486
83,478.630092,0.001290725122417605
84,480.54,0.001287846103033959
85,489.46999999999997,0.0012506730346604005
86,499.72,0.001239860218218186
87,505.51,0.001220538368735218
88,512.54,0.0012770958468241189
89,519.67,0.0012610989803623638
90,530.55,0.001234591693251018
91,540.42,0.0011897119861012952
92,549.5408739999999,0.001195523818502854
93,550.47,0.0011966256585213882
94,559.41,0.001221527721354585
95,569.81,0.001241629237402152
96,580.4,0.0012085064494159721
97,589.83,0.0012440557807937176
98,599.4200000000001,0.0012210197508798874
99,610.56,0.0011613313459539155
100,620.48,0.0012941339458762099
101,630.57,0.001302362536926205
102,630.957344,0.0013027462182378007
103,639.34,0.0013162605708990957
104,649.73,0.0013621485344540714
105,657.25,0.0013792382578355358
106,664.86,0.0014261351002468317
107,675.66,0.0014420503838265945
108,685.06,0.0014095960380534254
109,694.59,0.0015922010864344567
110,704.26,0.0015268770977507817
111,715.6999999999999,0.0017183887833204564
112,724.43596,0.0017635742740407948
113,725.6500000000001,0.001769666970098608
114,735.75,0.0018171678006304569
115,744.27,0.0019341438081682148
116,754.62,0.0020160604018320404
117,765.12,0.0020181674533750514
118,775.77,0.002223804962797249
119,784.75,0.0022983833744978435
120,795.67,0.0024220677081025752
121,804.88,0.002536006821884588
122,814.2,0.0026326972714446704
123,825.52,0.002829929826060565
124,831.763771,0.002572199356701742
125,835.08,0.002433170664463794
126,844.75,0.0029897291039105867
127,854.5400000000001,0.003071284423681434
128,864.4300000000001,0.0032824944770556614
129,874.4399999999999,0.0034865514107539444
130,884.5699999999999,0.003728983224776282
131,894.8100000000001,0.003919369345762337
132,905.17,0.003949670347072448
133,915.65,0.005347796228706614
134,924.1199999999999,0.02966948086491285
135,934.8199999999999,0.06430875436047445
136,945.65,0.12241969030972046
137,954.4,0.17608491700001616
138,954.992586,0.17706689413308552
139,965.45,0.1943998230104341
140,974.38,0.03162152820578365
141,985.6700000000001,0.1576691082791875
142,994.79,0.1716797701808211
143,1003.99,0.2598019264851006
144,1015.62,0.25329131276974953
145,1025.02,0.1106287550806438
146,1034.5,0.172867991794184
147,1044.07,0.3424369222107008
148,1056.16,0.33541417631056375
149,1065.9299999999998,0.25920089273369534
150,1075.8,0.3130253021601343
151,1085.75,0.2424593059892192
152,1095.8,0.3307985028216115
153,1096.4782,0.3299497154923301
154,1105.94,0.3181065833890068
155,1116.1699999999998,0.3031053431846069
156,1123.91,0.2707631482498996
157,1134.31,0.35281747081825154
158,1144.8,0.31884557367806043
159,1155.39,0.341638954639488
160,1166.0900000000001,0.35200671151269625
161,1174.1699999999998,0.2380178421234928
162,1185.03,0.3416293639592911
163,1196.0,0.22834046170687006
164,1204.29,0.161679146331066
165,1215.43,0.11527460685139686
166,1223.86,0.23205556081785905
167,1235.18,0.3577145819211037
168,1243.74,0.3940236074196703
169,1255.25,0.3745546869159906
170,1258.92541,0.3510078114796623
171,1263.95,0.3188184603245927
172,1275.65,0.42025994256584615
173,1284.49,0.44311768025923765
174,1296.3700000000001,0.34240246530420265
175,1305.3600000000001,0.33770800533402046
176,1314.41,0.43103144629840884
177,1323.52,0.4116431881973677
178,1335.77,0.3601919790055177
179,1345.0200000000002,0.43702432308514116
180,1354.35,0.4222023684108587
181,1363.74,0.3737035146711467
182,1376.3500000000001,0.3949341110867199
183,1385.8899999999999,0.3985919596834342
184,1395.5,0.34239920937048085
185,1405.17,0.354430859992098
186,1414.92,0.36773331185980923
187,1424.7199999999998,0.3788969645063292
188,1434.6000000000001,0.37629241839894323
189,1441.22,0.39858712151322506
190,1445.43977,0.4032834422475694
191,1447.87,0.4059881190113159
192,1454.56,0.39311130646917897
193,1464.64,0.3601913382442552
194,1474.79,0.36102137093443615
195,1485.01,0.36858300453972176
196,1495.31,0.3754211391908413
197,1505.67,0.3544288746263363
198,1512.6200000000001,0.3137210654831597
199,1516.11,0.3377093111076653
200,1526.62,0.32624264850409895
201,1533.66,0.28090554053748557
202,1544.2900000000002,0.3079988795026701
203,1555.0,0.2914442195136886
204,1565.78,0.2989224604398118
205,1576.6299999999999,0.31954710228103966
206,1583.91,0.33692689745192805
207,1594.8899999999999,0.3439748409926361
208,1605.9399999999998,0.33692918544844885
209,1613.3600000000001,0.3384753824495466
210,1624.54,0.3195473286048395
211,1635.8,0.3416176758059663
212,1643.3500000000001,0.34715617450654424
213,1654.74,0.3202924234071512
214,1659.58691,0.33300668810574807
215,1666.2099999999998,0.35038071907099955
216,1673.9,0.30942405322851735
217,1677.76,0.35362602173931307
218,1685.51,0.36943486162497796
219,1693.29,0.3455677043747164
220,1705.02,0.3315408242274712
221,1716.8400000000001,0.31372825267244664
222,1724.77,0.3115757097425528
223,1736.72,0.33385595059851353
224,1744.74,0.32625141626084037
225,1756.8300000000002,0.34797377048247763
226,1764.94,0.31883624473702504
227,1773.09,0.3255107228103372
228,1785.38,0.3323088961257981
229,1793.62,0.3552706827913309
230,1806.05,0.3520087694724683
231,1814.3899999999999,0.3240074656849129
232,1826.96,0.3315527657317269
233,1835.4,0.3180992714910832
234,1843.87,0.29212318011451316
235,1856.6499999999999,0.29348920020984187
236,1865.22,0.3030975183801836
237,1873.83,0.3277736403692901
238,1886.82,0.3010146805131336
239,1895.53,0.28946221204915185
240,1904.28,0.30661594740393483
241,1905.46072,0.30512520971257995
242,1913.07,0.2955163237224874
243,1926.33,0.2887988919368712
244,1935.22,0.297560697926756
245,1944.15,0.3115917989942106
246,1953.1299999999999,0.29077929390862745
247,1966.66,0.31956632889660735
248,1975.74,0.32776991150494866
249,1984.86,0.3101392891908597
250,1994.02,0.3016868619543406
251,2003.23,0.31013502856478364
252,2017.1100000000001,0.2996173204814992
253,2026.4199999999998,0.31300727478586676
254,2035.7800000000002,0.2968672229371966
255,2045.17,0.3087071673967037
256,2054.61,0.290107905703173
257,2064.1,0.29347233785660465
258,2073.63,0.317359465087606
259,2078.41,0.3044656768571954
260,2083.2000000000003,0.3166142873961772
261,2092.81,0.2996089047823181
262,2107.32,0.3009899191707578
263,2117.05,0.3044601217896081
264,2126.82,0.3072896194860282
265,2136.63,0.28613021226001806
266,2146.5,0.2941229976503626
267,2156.4,0.30515897934888453
268,2166.36,0.29480415366376106
269,2176.36,0.29277712305620746
270,2186.4,0.28876898752622354
271,2187.7616199999998,0.2905070964115642
272,2196.5,0.3016635773340586
273,2206.63,0.29346257124325964
274,2216.8199999999997,0.27831537103938586
275,2227.0499999999997,0.2707315747601288
276,2237.33,0.2894330833866428
277,2242.4900000000002,0.27767618966220814
278,2252.84,0.2639756051568015
279,2263.24,0.2694954255571659
280,2273.68,0.277040249882147
281,2284.1800000000003,0.2848099800940533
282,2294.7200000000003,0.2676191142305764
283,2305.31,0.2700366532728704
284,2315.96,0.25722439820208964
285,2326.65,0.2052403470559257
286,2337.39,0.23776000081553272
287,2342.77,0.2291457286764904
288,2353.59,0.24888009028533098
289,2364.45,0.22747335581878836
290,2375.36,0.2343355262580167
291,2386.33,0.21664630258417025
292,2397.34,0.23047428283494056
293,2402.87,0.2216080254132112
294,2413.96,0.22725101351321508
295,2425.1,0.24287480651898996
296,2436.3,0.23405050541169004
297,2447.54,0.24672120822900687
298,2453.1800000000003,0.24387006159997365
299,2464.51,0.24045967324767828
300,2475.88,0.23172168881999966
301,2487.31,0.23327261027924623
302,2493.05,0.215685773461755
303,2504.5499999999997,0.24643760178908095
304,2510.33,0.21610056889620652
305,2511.88643,0.217453361601837
306,2516.1099999999997,0.22112376122330707
307,2527.7300000000005,0.2135582199741351
308,2533.55,0.2180024989698166
309,2545.25,0.21496415468278457
310,2557.0,0.23294170849709
311,2562.89,0.22448948483464398
312,2574.72,0.23773473561108938
313,2586.6099999999997,0.23333218410913975
314,2592.57,0.22905425778856617
315,2604.54,0.22070480324875646
316,2616.56,0.21663464681028427
317,2622.59,0.22785501783158316
318,2634.69,0.24019255835525088
319,2646.8599999999997,0.26207329622079106
320,2652.9599999999996,0.2731302645839624
321,2665.2,0.24169989979137504
322,2677.51,0.25302293234066014
323,2683.68,0.255315998045704
324,2696.06,0.23932202793686155
325,2702.28,0.2488476917432428
326,2714.75,0.23219231821680783
327,2727.28,0.2294632424119778
328,2733.57,0.24136520356023153
329,2746.19,0.20681412433780894
330,2752.52,0.21355008396713263
331,2765.22,0.22355180170685002
332,2777.9900000000002,0.23348991678843986
333,2784.39,0.214892573759636
334,2797.24,0.1742387858033658
335,2803.6899999999996,0.1858123408758994
336,2816.63,0.22799284950203663
337,2823.1299999999997,0.24481300267590775
338,2836.16,0.23644360788445243
339,2842.7000000000003,0.2268336595393935
340,2855.82,0.2121201613303456
341,2862.4,0.24295241146635668
342,2875.61,0.24795280983971624
343,2882.24,0.24340555807706477
344,2884.0315,0.2437759399201668
345,2895.54,0.2461556811043727
346,2908.9100000000003,0.2710547707141295
347,2929.0699999999997,0.2575821550471659
348,2949.3799999999997,0.2516090392636326
349,2969.82,0.2573542233790723
350,2990.41,0.25725130737794233
351,3011.13,0.2601238912757853
352,3032.0099999999998,0.26059757504928727
353,3053.02,0.2610951587217622
354,3067.12,0.26342964776421324
355,3088.38,0.2645246312424054
356,3109.7799999999997,0.26748101461179924
357,3131.34,0.261880297856852
358,3153.0399999999995,0.2617573809931065
359,3167.6,0.26471136967807724
360,3189.5600000000004,0.2480754526122776
361,3211.6699999999996,0.2584482354299083
362,3226.4900000000002,0.24169102391282496
363,3248.85,0.26547650653617283
364,3271.37,0.2791361890351798
365,3286.4700000000003,0.2752307773004997
366,3309.2599999999998,0.27258415958968124
367,3311.31121,0.27265631975148324
368,3324.53,0.2731211616205353
369,3332.19,0.27434184782546295
370,3339.88,0.26074273358471795
371,3347.57,0.2845293193439729
372,3355.2900000000004,0.2723146046575553
373,3363.03,0.2432392896740227
374,3370.7799999999997,0.2552451745419325
375,3378.55,0.2678297591127272
376,3386.3399999999997,0.2708878433864068
377,3394.14,0.272087727511529
378,3401.9700000000003,0.29285381119097853
379,3409.81,0.2652057947218705
380,3417.67,0.26212647795564736
381,3425.55,0.2769633608923092
382,3433.4500000000003,0.295354543531856
383,3441.36,0.2711972260228452
384,3449.29,0.2625606082167194
385,3457.24,0.2667758901134784
386,3465.22,0.25414787156456486
387,3473.2000000000003,0.27669405301565136
388,3481.21,0.2599759340210652
389,3489.2400000000002,0.27344891472936406
390,3497.2799999999997,0.2598924952891053
391,3505.34,0.27778907555173143
392,3513.42,0.2646252555172426
393,3521.52,0.28221033518563865
394,3529.64,0.2497457145569196
395,3537.7799999999997,0.2763198936310855
396,3545.93,0.28140437255669387
397,3554.1,0.2852903511851872
398,3562.2999999999997,0.27681572936800786
399,3570.51,0.253011007402271
400,3578.7400000000002,0.2535476851394191
401,3586.99,0.23333846257945212
402,3593.31,0.2606359686910895
403,3596.05,0.25916812798632477
404,3598.7799999999997,0.3043211874301175
405,3601.5200000000004,0.32120344672535267
406,3604.25,0.28675630616914544
407,3606.99,0.24238866546438062
408,3609.7200000000003,0.23104442490817337
409,3612.46,0.22546438420340856
410,3615.2000000000003,0.1992445434986438
411,3617.93,0.19357470294243653
412,3620.67,0.22286016223767172
413,3623.4,0.22713842168146448
414,3626.14,0.34271508097669967
415,3628.8700000000003,0.28692144042049245
416,3631.61,0.2657394997157276
417,3634.35,0.28658935901096283
418,3637.08,0.2760512184547556
419,3639.82,0.27762107774999073
420,3642.55,0.2735922371937835
421,3645.29,0.26387919648901875
422,3648.02,0.24524035593281146
423,3650.76,0.2597050152280467
424,3653.5,0.27346697452328184
425,3656.2299999999996,0.2930992339670746
426,3658.97,0.27423169326230984
427,3661.7,0.26573935270610255
428,3664.44,0.3007239120013378
429,3667.17,0.2911570714451305
430,3669.9100000000003,0.2919002307403657
431,3672.65,0.2508182900356009
432,3675.3799999999997,0.28179534947939366
433,3678.12,0.3009920087746289
434,3680.85,0.2796669682184216
435,3683.59,0.2857003275136568
436,3686.32,0.2739429869574495
437,3689.06,0.23391484625268477
438,3691.79,0.2749143056964775
439,3694.5299999999997,0.28462606499171267
440,3697.2699999999995,0.2794592242869479
441,3700.0,0.2915694837307407
442,3702.74,0.32981904302597587
443,3705.4700000000003,0.28305580246976864
444,3708.21,0.2555091617650038
445,3710.9399999999996,0.2837585212087966
446,3713.68,0.28910998050403175
447,3716.4199999999996,0.27129633979926693
448,3719.15,0.2725163992430597
449,3721.89,0.33705125853829493
450,3724.6200000000003,0.39995551798208767
451,3727.36,0.4312614772773229
452,3730.0899999999997,0.3939216367211156
453,3732.83,0.3241361960163508
454,3735.5699999999997,0.291733255311586
455,3738.3,0.28181511475537874
456,3741.04,0.309938974050614
457,3743.77,0.2986569334944067
458,3746.51,0.2655307927896419
459,3749.24,0.26241125223343464
460,3751.9799999999996,0.24660211152866984
461,3754.72,0.2752426708239051
462,3757.45,0.2865470302676978
463,3760.19,0.282392689562933
464,3762.92,0.2889442490067258
465,3765.6600000000003,0.3058058083019609
466,3768.39,0.3098776677457537
467,3771.1299999999997,0.3051240270409889
468,3773.86,0.29975208648478163
469,3776.6,0.33339334578001684
470,3779.34,0.376870905075252
471,3782.07,0.3789591645190448
472,3784.81,0.38670742381428
473,3787.54,0.37889738325807276
474,3790.2799999999997,0.35903774255330795
475,3793.01,0.29968980199710066
476,3795.75,0.2710684612923359
477,3798.49,0.2747668205875711
478,3801.2200000000003,0.3360589800313638
479,3801.8939600000003,0.3350625422965522
480,3803.96,0.33200794572176384
481,3806.6899999999996,0.3526115136159253
482,3809.43,0.37711898139248295
483,3812.16,0.39059344928664447
484,3814.9,0.3303551170632021
485,3817.64,0.33481788483975977
486,3820.3700000000003,0.34651495273392124
487,3823.11,0.34432372051047894
488,3825.8399999999997,0.2733001884046404
489,3828.58,0.2879094561811981
490,3831.31,0.2745815240753596
491,3834.05,0.2542261918519172
492,3836.79,0.2712739596284749
493,3839.52,0.31173612752263635
494,3842.26,0.33585099529919404
495,3844.99,0.3200433631933555
496,3847.7299999999996,0.3676332309699132
497,3850.46,0.3565787988640747
498,3853.2,0.37468016664063236
499,3855.9300000000003,0.3487676345347938
500,3858.67,0.39024080231135144
501,3861.4100000000003,0.39013657008790914
502,3864.14,0.3980729379820706
503,3866.8799999999997,0.3864999057586283
504,3869.61,0.3954693736527898
505,3872.35,0.3676538414293474
506,3875.0800000000004,0.3521357093235089
507,3877.82,0.3648436771000666
508,3880.56,0.34397154487662424
509,3883.29,0.3412035127707857
510,3886.0299999999997,0.3134087805473434
511,3888.76,0.33459094844150483
512,3891.5,0.33558201621806255
513,3894.23,0.367799284112224
514,3896.9700000000003,0.3515973518887817
515,3899.71,0.3628794196653393
516,3902.4399999999996,0.3860868875595009
517,3905.18,0.4056553553360585
518,3907.91,0.41084332323021994
519,3910.65,0.44429839100677765
520,3913.38,0.4382655589009391
521,3916.1200000000003,0.4257210266774968
522,3918.86,0.3823864944540544
523,3921.5899999999997,0.37548556234821595
524,3924.33,0.3657309301247736
525,3927.06,0.3295274980189351
526,3929.8,0.31601206579549274
527,3932.53,0.28695843368965424
528,3935.27,0.3152477014662119
529,3938.0,0.3393022693603734
530,3940.74,0.3616606371369311
531,3943.4799999999996,0.3716201049134887
532,3946.21,0.3948689728076502
533,3948.95,0.3930495405842079
534,3951.6800000000003,0.39046760847836937
535,3954.42,0.36808687625492703
536,3957.1499999999996,0.37259284414908844
537,3959.89,0.3271091119256462
538,3962.6299999999997,0.29073857970220385
539,3965.36,0.27212054759636534
540,3968.1,0.25910111537292296
541,3970.8300000000004,0.27610898326708444
542,3973.57,0.29602905104364213
543,3976.2999999999997,0.3310978189378036
544,3979.04,0.36860338671436127
545,3981.7799999999997,0.398772854490919
546,3984.51,0.4131359223850804
547,3987.25,0.4305758901616381
548,3989.98,0.4347926580557996
549,3992.7200000000003,0.44888492583235723
550,3995.45,0.45235789372651874
551,3998.1899999999996,0.44452496150307635
552,4000.93,0.4482229292796341
553,4003.66,0.4724637971737955
554,4006.4,0.4631223649503532
555,4009.13,0.4450834328445147
556,4011.8700000000003,0.4547741006210724
557,4014.6,0.4623385685152338
558,4017.3399999999997,0.4633707362917915
559,4020.07,0.47920120418595297
560,4022.81,0.4630610719625106
561,4025.55,0.4513018397390683
562,4028.28,0.46043690763322975
563,4031.02,0.45971267540978744
564,4033.75,0.45956924330394894
565,4036.49,0.46952851108050664
566,4039.2200000000003,0.4765764789746681
567,4041.96,0.46897084675122575
568,4044.7,0.4520042145277834
569,4047.4300000000003,0.4582254824219449
570,4050.17,0.4521698501985026
571,4052.8999999999996,0.434337418092664
572,4055.64,0.43770478586922174
573,4058.37,0.4395037537633832
574,4061.11,0.4454128215399409
575,4063.85,0.4514045893164985
576,4066.5800000000004,0.43927565721066
577,4069.32,0.44661062498721765
578,4072.0499999999997,0.44884369288137915
579,4074.79,0.4510124606579368
