,lambda (Angstroms),Total Flux (erg/s/cm^2/Angstrom)
0,100.1,0.00047626194132983647
1,101.97,0.0005726295657941453
2,104.10000000000001,0.00068238941122777
3,104.712855,0.0007139727339127609
4,106.04,0.0006569366847017248
5,108.01,0.0005722808505379204
6,110.02,0.0004859449036515008
7,113.88000000000001,0.00032010106776912174
8,117.88,0.00014824948090759026
9,120.22644299999999,4.821778540088877e-05
10,120.91,4.7102696730903275e-05
11,124.87,3.9609796901790934e-05
12,126.9,3.573627586565506e-05
13,128.07,3.3531601120690084e-05
14,131.06,2.783946355022394e-05
15,131.96,2.647056636178931e-05
16,134.10999999999999,2.2384825633862206e-05
17,136.92,1.7586347101083004e-05
18,138.038426,1.5498581617577755e-05
19,140.10999999999999,1.5606758851060724e-05
20,143.04000000000002,2.1641193849846275e-05
21,147.04999999999998,3.516388971507838e-05
22,151.17000000000002,3.715793776115226e-05
23,155.04,3.9720939032585745e-05
24,158.489319,4.238976160117335e-05
25,159.01999999999998,4.278036168297478e-05
26,161.98000000000002,4.4880113846160706e-05
27,166.13,4.827568522360043e-05
28,170.0,5.113583031533337e-05
29,173.16000000000003,5.371557411116699e-05
30,177.2,5.695967909065048e-05
31,180.07999999999998,5.942690660077733e-05
32,181.970086,6.0986791831896264e-05
33,182.16,6.11706240353424e-05
34,185.97,6.527299691817968e-05
35,191.19,7.057183708836619e-05
36,193.83999999999997,7.42326666000509e-05
37,197.89999999999998,7.862089339908486e-05
38,202.05,8.346169640794962e-05
39,204.86,8.71046436260002e-05
40,208.929613,8.909994948561594e-05
41,210.10999999999999,8.988667832921509e-05
42,216.0,0.00010208974067957657
43,220.02,0.00010861515022939886
44,223.08,0.00011223049481209939
45,227.22,0.00011932649748281187
46,229.85999999999999,0.00017744698614239663
47,234.13,0.0002764123113607402
48,239.88329199999998,0.0003443126213966127
49,240.13,0.0003471293566570952
50,245.73000000000002,0.0003355966661357553
51,252.03,0.00036393103929924795
52,256.72,0.0003163971759876258
53,260.29,0.0003673761307802716
54,263.91,0.00040559709726469115
55,268.82,0.0004204800053968735
56,273.81,0.0004350570122358938
57,275.42287,0.00043477846110191997
58,278.90000000000003,0.00043542722572055136
59,284.09,0.00047531397237243864
60,290.03999999999996,0.0004938585139097661
61,296.10999999999996,0.0005142683177974262
62,300.92,0.0005082846670065934
63,307.93,0.0005737820593051927
64,316.227766,0.0006433783525607379
65,318.02,0.0006578344143245454
66,327.68,0.0007516302362403673
67,337.64000000000004,0.0008176348917560593
68,347.90000000000003,0.0008897664808716217
69,356.82,0.0012058492599077637
70,363.078055,0.0016356261510613896
71,365.97999999999996,0.0018356216311758136
72,375.37,0.002054610487857564
73,384.99,0.0019548547371949906
74,394.87,0.0030357915608388345
75,405.0,0.004100798898238848
76,414.43,0.004537675997121586
77,416.86938299999997,0.004554451954910188
78,422.14000000000004,0.004590475084741775
79,429.99,0.004806558594295965
80,441.02000000000004,0.006173911452943441
81,451.29,0.006941741951430259
82,459.68,0.006769345822151232
83,470.39,0.007523839318625799
84,478.630092,0.008811525416419356
85,480.23999999999995,0.00906287033451827
86,490.29,0.008517364854967598
87,500.56000000000006,0.011041911020640692
88,506.35,0.010211307956302543
89,512.2199999999999,0.01624713821750031
90,520.5400000000001,0.016397254073235473
91,530.22,0.016321356463081194
92,540.07,0.014547564669690736
93,549.5408739999999,0.015060416285563765
94,550.12,0.015091808781015504
95,560.34,0.020447231258607437
96,569.45,0.02385502387806561
97,580.03,0.024522796579917138
98,589.46,0.026215230509828286
99,600.42,0.023527262892842727
100,610.1700000000001,0.023690028133206854
101,620.09,0.03093890875724912
102,630.1600000000001,0.030444635308066216
103,630.957344,0.030758403559853133
104,640.4,0.03447484928679577
105,649.3100000000001,0.03455412542040926
106,658.35,0.03292309631242563
107,664.44,0.037539649225299496
108,675.23,0.040502854172739404
109,684.63,0.036349708241871476
110,695.75,0.042902575268334096
111,705.43,0.03643509958633394
112,715.24,0.04682494866273666
113,724.43596,0.0483464541642769
114,725.19,0.048471200967026985
115,735.28,0.04971312110160193
116,745.5100000000001,0.049485564151820136
117,754.14,0.05028959388040109
118,764.63,0.04650458234538535
119,775.27,0.05266021393427311
120,784.25,0.049829760951962204
121,795.1600000000001,0.05425890816387625
122,804.3699999999999,0.0564230799715507
123,815.5600000000001,0.05773925301475127
124,825.0,0.05963227961241108
125,831.763771,0.05220628152568858
126,834.5500000000001,0.049147073975328706
127,844.22,0.060461494940884396
128,855.96,0.06046069192491994
129,865.87,0.06330698199406751
130,875.9,0.064482046615011
131,884.0000000000001,0.06552957886123655
132,894.24,0.06659610394782292
133,904.59,0.06613528404022224
134,915.07,0.0659819582304005
135,925.67,0.16344703697237467
136,934.23,0.271244048333818
137,945.0500000000001,0.395690457087418
138,954.992586,0.4774811353090249
139,955.99,0.4856861985195259
140,964.84,0.5374665350107102
141,976.0099999999999,0.1833897548532558
142,985.04,0.4491065900527354
143,994.1600000000001,0.4470444246063626
144,1005.6700000000001,0.5812511420090215
145,1014.97,0.5799037752709439
146,1024.36,0.3494310078870141
147,1033.8400000000001,0.47901983985723184
148,1045.81,0.7216645539588675
149,1055.49,0.7020341844938579
150,1065.26,0.5852600143829958
151,1075.11,0.6581902436980427
152,1085.06,0.5589236722954759
153,1095.1,0.6797645002470567
154,1096.4782,0.6762174960627283
155,1105.23,0.6536932937913814
156,1115.46,0.6358499640254708
157,1125.78,0.568035132238159
158,1136.2,0.6828997982048464
159,1144.07,0.6373108214445611
160,1154.66,0.6536846835930465
161,1165.34,0.656668143720131
162,1176.1299999999999,0.46062300137661416
163,1184.28,0.6285782183275259
164,1195.24,0.5015909721658074
165,1206.3,0.41053372375808767
166,1214.66,0.31071033599239717
167,1225.9,0.4845632835418755
168,1234.3899999999999,0.6285888928563836
169,1245.82,0.66582023613846
170,1254.45,0.6432238423085666
171,1258.92541,0.6234924647517051
172,1266.06,0.5920373531887871
173,1274.84,0.6971498672154158
174,1283.67,0.7167292813219227
175,1295.55,0.6030469003010055
176,1304.5300000000002,0.5988708146471472
177,1313.57,0.702041729089143
178,1325.73,0.6719409485155442
179,1334.92,0.6184965631971748
180,1344.17,0.6891841779746594
181,1353.49,0.6688522928639736
182,1366.01,0.6142674128654986
183,1375.48,0.6256483279944476
184,1385.0100000000002,0.6256536432192507
185,1394.6100000000001,0.5120971585558832
186,1404.28,0.5120938740043455
187,1414.01,0.5825615895486617
188,1423.8200000000002,0.5798931052207831
189,1433.69,0.5879744209887585
190,1443.62,0.6044582368525878
191,1445.43977,0.6067385263300608
192,1446.9499999999998,0.6086309417847379
193,1453.6299999999999,0.5906841507414199
194,1463.71,0.5537698642568921
195,1473.85,0.5550737778528136
196,1484.0700000000002,0.5602189915560007
197,1494.3600000000001,0.5615225053530454
198,1504.71,0.5337634192305392
199,1511.6599999999999,0.4879195285492428
200,1518.64,0.510912437908171
201,1525.65,0.49928754730732383
202,1536.22,0.4358623614797982
203,1543.31,0.43386457098621667
204,1554.0100000000002,0.42106638533299773
205,1564.78,0.4470449997736362
206,1575.63,0.4735332143215404
207,1586.55,0.487921328963302
208,1593.8700000000001,0.4935726387781092
209,1604.9199999999998,0.48122905359417756
210,1616.05,0.4768104685175114
211,1623.51,0.45956817852003357
212,1634.76,0.482336593604266
213,1646.0900000000001,0.48456440879576407
214,1653.6899999999998,0.4616891189860011
215,1659.58691,0.47460984330631273
216,1665.1499999999999,0.48679918136515443
217,1672.84,0.4429441566638061
218,1676.7,0.4958458944600083
219,1684.43,0.5027487701503305
220,1696.1100000000001,0.4768135845181134
221,1703.9399999999998,0.46168996118761174
222,1715.75,0.4388878768283238
223,1723.6699999999998,0.43386335437908075
224,1735.62,0.4564030713906395
225,1743.6299999999999,0.4470471498226551
226,1755.72,0.46381846820506056
227,1763.8200000000002,0.43586264751833476
228,1776.0500000000002,0.4368692672715869
229,1784.24,0.44295174746611965
230,1796.61,0.4595708685902186
231,1804.9,0.4574568497639276
232,1813.23,0.4259443313293071
233,1825.8,0.4318674544117584
234,1834.23,0.4191334369563141
235,1846.94,0.3893630614096122
236,1855.4699999999998,0.39026284493334407
237,1864.04,0.3984280288487465
238,1876.96,0.41816785535831463
239,1885.6200000000001,0.3875711401549757
240,1894.32,0.37269942534330713
241,1903.07,0.39205901102122676
242,1905.46072,0.3893316198534846
243,1916.26,0.3770112981254191
244,1925.1,0.3658958865496753
245,1933.9899999999998,0.37788107434284707
246,1942.9199999999998,0.3902580616311511
247,1956.38,0.36337409174319735
248,1965.4099999999999,0.3902616777693324
249,1974.4900000000002,0.39934636316438293
250,1983.6000000000001,0.37962344818078275
251,1992.76,0.369273532566098
252,2006.57,0.3778768582605526
253,2015.8300000000002,0.36843044138369885
254,2025.14,0.37962362387576054
255,2034.4799999999998,0.35921560598917157
256,2043.8700000000001,0.367578887471498
257,2053.31,0.33756106832273997
258,2062.79,0.3454202486691143
259,2072.31,0.374414028510621
260,2077.08,0.3559182683051575
261,2086.67,0.3658916472631458
262,2096.3,0.3478194257162666
263,2105.98,0.3502302035383028
264,2115.7000000000003,0.35265718085547143
265,2125.4700000000003,0.3550949575415555
266,2135.2799999999997,0.336784133722772
267,2145.13,0.33833600939912084
268,2155.03,0.3478187844443852
269,2164.98,0.337560258858565
270,2174.97,0.33523583276787716
271,2185.01,0.32836300604610485
272,2187.7616199999998,0.33129558737091436
273,2195.1,0.33911674516344326
274,2205.23,0.33139544710345054
275,2215.41,0.31794694954661673
276,2225.6400000000003,0.3099925524929419
277,2235.9100000000003,0.3216270558417943
278,2246.23,0.3114256596938056
279,2256.6,0.3008473640489759
280,2267.01,0.3050414688066733
281,2277.48,0.30856877416816153
282,2282.73,0.31142602699985333
283,2293.26,0.29470273296513233
284,2303.85,0.29623213953420213
285,2314.48,0.28699524650579905
286,2325.17,0.24272495408118674
287,2335.9,0.2718691620591016
288,2346.68,0.26583057054017545
289,2357.5099999999998,0.2772368795244083
290,2362.9500000000003,0.26180653426810413
291,2373.85,0.26499124395675955
292,2384.81,0.25031115424920564
293,2395.8199999999997,0.2610484650448108
294,2406.88,0.2529171763435748
295,2412.4300000000003,0.25532963219422045
296,2423.56,0.2638516441974071
297,2434.75,0.2550425568043844
298,2445.9900000000002,0.26355376991452084
299,2457.28,0.25948798352781616
300,2462.94,0.2571895404854115
301,2474.31,0.2503264549037612
302,2485.73,0.25279506982526984
303,2497.2,0.22805308524993748
304,2502.96,0.2559499432138508
305,2511.88643,0.24032653927397832
306,2514.5099999999998,0.23573462282405877
307,2520.31,0.24241320023470964
308,2526.12,0.23587517760641336
309,2537.78,0.23656343219403214
310,2543.63,0.2323131094099472
311,2555.3700000000003,0.24118156368598878
312,2567.1699999999996,0.23692021772834743
313,2573.08,0.2447606947105796
314,2584.96,0.242109248441361
315,2596.89,0.23893200197740663
316,2602.88,0.23249147864806158
317,2614.8900000000003,0.22944613187253
318,2626.96,0.2349370848633155
319,2633.02,0.23773396126134036
320,2645.17,0.2485232139405486
321,2657.3799999999997,0.24982356638607395
322,2663.51,0.23430254251146873
323,2675.7999999999997,0.23990729464541685
324,2681.9700000000003,0.23888407061502304
325,2694.35,0.22986252239844673
326,2706.79,0.23266987394818756
327,2713.03,0.22484144964516364
328,2725.5499999999997,0.22447370088332722
329,2738.1299999999997,0.22984515188780788
330,2744.44,0.2106611273121539
331,2757.1099999999997,0.21225947796611017
332,2763.4700000000003,0.2162761531957204
333,2776.22,0.22196890353809945
334,2782.62,0.2140102786119211
335,2795.46,0.18609232860377575
336,2801.9100000000003,0.19447830348286163
337,2814.84,0.2173448531241919
338,2827.8399999999997,0.2220439024928921
339,2834.35,0.21458007713829505
340,2847.44,0.21128852615647087
341,2854.0,0.20607440060713803
342,2867.17,0.2164290493137366
343,2873.78,0.21451482356966803
344,2884.0315,0.2138648524485699
345,2887.0499999999997,0.21367348340240017
346,2893.7000000000003,0.21129998287235377
347,2907.0600000000004,0.22039138180747855
348,2927.21,0.21411358020139806
349,2947.5,0.20993897858415872
350,2967.93,0.21015687695576046
351,2988.5099999999998,0.20892977531540632
352,3009.2200000000003,0.20818797366469033
353,3030.08,0.2069743720020184
354,3051.08,0.20529317032818764
355,3072.23,0.2041011686424009
356,3093.5299999999997,0.20291316694465827
357,3107.81,0.20119456580645334
358,3129.3500000000004,0.19774176408958122
359,3151.04,0.19704816236075312
360,3172.88,0.1954546606199691
361,3187.53,0.18809255945227288
362,3209.6200000000003,0.19047795769156228
363,3231.87,0.18464495591809874
364,3246.79,0.18908445472888183
365,3269.2900000000004,0.1910522529354917
366,3291.96,0.18907885112855152
367,3307.1499999999996,0.18791834991781392
368,3311.31121,0.18843082971226927
369,3322.4199999999996,0.18979893265994252
370,3330.07,0.19118812100382085
371,3337.75,0.18864050930198895
372,3345.45,0.18483949756968351
373,3353.16,0.18195578582214128
374,3360.8900000000003,0.18286567404412557
375,3368.64,0.1837820622356363
376,3376.4,0.17397015041191033
377,3384.18,0.1780904385577108
378,3391.99,0.186123526657801
379,3399.81,0.18965831474265443
380,3407.6400000000003,0.17870800281227112
381,3415.5,0.18168429083617751
382,3423.37,0.18857467884484713
383,3431.2599999999998,0.18821706682304323
384,3439.1699999999996,0.18656385477076584
385,3447.1000000000004,0.17498354268801491
386,3455.05,0.17707623057479047
387,3463.01,0.17073921844632925
388,3471.0,0.17803510627215777
389,3479.0,0.1696975940827495
390,3487.02,0.17412128186286774
391,3495.06,0.17540076961251244
392,3503.1099999999997,0.1766857573469204
393,3511.19,0.17393194503561807
394,3519.28,0.17480483270907898
395,3527.3900000000003,0.17050062035206637
396,3535.53,0.17656040794934347
397,3543.6800000000003,0.1807455955313838
398,3551.85,0.18082148308295062
399,3560.03,0.1775916706192807
400,3568.24,0.17123725810990048
401,3576.47,0.16473204557004673
402,3584.71,0.16067713301495623
403,3592.97,0.16037452042939224
404,3601.26,0.17389910779811793
405,3609.56,0.16845639515160687
406,3617.88,0.16930218247462228
407,3626.22,0.17694586976716417
408,3634.58,0.17061405702923257
409,3636.1,0.15618355471324502
410,3638.8399999999997,0.1728154505383727
411,3641.58,0.19273254636350035
412,3644.3199999999997,0.20667554218862802
413,3647.06,0.1723276380137557
414,3649.8,0.1438181338388834
415,3652.55,0.1570176296487743
416,3655.29,0.14347042547390196
417,3658.0299999999997,0.16930182129902965
418,3660.77,0.18032281712415732
419,3663.5099999999998,0.20819251294928498
420,3666.25,0.19578910877441266
421,3668.99,0.19937250459954034
422,3671.7300000000005,0.19973030042466802
423,3674.4700000000003,0.1843669962497957
424,3677.21,0.17405079207492336
425,3679.9500000000003,0.18240458790005104
426,3682.69,0.1774172837251787
427,3685.4300000000003,0.1798784795503064
428,3688.17,0.17219687537543404
429,3690.91,0.16003737120056172
430,3693.65,0.1627154670256894
431,3696.39,0.14793216285081706
432,3699.13,0.16709025867594476
433,3701.87,0.17240285450107243
434,3704.6099999999997,0.16696555032620009
435,3707.35,0.17594284615132777
436,3710.0899999999997,0.16424424197645546
437,3712.83,0.14949893780158313
438,3715.57,0.1791739336267108
439,3718.3100000000004,0.18174352945183847
440,3721.05,0.23114032527696615
441,3723.79,0.41026342110209385
442,3726.53,0.7378155169272215
443,3729.27,1.0385765127523492
444,3732.01,1.0753315085774768
445,3734.75,0.7600964044026045
446,3737.49,0.4084368002277322
447,3740.23,0.23332519605285984
448,3742.97,0.22191929187798753
449,3745.71,0.1996115877031152
450,3748.45,0.1805781835282429
451,3751.1899999999996,0.16919397935337055
452,3753.93,0.1502851751784982
453,3756.6699999999996,0.1803830710036259
454,3759.4100000000003,0.19362136682875358
455,3762.15,0.17828516265388128
456,3764.8900000000003,0.18011745847900892
457,3767.63,0.1833376543041366
458,3770.37,0.18837385012926428
459,3773.12,0.1702665459391552
460,3775.8599999999997,0.18958174176428286
461,3778.6,0.20155143758941055
462,3781.34,0.20828993341453822
463,3784.0800000000004,0.2130333292396659
464,3786.82,0.22058492506479357
465,3789.56,0.21312552088992123
466,3792.3,0.2072111167150489
467,3795.04,0.18585761254017658
468,3797.78,0.17997040836530429
469,3800.52,0.18093530419043194
470,3801.8939600000003,0.18930793352762176
471,3803.2599999999998,0.19763230044924457
472,3806.0,0.20158959714425662
473,3808.74,0.2069347938392687
474,3811.48,0.2019582905342807
475,3814.22,0.20186618722929275
476,3816.9599999999996,0.19550728392430478
477,3819.7,0.19886838061931683
478,3822.4399999999996,0.20847457731432886
479,3825.1800000000003,0.19415747400934089
480,3827.92,0.18349427070435295
481,3830.6600000000003,0.19311666739936498
482,3833.4,0.17532476409437703
483,3836.1400000000003,0.17911416078938905
484,3838.88,0.15837855748440108
485,3841.62,0.19016225417941313
486,3844.36,0.20656645087442516
487,3847.1,0.2061436475694372
488,3849.84,0.20568284426444924
489,3852.58,0.22307914095946127
490,3855.3199999999997,0.21187923765447333
491,3858.06,0.21477403434948536
492,3860.7999999999997,0.22104633104449742
493,3863.54,0.23000192773950942
494,3866.28,0.24217232443452147
495,3869.0200000000004,0.2848362211295335
496,3871.76,0.29869251782454553
497,3874.5,0.2825214145195576
498,3877.2400000000002,0.23186151121456963
499,3879.98,0.20628490790958168
500,3882.7200000000003,0.2191220046045937
501,3885.46,0.21365760129960573
502,3888.2,0.2143839979946178
503,3890.94,0.24821699468962982
504,3893.69,0.22269349137257985
505,3896.4300000000003,0.2193161880675919
506,3899.17,0.21359698476260394
507,3901.9100000000003,0.20617018145761598
508,3904.65,0.21001907815262802
509,3907.39,0.22630937484764005
510,3910.13,0.2308360715426521
511,3912.87,0.22320856823766413
512,3915.61,0.20989446493267616
513,3918.35,0.21284356162768822
514,3921.0899999999997,0.21266465832270023
515,3923.83,0.21400915501771228
516,3926.5699999999997,0.2161830517127243
517,3929.31,0.20228884840773637
518,3932.05,0.1959950451027484
519,3934.7900000000004,0.16315424179776042
520,3937.53,0.17391503849277248
521,3940.27,0.1872888351877845
522,3943.01,0.20811113188279656
523,3945.75,0.2054006285778086
524,3948.4900000000002,0.22110552527282062
525,3951.23,0.19780582196783267
526,3953.97,0.2011614186628447
527,3956.71,0.20065731535785675
528,3959.45,0.19959481205286878
529,3962.19,0.1949544087478808
530,3964.93,0.19327930544289287
531,3967.6699999999996,0.1985540021379049
532,3970.41,0.20791079883291694
533,3973.1499999999996,0.20012079552792897
534,3975.8900000000003,0.20766149222294103
535,3978.63,0.17607828891795307
536,3981.3700000000003,0.1810656856129651
537,3984.11,0.19624468230797715
538,3986.85,0.19704167900298916
539,3989.59,0.21919757569800122
540,3992.33,0.20839887239301327
541,3995.07,0.2186609690880253
542,3997.81,0.22009756578303732
543,4000.5499999999997,0.21837366247804935
544,4003.29,0.2321541591730614
545,4006.0299999999997,0.24078445586807343
546,4008.77,0.24763675256308548
547,4011.52,0.2474512492460355
548,4014.26,0.22734454594104755
549,4017.0,0.23077614263605958
550,4019.74,0.22607613933107162
551,4022.48,0.21342333602608368
552,4025.22,0.2365550327210957
553,4027.96,0.23481492941610776
554,4030.7,0.22588642611111978
555,4033.4399999999996,0.23006612280613184
556,4036.18,0.22492701950114388
557,4038.9199999999996,0.2315136161961559
558,4041.6600000000003,0.22198341289116794
559,4044.4,0.23084140958617996
560,4047.1400000000003,0.22497590628119202
561,4049.88,0.21993970297620405
562,4052.62,0.2258431996712161
563,4055.36,0.21682259636622814
564,4058.1,0.21756529306124017
565,4060.84,0.22190218975625223
566,4063.58,0.21889898645126424
567,4066.3199999999997,0.2273991831462763
568,4069.06,0.23262517984128833
569,4071.7999999999997,0.22278047653630037
570,4074.54,0.2186062732313124
