,lambda (Angstroms),Total Flux (erg/s/cm^2/Angstrom)
0,102.02,0.049191246811073244
1,103.92,0.057563851479635275
2,104.712855,0.06106360700052158
3,106.09,0.0561200519835924
4,108.07000000000001,0.04906232245577788
5,110.08,0.04206300763511774
6,113.94,0.028386528422307652
7,117.95,0.014177846745269167
8,120.22644299999999,0.00971161240748242
9,120.97,0.010834535742909697
10,124.94,0.01138654383777957
11,126.97,0.01147176285858205
12,128.14000000000001,0.011661309166138155
13,131.13,0.011712961285448215
14,132.04,0.013183427191325188
15,133.87,0.013241652441605254
16,136.98999999999998,0.015346839261754881
17,138.038426,0.015439470021098963
18,139.86,0.01589642804665678
19,143.12,0.041320942755753085
20,147.13,0.09490969535804639
21,150.9,0.09798352583451665
22,155.13,0.10229111955214776
23,158.489319,0.10650446614026328
24,159.11,0.1072809595827103
25,162.07,0.11050350156682638
26,165.84,0.11642713916146069
27,170.09,0.12046768896973545
28,172.85999999999999,0.12406526778595217
29,176.89,0.12807312866297507
30,180.17,0.13102224545618477
31,181.83999999999997,0.13311057961614212
32,181.970086,0.1332330059199178
33,186.07999999999998,0.1371505803732288
34,190.85000000000002,0.14195381201299512
35,193.95,0.14592533110802144
36,198.01,0.14931997418086237
37,202.16000000000003,0.15385078200162344
38,204.97000000000003,0.1567048480200183
39,208.929613,0.154838690727635
40,210.23,0.15424522591252804
41,216.12,0.1664674449136215
42,220.14,0.17118145822166833
43,223.2,0.17162162208301737
44,226.82999999999998,0.17687736842834326
45,229.98000000000002,0.2629794400503202
46,234.26,0.43081609800018106
47,239.88329199999998,0.5223424852821772
48,240.27,0.5286240618655302
49,245.86,0.4855147013445721
50,252.17,0.5058853455507893
51,256.86,0.41322072912086205
52,259.83,0.4775473236204604
53,264.05,0.4965092235491825
54,268.96,0.48740376967478105
55,273.96,0.4762594913912765
56,275.42287,0.4731247474687545
57,279.06,0.46544150729674905
58,284.24,0.45916519034619396
59,290.2,0.4286492279860959
60,296.27,0.4238738938374725
61,301.09000000000003,0.40864632092209113
62,308.1,0.40408645512606967
63,316.227766,0.3997835111880866
64,318.19,0.39869126940202265
65,327.86,0.3842071881470668
66,337.82,0.36684996960525074
67,348.09,0.34946078361886007
68,357.02,0.33907481819934027
69,363.078055,0.3359398327822421
70,366.17999999999995,0.33439816270891404
71,374.71,0.3216645743407618
72,385.2,0.29626608958321005
73,395.09000000000003,0.29907621596527034
74,405.22,0.29373099789148577
75,413.71,0.28322195026597435
76,416.86938299999997,0.2786210273461869
77,422.36999999999995,0.2705908675424752
78,430.21999999999997,0.26089806928250814
79,441.26,0.25505326115638893
80,450.5,0.24480755326822393
81,459.93,0.2333649692438304
82,469.56,0.22554766297077533
83,478.630092,0.22221050998908012
84,480.5,0.22149922771727246
85,490.56,0.20770894912356314
86,499.68,0.20763841206843103
87,505.47,0.19832530301698204
88,512.5,0.21137933278698437
89,519.63,0.20466725601032956
90,530.51,0.1941056837340316
91,540.37,0.17870311823363658
92,549.5408739999999,0.17205518549007753
93,550.42,0.17142210004855407
94,559.36,0.17698924118469156
95,569.76,0.17818352483299468
96,580.35,0.17097427154794947
97,589.78,0.16823158585597817
98,599.37,0.15490713222013455
99,610.51,0.13502551412802846
100,620.4300000000001,0.15556780160794836
101,630.51,0.14791352114399597
102,630.957344,0.14799915574564146
103,639.28,0.14963729089663133
104,649.67,0.14396399771606155
105,658.71,0.13661911981881894
106,664.8,0.14076079754069865
107,675.5999999999999,0.13983237527408135
108,685.0,0.12794841330128487
109,694.53,0.13303965430120498
110,704.1899999999999,0.11954169827384176
111,715.63,0.12863335987290642
112,724.43596,0.12685631883331236
113,725.59,0.1266218918626988
114,735.68,0.12463798743454892
115,744.2,0.11991581402247392
116,754.56,0.11696318578901183
117,765.0500000000001,0.10417358683447346
118,775.7,0.1125652700693797
119,784.68,0.10515280795195792
120,795.59,0.10711084974471165
121,804.81,0.10687661091145675
122,814.13,0.10520274844660475
123,825.4499999999999,0.10403921334981026
124,831.763771,0.0951721961664386
125,835.0100000000001,0.09059500737779272
126,844.6800000000001,0.09938192706607894
127,854.4599999999999,0.096680543813901
128,864.35,0.09664377762125886
129,874.36,0.09551303003901948
130,884.49,0.09375470106718281
131,894.73,0.09244113915488196
132,905.09,0.08991628585298386
133,915.57,0.09299363116148845
134,924.04,0.16672645474574746
135,934.74,0.2426729141733237
136,945.5600000000001,0.3115698122113027
137,954.3100000000001,0.35672216921983474
138,954.992586,0.3580754817487787
139,965.36,0.3786637442271107
140,974.3000000000001,0.17641371118970914
141,985.58,0.3093706560821153
142,994.7,0.3023500136546989
143,1003.9,0.3691860226094982
144,1015.5300000000001,0.3717307547990978
145,1024.92,0.24818524828665925
146,1034.41,0.3201792810019903
147,1043.98,0.43357046509953695
148,1056.0700000000002,0.4179120177368765
149,1065.84,0.3542047802899622
150,1075.7,0.38739418814804066
151,1085.6499999999999,0.32684004131111166
152,1095.7,0.3927523337019522
153,1096.4782,0.3913323441570703
154,1105.84,0.37423765405971926
155,1116.07,0.36320549597780283
156,1123.81,0.322299174027262
157,1134.2,0.37764051161561857
158,1144.7,0.3565383399772879
159,1155.29,0.3589889971534858
160,1165.98,0.35405436412360436
161,1174.06,0.25259469547239377
162,1184.93,0.33578772007156954
163,1195.89,0.2800488734852739
164,1204.18,0.23626220540129664
165,1215.32,0.18565501644405819
166,1223.75,0.2723807820715699
167,1235.0700000000002,0.3295869507433886
168,1243.63,0.34034066910299715
169,1255.1399999999999,0.3287839763832651
170,1258.92541,0.31986209224285705
171,1263.84,0.3082888412097064
172,1275.53,0.34903422277718005
173,1284.37,0.35469191876148004
174,1296.26,0.30128472738742196
175,1305.24,0.29922204231264976
176,1314.29,0.34267486670834146
177,1326.45,0.32728231186321566
178,1335.6499999999999,0.3005998565527586
179,1344.9,0.3318311080069187
180,1354.2299999999998,0.32132477028446604
181,1363.6100000000001,0.2951361393266305
182,1376.23,0.29717524671598183
183,1385.77,0.29445523740492097
184,1395.3799999999999,0.23564303756432395
185,1405.05,0.2324117458412675
186,1414.79,0.27171096358867497
187,1424.6000000000001,0.2679918908065463
188,1434.4699999999998,0.27233952614195817
189,1441.09,0.27739042177725975
190,1445.43977,0.2778068875258737
191,1447.7400000000002,0.27802707145773436
192,1454.4299999999998,0.2686124311037133
193,1464.51,0.252459475682408
194,1474.66,0.25246062820956583
195,1484.88,0.2542062886851868
196,1495.17,0.25246475710927097
197,1505.54,0.239465934617313
198,1512.49,0.21895892378615506
199,1515.97,0.22767911893832346
200,1526.48,0.2230218123432918
201,1533.53,0.19432191286708125
202,1544.16,0.18774731989798646
203,1554.8600000000001,0.1830666348773548
204,1565.64,0.19611755894068106
205,1576.49,0.20627759095247045
206,1583.77,0.21107041759263884
207,1594.75,0.21253246436585982
208,1605.8,0.20675711908754396
209,1613.2099999999998,0.20392916048914395
210,1624.39,0.19748512997225964
211,1635.6499999999999,0.20581540853933325
212,1643.2,0.20581546583785953
213,1654.59,0.19702835916636474
214,1659.58691,0.2008580756862306
215,1666.06,0.2058237942468257
216,1673.75,0.18734337102973092
217,1677.61,0.21012217185964172
218,1685.36,0.21158699839637973
219,1693.1299999999999,0.20025394151772868
220,1704.87,0.19392567668434857
221,1716.6899999999998,0.18354707818941224
222,1724.6100000000001,0.18063484569534322
223,1736.5700000000002,0.1895512632926834
224,1744.58,0.1852612054293636
225,1756.6799999999998,0.19132093911898038
226,1764.78,0.1806680558864098
227,1777.02,0.17902400566830312
228,1785.2199999999998,0.18193340535878721
229,1793.46,0.18830303821849317
230,1805.89,0.1865981455541904
231,1814.23,0.17300146133695105
232,1826.8000000000002,0.17541028476492485
233,1835.23,0.1698788751784347
234,1843.71,0.15751450705347195
235,1856.49,0.15715820461986055
236,1865.05,0.16007740283334151
237,1873.66,0.1683599425083498
238,1886.65,0.15539341421315325
239,1895.3600000000001,0.14981533681121623
240,1904.11,0.1571973925785011
241,1905.46072,0.15617110490982278
242,1912.8999999999999,0.15050456088412142
243,1926.16,0.1454028874371853
244,1935.0500000000002,0.14944318502819115
245,1943.9799999999998,0.15501843986370098
246,1952.95,0.14405175194371475
247,1966.49,0.15570037920830634
248,1975.5700000000002,0.15820767371070604
249,1984.68,0.1514664361464837
250,1993.8500000000001,0.1476807344490173
251,2003.0500000000002,0.1507491006849289
252,2016.93,0.14731766452780415
253,2026.24,0.15003511318610166
254,2035.6,0.14363270840002906
255,2044.9899999999998,0.14762777154733447
256,2054.43,0.13531048125026984
257,2063.91,0.13779894819770916
258,2073.44,0.14998436170077842
259,2078.2200000000003,0.15919025241900203
260,2083.0099999999998,0.17288853244835167
261,2092.62,0.16286796044042887
262,2107.13,0.1628518508842416
263,2116.86,0.16931605060983068
264,2126.63,0.1647133075799237
265,2136.44,0.15732002179452073
266,2146.31,0.1688990718758737
267,2156.21,0.17083638989060462
268,2166.17,0.1605649437720915
269,2176.16,0.15945406558695635
270,2186.21,0.17159262326857716
271,2187.7616199999998,0.17177317631135947
272,2196.2999999999997,0.17278314130494787
273,2206.44,0.169650982774463
274,2216.62,0.1512731583326153
275,2226.85,0.15838237650156398
276,2237.13,0.18260903728130912
277,2247.46,0.17603224067185066
278,2252.64,0.15407745515036037
279,2263.04,0.14939391819601694
280,2273.48,0.15552901533031063
281,2283.98,0.18075626359756003
282,2294.52,0.15879734595344655
283,2305.11,0.17546617092012953
284,2315.75,0.1580899384976089
285,2326.44,0.13236524868588476
286,2337.1800000000003,0.136534501484957
287,2342.56,0.11921028640665239
288,2353.38,0.15146290738299892
289,2364.24,0.12198296244798258
290,2375.15,0.13293086012376268
291,2386.12,0.11081510893249848
292,2397.13,0.12102809182987144
293,2402.66,0.1193062045839561
294,2413.75,0.12503725565860335
295,2424.8900000000003,0.160689549344047
296,2436.08,0.16050718564028707
297,2447.32,0.18061236454732357
298,2452.97,0.18767787956731968
299,2464.29,0.16525162665163046
300,2475.6600000000003,0.15268891634673767
301,2487.09,0.11694445717480059
302,2492.82,0.122625640372071
303,2504.3300000000004,0.16532284937740818
304,2511.88643,0.12891311415411255
305,2515.89,0.1096176685899174
306,2527.4999999999995,0.10481963926359884
307,2533.33,0.1337926163546895
308,2545.02,0.13578236064197083
309,2556.77,0.21592658513945207
310,2562.66,0.16961024244074263
311,2574.49,0.2082072405518237
312,2586.37,0.18840292217140472
313,2592.34,0.17455935308629522
314,2604.2999999999997,0.15760190831947607
315,2616.3199999999997,0.14693634376285689
316,2622.35,0.18130105488794723
317,2634.46,0.29449906064662784
318,2646.62,0.37777484991380844
319,2652.7200000000003,0.5428271379507987
320,2664.96,0.33531180083157913
321,2677.27,0.3764687406242595
322,2683.44,0.44289330557314954
323,2695.8199999999997,0.3169431222777298
324,2702.04,0.3957938707351199
325,2714.5099999999998,0.28718885775499997
326,2727.04,0.21722992498507993
327,2733.33,0.27814405035436984
328,2745.94,0.1771355911980497
329,2752.27,0.22886740337413958
330,2764.98,0.29284721123481927
331,2777.7400000000002,0.30687690260399886
332,2784.14,0.19779649169198865
333,2796.99,0.1139607533764681
334,2803.4399999999996,0.12944292597295778
335,2816.38,0.2705052579727371
336,2822.87,0.37976521737602675
337,2835.9,0.3490950196911059
338,2842.44,0.23989466260289546
339,2855.56,0.15035613523327448
340,2862.1400000000003,0.335475864951864
341,2875.35,0.49171120789754286
342,2881.98,0.44816642112463223
343,2884.0315,0.4683198900982191
344,2895.29,0.5789244684829988
345,2908.6499999999996,0.8013289783023935
346,2928.81,0.6868512422214801
347,2949.1099999999997,0.6192842051955603
348,2969.56,0.6409803671571337
349,2990.14,0.6498354282412011
350,3010.87,0.6335247883127618
351,3031.74,0.6960851474393163
352,3052.75,0.7220779056208643
353,3066.84,0.8181176105127259
354,3088.1,0.7847789670067626
355,3109.5099999999998,0.9540784224882926
356,3131.06,0.862015977024816
357,3152.76,0.8717601305488328
358,3167.32,0.971899332268173
359,3189.27,0.8213573841046785
360,3211.3799999999997,0.9064698348611767
361,3233.64,0.7486280846051682
362,3248.56,1.1075465838944922
363,3271.08,1.3126264318834717
364,3293.76,1.2851652787924441
365,3308.96,1.1727531761917553
366,3311.31121,1.163123053770229
367,3324.23,1.1102084933466712
368,3331.8999999999996,1.1271935036492646
369,3339.58,0.9741895126615094
370,3347.27,1.2798345203834056
371,3354.99,1.252467524234256
372,3362.73,0.8307412255044089
373,3370.48,0.9817168254842131
374,3378.25,1.17908052288332
375,3386.04,1.13535851770173
376,3393.84,1.1849585112297911
377,3401.6600000000003,1.384434502177155
378,3409.51,1.1505094892534729
379,3417.3700000000003,0.9561759750394421
380,3425.24,1.2162714595350628
381,3433.14,1.4079404401596374
382,3441.0499999999997,1.0819974194938635
383,3448.9900000000002,1.0111863949570437
384,3456.94,1.1517913691298753
385,3464.91,0.9615885407220096
386,3472.8900000000003,1.2749493110237953
387,3480.9,0.9910690774545349
388,3488.9199999999996,1.1525262425949259
389,3496.97,1.047733203864271
390,3505.03,1.3575041638432677
391,3513.1099999999997,1.1730931212415667
392,3521.21,1.4088410760591688
393,3529.32,0.9300868295864222
394,3537.46,1.3243519792426295
395,3545.61,1.3352819276084882
396,3553.79,1.3902878721033012
397,3561.98,1.2350798153077651
398,3570.1899999999996,0.9512938559315322
399,3574.56,1.1561851920491768
400,3576.5099999999998,1.1204639404311918
401,3578.4700000000003,1.1059516875228586
402,3580.43,1.0234774346145252
403,3582.39,1.003639181706192
404,3584.35,0.9529415287978585
405,3586.3,1.007498677179874
406,3588.2599999999998,1.0629684242715405
407,3590.2200000000003,1.1261521713632072
408,3592.18,1.1402019184548737
409,3594.1299999999997,1.103562666836889
410,3596.09,1.2077994139285557
411,3598.0499999999997,1.2469211610202222
412,3600.01,1.3482179081118888
413,3601.96,1.2999156564939043
414,3603.92,1.2715354035855708
415,3605.88,1.2642781506772374
416,3607.84,1.2048558977689041
417,3609.79,1.2367296461509194
418,3611.7500000000005,1.296515393242586
419,3613.71,1.3158911403342526
420,3615.67,1.3129508874259195
421,3617.62,1.4138876358079346
422,3619.58,1.4978273828996014
423,3621.54,1.517663129991268
424,3623.5,1.4433618770829346
425,3625.4500000000003,1.41287762546495
426,3627.41,1.4032323725566165
427,3629.37,1.3467481196482831
428,3631.33,1.3323268667399497
429,3633.2799999999997,1.385875615121965
430,3635.2400000000002,1.2662053622136318
431,3637.2,1.2752961093052984
432,3639.1600000000003,1.3043148563969649
433,3641.12,1.4442766034886316
434,3643.0699999999997,1.4761513518706468
435,3645.03,1.5176610989623136
436,3646.99,1.4471258460539802
437,3648.9500000000003,1.369518593145647
438,3650.9,1.404699341527662
439,3652.86,1.5765300886193288
440,3654.8199999999997,1.7584618357109956
441,3656.78,1.7396325828026622
442,3658.73,1.8395613311846775
443,3660.6899999999996,1.904674078276344
444,3662.65,2.0282878253680106
445,3664.6099999999997,1.8468085724596772
446,3666.56,1.7931813208416927
447,3668.52,1.5842430679333592
448,3670.48,1.655599815025026
449,3672.44,1.6705675621166924
450,3674.3900000000003,1.6774623104987079
451,3676.35,1.6961950575903744
452,3678.3100000000004,1.699590804682041
453,3680.27,1.7652535517737076
454,3682.22,1.620428300155723
455,3684.1800000000003,1.4736660472473895
456,3686.14,1.4259067943390562
457,3688.1000000000004,1.563021541430723
458,3690.05,1.758923289812738
459,3692.01,1.7990550369044047
460,3693.97,1.7458767839960716
461,3695.93,1.6850765310877382
462,3697.89,1.6585322781794047
463,3699.8399999999997,1.76084902656142
464,3701.8,1.6184937736530867
465,3703.7599999999998,1.6671665207447535
466,3705.7200000000003,1.60691726783642
467,3707.67,1.7193360162184352
468,3709.6299999999997,1.747895763310102
469,3711.59,1.7299845104017686
470,3713.5499999999997,1.727594257493435
471,3715.5,1.6122500058754505
472,3717.46,1.605910752967117
473,3719.42,1.5755095000587838
474,3721.38,1.5799152471504503
475,3723.3300000000004,1.5779929955324656
476,3725.29,1.5306927426241324
477,3727.2499999999995,1.4939544897157988
478,3729.21,1.3815402368074656
479,3731.16,1.3661169851894808
480,3733.12,1.3916457322811475
481,3735.08,1.3429684793728143
482,3737.04,1.259852226464481
483,3738.99,1.1904249748464961
484,3740.9500000000003,1.293743721938163
485,3742.91,1.3993584690298295
486,3744.8700000000003,1.402295216121496
487,3746.83,1.3573829632131627
488,3748.7799999999997,1.285477711595178
489,3750.7400000000002,1.3593144586868446
490,3752.7,1.4051412057785113
491,3754.6600000000003,1.3806179528701779
492,3756.61,1.320283701252193
493,3758.57,1.3950394483438597
494,3760.53,1.4877041954355263
495,3762.49,1.479068942527193
496,3764.44,1.4693396909092082
497,3766.3999999999996,1.526829438000875
498,3768.36,1.7029761850925418
499,3770.3199999999997,1.7439349321842084
500,3772.27,1.7719526805662236
501,3774.23,1.7758994276578903
502,3776.1899999999996,1.806663174749557
503,3778.15,1.9486449218412236
504,3780.1,1.9621526702232388
505,3782.06,2.044714417314905
506,3784.02,1.9302791644065722
507,3785.98,1.8197009114982388
508,3787.93,1.6208746598802541
509,3789.8900000000003,1.5219604069719206
510,3791.85,1.5238861540635873
511,3793.8100000000004,1.524343901155254
512,3795.76,1.5296756495372692
513,3797.72,1.4963363966289358
514,3799.68,1.4881601437206025
515,3801.64,1.5036788908122691
516,3801.8939600000003,1.5152928634711675
517,3803.6,1.5933126837724427
518,3805.5499999999997,1.6469534845820615
519,3807.51,1.650808284370191
520,3809.47,1.5981820841583205
521,3811.4300000000003,1.5001858839464501
522,3813.38,1.4027496847560688
523,3815.3399999999997,1.3621544845441984
524,3817.3,1.363622284332328
525,3819.2599999999998,1.3168730841204577
526,3821.21,1.2150278849300762
527,3823.17,1.1324616847182059
528,3825.13,1.1465114845063356
529,3827.09,1.102059284294465
530,3829.0400000000004,1.132463085104084
531,3831.0,1.1025208848922132
532,3832.96,1.1556036846803428
533,3834.92,1.1788374844684726
534,3836.87,1.1628612852780915
535,3838.83,1.204830085066221
536,3840.79,1.2265948848543504
537,3842.75,1.2169496846424799
538,3844.7,1.256996485452099
539,3846.66,1.3231202852402284
540,3848.62,1.376661085028358
541,3850.58,1.3303718848164874
542,3852.53,1.2863856856261062
543,3854.49,1.2531374854142359
544,3856.4500000000003,1.3582922852023656
545,3858.41,1.4302930849904951
546,3860.3700000000003,1.5084468847786245
547,3862.32,1.4008156855882434
548,3864.2799999999997,1.324494485376373
549,3866.2400000000002,1.3360642851645026
550,3868.2,1.368941084952632
551,3870.15,1.3434148857622508
552,3872.11,1.2844516855503805
553,3874.07,1.32311448533851
554,3876.0299999999997,1.4384632851266395
555,3877.9799999999996,1.5016550859362583
556,3879.94,1.4630798857243879
557,3881.8999999999996,1.4374546855125174
558,3883.86,1.440850485300647
559,3885.81,1.4558262861102658
560,3887.77,1.4910910858983952
561,3889.73,1.6801878856865249
562,3891.69,1.7970976854746545
563,3893.64,1.9187004862842731
564,3895.6000000000004,1.9504742860724027
565,3897.56,2.032118085860532
566,3899.52,2.042217885648662
567,3901.4700000000003,1.9818866864582807
568,3903.43,1.9993334862464103
569,3905.3900000000003,2.0441482860345395
570,3907.35,2.0764730858226694
571,3909.3,2.0953088866322878
572,3911.2599999999998,2.0885096864204176
573,3913.2200000000003,2.125702486208547
574,3915.18,2.099157285996677
575,3917.14,2.046622085784806
576,3919.09,1.994004886594425
577,3921.0499999999997,1.8825086863825546
578,3923.01,1.7632984861706842
579,3924.97,1.5972492859588139
580,3926.92,1.5364570867684326
581,3928.88,1.387306886556562
582,3930.8399999999997,1.2410036863446918
583,3932.8,1.1078344861328213
584,3934.75,1.13392128694244
585,3936.71,1.2714960867305696
586,3938.67,1.3606708865186992
587,3940.63,1.4620606863068288
588,3942.58,1.5393034871164475
589,3944.5400000000004,1.736757286904577
