,lambda (Angstroms),Total Flux (erg/s/cm^2/Angstrom)
0,100.05999999999999,17.25254639578036
1,101.92,17.204552096039368
2,104.05,17.149590881815218
3,104.712855,17.132486977769023
4,105.99000000000001,16.95938093273508
5,107.96,16.692364338188632
6,109.97,16.41992608708986
7,114.09,15.86149544303113
8,118.1,15.31797435538438
9,120.22644299999999,15.029753261248086
10,121.13000000000001,14.927075531411074
11,125.10000000000001,14.475935655098116
12,127.13000000000001,14.24525204086352
13,128.01,14.145251263206308
14,131.0,13.805475891858071
15,131.9,13.703202373900568
16,134.05,13.458882291855687
17,136.85,13.14069800990956
18,138.038426,13.005648552423464
19,140.04000000000002,12.843068614137012
20,142.97,12.605076442970377
21,146.98,12.279360419382744
22,151.1,11.94470924523309
23,154.97,11.630364624796192
24,158.489319,11.344504457901547
25,158.95,11.316214810371488
26,161.9,11.13506027453943
27,166.06,10.879601723038704
28,169.93,10.641951611262034
29,173.08,10.448515502450281
30,177.11999999999998,10.200426057071374
31,179.99,10.024184339069194
32,181.970086,9.902590701473063
33,182.07999999999998,9.897441383177112
34,185.89000000000001,9.71894824576003
35,191.1,9.474867114911984
36,194.2,9.32963658851441
37,197.81,9.160513380894754
38,201.95999999999998,8.966091970916954
39,204.76999999999998,8.834447700584995
40,208.929613,8.639575745701176
41,210.02,8.601170795530619
42,215.9,8.394070081546381
43,219.92000000000002,8.252480703763814
44,222.98,8.144703586083201
45,227.12,7.998887844914137
46,229.75,7.906263736557629
47,234.01999999999998,7.755883143715696
48,239.88329199999998,7.549382003342094
49,240.03,7.5454003768027045
50,246.18,7.378478042970986
51,251.92,7.22269092359405
52,257.19,7.079646309463571
53,260.16999999999996,6.998773903283699
54,263.79,6.900526527129287
55,268.69,6.767534825085806
56,273.69,6.631828603912865
57,275.42287,6.584796403851661
58,278.78,6.514869123194084
59,283.96000000000004,6.406972754146612
60,289.90999999999997,6.283033691997624
61,295.98,6.15660044399827
62,300.79,6.0564091742877615
63,307.79,5.91060467565307
64,316.227766,5.734852780493206
65,317.88,5.709148829017623
66,328.28999999999996,5.547197074466824
67,338.27000000000004,5.391934156161255
68,347.74,5.24460508702561
69,356.66,5.105833729122236
70,363.078055,5.005987133151573
71,365.81,4.974158917863606
72,375.2,4.8647582781602505
73,384.82000000000005,4.75267221268301
74,394.69,4.637686093068942
75,404.82,4.519666387336568
76,414.24999999999994,4.409798192907322
77,416.86938299999997,4.379279534458718
78,421.95000000000005,4.3340751930073305
79,429.79,4.264319933695491
80,440.82000000000005,4.166186087965952
81,451.08000000000004,4.074898929002755
82,459.47,4.000248662329242
83,470.17,3.9050470975567064
84,478.630092,3.829777373064462
85,480.02000000000004,3.8202669728041583
86,490.07,3.7514923158660687
87,500.33,3.6812901369874815
88,506.13,3.6416012172023153
89,511.99,3.6015440384055792
90,520.3,3.54468295430304
91,529.98,3.4784454534029687
92,539.83,3.411034659036781
93,549.5408739999999,3.3446093001322343
94,549.87,3.3428921061024077
95,560.09,3.2895755483331475
96,570.5,3.235262199531876
97,579.77,3.186868899122674
98,590.5500000000001,3.1306390695222204
99,600.15,3.0805298428732097
100,609.9,3.0296509065515576
101,619.8100000000001,2.9780047229924205
102,629.88,2.925467865995802
103,630.957344,2.9198471831765325
104,640.11,2.881999049245505
105,650.52,2.8389781450424016
106,658.0500000000001,2.8078489784366982
107,665.67,2.7763727918185768
108,674.93,2.738090558018602
109,684.32,2.699225848689577
110,695.4399999999999,2.653401413566282
111,705.11,2.613341489220844
112,716.5699999999999,2.566134368606188
113,724.43596,2.533647388813952
114,726.54,2.5272014866594725
115,734.95,2.5014434236133942
116,745.17,2.4701890335752354
117,755.54,2.4384521866040303
118,764.29,2.4116247775097155
119,774.9200000000001,2.3792029468545652
120,785.7,2.34618911326637
121,794.8,2.318414071328283
122,805.86,2.284607854465069
123,815.1899999999999,2.256089558229646
124,824.63,2.2273459242433225
125,831.763771,2.2051351002392123
126,834.1800000000001,2.1994865653351043
127,845.78,2.173529924140957
128,855.5699999999999,2.151191256753828
129,865.48,2.1287459041474492
130,875.5,2.1060182868400914
131,885.64,2.083065638313484
132,895.9,2.0597765135676265
133,904.1899999999999,2.0408622799211193
134,914.6600000000001,2.018328468291575
135,925.25,2.021258324442781
136,935.96,2.0357550083747364
137,944.62,2.08099977355221
138,954.992586,2.113056562532415
139,955.5600000000001,2.1148383155914527
140,964.4,2.1214867864271896
141,975.57,1.9116545286031141
142,984.6,2.0424889143550033
143,995.9999999999999,2.030423209324166
144,1005.21,2.1082661555229363
145,1014.51,2.079162711945148
146,1023.9,1.8946948785908
147,1035.76,1.9467719591464372
148,1045.34,2.119521580708242
149,1055.01,2.0922803124934877
150,1064.78,1.987906688971445
151,1074.63,2.029442141203572
152,1084.57,1.9285862036591401
153,1094.6100000000001,2.0097604108074196
154,1096.4782,2.0028687064614075
155,1104.73,1.97578819762531
156,1114.96,1.942900955709394
157,1125.27,1.8870253642965795
158,1135.69,1.9653019423255293
159,1146.19,1.9076758708575807
160,1154.14,1.9214585896032763
161,1164.82,1.9167673317673055
162,1175.6,1.759771537060212
163,1183.74,1.8729326757507732
164,1194.7,1.721855494675657
165,1205.75,1.6192058704165297
166,1214.1100000000001,1.5372553479906197
167,1225.3400000000001,1.6675884373634706
168,1233.84,1.8074039033179887
169,1245.25,1.8329401063228175
170,1253.89,1.7965515606577622
171,1258.92541,1.7593290819519107
172,1265.49,1.7142695313907994
173,1274.2600000000002,1.8275136220959767
174,1286.05,1.8403507216870874
175,1294.96,1.7098194366452546
176,1303.94,1.6959473637299174
177,1316.01,1.7971179118270086
178,1325.1299999999999,1.7620689631646618
179,1334.31,1.6895694391821678
180,1343.56,1.7715719273261685
181,1355.99,1.7394824235023778
182,1365.3899999999999,1.6693470233460115
183,1374.86,1.68320823531614
184,1384.39,1.6781174719661216
185,1393.98,1.5905484332959565
186,1403.6499999999999,1.5952964941989285
187,1413.3799999999999,1.6064169797817534
188,1426.45,1.6034565725430605
189,1436.3400000000001,1.5916767572721602
190,1442.97,1.6125956343959147
191,1445.43977,1.6159982207509014
192,1446.3000000000002,1.6175239911252817
193,1456.3200000000002,1.5931002686274103
194,1466.4199999999998,1.5440144243930294
195,1476.5800000000002,1.5370476638562651
196,1483.4,1.5414148108187917
197,1493.68,1.5428462176772635
198,1504.0300000000002,1.5061169555162883
199,1510.98,1.4462765171569867
200,1517.95,1.471921973363557
201,1524.96,1.4535017187018724
202,1535.53,1.3825383967654954
203,1546.17,1.406911505809672
204,1553.31,1.3795832658261589
205,1564.08,1.3844713895485068
206,1574.9199999999998,1.4056262442514085
207,1585.83,1.4187133299348638
208,1596.83,1.4200192411647454
209,1604.2,1.4052836886887663
210,1615.3200000000002,1.397372867313883
211,1626.51,1.3638073769195538
212,1634.02,1.3882940864046822
213,1645.35,1.3872632579714606
214,1656.75,1.3415822605187926
215,1659.58691,1.3551403434511506
216,1664.4,1.3794628240696307
217,1672.08,1.3201272212657345
218,1675.9399999999998,1.3817274990231514
219,1683.6699999999998,1.3979195441176668
220,1695.34,1.3572416836070589
221,1703.17,1.3346449244983987
222,1714.98,1.3045656181033445
223,1726.8600000000001,1.2958584387660672
224,1734.83,1.3248188337729614
225,1746.8600000000001,1.3054872981309205
226,1754.92,1.3347717993549564
227,1763.0199999999998,1.287157658897722
228,1775.2399999999998,1.2919135252696474
229,1783.44,1.2971984806092367
230,1795.8,1.324772501096716
231,1804.0900000000001,1.315681262653448
232,1816.59,1.2688981372564814
233,1824.98,1.274136294610037
234,1833.4,1.2511647207026402
235,1846.11,1.2032344764790044
236,1854.6299999999999,1.2031068983684319
237,1863.19,1.215089978576589
238,1876.11,1.2425482155262841
239,1884.77,1.1990343915312656
240,1893.4699999999998,1.177137825854977
241,1905.46072,1.194607471890285
242,1906.59,1.1964461725184339
243,1915.3899999999999,1.1767062280011453
244,1924.23,1.16170469282696
245,1933.1200000000001,1.167276969331654
246,1946.52,1.1903045992712378
247,1955.5,1.1556733967979138
248,1969.05,1.1950663617741346
249,1978.1399999999999,1.2041241849943447
250,1982.7,1.1768067501081134
251,1996.4499999999998,1.1576334617998505
252,2005.6599999999999,1.1660232130493702
253,2014.92,1.1478203759777688
254,2024.2199999999998,1.162010148249271
255,2033.5600000000002,1.1368025298638762
256,2042.95,1.1520302231573605
257,2057.11,1.1167536306159058
258,2066.61,1.1178844496029239
259,2076.15,1.1544141779330452
260,2085.73,1.14991341560627
261,2095.36,1.1180685649583737
262,2105.0299999999997,1.1158452236535807
263,2114.74,1.118308291691891
264,2124.51,1.119639273744856
265,2134.31,1.0804882628051484
266,2144.16,1.09054006354432
267,2154.06,1.1033779759623705
268,2164.0,1.0823684977235244
269,2173.9900000000002,1.075380631163557
270,2184.03,1.066110676282469
271,2187.7616199999998,1.0729431519881771
272,2194.11,1.0855314455804783
273,2204.23,1.0694322091043063
274,2214.41,1.0413778034395402
275,2224.63,1.026187584982378
276,2234.9,1.0550738755347213
277,2245.22,1.0326864750965694
278,2255.58,1.0078486618660216
279,2265.99,1.0141184576449789
280,2276.45,1.0249679624334411
281,2286.96,1.0351142762314085
282,2297.51,1.00207407723698
283,2302.81,1.0069056322445182
284,2313.44,0.9845065076652979
285,2324.12,0.8931990920955826
286,2334.84,0.9448100637334713
287,2345.62,0.9263193661827662
288,2356.45,0.9599377776415663
289,2367.33,0.9186728981098713
290,2372.7799999999997,0.9311675801459248
291,2383.73,0.8936704532275368
292,2394.74,0.9158198571205551
293,2405.79,0.8985032482211772
294,2416.9,0.9052107701332057
295,2422.47,0.9325132137920715
296,2433.65,0.9143060883174068
297,2444.88,0.9336924718522475
298,2456.17,0.925136686198494
299,2467.5,0.9176256877523448
300,2473.19,0.9001669930340228
301,2484.6099999999997,0.9024629908049826
302,2496.08,0.8669441975854475
303,2507.6,0.9194897133754175
304,2511.88643,0.8778988846592319
305,2513.38,0.8635279195652437
306,2519.17,0.8695461318012452
307,2524.98,0.855466407982794
308,2536.63,0.8600452562642136
309,2542.4799999999996,0.8550717603368576
310,2554.22,0.8814753963732408
311,2566.01,0.8663304922734927
312,2577.85,0.8869271480376133
313,2583.7900000000004,0.879630039865221
314,2595.7200000000003,0.8700802833843053
315,2607.7,0.8540089867672587
316,2613.71,0.8451983024042826
317,2625.7799999999997,0.8642048935421996
318,2637.9,0.8782920445439851
319,2643.98,0.9159346839904254
320,2656.1800000000003,0.9265661907744012
321,2662.31,0.8767993900847102
322,2674.59,0.8949046526508758
323,2686.94,0.8931678390264577
324,2693.13,0.8677607301734094
325,2705.5600000000004,0.8794014723311812
326,2718.05,0.8510494063255956
327,2724.32,0.8496228532547372
328,2736.8900000000003,0.8670634430313415
329,2743.2000000000003,0.8038199178515781
330,2755.86,0.8127619953831464
331,2762.2200000000003,0.8282877300672518
332,2774.97,0.8450954953537837
333,2787.78,0.8110560524769581
334,2794.2,0.731866278997706
335,2807.1000000000004,0.7508442238758439
336,2813.57,0.8303016102604606
337,2826.5600000000004,0.8550880428935625
338,2833.0699999999997,0.8379850571692743
339,2846.15,0.82388337755734
340,2852.71,0.8019156516969204
341,2865.88,0.8440529598399497
342,2872.49,0.8425482938433988
343,2884.0315,0.8380936789485249
344,2885.74,0.8375531063486877
345,2892.4,0.8344076905544673
346,2912.45,0.8716871363991945
347,2932.63,0.8495132410947849
348,2952.96,0.8376224598490642
349,2966.59,0.8452763839819135
350,2987.16,0.8431493652300949
351,3007.86,0.8454470053291399
352,3028.71,0.8421782594868734
353,3049.71,0.8399959277032957
354,3070.84,0.8411942547705815
355,3092.13,0.8412563235004689
356,3113.5600000000004,0.8390392786851321
357,3127.94,0.8288487731114251
358,3149.6200000000003,0.828830418393903
359,3171.4500000000003,0.8276836777350696
360,3193.43,0.7976328511349251
361,3208.17,0.812893139302071
362,3230.4100000000003,0.7853895304036536
363,3252.8,0.8126532355639248
364,3267.82,0.827638596640623
365,3290.47,0.8205756195026215
366,3311.31121,0.8173128093202335
367,3313.28,0.8171006233930727
368,3320.92,0.8151106989271292
369,3328.57,0.8248962898741882
370,3336.24,0.8373377116472527
371,3343.93,0.8010969642463226
372,3351.6400000000003,0.8106329476713977
373,3359.37,0.8156525619224785
374,3367.1099999999997,0.8078029915865618
375,3374.88,0.764669467489653
376,3382.6600000000003,0.778979458805747
377,3390.45,0.8170490655348439
378,3398.27,0.8114628185029488
379,3406.1000000000004,0.7989658868840562
380,3413.9599999999996,0.805078801504172
381,3421.8199999999997,0.8220784161242876
382,3429.71,0.8080830769834111
383,3437.6200000000003,0.8167546686685403
384,3445.5400000000004,0.7559260757666719
385,3453.4900000000002,0.8235409291038118
386,3461.45,0.7770958978539544
387,3469.43,0.7886857974301024
388,3477.42,0.7676170124192528
389,3485.44,0.7812593736474116
390,3493.48,0.7758744657015756
391,3501.5299999999997,0.7783809731687423
392,3509.6,0.7797796114619144
393,3517.69,0.7643508805810919
394,3525.8,0.775758880526275
395,3533.9300000000003,0.7992271112974632
396,3542.0800000000004,0.8152609728946568
397,3550.2400000000002,0.8119333499048532
398,3558.42,0.7977893577410549
399,3566.63,0.8077409118162647
400,3574.85,0.7537538813044773
401,3583.0899999999997,0.7495934816186952
402,3591.35,0.7192104127589185
403,3599.6299999999997,0.7886092747251471
404,3607.93,0.7590093675173812
405,3610.12,0.7925586429649707
406,3612.86,0.753479066127708
407,3615.59,0.775889973877443
408,3618.3199999999997,0.7899584816271776
409,3621.05,0.7675850893769125
410,3623.79,0.7609558125396501
411,3626.5199999999995,0.7683014202893849
412,3629.25,0.7768376280391196
413,3631.98,0.7969813357888544
414,3634.7200000000003,0.819073058951592
415,3637.45,0.7811704667013268
416,3640.1800000000003,0.8011128744510615
417,3642.92,0.8074565976137991
418,3645.6499999999996,0.8224356053635339
419,3648.38,0.8157665131132686
420,3651.11,0.8226131208630034
421,3653.8500000000004,0.799806744025741
422,3656.58,0.8292119517754759
423,3659.31,0.8071712595252107
424,3662.04,0.7846402672749455
425,3664.78,0.8091917904376829
426,3667.5099999999998,0.7894270981874179
427,3670.2400000000002,0.7944618059371527
428,3672.98,0.7828428290998901
429,3675.71,0.7990560368496249
430,3678.44,0.8025325445993596
431,3681.17,0.7938675523490946
432,3683.9100000000003,0.7906959755118319
433,3686.64,0.7723230832615668
434,3689.3700000000003,0.7681749910113016
435,3692.1,0.7750478987610365
436,3694.8399999999997,0.7952226219237739
437,3697.57,0.7990142296735087
438,3700.3,0.7960480374232435
439,3703.0299999999997,0.8026846451729783
440,3705.77,0.7942344683357159
441,3708.5,0.7939555760854506
442,3711.23,0.7740070838351855
443,3713.97,0.817921906997923
444,3716.7,0.8086530147476578
445,3719.4300000000003,0.8449736224973925
446,3722.16,0.9653658302471274
447,3724.9,1.1340733534098648
448,3727.63,1.4796299611595998
449,3730.3599999999997,1.7794745689093348
450,3733.09,1.6151951766590695
451,3735.83,1.2268990998218068
452,3738.5600000000004,0.9576354075715416
453,3741.29,0.8597433153212763
454,3744.0299999999997,0.8446488384840141
455,3746.76,0.8627616462337488
456,3749.49,0.8453605539834836
457,3752.22,0.8032037617332184
458,3754.96,0.8246125848959559
459,3757.69,0.8661504926456907
460,3760.42,0.8881764003954256
461,3763.15,0.8845799081451603
462,3765.89,0.8756567313078978
463,3768.62,0.8701870390576327
464,3771.35,0.8338338468073675
465,3774.0800000000004,0.8240397545571022
466,3776.82,0.8723750777198397
467,3779.5499999999997,0.9382310854695746
468,3782.28,0.9865445932193094
469,3785.02,1.0148245163820468
470,3787.7499999999995,1.0165506241317819
471,3790.48,0.9950616318815165
472,3793.21,0.9495435396312513
473,3795.9500000000003,0.8999938627939887
474,3798.68,0.8627218705437236
475,3801.41,0.8353150782934584
476,3801.8939600000003,0.8370161192936658
477,3804.14,0.8449877522325878
478,3806.88,0.9099968123470008
479,3809.61,0.9802708134828939
480,3812.34,0.9971121146187869
481,3815.08,0.9925982747331998
482,3817.81,1.004178575869093
483,3820.54,1.006007177004986
484,3823.2699999999995,0.9688026781408793
485,3826.01,0.9458097382552921
486,3828.74,0.9163523393911852
487,3831.4700000000003,0.8799093405270784
488,3834.2,0.8388705416629716
489,3836.9399999999996,0.8000513017773845
490,3839.67,0.8119377029132775
491,3842.4,0.8608263040491707
492,3845.13,0.9133654051850638
493,3847.87,0.9665214652994767
494,3850.6,1.0079257664353698
495,3853.33,1.036619767571263
496,3856.0699999999997,1.056511127685676
497,3858.8,1.057832128821569
498,3861.53,1.0676005299574622
499,3864.2599999999998,1.0824372310933552
500,3867.0,1.0960520912077683
501,3869.73,1.0909741923436613
502,3872.4599999999996,1.0819305934795547
503,3875.19,1.0660416946154476
504,3877.93,1.0304079547298606
505,3880.6600000000003,0.9974141558657537
506,3883.39,0.9581963570016468
507,3886.1299999999997,0.9109993171160597
508,3888.86,0.8843955182519528
509,3891.5899999999997,0.8653812193878461
510,3894.32,0.8827564205237391
511,3897.06,0.903611280638152
512,3899.7900000000004,0.9353250817740452
513,3902.52,0.9815176829099383
514,3905.25,1.0179236840458314
515,3907.9900000000002,1.0415968441602443
516,3910.72,1.0519691452961375
517,3913.45,1.0664032464320305
518,3916.1800000000003,1.0870788475679236
519,3918.92,1.0888236076823365
520,3921.6499999999996,1.0775566088182298
521,3924.38,1.0515571099541228
522,3927.12,1.0264190700685358
523,3929.85,0.9667351712044289
524,3932.58,0.923367872340322
525,3935.3100000000004,0.8816988734762152
526,3938.05,0.8809933335906279
527,3940.7799999999997,0.9469868347265213
528,3943.51,0.9982129358624143
529,3946.24,1.0343475369983075
530,3948.9800000000005,1.0498270971127204
531,3951.71,1.0611010982486135
532,3954.44,1.0693113993845067
533,3957.1800000000003,1.0195140594989196
534,3959.91,0.9699669606348127
535,3962.64,0.9249628617707059
536,3965.37,0.873568162906599
537,3968.11,0.8124268230210119
538,3970.84,0.776972924156905
539,3973.57,0.7933149252927981
540,3976.2999999999997,0.8342113264286913
541,3979.04,0.8822206865431041
542,3981.77,0.9572217876789972
543,3984.5000000000005,1.0156696888148904
544,3987.23,1.0326422899507834
545,3989.97,1.0610337500651965
546,3992.7000000000003,1.0871628512010896
547,3995.43,1.0961171523369828
548,3998.1699999999996,1.1109138124513955
549,4000.9,1.1148871135872889
550,4003.63,1.111244814723182
551,4006.36,1.119595015859075
552,4009.1,1.129253075973488
553,4011.83,1.139879277109381
554,4014.56,1.1163658782452741
555,4017.29,1.1508024793811673
556,4020.03,1.1329737394955801
557,4022.76,1.1590066406314734
558,4025.49,1.1399575417673664
559,4028.23,1.1280813018817795
560,4030.96,1.1284657030176726
561,4033.6899999999996,1.1319139041535657
562,4036.42,1.1309853052894587
563,4039.16,1.1295260654038717
564,4041.8900000000003,1.1490810665397648
565,4044.62,1.145438667675658
566,4047.35,1.146610868811551
567,4050.09,1.148565628925964
568,4052.8199999999997,1.1205003300618572
569,4055.55,1.1391799311977504
570,4058.28,1.1449042323336434
571,4061.02,1.1342534924480563
572,4063.75,1.1103898935839496
573,4066.48,1.1127876947198425
574,4069.2200000000003,1.1094902548342556
575,4071.95,1.0955447559701488
576,4074.68,1.121638957106042
577,4077.4100000000003,1.0907897582419348
578,4080.15,1.0746332183563478
579,4082.8799999999997,1.070955719492241
580,4085.61,1.092882920628134
581,4088.3399999999997,1.0658242217640272
582,4091.0800000000004,1.04654258187844
583,4093.81,1.0030528830143333
584,4096.54,0.9870150841502264
585,4099.28,0.9580172442646393
586,4102.01,0.9345911454005325
587,4104.74,0.9532266465364256
588,4107.469999999999,0.9438589476723187
589,4110.21,0.9631119077867316
590,4112.94,0.9883393089226247
591,4115.67,1.0022656100585179
592,4118.4,1.030583111194411
593,4121.139999999999,1.061197871308824
594,4123.87,1.060934372444717
595,4126.6,1.0656867735806101
596,4129.34,1.074907433695023
597,4132.07,1.0611457348309163
