,lambda (Angstroms),Total Flux (erg/s/cm^2/Angstrom)
0,100.1,1.0665986008328565
1,101.96000000000001,1.0636340431797648
2,104.10000000000001,1.060221637511154
3,104.712855,1.059244751233765
4,106.03,1.0482089199671063
5,108.0,1.0317035282213862
6,110.01,1.0148699346785446
7,113.88000000000001,0.9824472613445657
8,117.88,0.9489343865724431
9,120.22644299999999,0.9293311596596363
10,120.9,0.9246161204605963
11,124.86,0.8968151766683314
12,126.89,0.8825628574866906
13,128.07,0.8742788123086928
14,131.05,0.8533572181523923
15,131.96,0.8469837498261398
16,134.1,0.8319591285863804
17,136.91,0.8122516973108088
18,138.038426,0.804330743340665
19,140.1,0.7939906449351636
20,143.03,0.7794665282175425
21,147.04,0.7596241113985458
22,151.16,0.7389988204488536
23,155.04,0.7195903913661335
24,158.489319,0.7023430340337621
25,159.01,0.7003774715555168
26,161.97,0.689201921383644
27,166.11999999999998,0.6735409295430116
28,169.99,0.658931925636205
29,173.15,0.6470096580973137
30,177.19,0.6317636446235415
31,180.07,0.6208979550184762
32,181.970086,0.6137338909186979
33,182.14999999999998,0.6132174960098028
34,185.97,0.6022496247469867
35,191.18,0.5872817037105282
36,193.83999999999997,0.5796626526688815
37,197.89000000000001,0.5680394628535921
38,202.04,0.556123437450271
39,204.85,0.5480699995265765
40,208.929613,0.5363034251749375
41,210.10000000000002,0.5337690907970316
42,215.99,0.5211802605400463
43,220.01,0.5125513506804401
44,223.07,0.5059529457574563
45,227.21,0.49706657215577216
46,229.84,0.49275033872523377
47,234.11999999999998,0.4861756425911256
48,239.88329199999998,0.4758115221721235
49,240.11999999999998,0.4755040908172364
50,246.28,0.4647950962852498
51,252.01999999999998,0.4557481000395349
52,256.7,0.44605349270679195
53,260.28,0.44171637207618936
54,263.9,0.4362092606564181
55,268.8,0.4280319889832468
56,273.8,0.41964178133715385
57,275.42287,0.41689692089809566
58,278.89,0.4123857138828504
59,284.08,0.4057914042216599
60,290.02,0.39772109980596215
61,296.1,0.3899781392760897
62,300.91,0.38331417321051625
63,307.92,0.3745179200650548
64,316.227766,0.3640321627475508
65,318.01000000000005,0.3623636128190434
66,327.66999999999996,0.35298478465653643
67,337.62,0.3432419375305587
68,347.88,0.33316206758156064
69,356.81,0.3245513932926178
70,363.078055,0.3185793797331935
71,365.96,0.3165296461866043
72,375.34999999999997,0.30959896949804977
73,384.97999999999996,0.30216155039892506
74,394.84999999999997,0.2952485498892303
75,404.98,0.287951059851418
76,414.40999999999997,0.2809811219277684
77,416.86938299999997,0.27912965157356007
78,422.12,0.2760707905009753
79,429.97,0.2715469451987594
80,441.0,0.2654241846327158
81,451.27,0.25957545958255557
82,459.66,0.2546966866506329
83,470.36,0.24863990891385448
84,478.630092,0.24402016629797338
85,480.21000000000004,0.24333830360169284
86,490.27000000000004,0.23877184954385133
87,500.53000000000003,0.23443108968565513
88,506.33,0.2317727474753688
89,512.19,0.22972496122497593
90,520.52,0.22600553549020264
91,530.1899999999999,0.2216470081930528
92,540.05,0.21707161993556595
93,549.5408739999999,0.21286751405032084
94,550.09,0.21267936798142908
95,560.3199999999999,0.20953386920547318
96,569.42,0.2065827300763237
97,580.01,0.20296678557218167
98,589.4300000000001,0.19983006468464448
99,600.39,0.19596026195986674
100,610.15,0.19216581032904273
101,620.06,0.18957323631147444
102,630.14,0.18609363092226278
103,630.957344,0.18583082911740187
104,640.37,0.18343400135878998
105,649.28,0.18098452682232247
106,658.32,0.17847217392449227
107,664.41,0.17698347907296733
108,675.1999999999999,0.17415345007987137
109,684.5999999999999,0.17144782279672938
110,695.7199999999999,0.16867884511709758
111,705.4000000000001,0.16587404797871302
112,715.21,0.16350929947896595
113,724.43596,0.16108245755124442
114,726.8299999999999,0.16061057130524983
115,735.2499999999999,0.15893947003317005
116,745.48,0.15685610672873107
117,755.85,0.15477968855991073
118,764.6,0.15273281153607482
119,775.24,0.15092737884309038
120,784.21,0.1490434623180838
121,795.12,0.14697133910093527
122,804.33,0.14517849466556057
123,815.52,0.14299267671964933
124,824.96,0.14114050157850525
125,831.763771,0.1396132929812652
126,834.52,0.13912680402800692
127,844.1800000000001,0.1379288815428187
128,855.92,0.13617453477510552
129,865.8299999999999,0.1347362341117292
130,875.86,0.13325815516282255
131,886.0,0.1317504815355132
132,894.2,0.13053405169094348
133,904.55,0.1289845473139561
134,915.03,0.1275039980443109
135,925.62,0.12811980209626292
136,934.19,0.12908965078797482
137,945.01,0.1296556978759938
138,954.992586,0.129301744760722
139,955.95,0.12927073355720792
140,964.79,0.12886215842742577
141,975.96,0.121803133705744
142,985.0,0.12470655572687178
143,994.11,0.123005327150818
144,1005.62,0.1229284863856831
145,1014.93,0.12148074096053922
146,1024.32,0.11615587999575931
147,1036.18,0.11709492524471672
148,1045.76,0.11861258137330122
149,1055.44,0.11687045507734067
150,1065.21,0.11404564829928956
151,1075.06,0.11346698998160246
152,1085.01,0.1102905762393703
153,1095.05,0.11071673401504757
154,1096.4782,0.1104455538412569
155,1105.18,0.10901235766624706
156,1115.41,0.10759933336948152
157,1125.73,0.10546054428418139
158,1136.1499999999999,0.1054902132116206
159,1144.02,0.10400578781420665
160,1154.61,0.1028495743633027
161,1165.29,0.1015870261238642
162,1176.07,0.09796648789716503
163,1184.22,0.09894479993542121
164,1195.18,0.09626608113165284
165,1206.24,0.09380013034062382
166,1214.6,0.09078158220563264
167,1225.84,0.09238030983753442
168,1234.34,0.0928002529203783
169,1245.76,0.0917884739752109
170,1254.3899999999999,0.09054203947461592
171,1258.92541,0.08982753046718599
172,1266.0,0.08894399026091342
173,1274.78,0.08907322740421053
174,1283.6100000000001,0.08844816709729864
175,1295.49,0.0862693393276369
176,1304.47,0.08550141967009796
177,1313.51,0.08568857987230821
178,1325.6699999999998,0.084336110781476
179,1334.86,0.08293914863305919
180,1344.1100000000001,0.08286255034439158
181,1356.54,0.08162466862243069
182,1365.95,0.08026298629309422
183,1375.42,0.07953373882350695
184,1384.95,0.07872269221366886
185,1394.55,0.07664880177353815
186,1404.2199999999998,0.07583240750311485
187,1413.9499999999998,0.0758307690924407
188,1423.75,0.07491112985147391
189,1433.62,0.07418218978021454
190,1443.5600000000002,0.07350276187866252
191,1445.43977,0.07334012350994484
192,1446.89,0.07325015345459161
193,1453.5600000000002,0.07265770435018515
194,1463.6399999999999,0.07172540215941799
195,1473.7900000000002,0.0711006618701038
196,1484.0,0.07053948335346366
197,1494.29,0.06989059686705551
198,1504.6499999999999,0.06901169728210037
199,1511.59,0.06812767865472694
200,1518.57,0.0679277905424695
201,1525.58,0.06744027281654907
202,1536.15,0.06618604593595294
203,1543.2399999999998,0.06567767724026455
204,1553.94,0.0649019270337954
205,1564.71,0.0645562967287793
206,1575.56,0.0641902734539952
207,1586.48,0.06365733508066408
208,1593.8,0.06330048434689269
209,1604.85,0.0624768896476886
210,1615.9699999999998,0.06179211284993753
211,1623.4299999999998,0.06117984491907213
212,1634.68,0.06073338379544806
213,1646.02,0.06009160583083499
214,1653.6100000000001,0.0594187905740966
215,1659.58691,0.05921457498863811
216,1665.08,0.059120022241457904
217,1672.76,0.05836306581374642
218,1676.6200000000001,0.05894594344513101
219,1684.3600000000001,0.058682942053140535
220,1696.03,0.05789344700087584
221,1703.8600000000001,0.05746006966246686
222,1715.67,0.056911079026884505
223,1723.5900000000001,0.05658382574205705
224,1735.5400000000002,0.056439270523157024
225,1743.5500000000002,0.05598266329191107
226,1755.6299999999999,0.05584367581707324
227,1763.74,0.05500590931202895
228,1775.96,0.05469818725387345
229,1784.1599999999999,0.054484252802410676
230,1796.53,0.05447511583355769
231,1804.82,0.05402666943567642
232,1813.15,0.053420030728275815
233,1825.72,0.05295036821182617
234,1834.1499999999999,0.052447189230627245
235,1846.86,0.05131162013085995
236,1855.39,0.051307157875862694
237,1863.95,0.05140666563872595
238,1876.87,0.05100953666398217
239,1885.53,0.05041088815304708
240,1894.24,0.05020619300521285
241,1902.98,0.049931409875239106
242,1905.46072,0.049835822822227406
243,1916.17,0.049536575753398024
244,1925.02,0.04888835442933979
245,1933.9,0.047979589799098304
246,1942.8300000000002,0.04910286899188473
247,1956.29,0.04854679995100068
248,1965.3200000000002,0.04903718478984295
249,1974.4,0.04856131545171314
250,1983.51,0.04841002680740009
251,1997.2599999999998,0.04797827114007797
252,2006.48,0.04753369170642633
253,2015.74,0.047344569531197034
254,2025.04,0.04659471461439007
255,2034.39,0.04703115052061102
256,2043.78,0.047290544685254315
257,2053.21,0.04656774010831995
258,2062.69,0.0461761123544135
259,2072.21,0.04682887385892937
260,2076.99,0.049021855740398496
261,2086.58,0.049854248197153464
262,2096.21,0.04880495891233077
263,2105.88,0.048087207885930405
264,2115.6,0.048749014682557976
265,2125.37,0.04759265930221345
266,2135.1800000000003,0.04661382518029125
267,2145.03,0.04821001331679141
268,2154.94,0.04792213184092508
269,2164.88,0.04642119905887548
270,2174.8700000000003,0.0462512040998538
271,2184.91,0.04773830696386006
272,2187.7616199999998,0.04773623556490668
273,2195.0,0.047798976250893584
274,2205.1299999999997,0.047145678177292434
275,2215.31,0.04484022163541092
276,2225.53,0.04567992111890512
277,2235.81,0.04830400564046289
278,2246.13,0.047355854187396365
279,2256.49,0.04462349675970556
280,2266.91,0.043942160370078316
281,2277.37,0.044509938005826775
282,2282.62,0.04713119883638887
283,2293.16,0.04492438452288876
284,2303.74,0.04671398423476436
285,2314.38,0.04491201498470351
286,2325.06,0.0423843457600184
287,2335.79,0.041545732067052914
288,2346.57,0.03903309090580707
289,2357.41,0.04333554278262479
290,2362.84,0.039212625727377576
291,2373.75,0.0408161061486028
292,2384.7,0.03744825759520373
293,2395.71,0.038447322079868215
294,2406.77,0.03819600409625236
295,2412.32,0.03910318811713227
296,2423.4500000000003,0.043520338677923896
297,2434.6400000000003,0.04321071227677909
298,2445.87,0.04517085990101001
299,2457.16,0.04557543856330448
300,2462.83,0.043842536660311536
301,2474.2,0.04196807337335743
302,2485.62,0.037979085618122965
303,2497.0899999999997,0.03893697039460814
304,2502.85,0.04346984904871054
305,2511.88643,0.037771391659056505
306,2514.4,0.03619890114988673
307,2520.2000000000003,0.03474849457204542
308,2526.0,0.035198486994204116
309,2537.66,0.03813135041185419
310,2543.5099999999998,0.03858441581179012
311,2555.25,0.044912246993883756
312,2567.05,0.04097932974931006
313,2572.97,0.04405104831813411
314,2584.8399999999997,0.042241026242448555
315,2596.77,0.04071670574009566
316,2602.76,0.03893193947780783
317,2614.77,0.037647447739898504
318,2626.8399999999997,0.04103775757532187
319,2632.9,0.04946967648192215
320,2645.0499999999997,0.05690467508178908
321,2657.26,0.06685652525498867
322,2663.39,0.053508439330477095
323,2675.68,0.056718898268120266
324,2688.03,0.0608352587790961
325,2694.23,0.05172653802347264
326,2706.6600000000003,0.057024757298892045
327,2712.8999999999996,0.04873813092549038
328,2725.42,0.044652432560908804
329,2738.0,0.0491049457696599
330,2744.32,0.03907683816070179
331,2756.98,0.04358724013389646
332,2763.34,0.048888046907160136
333,2776.09,0.05043976124035382
334,2782.4900000000002,0.040363312395839276
335,2795.34,0.03167127168458742
336,2801.7799999999997,0.03300959422229467
337,2814.7100000000005,0.046957527275486376
338,2827.71,0.05658045149756622
339,2834.2200000000003,0.054472752204161576
340,2847.31,0.04641870878624044
341,2853.87,0.03736037747061303
342,2867.04,0.05390842281713545
343,2873.6499999999996,0.06320342947928528
344,2884.0315,0.0604573164308686
345,2886.92,0.05970567356599207
346,2893.5699999999997,0.06675118475500244
347,2906.93,0.0811700167527736
348,2927.0800000000004,0.07394941238563957
349,2947.3700000000003,0.07011559046458997
350,2967.7999999999997,0.0717765809896248
351,2988.3700000000003,0.07246123396074404
352,3009.08,0.07258041937794774
353,3029.94,0.07545171384452758
354,3050.9399999999996,0.07799255075719186
355,3072.09,0.08191239671923231
356,3093.39,0.08016663173064895
357,3107.66,0.0882463546279689
358,3129.21,0.08324570472167916
359,3150.8999999999996,0.08257502726147384
360,3172.74,0.0887585488506447
361,3187.38,0.08020826606975921
362,3209.48,0.08633429934451543
363,3231.7200000000003,0.07663351506535608
364,3246.64,0.09765614717663947
365,3269.14,0.10996102458306548
366,3291.81,0.10804940424545117
367,3307.0,0.10252759464561166
368,3311.31121,0.100655703601858
369,3322.26,0.09593485176423164
370,3329.92,0.10564694170745258
371,3337.6,0.10130281517532945
372,3345.2900000000004,0.10048283540553428
373,3353.0,0.09427550916039504
374,3360.74,0.10518493320223969
375,3368.48,0.10237974724408434
376,3376.25,0.08435016157291289
377,3384.03,0.08898237266406941
378,3391.83,0.10393096727988185
379,3399.65,0.10625574542035021
380,3407.4900000000002,0.10399498708547453
381,3415.34,0.10064503551292679
382,3423.21,0.11563397746503498
383,3431.11,0.11118566970412708
384,3439.02,0.11026433870554712
385,3446.94,0.08038321446929514
386,3454.89,0.10886549052002706
387,3462.85,0.09335509333308692
388,3470.84,0.10267214643313069
389,3478.84,0.08596714629550242
390,3486.86,0.1006081096825301
391,3494.9,0.09256939659421369
392,3502.9500000000003,0.10950373026822526
393,3511.03,0.10943551422922071
394,3519.12,0.10852415495254412
395,3527.23,0.08844365920052347
396,3535.36,0.10838488697315875
397,3543.52,0.12177550503277791
398,3551.68,0.11816264309239709
399,3559.87,0.11223733143900015
400,3568.08,0.10644506331025914
401,3576.3,0.0961322919438461
402,3584.55,0.07742380086441696
403,3592.81,0.08904908654731578
404,3601.09,0.1215109757548705
405,3609.39,0.1018845384870812
406,3617.71,0.1102205247439478
407,3626.05,0.11409612452547034
408,3634.4100000000003,0.1001216278316488
409,3642.7900000000004,0.13017127466248318
410,3651.19,0.10330486501797351
411,3659.6,0.1364664621357918
412,3668.04,0.13232064954059397
413,3676.4999999999995,0.1374214904700521
414,3684.9700000000003,0.11887035816183816
415,3693.47,0.12919930614060815
416,3701.9800000000005,0.13775148088170605
417,3710.52,0.10102351590978789
418,3719.0699999999997,0.14157421770019768
419,3727.64,0.1145670530152634
420,3736.23,0.10100099185498507
421,3744.85,0.1231704109816906
422,3753.48,0.08400819687072413
423,3762.13,0.10276023628441355
424,3770.81,0.10847357598508689
425,3779.5,0.13000154244808818
426,3788.21,0.1441614524357454
427,3796.9399999999996,0.11239142594805857
428,3801.8939600000003,0.12016791811705063
429,3805.7000000000003,0.12615054419748384
430,3814.47,0.1345499432095782
431,3823.26,0.10148758822854165
432,3832.08,0.08646319725780872
433,3840.9100000000003,0.08090768429051035
434,3849.7599999999998,0.11823904733008106
435,3858.64,0.11400223437995541
436,3867.53,0.1222281494332643
437,3876.4500000000003,0.10035877849687681
438,3885.3900000000003,0.1089493135673584
439,3886.15,0.1426755318283837
440,3887.92,0.14614312843629784
441,3889.69,0.13648342504421196
442,3891.4500000000003,0.13319787364869157
443,3893.22,0.1616727702566057
444,3894.99,0.14795836686451985
445,3896.76,0.169620463472434
446,3898.53,0.16799486008034814
447,3900.2999999999997,0.15162945668826228
448,3902.07,0.16373815329617644
449,3903.84,0.13988244990409057
450,3905.61,0.1440066465120047
451,3907.37,0.14327089511648433
452,3909.14,0.14074109172439844
453,3910.9100000000003,0.1801149883323126
454,3912.68,0.18385378494022675
455,3914.45,0.1523808815481409
456,3916.2200000000003,0.15694927815605503
457,3917.9900000000002,0.14641977476396917
458,3919.7599999999998,0.14601197137188332
459,3921.5299999999997,0.13718616797979746
460,3923.3,0.1357379645877116
461,3925.0600000000004,0.1274681131921912
462,3926.83,0.09562558980010534
463,3928.6,0.07643354640801948
464,3930.3700000000003,0.07889027301593363
465,3932.14,0.06807708962384777
466,3933.91,0.0885197362317619
467,3935.68,0.08630965283967607
468,3937.4500000000003,0.08514245944759019
469,3939.22,0.10215793605550433
470,3940.99,0.12498028266341848
471,3942.75,0.10894177126789809
472,3944.5200000000004,0.14020822787581222
473,3946.29,0.14560232448372637
474,3948.06,0.14964492109164051
475,3949.83,0.15129951769955463
476,3951.6,0.1377800143074688
477,3953.37,0.14889671091538295
478,3955.14,0.14815500752329708
479,3956.9100000000003,0.1408325041312112
480,3958.68,0.14520150073912536
481,3960.44,0.12445134934360497
482,3962.21,0.0957314059515191
483,3963.9799999999996,0.08702853255943324
484,3965.75,0.07321947916734739
485,3967.52,0.06661947577526153
486,3969.29,0.08368751238317568
487,3971.06,0.09294299899108982
488,3972.83,0.10711689559900398
489,3974.6,0.11762332220691811
490,3976.3599999999997,0.1278770708113977
491,3978.13,0.15148766741931186
492,3979.9,0.15216086402722598
493,3981.67,0.14886276063514012
494,3983.4399999999996,0.15787165724305427
495,3985.21,0.1633579538509684
496,3986.98,0.16949765045888254
497,3988.75,0.1682626470667967
498,3990.52,0.17676084367471084
499,3992.29,0.16782924028262497
500,3994.05,0.1811035888871046
501,3995.8199999999997,0.18380078549501871
502,3997.5899999999997,0.17942148210293288
503,3999.36,0.17090457871084702
504,4001.13,0.17818357531876114
505,4002.8999999999996,0.1749563719266753
506,4004.67,0.16459386853458943
507,4006.44,0.1823011651425036
508,4008.21,0.1802449617504177
509,4009.98,0.17433895835833188
510,4011.74,0.18390090696281147
511,4013.51,0.18590910357072563
512,4015.2799999999997,0.19179280017863976
513,4017.0499999999997,0.1800885967865539
514,4018.82,0.17664839339446803
515,4020.59,0.1821028900023822
516,4022.3599999999997,0.1762670866102963
517,4024.13,0.18716318321821046
518,4025.9,0.1887474798261246
519,4027.6600000000003,0.1644907284306042
520,4029.43,0.16678672503851835
521,4031.2,0.17268092164643248
522,4032.9700000000003,0.17129181825434664
523,4034.74,0.1791713148622608
524,4036.5099999999998,0.18075571147017494
525,4038.28,0.17445080807808905
526,4040.05,0.1777862046860032
527,4041.8199999999997,0.16946200129391736
528,4043.59,0.17438159790183147
529,4045.35,0.1630008465063111
530,4047.1200000000003,0.15592914311422523
531,4048.89,0.1682855397221394
532,4050.66,0.16906683633005354
533,4052.4300000000003,0.17625813293796766
534,4054.2,0.1795710295458818
535,4055.97,0.17708942615379594
536,4057.7400000000002,0.16707372276171006
537,4059.51,0.16026111936962423
538,4061.2799999999997,0.15844141597753839
539,4063.04,0.17152756458201796
540,4064.81,0.17245696118993212
541,4066.5800000000004,0.16647085779784623
542,4068.35,0.1594451544057604
543,4070.12,0.16926025101367453
544,4071.8900000000003,0.15882144762158867
545,4073.66,0.16766424422950282
546,4075.43,0.17199544083741697
547,4077.2000000000003,0.1580317374453311
548,4078.9700000000003,0.17264533405324525
549,4080.73,0.19334888265772487
550,4082.5,0.190556879265639
551,4084.27,0.18694587587355313
552,4086.0400000000004,0.1911886724814673
553,4087.81,0.18589236908938145
554,4089.58,0.19197236569729556
555,4091.3500000000004,0.19695856230520972
556,4093.12,0.18624015891312387
557,4094.89,0.179717755521038
558,4096.66,0.16727925212895214
559,4098.42,0.16408910073343172
560,4100.1900000000005,0.16553679734134588
561,4101.96,0.17295019394926003
562,4103.73,0.17470599055717415
563,4105.5,0.1703795871650883
564,4107.27,0.18355788377300244
565,4109.04,0.1848226803809166
566,4110.8099999999995,0.17728867698883072
567,4112.58,0.18911017359674487
568,4114.34,0.1959897222012245
569,4116.11,0.19010321880913864
570,4117.88,0.18436491541705274
571,4119.650000000001,0.1941686120249669
572,4121.42,0.18834640863288105
573,4123.19,0.1866029052407952
574,4124.96,0.19085030184870933
575,4126.7300000000005,0.18485279845662347
576,4128.5,0.17678699506453763
577,4130.2699999999995,0.17695179167245176
578,4132.03,0.18018464027693137
579,4133.8,0.1797851368848455
580,4135.57,0.18817763349275965
581,4137.34,0.1808120301006738
582,4139.11,0.18011112670858792
583,4140.88,0.18479812331650206
