,lambda (Angstroms),Total Flux (erg/s/cm^2/Angstrom)
0,101.98,0.029656617579236662
1,104.11999999999999,0.035362626707565986
2,104.712855,0.03694339295506049
3,106.05,0.03396858669851704
4,108.03,0.029563598914335305
5,110.03,0.02511413780539447
6,113.9,0.016504425902671992
7,117.9,0.007605526345750323
8,120.22644299999999,0.00243051232960647
9,120.92999999999999,0.0023583121170313542
10,124.89,0.001951169828360576
11,126.92,0.0017424549356606573
12,128.09,0.0016221909360306544
13,131.08,0.0013148341965317585
14,131.99,0.0012217307635973122
15,134.13,0.0010018150467954287
16,136.94,0.0007138529440088412
17,138.038426,0.000601067116721656
18,140.13,0.0005940135816930258
19,143.06,0.0005953136464717645
20,147.07,0.0006134668519061474
21,150.84,0.0006075109151948315
22,155.07,0.0006016866267627716
23,158.489319,0.0005988068697855113
24,159.04999999999998,0.0005972410759977596
25,162.0,0.0005893927188544441
26,166.16,0.0005807411360014976
27,170.03,0.000572649990054165
28,173.19,0.0005670382189447153
29,176.82,0.0005626728518158222
30,180.10999999999999,0.0005570568796797177
31,181.970086,0.0005552959537675769
32,182.19,0.0005567115615297084
33,186.01,0.000582552592478688
34,191.22,0.000617842023432663
35,193.88,0.0006413907083343085
36,197.94,0.000671424369499978
37,202.08,0.0007051709407378775
38,204.89000000000001,0.0007301428695249542
39,208.929613,0.0007526687133243266
40,210.14999999999998,0.0007706025822893793
41,216.04000000000002,0.0008949372676515163
42,220.05,0.0009724229094685225
43,223.11,0.0010262249633238942
44,226.74,0.0011043257899562464
45,229.89,0.0014091391395132462
46,234.17000000000002,0.0020269458684351385
47,239.88329199999998,0.0024452205194202634
48,240.18,0.002461035501169481
49,245.77,0.0023992524456571966
50,252.07,0.0025170315906075744
51,256.76,0.002250931942959522
52,259.73,0.002495563697007557
53,263.95,0.0025979276067997145
54,268.86,0.002615736570562628
55,273.86,0.002624678193539118
56,275.42287,0.00262756513750108
57,278.95,0.002699662552091977
58,284.14,0.002806042397820352
59,290.09,0.0028218269531351562
60,296.16,0.0029849776204899227
61,300.96999999999997,0.003069073111425083
62,307.98,0.0032307806564262223
63,316.227766,0.0034244416521847557
64,318.07,0.003437055547158815
65,327.73999999999995,0.003460331044169749
66,337.7,0.003452829139333027
67,347.96,0.003432042508447007
68,356.89,0.0034146909963795446
69,363.078055,0.0034071323416359585
70,366.03999999999996,0.0034406006767864136
71,375.43,0.0035190838440655875
72,385.06,0.0035183192552368813
73,394.94,0.0036806117954624657
74,405.07,0.0037777034647423413
75,413.55,0.003824291082263896
76,416.86938299999997,0.0038398433308742094
77,422.21000000000004,0.0038531404690743563
78,430.06,0.0038720058830179604
79,441.09000000000003,0.003922304184393496
80,451.36999999999995,0.003935242700997349
81,459.76000000000005,0.003949032359976564
82,470.46999999999997,0.003970575886516182
83,478.630092,0.003997476443043108
84,480.32,0.003990185971464784
85,490.38,0.0038922781442746208
86,499.49,0.0038664941099105657
87,506.44,0.003802937257130085
88,512.3,0.003865938671907982
89,519.4300000000001,0.00382129663732887
90,530.3100000000001,0.003733429315278275
91,540.1700000000001,0.0036173450234199237
92,549.5408739999999,0.00357079728479105
93,550.21,0.0035694222927762616
94,560.4399999999999,0.0035881730136759745
95,569.55,0.0036086696771555817
96,580.13,0.0035274755409990775
97,589.5600000000001,0.003547229506598715
98,600.52,0.0034594633542097473
99,610.28,0.0031976395688706654
100,620.1999999999999,0.0034907779345915995
101,630.27,0.003450340504431297
102,630.957344,0.0034489402201059536
103,640.51,0.003460998872195045
104,649.42,0.0034843278054374877
105,658.46,0.0034883329935981697
106,664.55,0.003532699089383408
107,675.35,0.003533432190283338
108,684.7399999999999,0.003460781372454666
109,694.27,0.0036492357522302527
110,705.5500000000001,0.003551514102059068
111,715.37,0.0037231128197291897
112,724.43596,0.00374029073886157
113,725.3199999999999,0.0037412439835842657
114,735.41,0.0037657667820755495
115,745.6400000000001,0.003853188469743125
116,754.27,0.0038979557096816557
117,764.77,0.003790597397903507
118,775.4,0.004029338197503344
119,784.3799999999999,0.004076129660382603
120,795.3000000000001,0.004140419016133328
121,804.4999999999999,0.004203866590575331
122,815.7,0.00424679472467864
123,825.14,0.00439159196628
124,831.763771,0.004089924631851599
125,834.7,0.003946135939403347
126,844.36,0.004401726704689158
127,854.14,0.004394971516748705
128,864.03,0.0045052728716841765
129,874.03,0.0046292657694955745
130,884.15,0.0047956067140807095
131,894.3900000000001,0.00489384670543958
132,904.75,0.0048032457435721885
133,915.2299999999999,0.0066801618284785345
134,925.8199999999999,0.0358370764562608
135,934.39,0.07635700029668517
136,945.2099999999999,0.14554719751411713
137,953.9599999999999,0.21250403842470209
138,954.992586,0.21358031855412452
139,965.0,0.22403099573146865
140,973.93,0.03387080933911789
141,985.2099999999999,0.16583919021193796
142,994.32,0.19252220697181305
143,1005.84,0.3111372287142676
144,1015.15,0.3097096711988381
145,1024.54,0.13771058397328673
146,1034.02,0.20061876332384826
147,1045.99,0.42434821794686745
148,1055.6699999999998,0.41757042302212444
149,1065.44,0.3082708946734943
150,1075.3,0.38350203290097706
151,1085.25,0.2844349377045728
152,1095.29,0.41088210908428147
153,1096.4782,0.4089280113112417
154,1105.42,0.3942153743913972
155,1115.6499999999999,0.3704775836400547
156,1125.97,0.32720998827799647
157,1133.78,0.44630841039256297
158,1144.27,0.39964321743248643
159,1154.8600000000001,0.43512980823828135
160,1165.54,0.4483320944333607
161,1176.33,0.2902779527708987
162,1184.48,0.4360983796894284
163,1195.44,0.271538340428948
164,1203.73,0.17995900461969777
165,1214.87,0.14073375613778616
166,1226.11,0.29492879142174605
167,1234.61,0.4769719115208261
168,1246.03,0.5277742375833547
169,1254.6699999999998,0.49369419495465483
170,1258.92541,0.46326860181463536
171,1266.28,0.4106934567682493
172,1275.0500000000002,0.5654834818418228
173,1283.89,0.6003523127027567
174,1295.77,0.44004709490048227
175,1304.75,0.43202253733613677
176,1313.8,0.5799849855591516
177,1325.9499999999998,0.5500829900795529
178,1335.1399999999999,0.46610564987728836
179,1344.4,0.5921210154623843
180,1353.72,0.5720373860080746
181,1366.24,0.49484442111880905
182,1375.71,0.530207004065986
183,1385.25,0.5363391928005232
184,1394.85,0.461839086495655
185,1404.52,0.4813729859781471
186,1414.26,0.4869349912479996
187,1424.06,0.5098685014784466
188,1433.9299999999998,0.504035417496254
189,1440.55,0.5388173648151886
190,1445.43977,0.5480395076527512
191,1447.1999999999998,0.5513592912262896
192,1453.8799999999999,0.5314360547488298
193,1463.96,0.48027085419601634
194,1474.1000000000001,0.48138195780657894
195,1484.3200000000002,0.4971289669683096
196,1494.6100000000001,0.5098765809873124
197,1504.97,0.4758672998635874
198,1511.9199999999998,0.41166418212132017
199,1515.4,0.4503080235971345
200,1525.91,0.4310490528818498
201,1536.49,0.36357088702383716
202,1543.58,0.41642917899611415
203,1554.2800000000002,0.39045402146485375
204,1565.05,0.3949682687908655
205,1575.9,0.4241690216680453
206,1586.82,0.4534340794024973
207,1594.15,0.46291378802827876
208,1605.2,0.455525854783379
209,1616.32,0.45867482639575136
210,1623.78,0.428090244042181
211,1635.0400000000002,0.46185272536909766
212,1646.3700000000001,0.4704335115532864
213,1653.9699999999998,0.42808943891426027
214,1659.58691,0.45095603911831916
215,1665.44,0.4747866946599662
216,1673.12,0.4097909864175646
217,1676.9800000000002,0.4769865424311493
218,1684.72,0.5063958645931039
219,1696.4,0.4704513833077848
220,1704.23,0.4482775510762738
221,1716.04,0.4193548356670599
222,1723.96,0.41743064904208327
223,1735.9099999999999,0.4513964045763672
224,1743.9299999999998,0.44011636862531767
225,1756.02,0.4770197951030995
226,1764.1200000000001,0.4291303996911916
227,1776.35,0.4421637971124714
228,1784.55,0.4514197523744905
229,1796.9199999999998,0.49152522073926813
230,1805.2099999999998,0.4870319216078216
231,1813.54,0.4411629427459459
232,1826.12,0.4535203175259704
233,1834.54,0.43213678427062907
234,1843.01,0.3914561763522512
235,1855.79,0.39236215248012984
236,1864.35,0.40800809016828643
237,1872.9599999999998,0.4504236531934065
238,1885.94,0.40989723066913925
239,1894.6499999999999,0.39327934436818635
240,1903.39,0.4194491732694116
241,1905.46072,0.4164904891518269
242,1916.59,0.40057585302168414
243,1925.4299999999998,0.39417657879947293
244,1934.32,0.4051995719176338
245,1943.25,0.4262270389080924
246,1956.72,0.39779674040433843
247,1965.75,0.4432065420755412
248,1974.82,0.45561391761904174
249,1983.9399999999998,0.42914776050291426
250,1993.1,0.41553917725908457
251,2006.91,0.43012115666986095
252,2016.1699999999998,0.41077760810677544
253,2025.48,0.43309222688406207
254,2034.83,0.40888841953364635
255,2044.22,0.43009988605552835
256,2053.66,0.40793041991778245
257,2063.14,0.40792462765233417
258,2072.66,0.4421184092591836
259,2077.44,0.4261357869987572
260,2087.03,0.44825622288212763
261,2096.66,0.42029013263779574
262,2106.3399999999997,0.42124780973383597
263,2116.06,0.42710096070217385
264,2125.83,0.4320276790108839
265,2135.64,0.3958595711918916
266,2145.5,0.4135452307132714
267,2155.4,0.43102456410694884
268,2165.35,0.41447306484099844
269,2175.35,0.41067003291542015
270,2185.3900000000003,0.40691007486213954
271,2187.7616199999998,0.41164828359712846
272,2195.47,0.4270577401504455
273,2205.61,0.41352482091582
274,2215.79,0.38683482251261614
275,2226.02,0.3754417501486892
276,2236.29,0.4106894986161839
277,2246.61,0.39043377312295563
278,2256.98,0.36593667366900423
279,2267.4,0.37421510025432997
280,2272.63,0.3881250239627036
281,2283.12,0.40614638700301703
282,2293.66,0.3779495760826075
283,2304.24,0.3820898859936196
284,2314.88,0.35720052715176404
285,2325.56,0.26903368914133
286,2336.3,0.3216770823780285
287,2347.08,0.3063133964461485
288,2352.4900000000002,0.3443236138959193
289,2363.35,0.30460836962688254
290,2374.2599999999998,0.31873655139712276
291,2385.2200000000003,0.28788275920663997
292,2396.23,0.3118048930554342
293,2407.29,0.29759205294350544
294,2412.84,0.3093522433032518
295,2423.98,0.3404867448541662
296,2435.1600000000003,0.32721976723650215
297,2446.4,0.3519679208659706
298,2457.7,0.3485110057425713
299,2463.36,0.34047785338872716
300,2474.73,0.3249509747203157
301,2486.16,0.3239777272990367
302,2497.63,0.30779120070917926
303,2503.39,0.35564020043388905
304,2511.88643,0.31304484935073473
305,2514.94,0.29773410978118114
306,2520.7400000000002,0.3038487407464327
307,2526.55,0.29075586969610706
308,2532.38,0.30361699461462716
309,2544.07,0.2992439384049358
310,2555.81,0.3416743721173587
311,2567.6,0.3201435957518958
312,2573.5200000000004,0.3476390025302215
313,2585.4,0.3379282080245643
314,2597.34,0.32848830142544416
315,2603.32,0.312878096110307
316,2615.3399999999997,0.30554437338656965
317,2627.41,0.33013024058494644
318,2633.47,0.366825319145192
319,2645.6200000000003,0.41885567021895165
320,2657.84,0.45886400718367126
321,2663.96,0.37550687365045393
322,2676.2599999999998,0.4038683944905563
323,2682.4300000000003,0.41406135087945317
324,2694.8100000000004,0.37564155559493834
325,2707.25,0.40308014821696053
326,2713.4900000000002,0.3599853904968174
327,2726.0099999999998,0.3467073669942224
328,2732.2999999999997,0.3756213991961934
329,2744.91,0.29890025755340405
330,2757.58,0.3177928038171518
331,2763.9399999999996,0.3434983219100827
332,2776.7,0.3626942500336361
333,2783.1,0.3187415600642585
334,2795.94,0.2394938720631946
335,2802.3900000000003,0.2606434720159312
336,2815.32,0.35196106587467296
337,2821.81,0.400172957765101
338,2834.84,0.38628453146807123
339,2847.92,0.3585821950931557
340,2854.4900000000002,0.31729677085896646
341,2867.6600000000003,0.40548931634385654
342,2874.27,0.4352744840473587
343,2884.0315,0.4213246792018568
344,2887.54,0.4163115020694252
345,2894.2000000000003,0.4327315745974309
346,2907.56,0.5055801194884455
347,2927.71,0.47017793637122557
348,2948.0099999999998,0.455738352635267
349,2968.44,0.47438376836306845
350,2989.02,0.4770507834721312
351,3009.73,0.48638319804495384
352,3030.6,0.4924865119577886
353,3051.6,0.49752162533438327
354,3072.7599999999998,0.51075253805099
355,3086.94,0.5150067795595669
356,3108.34,0.533583291286192
357,3129.8900000000003,0.5183452023940782
358,3151.58,0.5164257129244754
359,3173.42,0.5325901228361338
360,3188.07,0.48530776240599627
361,3210.17,0.5216313712451744
362,3232.4199999999996,0.467508479465614
363,3247.34,0.551188817921747
364,3269.8500000000004,0.5992954250697062
365,3292.52,0.5875050315576779
366,3307.7200000000003,0.5788799688588321
367,3311.31121,0.5778081449481159
368,3322.98,0.5743246339302545
369,3330.65,0.6122412291303663
370,3338.32,0.5581296243304783
371,3346.02,0.6060142171650104
372,3353.7299999999996,0.557564509211016
373,3361.46,0.5689420996799683
374,3369.21,0.5739197885718677
375,3376.98,0.5503486758867138
376,3384.76,0.5363226624130332
377,3392.5699999999997,0.608365646573773
378,3400.39,0.6425749299459861
379,3408.23,0.5844239117411462
380,3416.0800000000004,0.5682202927477795
381,3423.9599999999996,0.6342427713888332
382,3431.8500000000004,0.6324653492413604
383,3439.76,0.6263457255168344
384,3447.69,0.5171847002152551
385,3455.64,0.5839552733366228
386,3463.6,0.5238215456694637
387,3471.59,0.5996703156367251
388,3479.59,0.5149142848154598
389,3487.6099999999997,0.5616642524171412
390,3495.65,0.5511322184417697
391,3503.71,0.625147482889345
392,3511.79,0.606404345759867
393,3519.88,0.6074781078418624
394,3528.0,0.5313007675582782
395,3536.13,0.6124343264861674
396,3544.28,0.6468613838370032
397,3552.45,0.660039639610786
398,3560.64,0.6387682938075158
399,3568.85,0.5586637464271922
400,3577.0800000000004,0.5481736974698156
401,3585.32,0.48274494772391235
402,3593.5899999999997,0.5577380956124294
403,3598.85,0.7853041808474475
404,3601.54,0.5740307687337969
405,3604.23,0.7343461566201465
406,3606.92,0.6283515445064961
407,3609.6099999999997,0.5174322323928455
408,3612.3,0.7196164202791951
409,3614.9900000000002,0.5517080081655447
410,3617.68,0.6010827960518943
411,3620.37,0.5941081839382437
412,3623.06,0.6362263718245933
413,3625.76,0.4736842589224163
414,3628.45,0.7961800468087658
415,3631.14,1.0271295346951153
416,3633.83,0.765093422581465
417,3636.5199999999995,0.44448461046781446
418,3639.21,0.659868998354164
419,3641.9,0.7887071862405136
420,3644.5899999999997,0.6992862741268632
421,3647.2799999999997,0.8170064620132126
422,3649.9700000000003,0.7911153498995622
423,3652.66,0.9009609377859118
424,3655.35,0.9975409256722613
425,3658.04,0.6426553135586108
426,3660.73,0.7485202014449603
427,3663.43,0.8150501885427833
428,3666.12,0.7870763764291329
429,3668.81,0.9699528643154824
430,3671.4999999999995,0.754536352201832
431,3674.19,0.9354497400881815
432,3676.88,0.7932052279745311
433,3679.5699999999997,0.7888990158608806
434,3682.2599999999998,0.6819391037472301
435,3684.9500000000003,0.48100249163357967
436,3687.64,0.6128668795199292
437,3690.33,0.6663197674062787
438,3693.02,0.6898139552926283
439,3695.71,0.6782514431789779
440,3698.4,0.9456360310653275
441,3701.09,0.7238297189516769
442,3703.79,0.7052020060494999
443,3706.4799999999996,0.5856490939358495
444,3709.17,0.720973281822199
445,3711.86,0.8694003697085485
446,3714.5499999999997,0.7540016575948981
447,3717.24,0.5649642454812476
448,3719.9300000000003,0.7199864333675972
449,3722.62,1.0248353212539467
450,3725.31,1.2959291091402962
451,3728.0,1.3706638970266458
452,3730.69,1.3822696849129952
453,3733.38,1.187787472799345
454,3736.07,0.8474907606856944
455,3738.7599999999998,0.529907348572044
456,3741.4500000000003,0.6273333364583936
457,3744.15,0.9450532235562165
458,3746.84,0.9961631114425661
459,3749.5299999999997,0.8552421993289157
460,3752.22,0.8504262872152653
461,3754.9100000000003,0.8866330751016147
462,3757.6,0.7275433629879643
463,3760.29,0.7000251508743138
464,3762.98,0.7966809387606633
465,3765.67,0.8512945266470129
466,3768.36,0.8084606145333625
467,3771.05,0.717749002419712
468,3773.74,0.9617694903060615
469,3776.4300000000003,1.083579078192411
470,3779.1200000000003,0.8441034660787606
471,3781.81,0.9075899539651101
472,3784.5099999999998,0.8445114410629331
473,3787.2,0.9469050289492827
474,3789.8900000000003,0.8118629168356322
475,3792.58,0.8119389047219817
476,3795.27,0.8198245926083313
477,3797.96,0.9482937804946808
478,3800.6499999999996,0.7261085683810303
479,3801.8939600000003,0.7418988545903684
480,3803.34,0.7602542800256585
481,3806.03,0.8521918121084131
482,3808.72,0.8730285441911675
483,3811.41,0.933618876273922
484,3814.1000000000004,0.9534144083566766
485,3816.79,0.7049794404394311
486,3819.48,0.8044339725221855
487,3822.1699999999996,0.7142971046049401
488,3824.8700000000003,0.707383936063467
489,3827.56,0.6308493681462214
490,3830.25,0.636131800228976
491,3832.94,0.3914613323117304
492,3835.6299999999997,0.34354026439448493
493,3838.32,0.46588099647723946
494,3841.01,0.725466128559994
495,3843.7,0.7902756606427485
496,3846.39,0.974833892725503
497,3849.08,0.7794182248082574
498,3851.77,0.892572056891012
499,3854.46,0.9102525889737666
500,3857.1499999999996,0.879219921056521
501,3859.84,0.8164062531392756
502,3862.53,0.77766168522203
503,3865.23,1.042492116680557
504,3867.92,0.9942458487633113
505,3870.6099999999997,0.9968384808460659
506,3873.3,0.7994382129288203
507,3875.9900000000002,0.6958626450115749
508,3878.68,0.6007689770943294
509,3881.37,0.7286416091770839
510,3884.06,0.6891703412598384
511,3886.75,0.7028373733425929
512,3889.44,0.8376197054253475
513,3892.1299999999997,0.7360830375081019
514,3894.82,0.8274346695908565
515,3897.51,0.897331701673611
516,3900.2,0.8251356337563654
517,3902.9,0.9009393652148923
518,3905.5899999999997,1.1259445972976467
519,3908.28,0.9638616293804013
520,3910.97,0.8605572614631558
521,3913.66,1.0171410935459102
522,3916.35,1.0434989256286649
523,3919.04,0.9907731577114194
524,3921.73,1.023172589794174
525,3924.42,0.9113426218769284
526,3927.1099999999997,0.9970213539596828
527,3929.8,0.7429138860424375
528,3932.4900000000002,0.5849520181251918
529,3935.18,0.4597150502079464
530,3937.87,0.546239882290701
531,3940.5600000000004,0.7881019143734554
532,3943.26,1.0139162458319821
533,3945.95,0.8001814779147367
534,3948.64,0.8949281099974913
535,3951.33,0.9056448420802458
536,3954.02,0.8151719741630004
537,3956.71,0.8729746062457547
538,3959.4,0.8785391383285094
539,3962.0899999999997,0.7680322704112638
540,3964.7799999999997,0.6026948024940183
541,3967.4700000000003,0.42662983457677284
542,3970.16,0.6190084666595274
543,3972.85,0.7266086987422818
544,3975.54,1.0157302308250364
545,3978.23,0.8892892629077909
546,3980.92,0.7069870949905454
547,3983.62,0.9445275264490722
548,3986.31,1.1903695585318266
549,3988.9999999999995,1.2823503906145812
550,3991.69,1.2252962226973358
551,3994.38,1.4575260547800901
552,3997.0699999999997,1.2712868868628446
553,3999.7599999999998,1.2372287189455993
554,4002.4500000000003,1.3227015510283537
555,4005.14,1.2220433831111084
556,4007.83,1.1554452151938628
557,4010.52,1.1283280472766173
558,4013.21,1.2378808793593719
559,4015.9,1.3344177114421263
560,4018.59,1.3243305435248807
561,4021.2799999999997,1.3040473756076352
562,4023.9799999999996,1.333978207066162
563,4026.67,1.3429810391489165
564,4029.36,1.3166238712316711
565,4032.0499999999997,1.3062107033144257
566,4034.74,1.2986185353971802
567,4037.4300000000003,1.2307183674799347
568,4040.12,1.3037171995626893
569,4042.81,1.2117370316454437
570,4045.5,1.2399388637281983
571,4048.19,1.1903686958109527
572,4050.88,1.2646695278937072
573,4053.57,1.2579453599764618
574,4056.2599999999998,1.1925391920592163
575,4058.9500000000003,1.207616024141971
576,4061.6400000000003,1.1928648562247253
577,4064.34,1.0923096876832523
578,4067.0299999999997,1.1519675197660066
579,4069.72,1.131467351848761
580,4072.4100000000003,1.2553371839315157
581,4075.1,1.2047910160142703
