,lambda (Angstroms),Total Flux (erg/s/cm^2/Angstrom)
0,102.05000000000001,7.752336743089575e-05
1,103.95,9.068343912909128e-05
2,104.712855,9.596730382590645e-05
3,105.88,8.922259978887514e-05
4,108.10000000000001,7.639368966649375e-05
5,110.11,6.477952785609453e-05
6,113.98,4.241657841799736e-05
7,117.97999999999999,1.9302580979625732e-05
8,120.22644299999999,6.331288173463065e-06
9,121.01,6.125612411847714e-06
10,124.97,5.074521472851507e-06
11,127.0,4.536119582659006e-06
12,127.88000000000001,4.303423958437624e-06
13,130.86,3.5142791250515872e-06
14,132.07,3.196695264247196e-06
15,133.91,2.710858572693401e-06
16,137.03,1.891187281363054e-06
17,138.038426,1.6261330771633232e-06
18,139.9,1.6170536754771283e-06
19,143.16,1.6352104013798407e-06
20,147.17,1.6642887921067966e-06
21,150.94,1.6719843828899942e-06
22,155.17,1.6845495568987283e-06
23,158.489319,1.7035666824916477e-06
24,159.14999999999998,1.7040044921862228e-06
25,162.10999999999999,1.713286138233411e-06
26,165.89,1.7359431875774552e-06
27,170.14000000000001,1.7598173949087216e-06
28,172.91,1.7925880792163947e-06
29,176.93,1.840559253915616e-06
30,179.81,1.8868190581777452e-06
31,181.89000000000001,1.9230656445892827e-06
32,181.970086,1.924444349909874e-06
33,186.13000000000002,2.075846863671471e-06
34,190.9,2.28617161579664e-06
35,194.0,2.4287582199031435e-06
36,198.07000000000002,2.6274592872300695e-06
37,202.21,2.842664223036819e-06
38,205.03,3.014330353224026e-06
39,208.929613,3.225322104689243e-06
40,209.79999999999998,3.293032556021504e-06
41,216.17999999999998,3.90441869580407e-06
42,220.20000000000002,4.2977857682062515e-06
43,222.75,4.580131709655396e-06
44,226.89000000000001,5.022776649890478e-06
45,230.04,7.3631399305041266e-06
46,233.78,1.1287234977962873e-05
47,239.78,1.4988864369607919e-05
48,239.88329199999998,1.5002081663918493e-05
49,245.93,1.5463105024280624e-05
50,252.24,1.697271621925523e-05
51,256.93,1.4774709896661072e-05
52,259.9,1.7772842012203795e-05
53,264.13,1.9237481085855546e-05
54,269.04,2.0046825660709e-05
55,274.04,2.0858377875427383e-05
56,275.42287,2.1026164251362082e-05
57,279.13,2.1655008914131388e-05
58,284.32,2.284462534016252e-05
59,290.28000000000003,2.3239545243658775e-05
60,295.67,2.4712119585914613e-05
61,301.17,2.437760728209404e-05
62,308.18,2.6389753745770007e-05
63,316.227766,2.8562714126665444e-05
64,318.28000000000003,2.9028162355041917e-05
65,327.95,3.0508885068598963e-05
66,337.92,3.1668937514737916e-05
67,348.19000000000005,3.274525969345879e-05
68,357.12,3.4048270399980445e-05
69,363.078055,3.5093219042174546e-05
70,366.28000000000003,3.575893167572822e-05
71,374.81,3.692444458242337e-05
72,385.31,3.707515394001998e-05
73,395.19,3.948810390697756e-05
74,405.33,4.113622071517086e-05
75,413.82,4.207703333859898e-05
76,416.86938299999997,4.2283840777875044e-05
77,422.48,4.26323523324415e-05
78,430.34000000000003,4.297979743582052e-05
79,441.37999999999994,4.450555452758952e-05
80,450.62,4.527059426743966e-05
81,460.06,4.554871482416967e-05
82,469.68999999999994,4.612856065693556e-05
83,478.630092,4.7036190673383666e-05
84,479.52000000000004,4.710894403067211e-05
85,489.56,4.689442855369444e-05
86,499.82,4.7915585626026024e-05
87,505.6,4.988745896696915e-05
88,511.46,6.130980505311565e-05
89,519.77,6.121806271111521e-05
90,529.43,6.124534919442155e-05
91,540.52,5.950687724823805e-05
92,549.5408739999999,6.246832908238191e-05
93,550.57,6.281396519316211e-05
94,559.51,6.774798015939022e-05
95,569.92,7.033821896234712e-05
96,580.51,6.936017068408714e-05
97,589.9399999999999,7.300536692922483e-05
98,599.53,7.231525910216977e-05
99,610.68,7.292751657123503e-05
100,620.6,8.140910409528233e-05
101,630.68,8.285695754713686e-05
102,630.957344,8.291565746912683e-05
103,639.46,8.478812320692874e-05
104,649.85,8.79629281449029e-05
105,657.37,8.9001100987402e-05
106,664.98,9.273322668306932e-05
107,674.23,9.511487214757952e-05
108,685.1899999999999,9.367558182228566e-05
109,694.72,0.00010398747505220807
110,704.39,0.00010034023716483656
111,715.8299999999999,0.00011240214872310647
112,724.43596,0.00011489779856689116
113,725.7900000000001,0.00011528758598585985
114,734.1899999999999,0.00011848410315398259
115,744.41,0.00012456151570853192
116,754.76,0.0001288918922192546
117,765.26,0.00013098148867940801
118,774.1199999999999,0.00013990249369245174
119,784.89,0.0001464272460615805
120,795.81,0.0001518715183801401
121,805.0300000000001,0.00015680133127181768
122,814.3499999999999,0.00016188542412978241
123,825.6800000000001,0.0001713839443101194
124,831.763771,0.0001639872400215799
125,835.24,0.0001597298600177165
126,844.91,0.00018174824018390938
127,854.69,0.00018800094897660502
128,864.5899999999999,0.00019804802536184905
129,874.5999999999999,0.0002081616303735958
130,884.7299999999999,0.00021981820297789097
131,894.9699999999999,0.00022949740420868887
132,905.34,0.00023526071199808085
133,915.8199999999999,0.0003478261484139756
134,924.29,0.0017480655526546842
135,935.0,0.003938191185289631
136,945.82,0.010720006146551078
137,954.58,0.02286320268080711
138,954.992586,0.023177103805813448
139,965.63,0.03127024990076905
140,974.5600000000001,0.006874046286040632
141,985.85,0.04944502039463147
142,994.97,0.05273816159661096
143,1004.18,0.06428608271176788
144,1015.8000000000001,0.047876811502009294
145,1025.2,0.00815058043387412
146,1034.69,0.03304677327891637
147,1044.26,0.07658119404678301
148,1053.93,0.08243552471818012
149,1066.1299999999999,0.0724633829488983
150,1076.0,0.08358309342735637
151,1085.95,0.07196529382863882
152,1096.0,0.08533292413345175
153,1096.4782,0.08519626175201614
154,1106.14,0.08243504450005469
155,1113.81,0.08055888134185933
156,1124.11,0.0781852002428486
157,1134.52,0.08792497881171252
158,1145.01,0.08149177713903072
159,1155.61,0.08474414513422357
160,1166.3,0.08976687285767748
161,1174.38,0.07800486846156035
162,1185.25,0.08632065564153639
163,1196.22,0.056378632519580314
164,1204.51,0.03963948748940567
165,1215.65,0.00912357685416494
166,1224.08,0.039456768401285286
167,1235.41,0.07818366419237349
168,1243.97,0.09101459834698206
169,1255.48,0.09038910359459239
170,1258.92541,0.0845733559587921
171,1264.18,0.07570378432028031
172,1275.88,0.09530445683299993
173,1284.73,0.09933416873364681
174,1293.63,0.08812814064503183
175,1305.6000000000001,0.08572659321573729
176,1314.65,0.09842954515933666
177,1323.76,0.09574486711582175
178,1336.01,0.08853519974666067
179,1345.27,0.09888261173536013
180,1354.6,0.09618587373909296
181,1363.99,0.09038810575571153
182,1373.4399999999998,0.09334956778521585
183,1386.1499999999999,0.09552499051484545
184,1395.76,0.09206932257871174
185,1405.43,0.09443153465546376
186,1415.18,0.09206821674939679
187,1424.9899999999998,0.09292023885621555
188,1434.8600000000001,0.09206971097592004
189,1441.49,0.09486649239979449
190,1445.43977,0.09538786288805642
191,1448.1399999999999,0.09574429373476707
192,1454.82,0.09421392493882268
193,1464.91,0.09101509675752342
194,1475.06,0.08976722858703906
195,1485.29,0.08955989043097451
196,1495.58,0.09018099228572483
197,1505.95,0.08853464415489498
198,1512.9,0.08377492540761751
199,1516.3899999999999,0.08711920603668248
200,1523.39,0.08454969729841741
201,1533.95,0.07945327920183465
202,1544.5800000000002,0.08513556111786924
203,1555.29,0.08093079304832365
204,1566.07,0.07963659499139543
205,1573.3,0.08262481629458736
206,1584.2,0.08455008825928885
207,1595.1799999999998,0.08651961023841019
208,1606.2399999999998,0.08300631223195136
209,1613.65,0.08339080356758789
210,1624.84,0.08000449558456128
211,1636.1000000000001,0.08205764761415202
212,1643.65,0.08224584897502325
213,1655.0500000000002,0.07693290102984869
214,1659.58691,0.0793353677550275
215,1666.52,0.08300671097375606
216,1670.36,0.07782392602841053
217,1678.0700000000002,0.08093049617720893
218,1685.8200000000002,0.08319731637866
219,1693.6000000000001,0.08018921661960053
220,1705.34,0.0778234920731535
221,1713.21,0.0757031524325625
222,1725.08,0.07518320805723658
223,1733.05,0.07782334854827722
224,1745.06,0.07587791435723557
225,1753.11,0.0790892649535815
226,1765.27,0.07330213095998729
227,1773.41,0.07658077167480169
228,1785.71,0.07675636786549175
229,1793.95,0.07872502871193778
230,1806.3799999999999,0.07818390507374895
231,1814.72,0.07552965605182661
232,1823.1,0.07570346708255692
233,1835.7399999999998,0.0738100437207945
234,1844.21,0.07032661486999328
235,1856.99,0.06968078169251515
236,1865.56,0.07048827297334555
237,1874.18,0.07363929431999175
238,1887.1699999999998,0.07016440141894004
239,1895.88,0.06809587288405472
240,1904.6299999999999,0.07081387440182202
241,1905.46072,0.07061656390159211
242,1913.42,0.0687260719904333
243,1926.68,0.06809629949157721
244,1935.5800000000002,0.06872534439053504
245,1944.5100000000002,0.07065047923859048
246,1953.49,0.0676260340018086
247,1967.03,0.07065045102786353
248,1976.1100000000001,0.07146871562140704
249,1985.23,0.06904230014708067
250,1994.39,0.06716056460488447
251,2003.6000000000001,0.06809522897785092
252,2012.84,0.06669896329991501
253,2026.8,0.06856650961333649
254,2036.1499999999999,0.06669891374875848
255,2045.55,0.06731583779934316
256,2054.99,0.06503012178205797
257,2064.48,0.06563197567993548
258,2074.01,0.06731497950994313
259,2078.79,0.06608717139949577
260,2083.58,0.06700657327208094
261,2093.2000000000003,0.06473147694938142
262,2102.86,0.06533009055881206
263,2117.44,0.06517963582025083
264,2127.21,0.06578305924303936
265,2137.03,0.06311260258099058
266,2146.89,0.06399016585107195
267,2156.8,0.06458239903631602
268,2166.76,0.06267761213672275
269,2176.76,0.06224603516925963
270,2186.81,0.061817738116959196
271,2187.7616199999998,0.061981059581607684
272,2196.9,0.06354945886473064
273,2207.04,0.06181839258215449
274,2217.23,0.0599953963672185
275,2227.46,0.05849516020639463
276,2232.6,0.06139265715980277
277,2242.9,0.05930858109367513
278,2253.25,0.05782565509518764
279,2263.6600000000003,0.058225059177868334
280,2274.1,0.059172363301133124
281,2284.6,0.05985700750556611
282,2295.15,0.05782529177763924
283,2305.7400000000002,0.0575735561038245
284,2316.38,0.05641524049764993
285,2327.07,0.0490417149591155
286,2332.44,0.05440699222366837
287,2343.2,0.052218966779830164
288,2354.02,0.05457538141716015
289,2364.89,0.05190019612213029
290,2375.8,0.05313068088121256
291,2386.77,0.05029390572146302
292,2392.27,0.052433463161880293
293,2403.31,0.05090772809682697
294,2414.41,0.05139906311294184
295,2425.5499999999997,0.052982548183168825
296,2436.75,0.051086493334564005
297,2442.36,0.05289322092378962
298,2453.64,0.05218893618340906
299,2464.96,0.05161299149714061
300,2476.34,0.05045949689204036
301,2487.77,0.05165632235458026
302,2493.5099999999998,0.05025860011967029
303,2505.0099999999998,0.0526500656769064
304,2510.79,0.04982971349610856
305,2511.88643,0.04991894809587374
306,2516.58,0.05030093252194803
307,2522.38,0.048491549485239524
308,2534.02,0.048512883390879696
309,2545.7200000000003,0.04819911726510563
310,2557.47,0.05014518111315305
311,2563.36,0.04935344802932321
312,2575.2000000000003,0.050992281830249286
313,2587.08,0.05077988561023255
314,2593.05,0.050324812484517076
315,2605.0099999999998,0.0489754762226147
316,2617.04,0.0485472299240624
317,2623.07,0.049346826766932694
318,2635.18,0.05005554042649475
319,2647.34,0.0528009140598783
320,2653.45,0.05305667086086296
321,2665.69,0.05069158445236086
322,2678.0,0.051775398007208845
323,2684.17,0.05178683477677928
324,2696.56,0.05016719828974162
325,2702.78,0.05075960503313353
326,2715.25,0.04894565850421024
327,2727.79,0.04851838193863702
328,2734.07,0.049889328650614705
329,2746.69,0.046153172043155846
330,2753.03,0.046591688723719306
331,2765.73,0.04780861207437481
332,2772.1099999999997,0.04893294873399546
333,2784.9,0.04751241203752962
334,2797.76,0.041976585304413866
335,2804.2099999999996,0.04386370192738458
336,2817.15,0.04845199515238318
337,2823.6499999999996,0.04902422174917537
338,2836.68,0.04793070492705264
339,2843.2200000000003,0.04674268150290201
340,2856.34,0.04570109463365794
341,2862.9300000000003,0.04808647118332879
342,2876.14,0.048109684266963375
343,2882.77,0.048010510795691415
344,2884.0315,0.04802316304655217
345,2896.08,0.04814401000610779
346,2909.4500000000003,0.049974609862848414
347,2929.61,0.04853663964683429
348,2949.9199999999996,0.0477950694292129
349,2970.37,0.047940339210091415
350,2990.9599999999996,0.04775569898946984
351,3011.69,0.047900978767348154
352,3032.57,0.04782660854361923
353,3046.56,0.047740168393716566
354,3067.68,0.04755743816741605
355,3088.95,0.04737469793950827
356,3110.3599999999997,0.0473016077101004
357,3131.92,0.04668891747908528
358,3153.63,0.046510027246462915
359,3168.18,0.04664190709055986
360,3190.1400000000003,0.04519716685525875
361,3212.26,0.04596735661824324
362,3227.08,0.04473912645944713
363,3249.45,0.04624064621975287
364,3271.98,0.04713807597834423
365,3287.08,0.04673129581654792
366,3309.86,0.046340765572460516
367,3311.31121,0.04606817361361244
368,3325.14,0.04347060272436982
369,3332.81,0.04378382115332929
370,3340.49,0.041440849580240476
371,3348.1899999999996,0.044315118003055064
372,3355.91,0.042526896421773076
373,3363.65,0.03969984483639451
374,3371.4,0.039985443248967634
375,3379.17,0.043154031657444185
376,3386.96,0.04336555006182415
377,3394.7699999999995,0.04327793846210752
378,3402.6,0.044195476858294315
379,3410.44,0.04116283525243281
380,3418.3,0.04232759364247472
381,3426.18,0.04372632202842005
382,3434.08,0.044244690410268794
383,3441.99,0.04236340879006924
384,3449.93,0.04189007716372481
385,3457.8799999999997,0.04161296553533209
386,3465.85,0.04114853390284278
387,3473.84,0.04310011226625689
388,3481.8500000000004,0.04193711062557441
389,3489.88,0.04332308898079534
390,3497.92,0.04176788733396799
391,3505.99,0.04245842568099576
392,3514.07,0.04150416402597523
393,3522.17,0.043173172366858116
394,3530.29,0.04143209070364442
395,3538.4300000000003,0.04319800903633413
396,3546.58,0.04391186736697556
397,3554.76,0.0444331256914721
398,3562.95,0.04333481401392036
399,3571.17,0.04177936233022373
400,3579.3999999999996,0.040465350644478815
401,3587.65,0.038834148954637306
402,3595.92,0.04105215726069922
403,3604.21,0.04240952556266454
404,3611.71,0.038166584026444995
405,3614.46,0.06415947346316449
406,3617.21,0.050501692899883995
407,3619.96,0.02764931233660349
408,3622.71,0.030178071773322986
409,3625.4599999999996,0.034626741210042486
410,3628.2,0.02572756064881028
411,3630.95,0.03867545008552978
412,3633.7000000000003,0.05026609952224928
413,3636.45,0.05026606895896877
414,3639.2000000000003,0.03734797839568827
415,3641.95,0.062103857832407766
416,3644.7000000000003,0.05698276726912727
417,3647.45,0.020400556705846767
418,3650.1899999999996,0.039280506144614556
419,3652.94,0.03513956558133406
420,3655.6899999999996,0.03882355501805356
421,3658.44,0.046587844454773056
422,3661.19,0.05121157389149256
423,3663.94,0.05329400332821205
424,3666.69,0.05643739276493155
425,3669.44,0.035019192201651055
426,3672.19,0.023922941638370547
427,3674.9300000000003,0.03981913107713834
428,3677.68,0.04348099051385784
429,3680.4300000000003,0.04320970995057734
430,3683.18,0.06324374938729684
431,3685.93,0.05386055882401633
432,3688.68,0.04736013826073583
433,3691.43,0.03792503769745534
434,3694.1800000000003,0.06811356713417482
435,3696.92,0.059249176572942625
436,3699.67,0.04716115600966213
437,3702.42,0.06371415544638162
438,3705.17,0.04210641488310112
439,3707.92,0.038300224319820615
440,3710.6699999999996,0.04476595375654012
441,3713.42,0.05451265319325962
442,3716.1699999999996,0.03241248262997911
443,3718.9100000000003,0.043534902068746904
444,3721.66,0.048652091505466406
445,3724.4100000000003,0.1154269109421859
446,3727.16,0.1358091103789054
447,3729.9100000000003,0.1360687098156249
448,3732.66,0.10203730925234439
449,3735.4100000000003,0.0623115886890639
450,3738.16,0.031575648125783395
451,3740.91,0.0338004575625029
452,3743.65,0.04548941700127068
453,3746.3999999999996,0.05346724643799018
454,3749.15,0.04605110587470968
455,3751.9,0.020481385311429182
456,3754.65,0.03409486474814868
457,3757.4,0.04826429418486818
458,3760.15,0.047402423621587676
459,3762.9,0.04653477305830718
460,3765.64,0.04638013249707496
461,3768.39,0.04788256193379446
462,3771.14,0.04219780137051397
463,3773.89,0.05866904080723346
464,3776.64,0.051992580243952966
465,3779.3900000000003,0.06026279968067246
466,3782.14,0.051291299117391956
467,3784.8900000000003,0.05940760855411146
468,3787.63,0.06188954799287925
469,3790.3799999999997,0.05793327742959875
470,3793.13,0.05358168686631825
471,3795.8799999999997,0.05413377630303774
472,3798.63,0.046651255739757244
473,3801.3799999999997,0.04282968517647675
474,3801.8939600000003,0.04376717988327651
475,3804.13,0.047845854708627344
476,3806.88,0.04883656426271304
477,3809.63,0.055382113816798736
478,3812.37,0.051770493372505944
479,3815.1200000000003,0.05407994292659164
480,3817.87,0.057486892480677336
481,3820.6200000000003,0.06656989203476305
482,3823.37,0.06356686158884874
483,3826.12,0.055671711142934434
484,3828.87,0.05825336069702013
485,3831.62,0.043471170251105834
486,3834.36,0.03427095980681304
487,3837.11,0.03886296936089873
488,3839.86,0.044278338914984436
489,3842.61,0.047563138469070135
490,3845.3599999999997,0.058066838023155834
491,3848.11,0.06189796757724153
492,3850.8599999999997,0.058206237131327235
493,3853.61,0.05605351668541293
494,3856.35,0.05786307624112013
495,3859.1,0.059875295795205834
496,3861.85,0.05564778534929154
497,3864.6000000000004,0.05816884490337723
498,3867.35,0.07064055445746292
499,3870.1000000000004,0.07698699401154863
500,3872.85,0.07589713356563432
501,3875.6000000000004,0.07316535311972003
502,3878.35,0.06492008267380572
503,3881.0899999999997,0.06994525222951294
504,3883.84,0.06894774178359862
505,3886.5899999999997,0.06530601133768432
506,3889.34,0.06734420089177003
507,3892.09,0.06333215044585573
508,3894.84,0.07421000999994141
509,3897.59,0.07428594955402713
510,3900.34,0.07340578910811282
511,3903.08,0.07741429866382002
512,3905.83,0.08590477821790572
513,3908.58,0.08010457777199143
514,3911.33,0.08203598732607713
515,3914.08,0.08227063688016281
516,3916.83,0.06916400643424853
517,3919.58,0.05639404598833422
518,3922.33,0.05076413554241992
519,3925.07,0.04658594509812713
520,3927.82,0.051687734652212824
521,3930.5699999999997,0.05305358420629852
522,3933.32,0.04867602376038422
523,3936.0699999999997,0.046303033314469916
524,3938.82,0.06055422286855562
525,3941.5699999999997,0.05661529242264132
526,3944.32,0.055185901976727014
527,3947.0699999999997,0.06278182153081271
528,3949.8100000000004,0.05080185108651992
529,3952.56,0.05181372064060562
530,3955.3100000000004,0.06538295019469133
531,3958.06,0.04471304974877702
532,3960.81,0.05452131930286272
533,3963.56,0.04824404885694841
534,3966.31,0.035061468411034115
535,3969.06,0.04494859796511982
536,3971.7999999999997,0.04113396752082702
537,3974.55,0.055614127074912714
538,3977.2999999999997,0.057404156628998414
539,3980.05,0.05995502618308412
540,3982.8,0.05214932573716981
541,3985.5499999999997,0.0659888252912555
542,3988.3,0.0657973748453412
543,3991.0499999999997,0.07248720439942691
544,3993.79,0.07765956395513411
545,3996.54,0.07141690350921981
546,3999.29,0.07288565306330551
547,4002.04,0.06822144261739121
548,4004.79,0.05861029217147691
549,4007.54,0.0681107417255626
550,4010.2900000000004,0.06300312127964831
551,4013.04,0.06107740083373401
552,4015.7900000000004,0.07990229038781971
553,4018.53,0.0718709199435269
554,4021.2799999999997,0.06466541949761262
555,4024.03,0.06308018905169831
556,4026.7799999999997,0.064692268605784
557,4029.53,0.048172898159869706
558,4032.2799999999997,0.0637235777139554
559,4035.03,0.0624952272680411
560,4037.78,0.06502877682212681
561,4040.5200000000004,0.06978075637783401
562,4043.27,0.06344671593191971
563,4046.02,0.0676568354860054
564,4048.77,0.0604792350400911
565,4051.52,0.0629060345941768
566,4054.27,0.061541084148262495
567,4057.02,0.06522408370234821
568,4059.77,0.0709366432564339
