,lambda (Angstroms),Total Flux (erg/s/cm^2/Angstrom)
0,100.11000000000001,61.35037544960636
1,101.97,61.1796940641555
2,104.10000000000001,60.98423634855854
3,104.712855,60.927998208515646
4,106.04,60.28828266768625
5,108.01,59.33869568553135
6,110.02,58.3698277494296
7,113.88000000000001,56.50921569303702
8,117.88,54.581120297823134
9,120.22644299999999,53.45007881213471
10,120.91,53.173835387377245
11,124.87,51.57349487133762
12,126.9,50.753118293692594
13,128.07,50.28029041397562
14,131.06,49.07195249918417
15,131.96,48.708238745717956
16,134.10999999999999,47.83936700103301
17,136.92,46.703771837412816
18,138.038426,46.25178637242816
19,140.10999999999999,45.65338541959225
20,143.04000000000002,44.80701701417331
21,147.04999999999998,43.64867664280383
22,151.17000000000002,42.45856134213692
23,155.04,41.34066177824821
24,158.489319,40.34428136514781
25,159.01999999999998,40.22838823641002
26,161.98000000000002,39.581966638310995
27,166.13,38.675666089798646
28,170.0,37.83051353392459
29,173.16000000000003,37.14041480814358
30,177.2,36.258136694744515
31,180.07999999999998,35.62918596506914
32,181.970086,35.21641826857829
33,182.16,35.18477718810513
34,185.98,34.54833687262308
35,191.19,33.68031225911842
36,193.85,33.237136559168576
37,197.89999999999998,32.56237656087602
38,202.05,31.870955832267686
39,204.86,31.40278903933109
40,208.929613,30.72476137930105
41,210.10999999999999,30.576908665536035
42,216.0,29.83914014416843
43,220.02,29.335603736919428
44,223.08,28.95231482631638
45,227.23,28.432494934894002
46,229.85999999999999,28.103067595368877
47,234.13,27.568218401240234
48,239.88329199999998,26.847574947029987
49,240.14000000000001,26.82279632529968
50,245.73000000000002,26.283223180334208
51,252.03,25.6751180878982
52,256.72,25.22241628945701
53,260.29,24.87782422316914
54,263.91,24.528405491894805
55,268.82,24.054469592295593
56,273.81,23.572811744498647
57,275.42287,23.417130084846324
58,278.90999999999997,23.15880943967187
59,284.09,22.77508397035862
60,290.03999999999996,22.334317647333663
61,296.10999999999996,21.8846629003952
62,300.92,21.5283463484986
63,307.93,21.00905809601429
64,316.227766,20.39437464479704
65,318.02,20.295212008243862
66,327.68,19.76073310341901
67,337.64000000000004,19.209655436472143
68,347.90000000000003,18.641978945923267
69,356.83,18.14789042221999
70,363.078055,17.80219152627625
71,365.97999999999996,17.681947966288906
72,375.37,17.292868227737948
73,385.0,16.89384325844141
74,394.87,16.484875892679288
75,405.0,16.065134439619445
76,414.44,15.673983043643158
77,416.86938299999997,15.573320297667548
78,422.14000000000004,15.406543915679471
79,429.99,15.158148912812615
80,441.02000000000004,14.809130830043735
81,451.29,14.48416039149924
82,459.68,14.218678743165063
83,470.39,13.87978584182645
84,478.630092,13.619047916770185
85,480.23999999999995,13.579869233839943
86,490.29,13.335291927642626
87,500.56000000000006,13.085362027733984
88,506.36,12.944228203845434
89,512.2199999999999,12.801737685753796
90,520.5400000000001,12.599275309625526
91,530.22,12.363718984427257
92,540.08,12.123763682819723
93,549.5408739999999,11.893624042099379
94,550.12,11.882878925908301
95,560.35,11.693045243670753
96,569.45,11.52418035220676
97,580.04,11.327572527415693
98,589.46,11.15283474084857
99,600.42,10.949407034941384
100,610.1800000000001,10.768378472745933
101,620.09,10.584564693211519
102,630.1700000000001,10.397556793312939
103,630.957344,10.382943792896054
104,640.41,10.243875229637531
105,649.32,10.112961484103018
106,658.35,9.980200020918211
107,664.44,9.890704079165667
108,675.24,9.731838419638988
109,684.63,9.593668682503292
110,695.76,9.4304691574383
111,705.43,9.28808807545191
112,715.25,9.144158756402652
113,724.43596,9.009154375293315
114,725.2,9.000823220618631
115,735.29,8.89078916161943
116,745.5100000000001,8.779679728519145
117,754.15,8.685656266185836
118,764.64,8.57142491610639
119,775.28,8.455714744371848
120,784.25,8.358269662397335
121,795.1600000000001,8.239461539683626
122,804.3699999999999,8.139235762060968
123,815.5600000000001,8.017357101591088
124,825.0,7.915061300097285
125,831.763771,7.840323336476545
126,834.5600000000001,7.8171396920032175
127,844.22,7.740193340572135
128,855.97,7.644680825521903
129,865.88,7.564608641791878
130,875.9,7.483696036450319
131,884.01,7.418599008272671
132,894.24,7.335929329399999
133,904.6,7.25159516053188
134,915.07,7.173697847052228
135,925.67,7.213363673577128
136,934.2399999999999,7.3257950315694265
137,945.0500000000001,7.551573166563211
138,954.992586,7.718902736943251
139,956.0,7.736034788886622
140,964.84,7.815902352766503
141,976.0099999999999,6.840199156786671
142,985.05,7.5493623442837405
143,994.1600000000001,7.528920675046829
144,1005.6700000000001,7.88216988921622
145,1014.98,7.761461743596502
146,1024.37,6.881521747423662
147,1033.8500000000001,7.230675106878554
148,1045.82,8.05733020536749
149,1055.5,7.962019988439575
150,1065.26,7.514089620958538
151,1075.12,7.743647315286097
152,1085.0700000000002,7.309560965241389
153,1095.11,7.718296570824424
154,1096.4782,7.695140975903255
155,1105.24,7.5595427742984755
156,1115.47,7.436018086326193
157,1125.79,7.1811916796913975
158,1136.2,7.576510554394089
159,1144.08,7.350205964831862
160,1154.67,7.4164974022095285
161,1165.35,7.4255081209246825
162,1176.1299999999999,6.7009217077926
163,1184.29,7.301596549058109
164,1195.24,6.6404661117857255
165,1206.3,6.138047129481381
166,1214.66,5.670764107052418
167,1225.9,6.4253292874230485
168,1234.3999999999999,7.118936080407957
169,1245.82,7.23930422345356
170,1254.46,7.086148231852336
171,1258.92541,6.955600294545059
172,1266.07,6.760143931913966
173,1274.84,7.222507693776586
174,1283.68,7.274863031845635
175,1295.56,6.672900250879606
176,1304.54,6.677205741361514
177,1313.58,7.135407440020362
178,1325.73,6.94873259585056
179,1334.92,6.658386814951754
180,1344.18,7.00547861025938
181,1353.49,6.905338245714454
182,1366.02,6.602439386665268
183,1375.49,6.65092791059218
184,1385.0199999999998,6.654120642696031
185,1394.6200000000001,6.22625395100631
186,1404.29,6.302202835523021
187,1414.02,6.373049928216668
188,1423.8200000000002,6.378907597116745
189,1433.69,6.3679068422232525
190,1443.6299999999999,6.44152566353619
191,1445.43977,6.439806954760531
192,1446.9599999999998,6.4405040515348695
193,1453.6399999999999,6.363816874646908
194,1463.71,6.161329360984964
195,1473.86,6.151077449995022
196,1484.0800000000002,6.1408016913430785
197,1494.3600000000001,6.142000634695137
198,1504.72,5.966412180719196
199,1511.6699999999998,5.698259162849236
200,1518.65,5.813283495981274
201,1525.66,5.780033180115314
202,1536.23,5.470145183153374
203,1543.32,5.570641469959415
204,1554.0200000000002,5.454263327339474
205,1564.79,5.510457337057536
206,1575.64,5.612157949447598
207,1586.56,5.66174471417566
208,1593.88,5.681757358663701
209,1604.93,5.629255977733763
210,1616.06,5.609534199475827
211,1623.52,5.498508148639868
212,1634.7700000000002,5.615809774389931
213,1646.1000000000001,5.601944002811996
214,1653.6999999999998,5.45417025665204
215,1659.58691,5.528013520153314
216,1665.16,5.6033554327216795
217,1672.85,5.421113325528093
218,1676.7,5.59465437329203
219,1684.44,5.648830279705768
220,1696.1200000000001,5.491984058376626
221,1703.9499999999998,5.394571789283546
222,1715.76,5.2422952033334465
223,1723.6799999999998,5.219025758733549
224,1735.6299999999999,5.333490010883956
225,1743.6399999999999,5.265286390777242
226,1755.72,5.361870278306691
227,1763.8300000000002,5.202757685414625
228,1776.0600000000002,5.185810613766046
229,1784.25,5.228410642645698
230,1796.62,5.321256409097626
231,1804.91,5.320130465191925
232,1813.2400000000002,5.084733332172083
233,1825.81,5.144805153053307
234,1834.24,5.047801047248114
235,1846.96,4.844760908951308
236,1855.48,4.810071627639298
237,1864.04,4.857032157213146
238,1876.97,5.022583276067101
239,1885.63,4.792360832855596
240,1894.33,4.657030200529952
241,1903.0800000000002,4.820622581811631
242,1905.46072,4.794611616561987
243,1916.27,4.683096955734163
244,1925.11,4.623452647922989
245,1933.9999999999998,4.725319808959039
246,1942.9299999999998,4.779364145072865
247,1956.39,4.5860875587449925
248,1965.4199999999998,4.779713832553265
249,1974.4999999999998,4.853613575208756
250,1983.6100000000001,4.69525719917258
251,1992.7700000000002,4.632520291983628
252,2006.58,4.69998098758631
253,2015.8400000000001,4.6308070180918
254,2025.15,4.7407895174445125
255,2034.49,4.562838898105559
256,2043.8799999999999,4.616129747613827
257,2053.3199999999997,4.505334065969317
258,2062.7999999999997,4.531147559402584
259,2072.32,4.656413227913628
260,2077.09,4.481076355938594
261,2086.68,4.57173808083575
262,2096.31,4.438722980810683
263,2105.9900000000002,4.485584349632837
264,2115.71,4.4907298935327695
265,2125.48,4.512290906279924
266,2135.29,4.404849094104855
267,2145.1400000000003,4.372611457007563
268,2155.04,4.451980288757495
269,2164.99,4.397637589354648
270,2174.98,4.364957065029578
271,2185.02,4.30076000955173
272,2187.7616199999998,4.317801097086093
273,2195.11,4.367447233114892
274,2205.24,4.318447722920313
275,2215.42,4.249471699842244
276,2225.65,4.171636163880689
277,2235.92,4.247313417612343
278,2246.24,4.1957921584605105
279,2256.61,4.11976538642519
280,2267.0299999999997,4.159883101506382
281,2277.4900000000002,4.180396606280784
282,2282.7400000000002,4.20642375351459
283,2293.28,4.093396837675412
284,2303.86,4.093112711529443
285,2314.5,4.0130147699232905
286,2325.18,3.641316618010347
287,2335.91,3.905483953213916
288,2346.69,3.880734775533998
289,2357.5299999999997,3.936359782393894
290,2362.96,3.855149483247145
291,2373.87,3.8629343720701588
292,2384.82,3.7873530505863826
293,2395.83,3.855186913642422
294,2406.89,3.778921263814973
295,2412.44,3.796351333747853
296,2423.5699999999997,3.8322875658835223
297,2434.7599999999998,3.755507982559006
298,2446.0,3.8146468863510012
299,2457.29,3.78428327725951
300,2462.95,3.769271018848718
301,2474.32,3.711334989143646
302,2485.74,3.751239446555087
303,2497.22,3.602653088506343
304,2502.97,3.7529511069052726
305,2511.88643,3.6510162742090664
306,2514.5299999999997,3.621555993137634
307,2520.3199999999997,3.690872014948431
308,2526.1299999999997,3.6222191940020982
309,2537.79,3.618503866595172
310,2543.64,3.5781933601345783
311,2555.3900000000003,3.6379782403205656
312,2567.18,3.6109934349922934
313,2573.1,3.667246978881744
314,2584.97,3.64935180252495
315,2596.91,3.6362436765182005
316,2602.89,3.5900856921362605
317,2614.91,3.56774719510099
318,2626.98,3.5821825911728937
319,2633.03,3.596308657140998
320,2645.19,3.6543082608058155
321,2657.3999999999996,3.650494757577808
322,2663.52,3.5558998738959566
323,2675.8199999999997,3.5942135782608626
324,2681.98,3.5802400090647506
325,2694.36,3.5200593424011353
326,2706.7999999999997,3.5250221474661303
327,2713.04,3.479173207241497
328,2725.5600000000004,3.4700706412779705
329,2738.14,3.5025835470430535
330,2744.46,3.3805112357899
331,2757.1200000000003,3.3800987705264616
332,2763.48,3.402213773759047
333,2776.24,3.4383400947099583
334,2782.6400000000003,3.410862412428283
335,2795.48,3.232304362350673
336,2801.92,3.2996219945547374
337,2814.86,3.401503730691476
338,2827.85,3.39668335993539
339,2834.37,3.3243786211109336
340,2847.4500000000003,3.30168445794776
341,2854.02,3.2880666122304785
342,2867.19,3.3366096566602192
343,2873.8,3.318286125428677
344,2884.0315,3.310928281881904
345,2887.0600000000004,3.309499586633718
346,2893.7200000000003,3.2972705407677916
347,2907.0800000000004,3.331708658970679
348,2927.23,3.2904484135955423
349,2947.52,3.2539489029919926
350,2967.95,3.2486251271600297
351,2988.52,3.2254440860996545
352,3009.2400000000002,3.2111368322945504
353,3030.1,3.2012423132610346
354,3051.1,3.177982528999105
355,3072.2500000000005,3.1591175319924476
356,3093.54,3.135686269757378
357,3107.82,3.1201902164592656
358,3129.3700000000003,3.0881423188000006
359,3151.06,3.0734511559123225
360,3172.9,3.049865780279916
361,3187.55,2.9919306688781413
362,3209.6400000000003,3.002334605337855
363,3231.89,2.9580283815365256
364,3246.81,2.9717756871942402
365,3269.3100000000004,2.96936177548503
366,3291.9700000000003,2.9456427035147774
367,3307.1699999999996,2.925641478715667
368,3311.31121,2.9339996372953157
369,3322.4300000000003,2.9583694430711964
370,3330.09,2.9560454931169082
371,3337.77,2.9281991177058204
372,3345.46,2.896407529566332
373,3353.18,2.902309303241645
374,3360.91,2.8791098641885577
375,3368.65,2.8808922124070704
376,3376.42,2.8051229224403835
377,3384.2,2.8594104197452976
378,3392.0,2.890267491593411
379,3399.82,2.9345691379847247
380,3407.6600000000003,2.835628358919239
381,3415.5200000000004,2.849584154396954
382,3423.39,2.897339737146269
383,3431.2799999999997,2.8906018944387837
384,3439.1899999999996,2.8840346262744996
385,3447.1200000000003,2.8109879326534144
386,3455.07,2.7922618135755304
387,3463.03,2.7577714817692467
388,3471.0099999999998,2.7912887245061633
389,3479.01,2.7606505417862794
390,3487.04,2.7741097208811967
391,3495.07,2.791797899976114
392,3503.1299999999997,2.7690274408858313
393,3511.21,2.750422556338749
394,3519.3,2.7558534590632666
395,3527.4100000000003,2.741285936330985
396,3535.55,2.779031775413504
397,3543.7000000000003,2.801211401767623
398,3551.86,2.8028128153933416
399,3560.05,2.775411590833861
400,3568.2599999999998,2.736319940817581
401,3576.48,2.670632078072901
402,3584.73,2.641094577143021
403,3585.53,2.736573558871033
404,3588.2,2.832220760388272
405,3590.87,2.8086469619055108
406,3593.54,2.7058141634227493
407,3596.22,2.8085421522115888
408,3598.8900000000003,2.7315363537288273
409,3601.56,2.589136555246067
410,3604.23,2.4544237567633056
411,3606.9,2.528590958280544
412,3609.58,2.7020109470693834
413,3612.25,2.7000621485866225
414,3614.9199999999996,2.7517603501038614
415,3617.59,2.7016225516211003
416,3620.26,2.6461157531383392
417,3622.93,2.5162879546555783
418,3625.61,2.7587119434444167
419,3628.2799999999997,2.769353144961656
420,3630.95,2.810077346478895
421,3633.6200000000003,2.788120547996134
422,3636.29,2.6222467495133728
423,3638.96,2.6543499510306114
424,3641.64,2.540745939819451
425,3644.31,2.5868761413366896
426,3646.98,2.6461353428539285
427,3649.6499999999996,2.713926544371168
428,3652.32,2.6870117458884066
429,3654.9900000000002,2.5915249474056457
430,3657.67,2.545523936194485
431,3660.34,2.5187351377117237
432,3663.0099999999998,2.6160883392289627
433,3665.68,2.6099365407462014
434,3668.3500000000004,2.68313274226344
435,3671.02,2.690630943780679
436,3673.7,2.5863479325695184
437,3676.37,2.5978151340867575
438,3679.04,2.7095723356039962
439,3681.71,2.551888537121235
440,3684.3799999999997,2.692329738638474
441,3687.05,2.564153940155713
442,3689.73,2.534729928944552
443,3692.4,2.6639451304617907
444,3695.0699999999997,2.5989363319790297
445,3697.74,2.618324533496269
446,3700.4100000000003,2.5995107350135074
447,3703.0800000000004,2.5700449365307465
448,3705.76,2.5719089253195855
449,3708.43,2.634598126836825
450,3711.1,2.558688328354064
451,3713.77,2.6202645298713025
452,3716.4399999999996,2.8746457313885414
453,3719.1200000000003,3.5473787201773805
454,3721.79,5.0782739216946196
455,3724.46,6.978436123211858
456,3727.13,7.661966324729097
457,3729.7999999999997,6.621838526246337
458,3732.47,4.851619727763575
459,3735.1499999999996,3.3295937165524143
460,3737.82,2.725361918069653
461,3740.4900000000002,2.556238119586892
462,3743.16,2.587856321104131
463,3745.83,2.54928552262137
464,3748.5,2.604557724138609
465,3751.1800000000003,2.620052712927448
466,3753.8500000000004,2.5685509144446868
467,3756.52,2.6809191159619257
468,3759.19,2.689745317479165
469,3761.86,2.7116475189964038
470,3764.5299999999997,2.6068217205136426
471,3767.2099999999996,2.6077147093024817
472,3769.88,2.6771219108197206
473,3772.55,2.7103741123369596
474,3775.2200000000003,2.8195283138541987
475,3777.89,2.867077515371437
476,3780.56,2.9306117168886763
477,3783.24,2.8292557056775154
478,3785.9100000000003,2.906618907194754
479,3788.58,2.8645461087119934
480,3791.25,2.6296513102292325
481,3793.92,2.6062385117464713
482,3796.59,2.65693171326371
483,3799.27,2.704143702052549
484,3801.8939600000003,2.606262330042475
485,3801.9399999999996,2.6045505288140114
486,3804.61,2.6521199553980455
487,3807.28,2.7774053819820796
488,3809.95,2.937173808566114
489,3812.62,2.9665512351501486
490,3815.2999999999997,2.8728856708225132
491,3817.97,2.8614920974065474
492,3820.6400000000003,2.8087895239905816
493,3823.31,2.699152950574616
494,3825.98,2.695302377158651
495,3828.66,2.7462188128310148
496,3831.33,2.644916239415049
497,3834.0,2.5424456659990837
498,3836.6699999999996,2.6303900925831183
499,3839.34,2.6843005191671523
500,3842.01,2.738102945751187
501,3844.69,2.877923381423551
502,3847.36,2.969083808007585
503,3850.0299999999997,2.9928922345916202
504,3852.7,2.9917366611756546
505,3855.3700000000003,2.9643580877596887
506,3858.04,3.009899514343723
507,3860.7200000000003,3.0505769500160875
508,3863.39,3.093424376600122
509,3866.06,3.2002098031841566
510,3868.73,3.0871612297681907
511,3871.3999999999996,2.986504656352225
512,3874.07,2.9370350829362595
513,3876.75,2.834389518608624
514,3879.42,2.786356945192658
515,3882.09,2.7956183717766927
516,3884.7599999999998,2.781530798360727
517,3887.43,2.7871992249447617
518,3890.1000000000004,2.856986651528796
519,3892.78,2.81486808720116
520,3895.45,2.7483365137851945
521,3898.12,2.797468940369229
522,3900.79,2.8440873669532634
523,3903.46,2.868615793537298
524,3906.1299999999997,2.9824062201213324
525,3908.81,3.0000946557936965
526,3911.48,3.0395290823777303
527,3914.15,2.935460508961765
528,3916.8199999999997,2.9395129355457996
529,3919.49,2.9886463621298343
530,3922.1600000000003,2.878470788713868
531,3924.84,2.8128232243862326
532,3927.51,2.854233650970267
533,3930.18,2.6970020775543015
534,3932.85,2.670700504138336
535,3935.52,2.7523419307223707
536,3938.2,2.7910453663947346
537,3940.8700000000003,2.745347792978769
538,3943.54,2.9297222195628034
539,3946.21,3.026808646146838
540,3948.88,3.0518750727308723
541,3951.5499999999997,2.9260744993149066
542,3954.23,2.9065849349872708
543,3956.8999999999996,2.9061473615713056
544,3959.57,2.8286597881553397
545,3962.2400000000002,2.840435214739374
546,3964.91,2.7994076413234086
547,3967.58,2.786218067907443
548,3970.2599999999998,2.719493503579807
549,3972.9300000000003,2.7483319301638414
550,3975.6000000000004,2.696886356747876
551,3978.27,2.6860317833319107
552,3980.94,2.804671209915945
553,3983.61,2.9005006364999795
554,3986.29,2.9799740721723436
555,3988.9599999999996,2.983307498756378
556,3991.63,3.0338779253404127
557,3994.3,3.1110293519244467
558,3996.9700000000003,3.147230778508481
559,3999.64,3.0357982050925156
560,4002.3199999999997,3.06013164076488
561,4004.99,3.033652067348914
562,4007.6600000000003,3.0019634939329487
563,4010.33,2.9656049205169834
564,4013.0,2.9748663471010177
565,4015.67,3.0658467736850517
566,4018.35,3.1190972093574163
567,4021.02,3.1042916359414505
568,4023.6899999999996,3.0338080625254853
569,4026.36,2.93602548910952
570,4029.03,3.0234149156935537
571,4031.71,3.043617351365918
572,4034.38,2.9939687779499526
573,4037.0499999999997,3.028194204533987
574,4039.72,3.0058456311180217
575,4042.3900000000003,2.993734057702056
576,4045.06,2.94785648428609
577,4047.7400000000002,2.978655919958454
578,4050.41,2.963132346542489
579,4053.08,2.945811773126523
580,4055.75,2.999076199710558
581,4058.4199999999996,3.0043856262945923
582,4061.09,2.9660510528786266
583,4063.77,3.0640234885509905
584,4066.44,3.017427915135025
585,4069.11,3.0758993417190594
586,4071.7799999999997,3.0381047683030937
587,4074.45,2.9185901948871282
588,4077.1200000000003,2.9003716214711623
589,4079.8,2.866873057143527
590,4082.4700000000003,2.852067483727561
591,4085.14,2.910180910311596
592,4087.81,2.9018403368956305
593,4090.48,2.8024417634796643
594,4093.1499999999996,2.8081101900636996
595,4095.83,2.918295625736063
596,4098.5,3.100694052320098
597,4101.17,3.1792824789041316
