,lambda (Angstroms),Total Flux (erg/s/cm^2/Angstrom)
0,102.08999999999999,35.77808892804432
1,103.99000000000001,35.67610896977045
2,104.712855,35.637310694645336
3,105.92,35.296968355244815
4,107.89,34.74154675417939
5,109.89999999999999,34.17484755715532
6,114.02000000000001,33.01325517320746
7,118.02999999999999,31.88267617815968
8,120.22644299999999,31.263411260643167
9,121.06,31.06637755229893
10,125.02,30.130324606799288
11,127.06,29.64811551367714
12,127.94,29.440103748036954
13,130.92,28.735700268919448
14,132.13,28.44968409125388
15,133.97,28.014750399516892
16,137.09,27.27725413984873
17,138.038426,27.053068041267107
18,139.96,26.728401935224777
19,142.89,26.233353770285387
20,146.89000000000001,25.557520107102537
21,151.01,24.861411425477534
22,154.88,24.20754235148721
23,158.489319,23.597717529336897
24,158.85,23.551645703739226
25,162.18,23.12628595668052
26,165.96,22.643445170001524
27,169.82,22.1503855336707
28,172.98000000000002,21.746740859746257
29,177.01000000000002,21.231966171139504
30,179.88,20.865364847558368
31,181.97000000000003,20.59839733477115
32,181.970086,20.59838634950517
33,186.20999999999998,20.18520629023083
34,190.98,19.720369316373475
35,194.09,19.417299515369592
36,198.15,19.021652129068983
37,201.82999999999998,18.663035805808228
38,205.11,18.343399511322254
39,208.929613,17.971177883504414
40,209.89000000000001,17.90081573803081
41,215.76999999999998,17.470021381862114
42,219.78,17.17623135830676
43,222.84,16.952042454944035
44,226.98,16.648728112314355
45,230.14,16.417213765177983
46,233.88,16.143207353497875
47,239.88,15.703623222357196
48,239.88329199999998,15.703382036339232
49,246.03,15.356350715829707
50,251.76,15.032847054493702
51,257.04,14.734747279930264
52,260.01,14.56706854014933
53,264.24,14.328252007270214
54,269.15000000000003,14.051043659742772
55,274.15,13.76875410552982
56,275.42287,13.696890541461025
57,279.25,13.531065398211828
58,283.79,13.334352719591324
59,289.72999999999996,13.076978691397631
60,295.8,12.813973292502993
61,301.3,12.575664620494011
62,308.31,12.27193034199566
63,316.227766,11.92886434285679
64,317.67999999999995,11.881866978744405
65,328.09,11.544976557720135
66,338.06,11.222325750311503
67,348.33000000000004,10.889966298320845
68,357.27000000000004,10.600649087574501
69,363.078055,10.41268884560009
70,365.59000000000003,10.35181048802888
71,374.97,10.12447983308131
72,384.59,9.891331259741843
73,395.36,9.630315423181607
74,404.57,9.407106601413718
75,413.99,9.178806824079162
76,416.86938299999997,9.109023053708293
77,421.69,9.019804304572144
78,429.53,8.87470390192018
79,440.54999999999995,8.67074993042232
80,450.81,8.480860357659136
81,460.25000000000006,8.306147062249423
82,469.89000000000004,8.127733114743744
83,478.630092,7.965974996836468
84,479.73,7.950319024493654
85,489.77,7.807407832683987
86,500.03,7.661368703985264
87,505.82,7.578952809218732
88,511.66999999999996,7.495691505637005
89,519.99,7.377264784396324
90,529.66,7.239621246013708
91,539.5,7.099555096421364
92,549.53,6.956790635247564
93,549.5408739999999,6.956635860296824
94,559.75,6.84578768966225
95,570.16,6.732757723486141
96,579.42,6.632207709094521
97,590.19,6.515269795624136
98,599.78,6.4111365646961
99,609.53,6.305255947592828
100,619.43,6.197785353900277
101,629.5000000000001,6.088444491746535
102,630.957344,6.072620631543793
103,639.73,5.997110613455985
104,650.12,5.907683028319868
105,657.6500000000001,5.842870731062507
106,665.26,5.777373115102947
107,674.52,5.697667243447947
108,685.48,5.603321094046134
109,695.0099999999999,5.5213198792337
110,704.6800000000001,5.4380740630174085
111,716.13,5.3395442264521025
112,724.43596,5.268055331817892
113,726.0999999999999,5.257424553268502
114,734.5,5.203761677178684
115,744.7199999999999,5.138485697162739
116,755.08,5.07230667719863
117,765.59,5.005153478475774
118,774.45,4.948585239999132
119,785.2199999999999,4.8797898099011165
120,794.32,4.821666514570479
121,805.37,4.751083019876136
122,814.6899999999999,4.69155121321267
123,824.13,4.631276525422209
124,831.763771,4.582448889415938
125,835.5899999999999,4.56414928175612
126,845.2700000000001,4.518027775006251
127,855.05,4.471338727986034
128,864.96,4.424053612434361
129,874.97,4.376294277012338
130,885.1,4.327974847845896
131,895.35,4.279065262135034
132,905.72,4.229545877279751
133,914.1,4.189979304444432
134,924.68,4.146809942761416
135,935.39,4.106616110346943
136,944.0500000000001,4.084461219774644
137,954.98,4.050615300045402
138,954.992586,4.050563300793561
139,966.04,4.006060507143937
140,974.98,3.9097343412650125
141,984.0,3.9114293207249795
142,995.39,3.864197607099593
143,1004.5999999999999,3.853896790489426
144,1013.9,3.809166708635511
145,1025.64,3.7023270146177727
146,1035.1299999999999,3.681879221693725
147,1044.71,3.703373173525928
148,1054.3700000000001,3.6573439306970226
149,1064.1299999999999,3.5832337120417326
150,1073.97,3.560535188725331
151,1083.91,3.4865213595825444
152,1093.94,3.4775505151960107
153,1096.4782,3.464703925133601
154,1104.06,3.432751834723212
155,1114.28,3.388954863654088
156,1124.5900000000001,3.3372110459708506
157,1134.99,3.3342951816735034
158,1145.5,3.2809276492922406
159,1156.1000000000001,3.2524986702968666
160,1164.11,3.228485821640929
161,1174.8799999999999,3.1375258101522334
162,1185.75,3.144273191314524
163,1193.97,3.061145767225659
164,1205.02,2.987924405159726
165,1216.17,2.9242810857447807
166,1224.6,2.949007636222989
167,1235.9299999999998,2.9686646235798206
168,1244.5,2.9557493737694096
169,1256.01,2.903582667898018
170,1258.92541,2.8833674291455824
171,1264.72,2.849553695208339
172,1276.42,2.8711649292193577
173,1285.27,2.85987146392
174,1294.18,2.784919345974544
175,1306.15,2.7514852430781254
176,1315.21,2.7782097935174273
177,1324.32,2.7443821667516475
178,1333.5,2.693253111898754
179,1345.8400000000001,2.703491217684734
180,1355.17,2.6717723312165975
181,1364.56,2.6209298921023643
182,1374.02,2.6088248249010166
183,1383.55,2.5872705296125558
184,1396.3500000000001,2.524852765111789
185,1406.03,2.508271238208085
186,1415.77,2.4858737586582835
187,1425.59,2.4681625755803522
188,1435.47,2.4407308398563234
189,1442.0900000000001,2.437295197903583
190,1445.42,2.432941276045181
191,1445.43977,2.4328759581120645
192,1455.44,2.4080733347403815
193,1465.53,2.370942007650973
194,1475.69,2.3530391105024706
195,1485.91,2.339433481874744
196,1496.21,2.325834044608054
197,1506.59,2.294211298702399
198,1513.54,2.2565723856923507
199,1517.03,2.2654027213175203
200,1524.0300000000002,2.246180615408119
201,1534.6000000000001,2.1998762364849234
202,1545.23,2.2009718260825033
203,1555.94,2.1704127070411197
204,1566.73,2.154036179360771
205,1573.96,2.1542762861143463
206,1584.87,2.1456635954755514
207,1595.8600000000001,2.1305961961977906
208,1603.22,2.114125301413049
209,1614.34,2.0954119005969716
210,1625.53,2.0620785297218003
211,1636.79,2.0566698887875345
212,1644.35,2.047378622405381
213,1655.75,2.0078440413529277
214,1659.58691,2.011851113780902
215,1663.3899999999999,2.0179922459943755
216,1671.0700000000002,1.9814585847921848
217,1678.78,1.999591320616549
218,1686.53,2.001819719142985
219,1694.31,1.9767637146959742
220,1706.0600000000002,1.9523080834296025
221,1713.9299999999998,1.9299873700622543
222,1725.8100000000002,1.9146231925776163
223,1733.78,1.9204753359654476
224,1745.8000000000002,1.8998272779380614
225,1753.86,1.906497412405555
226,1766.01,1.8698539081599022
227,1774.1599999999999,1.8661133337070575
228,1786.46,1.8554805145941744
229,1794.7099999999998,1.8632392968965095
230,1802.9899999999998,1.8510593762253984
231,1815.4899999999998,1.8146513706228753
232,1823.87,1.8098748067069441
233,1836.51,1.7840093205616725
234,1844.99,1.7537961134009206
235,1853.51,1.7443425689422412
236,1866.35,1.7355563963073295
237,1874.97,1.7455547086038292
238,1883.6200000000001,1.7145340179268833
239,1896.68,1.6896840901533672
240,1905.4299999999998,1.6921108562316014
241,1905.46072,1.6920413867722468
242,1914.23,1.6753349876874988
243,1923.06,1.6632292489232254
244,1936.39,1.6561987820231387
245,1945.3300000000002,1.6610468554599902
246,1954.31,1.6381857424245234
247,1967.86,1.6489150999266864
248,1976.94,1.6474449707104233
249,1986.0700000000002,1.6255796834037626
250,1995.23,1.6106768812428631
251,2004.44,1.6098316209915657
252,2013.7,1.5926256026498706
253,2022.99,1.5950451694539365
254,2037.01,1.5703833609063589
255,2046.4199999999998,1.5727151682934701
256,2055.86,1.5530396608263417
257,2065.35,1.5453850952688164
258,2074.88,1.554647943238972
259,2079.67,1.544189038178851
260,2084.46,1.5530025331187303
261,2094.08,1.5289678365261699
262,2103.75,1.5206593818432113
263,2113.46,1.5163647406879346
264,2123.21,1.5091855130603395
265,2133.0099999999998,1.480904727342347
266,2142.86,1.482443083533956
267,2152.75,1.483281053253247
268,2162.69,1.4642068648821398
269,2172.67,1.4538872900387143
270,2182.7,1.4440870571048912
271,2187.7616199999998,1.445330336036717
272,2192.77,1.448143508149564
273,2202.9,1.4343335910654123
274,2213.06,1.4117711410580103
275,2223.28,1.4001262252041073
276,2233.54,1.4158434654525383
277,2243.85,1.3980814508288852
278,2254.21,1.3764839813331484
279,2264.61,1.3751190679397445
280,2275.06,1.3778609996742572
281,2285.57,1.3833216655622698
282,2296.12,1.3599656875526147
283,2306.71,1.3582723656452933
284,2317.36,1.337697577891471
285,2322.7,1.2825697175529354
286,2333.42,1.305941552978196
287,2344.2,1.2885712225569563
288,2355.02,1.3078151482380498
289,2365.89,1.2751311190470598
290,2376.81,1.2786547349839859
291,2382.29,1.2545965210036156
292,2393.28,1.2637302601196243
293,2404.33,1.248617433389133
294,2415.4300000000003,1.2495396517865578
295,2426.57,1.2653126262863157
296,2437.7799999999997,1.2502471239651567
297,2443.39,1.2638780673173688
298,2454.67,1.2555714881752924
299,2466.0,1.2439388541611325
300,2477.39,1.2259708543004721
301,2483.1,1.221282487908517
302,2494.56,1.2042648112269392
303,2506.07,1.2319124796732779
304,2511.85,1.1858380364604058
305,2511.88643,1.1858330321852688
306,2517.64,1.186012295518627
307,2523.45,1.176047842423749
308,2535.0899999999997,1.1802411847603456
309,2546.79,1.173734172675996
310,2552.66,1.1994085651601731
311,2564.45,1.1807768214444054
312,2576.28,1.1940113747813412
313,2582.2200000000003,1.1855437871077485
314,2594.14,1.1743892088132661
315,2606.12,1.1580031760978384
316,2612.12,1.1505008340033005
317,2624.18,1.163054995393279
318,2636.29,1.1832194280991362
319,2642.37,1.2180302801100042
320,2654.57,1.2380930811844433
321,2666.8199999999997,1.1790624535747616
322,2672.9700000000003,1.1968637254278598
323,2685.3100000000004,1.19813116618676
324,2697.7000000000003,1.1659623782615387
325,2703.92,1.1825013699568676
326,2716.4,1.1476909504002284
327,2722.66,1.1391798391482604
328,2735.23,1.154393287960203
329,2747.85,1.0912977080880246
330,2754.19,1.1037302909414626
331,2766.9,1.117274479437866
332,2773.28,1.1301096593440072
333,2786.0800000000004,1.0899082162089926
334,2792.5,1.0272364931678368
335,2805.39,1.0374959184014043
336,2811.86,1.1063173666761272
337,2824.84,1.1385528602782766
338,2837.8799999999997,1.1231735994594807
339,2844.4199999999996,1.1022511675764344
340,2857.5499999999997,1.06399127512622
341,2864.14,1.127761714559052
342,2877.36,1.1377761904774197
343,2883.9900000000002,1.123881826962955
344,2884.0315,1.1238965239004388
345,2897.2999999999997,1.1305154010786564
346,2910.67,1.1797841076541915
347,2930.85,1.1495848830987911
348,2951.17,1.134709855994443
349,2971.62,1.1446573050946445
350,2992.22,1.141761672892402
351,3012.96,1.1461406381412123
352,3026.87,1.1464228920279507
353,3047.85,1.1464700671928516
354,3068.98,1.1504688610553087
355,3090.25,1.1497772523688188
356,3111.67,1.1572358623798853
357,3133.24,1.1404930910885085
358,3147.7,1.1380438135329538
359,3169.52,1.1456605734041707
360,3191.4900000000002,1.103854451972944
361,3213.62,1.1269375704857783
362,3228.45,1.083797479050863
363,3250.83,1.142185828726291
364,3273.36,1.1742315970992752
365,3288.47,1.1649411005664658
366,3311.2599999999998,1.154528121348548
367,3311.31121,1.1545363848751924
368,3318.9,1.1565309824212715
369,3326.5499999999997,1.1502766756725984
370,3334.22,1.1928238408017067
371,3341.9,1.1543025418697053
372,3349.61,1.2001158507543759
373,3357.33,1.1781414955779372
374,3365.07,1.0986134122792799
375,3372.82,1.087434264919513
376,3380.6000000000004,1.172288525376418
377,3388.39,1.1757990217722136
378,3396.2,1.1434384900457908
379,3404.03,1.1894676301971487
380,3411.88,1.133159142226288
381,3419.7499999999995,1.142341526133209
382,3427.6299999999997,1.15424274597902
383,3435.5299999999997,1.1729020377026127
384,3443.4500000000003,1.0946633013039864
385,3451.39,1.1659264367831415
386,3459.34,1.1516907082011871
387,3467.3199999999997,1.1438808874359045
388,3475.31,1.1573804026095127
389,3483.3199999999997,1.1494527896609021
390,3491.35,1.1529350485900727
391,3499.3999999999996,1.0934403793970247
392,3507.47,1.170538882081758
393,3515.55,1.1183579207053813
394,3523.6600000000003,1.155563067145677
395,3531.7799999999997,1.1462324495248635
396,3539.9199999999996,1.1817020037818309
397,3548.08,1.2052629299165796
398,3556.2599999999998,1.1676752279291096
399,3564.46,1.1810570978194208
400,3572.68,1.0973063395875133
401,3580.91,1.1163224172944963
402,3589.17,1.0250541028181512
403,3597.44,1.1397527242806968
404,3605.7400000000002,1.1486437535599143
405,3611.02,1.0195334292941636
406,3613.7200000000003,1.1777220327946316
407,3616.42,1.1198365362951002
408,3619.12,1.1407875397955687
409,3621.82,1.1391594432960368
410,3624.52,1.090674446796505
411,3627.22,1.0142387502969736
412,3629.9199999999996,1.0302225537974419
413,3632.62,1.0003929572979102
414,3635.32,0.9819459607983785
415,3638.02,1.0137858642988469
416,3640.7200000000003,1.250114967799315
417,3643.42,1.2472895712997836
418,3646.12,1.182867474800252
419,3648.8199999999997,1.1579727783007203
420,3651.52,1.1680751818011885
421,3654.2200000000003,1.1215561853016567
422,3656.92,1.1162389888021251
423,3659.62,1.1079204923025936
424,3662.32,1.0173356958030617
425,3665.02,1.0688746993035303
426,3667.72,1.0921070028039985
427,3670.4199999999996,1.2009872063044669
428,3673.1200000000003,1.2543299098049352
429,3675.82,1.0131514133054034
430,3678.52,1.1588973168058718
431,3681.2200000000003,1.26115182030634
432,3683.92,1.2028458238068085
433,3686.62,1.110667327307277
434,3689.3199999999997,1.0984496308077452
435,3692.0199999999995,1.0840314343082136
436,3694.7200000000003,1.2200370378086818
437,3697.42,1.30638664130915
438,3700.12,1.2102441448096184
439,3702.82,1.1511130483100867
440,3705.52,1.2441611518105553
441,3708.21,1.0904320193721329
442,3710.91,1.1449806228726014
443,3713.61,1.2177881263730694
444,3716.31,1.1676851298735378
445,3719.0099999999998,1.1975916333740062
446,3721.7099999999996,1.2297066368744747
447,3724.4100000000003,1.3502286403749428
448,3727.11,1.6018239438754112
449,3729.81,1.8141666473758797
450,3732.51,1.761320350876348
451,3735.21,1.581220054376816
452,3737.91,1.3317086578772845
453,3740.6099999999997,1.189801161377753
454,3743.3100000000004,1.101141564878221
455,3746.01,1.0767888683786895
456,3748.71,1.041814171879158
457,3751.41,1.1474423753796263
458,3754.11,1.1255732788800943
459,3756.81,1.1570815823805627
460,3759.5099999999998,1.2027309858810313
461,3762.2100000000005,1.0831760893814995
462,3764.9100000000003,1.2596071928819677
463,3767.61,1.181755796382436
464,3770.31,1.1019871998829045
465,3773.0099999999998,1.0554682033833729
466,3775.71,1.140734106883841
467,3778.41,1.2718859103843094
468,3781.1099999999997,1.295473913884778
469,3783.8100000000004,1.272027317385246
470,3786.51,1.2620990208857146
471,3789.21,1.1496472243861828
472,3791.91,1.2609058278866512
473,3794.61,1.2366825313871195
474,3797.31,1.1540744348875878
475,3800.0099999999998,1.103737038388056
476,3801.8939600000003,1.1095103315861101
477,3802.71,1.1120693602788485
478,3805.4100000000003,1.1586964195828007
479,3808.11,1.2659895788867528
480,3810.81,1.268397238190705
481,3813.5099999999998,1.3158898974946571
482,3816.21,1.2251339567986093
483,3818.91,1.3186421161025614
484,3821.6099999999997,1.3030656754065135
485,3824.2999999999997,1.2408566841204511
486,3827.0,1.1768378434244031
487,3829.7,1.2100600027283552
488,3832.4,1.1412274620323073
489,3835.1000000000004,1.0791663213362597
490,3837.8,0.9834024806402117
491,3840.5,1.0337106399441638
492,3843.2,1.099244099248116
493,3845.9,1.1851156585520681
494,3848.6,1.2749672178560203
495,3851.2999999999997,1.2971385771599726
496,3854.0,1.2841186364639245
497,3856.7000000000003,1.3392806957678767
498,3859.4,1.2818552550718287
499,3862.1,1.317180714375781
500,3864.7999999999997,1.3182210736797333
501,3867.5,1.3001126329836854
502,3870.2,1.3751030922876373
503,3872.9,1.3773003515915896
504,3875.6000000000004,1.3525579108955417
505,3878.3,1.333640470199494
506,3881.0,1.210055629503446
507,3883.7,1.165315088807398
508,3886.3999999999996,1.1232281481113504
509,3889.1,1.1199728074153024
510,3891.8,1.1118877667192546
511,3894.5,1.1707873260232067
512,3897.2000000000003,1.2180210853271587
513,3899.9,1.290123444631111
514,3902.6,1.3310065039350631
515,3905.2999999999997,1.3221206632390152
516,3908.0,1.3879046225429672
517,3910.7,1.3778051818469195
518,3913.4,1.3220786411508718
519,3916.1000000000004,1.3246803004548235
520,3918.8,1.369754059758776
521,3921.5,1.354800719062728
522,3924.2,1.4118475783666802
523,3926.8999999999996,1.3097011376706325
524,3929.6,1.2587556969745846
525,3932.3,1.1420717562785367
526,3935.0,1.0691947155824888
527,3937.7000000000003,1.1316294748864408
528,3940.39,1.0879454836003783
529,3943.09,1.0845040429043307
530,3945.79,1.2718640022082828
531,3948.4900000000002,1.2135807615122347
532,3951.19,1.354383020816187
533,3953.89,1.3317441801201393
534,3956.5899999999997,1.3377435394240913
535,3959.29,1.2800590987280434
536,3961.9900000000002,1.2920370580319955
537,3964.69,1.1990482173359478
538,3967.39,1.1037697766399
539,3970.09,1.063130835943852
540,3972.79,1.106230795247804
541,3975.49,1.0331755545517562
542,3978.1899999999996,1.1849557138557085
543,3980.8900000000003,1.2281284731596604
544,3983.59,1.3329383324636126
545,3986.29,1.4174909917675649
546,3988.9900000000002,1.392667951071517
547,3991.69,1.3723752103754692
548,3994.39,1.4677683696794213
549,3997.0899999999997,1.4933449289833733
550,3999.7899999999995,1.4381041882873258
551,4002.4900000000002,1.4387643475912775
552,4005.19,1.5057619068952297
553,4007.89,1.615231566199182
554,4010.59,1.571397225503134
555,4013.29,1.4835533848070863
556,4015.99,1.5515215441110384
557,4018.6899999999996,1.5811442034149905
558,4021.3900000000003,1.6015428627189428
559,4024.09,1.655111522022895
560,4026.79,1.635142181326847
561,4029.4900000000002,1.6414648406307992
562,4032.19,1.5951234999347512
563,4034.89,1.5707851592387034
564,4037.5899999999997,1.5554268185426556
565,4040.2900000000004,1.5844834778466077
566,4042.9900000000002,1.54558313715056
567,4045.69,1.5581357964545122
568,4048.39,1.5433444557584641
569,4051.09,1.5522561150624163
570,4053.79,1.4947497743663685
571,4056.49,1.5114274336703206
572,4059.18,1.5862798423842581
573,4061.88,1.54705650168821
574,4064.58,1.4842911609921623
575,4067.2799999999997,1.4914238202961143
576,4069.9800000000005,1.4830224796000666
577,4072.6800000000003,1.4930671389040187
578,4075.38,1.499956798207971
579,4078.08,1.482171457511923
580,4080.7799999999997,1.5427781168158752
581,4083.48,1.5673037761198274
582,4086.18,1.6173124354237796
583,4088.8799999999997,1.4846500947277317
584,4091.5800000000004,1.5962237540316835
585,4094.28,1.5035264133356359
586,4096.9800000000005,1.4228822726395878
587,4099.68,1.4045309319435402
588,4102.38,1.3665213912474923
589,4105.08,1.2651269505514444
590,4107.78,1.3027986098553967
591,4110.4800000000005,1.3854096691593485
592,4113.18,1.4089642284633008
593,4115.88,1.467305687767253
594,4118.58,1.412954247071205
595,4121.28,1.4757450063751574
596,4123.98,1.5423376656791095
597,4126.679999999999,1.4941353249830618
598,4129.38,1.5335459842870138
599,4132.08,1.4335674435909658
