,lambda (Angstroms),Total Flux (erg/s/cm^2/Angstrom)
0,102.06,0.0565784989001459
1,103.96000000000001,0.06617447645315717
2,104.712855,0.0699767815752172
3,105.89,0.06501623462268952
4,108.11,0.055661045465179165
5,110.11999999999999,0.04719080699796754
6,113.98,0.03092457807511585
7,117.99000000000001,0.014026242562737283
8,120.22644299999999,0.004601774993486334
9,121.02,0.004447043547759352
10,124.98,0.0036748933012652
11,127.01,0.003279069481397643
12,127.89,0.0031074827041111656
13,130.87,0.002526424403024456
14,132.07999999999998,0.002290500921686803
15,133.92,0.0019317310961150757
16,137.04,0.0013234014964730169
17,138.038426,0.0011287290126570347
18,139.91,0.0011158614224842925
19,142.84,0.0010960539445617826
20,146.84,0.0010696202256105746
21,150.96,0.00104165026281783
22,154.83,0.0010155185806532863
23,158.489319,0.0009908544544200634
24,159.17000000000002,0.0009837518314126364
25,162.12,0.0009530815009649385
26,165.9,0.0009139909655438204
27,170.16,0.0008698828773549415
28,172.92,0.0008415427891903158
29,176.95,0.0008001410447651555
30,179.82000000000002,0.0007708175102787508
31,181.91,0.0007495040611649583
32,181.970086,0.0007488920860386559
33,186.14,0.0007647424508659336
34,190.92000000000002,0.0007834178211268088
35,194.01999999999998,0.0007957454812959957
36,198.07999999999998,0.0008118957815175759
37,202.23000000000002,0.0008287971017440682
38,205.04000000000002,0.000840605341897428
39,208.929613,0.0008561552337062027
40,209.82,0.0008750943675712144
41,216.20000000000002,0.0010137195251822368
42,220.22,0.0011012050622036013
43,222.77,0.0011568244394932732
44,226.91,0.0012476687617988577
45,230.05999999999997,0.0013406579455096281
46,233.8,0.0014766152668678142
47,239.8,0.0016472970310788067
48,239.88329199999998,0.0016491213242331682
49,245.95,0.0015532120890868173
50,252.26,0.0014756625040604305
51,256.95,0.0013768310687555568
52,259.92,0.001364334144266116
53,264.15000000000003,0.0013172810699932764
54,269.06,0.001250929840281778
55,274.06,0.0011828320855857505
56,275.42287,0.0011644600325844475
57,279.16,0.001245701309278837
58,283.69,0.0013465797678534957
59,290.3,0.0014736988915132088
60,295.7,0.0016002220547147888
61,301.19,0.001716434835636396
62,308.21000000000004,0.0018752022177984514
63,316.227766,0.0020593244981086567
64,318.31,0.002041537993993546
65,327.98,0.0019526112392740942
66,337.95,0.0018568888153286
67,348.21999999999997,0.001755913222157063
68,357.15,0.0016710089848618506
69,363.078055,0.001616360816990865
70,366.30999999999995,0.0016632180503958842
71,374.84000000000003,0.0017823170549217454
72,385.34,0.0019040542853463087
73,395.23,0.00206293746105097
74,405.36999999999995,0.0022070466755752627
75,413.84999999999997,0.0023209217723371965
76,416.86938299999997,0.002358941410024927
77,421.54999999999995,0.0023984143377169774
78,430.38,0.002474707508521672
79,441.42,0.0025793886159603836
80,450.66,0.002657653691751479
81,460.1,0.002733312282170087
82,469.73,0.002814853911484833
83,478.630092,0.002896252054225966
84,479.57,0.002891298550220594
85,489.60999999999996,0.0028158775947824885
86,499.86,0.0027641086770294416
87,505.65,0.002716745787488941
88,511.5,0.0027262771944298854
89,519.81,0.002675641757110099
90,529.48,0.002604055706703078
91,540.56,0.0025059561236100295
92,549.5408739999999,0.002455073584022644
93,550.61,0.0024549141293607355
94,559.56,0.0024780152926941377
95,569.96,0.002491009728299432
96,580.5600000000001,0.002459999787666366
97,589.99,0.0024797302480277054
98,599.5799999999999,0.0024456648073983567
99,609.32,0.0023429260845902375
100,620.65,0.0024837189706871593
101,629.29,0.0024759903171900194
102,630.957344,0.0024761316946191746
103,639.51,0.002530310465109602
104,649.9000000000001,0.0026059303801629213
105,657.43,0.00264598845141908
106,665.04,0.0027197665672569777
107,674.2900000000001,0.00277335709702052
108,685.25,0.0027888942047187264
109,694.78,0.002975308390518354
110,704.4499999999999,0.002958802904336024
111,715.89,0.003154683279524664
112,724.43596,0.0032231728427839636
113,725.85,0.0032323184259604376
114,734.2600000000001,0.003294625380616073
115,744.47,0.0034138090223561493
116,754.8299999999999,0.003506476888019929
117,765.33,0.003500801562679165
118,774.19,0.003731851189105911
119,784.9599999999999,0.003819527066827813
120,795.8800000000001,0.003952288168473418
121,805.1,0.004070038732317052
122,814.42,0.004174773445443155
123,825.75,0.0043784515591468835
124,831.763771,0.0041677963771671826
125,835.31,0.004020553962065604
126,844.98,0.0044856181491524805
127,854.77,0.004528815270308687
128,864.66,0.00468823833652267
129,874.6800000000001,0.00485328883131176
130,884.8100000000001,0.005056656765664403
131,895.0500000000001,0.0052159231395806
132,905.42,0.005196063942071904
133,915.9000000000001,0.0068086181841267605
134,924.37,0.033197246030520336
135,935.0799999999999,0.07074565064620807
136,945.91,0.13517728119596517
137,954.66,0.19752353888852048
138,954.992586,0.19798869341014463
139,965.71,0.2130182195502642
140,974.65,0.03432089072148837
141,985.93,0.16483919582343562
142,995.06,0.1895197733394621
143,1004.26,0.3024797016140999
144,1015.89,0.3024738205091041
145,1025.29,0.13632830809406016
146,1034.78,0.2029662323686594
147,1044.35,0.4219123003673859
148,1054.02,0.4180207980212716
149,1066.22,0.31591071595068265
150,1076.09,0.3919894729148865
151,1086.04,0.29692237360321766
152,1096.09,0.4247768039467079
153,1096.4782,0.42426224427296155
154,1106.24,0.4113083386432108
155,1113.9,0.3919441738803436
156,1124.21,0.34939967470212413
157,1134.6100000000001,0.47311797737394923
158,1145.1100000000001,0.4276068598791573
159,1155.71,0.4676858222177483
160,1163.72,0.48408248687172134
161,1174.49,0.3193601749270633
162,1185.35,0.47627906483244997
163,1196.32,0.3070899125545578
164,1204.61,0.21171706074200305
165,1215.76,0.16337291216420022
166,1224.19,0.3342608521183816
167,1235.51,0.5317516292573298
168,1244.0800000000002,0.5910758609782472
169,1255.5900000000001,0.5593033198006229
170,1258.92541,0.5265705436191926
171,1264.2900000000002,0.4739366164525581
172,1275.99,0.6450109487085517
173,1284.84,0.6863518346457776
174,1293.7399999999998,0.5160400284131575
175,1305.71,0.5113344029519817
176,1314.76,0.676945720209823
177,1323.88,0.6479899484298796
178,1336.13,0.5593088668175652
179,1345.3899999999999,0.7023231169620525
180,1354.71,0.6816213765027244
181,1364.1000000000001,0.5992751470056116
182,1373.56,0.6405805284707141
183,1386.27,0.650974218895815
184,1395.8799999999999,0.5605968238513789
185,1405.5500000000002,0.5842931382031276
186,1415.3,0.6048094650831223
187,1425.11,0.6318100013593015
188,1434.9899999999998,0.6303798485976961
189,1441.6100000000001,0.6738401853100618
190,1445.43977,0.682886644213299
191,1448.26,0.6895483557417558
192,1454.95,0.6676661350442782
193,1465.03,0.6118293599126527
194,1475.19,0.6160441952958557
195,1485.41,0.63619463856518
196,1495.71,0.6540012923493327
197,1506.08,0.61604755533396
198,1513.03,0.5403612688096747
199,1516.52,0.5883651275190623
200,1523.52,0.5670910475665447
201,1534.08,0.4839180355238895
202,1544.71,0.5428493326817092
203,1555.42,0.5149084403543572
204,1566.2,0.52929845722748
205,1573.43,0.569739207505094
206,1584.34,0.6090111414648128
207,1595.3200000000002,0.6231735846250066
208,1606.38,0.6160598383000288
209,1613.79,0.6217500122360065
210,1624.98,0.5870260829976246
211,1636.24,0.6333129629597177
212,1643.79,0.6480390552966452
213,1655.19,0.5965562536596878
214,1659.58691,0.6209101162048579
215,1666.66,0.6600928206588944
216,1670.51,0.5763095160728731
217,1678.22,0.6692504164993083
218,1685.96,0.7072599457211771
219,1693.74,0.6616278133369574
220,1705.48,0.6362609819499729
221,1713.36,0.599357345550532
222,1725.23,0.5993759389437597
223,1733.2,0.6481000889306194
224,1745.21,0.6348632167025374
225,1753.2700000000002,0.6864927530756979
226,1765.42,0.624716715226306
227,1773.57,0.6422299379857673
228,1785.86,0.6602067345150656
229,1794.1,0.7139131436608277
230,1806.5400000000002,0.710643384167294
231,1814.88,0.6511566892978348
232,1823.26,0.6709342328222871
233,1835.89,0.6437658556998327
234,1844.37,0.5899193952090637
235,1852.88,0.5939997635137283
236,1865.7299999999998,0.617688797557787
237,1874.34,0.6771971618472302
238,1882.99,0.620531864530585
239,1896.04,0.599535190544201
240,1904.7900000000002,0.6393864892123343
241,1905.46072,0.6375184689723512
242,1913.59,0.6148597750133727
243,1926.85,0.6050534690190168
244,1935.74,0.6248135698267225
245,1944.68,0.6587251087717043
246,1953.65,0.6162464105990518
247,1967.2,0.6849798458008978
248,1976.28,0.7057545115302529
249,1985.3999999999999,0.669368327769429
250,1994.56,0.6511377945184261
251,2003.77,0.6739823994046993
252,2013.02,0.6511127548007933
253,2026.9699999999998,0.6849106951008489
254,2036.3300000000002,0.6496137143989507
255,2045.73,0.6817194842068733
256,2055.17,0.642173204524617
257,2064.6600000000003,0.6480701629796368
258,2074.19,0.7072549719444776
259,2078.97,0.6816820578680809
260,2083.76,0.7154166314191394
261,2093.38,0.6769915290310773
262,2103.04,0.6801063771528362
263,2112.75,0.6927096634118712
264,2127.3900000000003,0.7007130500063381
265,2137.21,0.6509580001673807
266,2147.08,0.6753835884656996
267,2156.9900000000002,0.7039133272738394
268,2166.94,0.6800326165918
269,2176.95,0.6768930316744922
270,2186.9900000000002,0.6722153096395501
271,2187.7616199999998,0.6747572630383586
272,2197.0899999999997,0.7055085569645734
273,2207.23,0.6863113596054786
274,2217.42,0.6479476115690708
275,2222.53,0.6317647523476728
276,2232.79,0.6847521733630266
277,2243.1,0.6554683437010673
278,2253.45,0.6202721534972576
279,2263.85,0.6361737126161349
280,2274.2999999999997,0.6585519210576989
281,2284.7999999999997,0.6848776788219498
282,2295.3399999999997,0.6407615760443502
283,2305.94,0.6512396324539751
284,2316.58,0.6163048283217495
285,2327.27,0.4819638735122107
286,2332.64,0.5648461707687847
287,2343.41,0.544483594875545
288,2354.22,0.6025239584404549
289,2365.09,0.543337881192589
290,2376.01,0.56507775326741
291,2386.97,0.5178325648003804
292,2392.48,0.5574101001604779
293,2403.52,0.5361090906097475
294,2414.61,0.5549861303817041
295,2425.76,0.6029331293408848
296,2436.96,0.5825301776227525
297,2442.57,0.6213255116282238
298,2453.85,0.6185497388263905
299,2465.17,0.6073438054827068
300,2476.5499999999997,0.5841202313262475
301,2482.26,0.5854807639770925
302,2493.7200000000003,0.5452743687369321
303,2505.23,0.6332092228194587
304,2511.01,0.5428786245220654
305,2511.88643,0.544792744867604
306,2516.79,0.5554954169772637
307,2522.6,0.5367018988147326
308,2534.24,0.5568448548539991
309,2545.94,0.5492686879862514
310,2557.69,0.6119991020293254
311,2563.58,0.5831930533241089
312,2575.42,0.6248691330066617
313,2587.3,0.6121418974178717
314,2593.2699999999995,0.5996356181699698
315,2605.24,0.5766985482206587
316,2617.27,0.5649447553643335
317,2623.3,0.6039130532094176
318,2635.4100000000003,0.6560646298104069
319,2647.57,0.7326868873222179
320,2653.68,0.7868723546246164
321,2665.92,0.6684062815937419
322,2672.0699999999997,0.7128709336247976
323,2684.4,0.7261985262334021
324,2696.79,0.6700886959349923
325,2703.01,0.7097708212411983
326,2715.49,0.6504597565822675
327,2728.02,0.6371631728341582
328,2734.31,0.6795985714155144
329,2746.9300000000003,0.5628620533068841
330,2753.26,0.5907243366168975
331,2765.97,0.6300688841477461
332,2772.35,0.6627883483685811
333,2785.14,0.5976806653567441
334,2798.0,0.4706246556200574
335,2804.45,0.5065824931160426
336,2817.4,0.6494401490188348
337,2823.89,0.7202709712434774
338,2836.92,0.6975239966035841
339,2843.46,0.6615965997390482
340,2856.59,0.603523686920798
341,2863.17,0.7304980747849195
342,2876.39,0.7649484276061482
343,2883.02,0.7441576963810913
344,2884.0315,0.7456138778065613
345,2896.33,0.7633237141153049
346,2909.7000000000003,0.8723357096516609
347,2929.87,0.8218408520576669
348,2950.1699999999996,0.8014371934479458
349,2970.62,0.8315980336662316
350,2991.22,0.8355817727125243
351,3011.95,0.8532066107430899
352,3032.8300000000004,0.8631864476016623
353,3046.83,0.8712823382156477
354,3067.95,0.8937617731990314
355,3089.21,0.9021627070885551
356,3110.6299999999997,0.9297231397279526
357,3132.19,0.9066357712734902
358,3146.64,0.9108985583714965
359,3168.46,0.9344264878855794
360,3190.42,0.8642781163058022
361,3212.53,0.919822443554032
362,3227.36,0.8429285276829893
363,3249.73,0.9656108528997646
364,3272.26,1.0395591768664139
365,3287.3599999999997,1.0254410588857839
366,3310.15,1.0162178808209787
367,3311.31121,1.0162260792533477
368,3325.43,1.0163237629664192
369,3333.1,1.0618106173756436
370,3340.7799999999997,0.9729809702912687
371,3348.4799999999996,1.114526320219695
372,3356.2,1.0644441671609224
373,3363.94,0.8714208111149508
374,3371.69,0.9125014535753798
375,3379.46,1.06956669304861
376,3387.25,1.0549545295346412
377,3395.06,1.0029503630334735
378,3402.89,1.1488251935451068
379,3410.73,1.003059022563141
380,3418.6,0.9939434471003765
381,3426.48,1.0480136701440128
382,3434.38,1.1307394902004502
383,3442.29,0.987276008763288
384,3450.23,1.0338151228453276
385,3458.1800000000003,1.0530969354337676
386,3466.15,1.0221417450350088
387,3474.14,1.085216551649051
388,3482.15,1.0388593552758945
389,3490.18,1.087844155915539
390,3498.2200000000003,0.9809050550615841
391,3506.2900000000004,1.1184187497268308
392,3514.37,1.0225115428984781
393,3522.47,1.1160113330829264
394,3530.59,1.0086131202801758
395,3538.73,1.1238779044902265
396,3546.89,1.1527546857130782
397,3555.07,1.1581404639487312
398,3563.2599999999998,1.1163432406907845
399,3571.48,0.9973843129520394
400,3579.71,1.020655783719695
401,3587.96,0.8911584515001517
402,3596.2300000000005,1.0590643162934095
403,3604.52,1.1374630780994686
404,3612.8300000000004,0.9840105369183284
405,3617.7799999999997,1.0850820975866025
406,3620.5,0.9939505913275529
407,3623.21,0.968797186562103
408,3625.92,1.064479881796653
409,3628.63,1.0980314770312032
410,3631.34,1.0973160722657531
411,3634.0499999999997,1.090387667500303
412,3636.76,1.200681262734853
413,3639.48,1.1414808564758037
414,3642.19,1.0712544517103537
415,3644.8999999999996,1.0527280469449036
416,3647.61,1.1859906421794537
417,3650.32,1.1902092374140039
418,3653.0299999999997,1.1087228326485536
419,3655.7400000000002,1.1336894278831036
420,3658.45,1.1844870231176539
421,3661.17,1.1288256168586044
422,3663.88,1.2150192120931542
423,3666.59,1.2040998073277045
424,3669.2999999999997,1.2256014025622544
425,3672.01,1.1100369977968043
426,3674.7200000000003,0.9924020930313544
427,3677.43,1.0294931882659044
428,3680.1499999999996,1.096250782006855
429,3682.86,1.101334377241405
430,3685.57,0.898598272475955
431,3688.2799999999997,0.935990367710505
432,3690.9900000000002,1.227331162945055
433,3693.7,1.191633758179605
434,3696.41,0.9941314534141551
435,3699.1200000000003,1.093014948648705
436,3701.84,1.1047575423896556
437,3704.5499999999997,1.1610911376242057
438,3707.26,1.1900857328587557
439,3709.9700000000003,1.2185163280933058
440,3712.68,1.2058269233278556
441,3715.39,1.3505755185624058
442,3718.1,1.1935521137969558
443,3720.82,1.3722207075379063
444,3723.5299999999997,1.5160273027724565
445,3726.2400000000002,1.8057858980070063
446,3728.95,2.0877884932415562
447,3731.66,1.7558940884761063
448,3734.3700000000003,1.5736046837106565
449,3737.08,1.3465802789452064
450,3739.79,1.3123518741797564
451,3742.51,1.0895014679207071
452,3745.2200000000003,1.186163063155257
453,3747.93,0.982636258389807
454,3750.64,1.056704253624357
455,3753.35,1.0254128488589072
456,3756.06,1.2860654440934571
457,3758.77,1.209323039328007
458,3761.48,1.2692336345625572
459,3764.2,1.1852562283035077
460,3766.91,1.2999548235380576
461,3769.6200000000003,1.2804874187726076
462,3772.33,1.2625640140071577
463,3775.04,1.3606196092417078
464,3777.7500000000005,1.4738122044762576
465,3780.46,1.4185347997108078
466,3783.18,1.5774713934517584
467,3785.89,1.4357369886863083
468,3788.6,1.4805475839208582
469,3791.31,1.3437461791554084
470,3794.02,1.2619207743899583
471,3796.73,1.1841633696245084
472,3799.44,1.1709089648590585
473,3801.8939600000003,1.3257471356936779
474,3802.15,1.3419025680618097
475,3804.8700000000003,1.3828272464516709
476,3807.58,1.4648039260239223
477,3810.29,1.6160286055961741
478,3812.9999999999995,1.5343552851684255
479,3815.71,1.4536599647406772
480,3818.42,1.4710196443129286
481,3821.1299999999997,1.4637533238851803
482,3823.85,1.2719300022750415
483,3826.56,1.285184681847293
484,3829.27,1.1736503614195446
485,3831.98,1.123042040991796
486,3834.69,1.0412177205640478
487,3837.4,1.046941400136299
488,3840.11,1.130311079708551
489,3842.82,1.2695237592808022
490,3845.54,1.3969814376706637
491,3848.2499999999995,1.5091191172429153
492,3850.96,1.5280987968151667
493,3853.67,1.5332584763874184
494,3856.3799999999997,1.5513331559596697
495,3859.09,1.5628948355319214
496,3861.8,1.584923515104173
497,3864.5099999999998,1.6345171946764245
498,3867.23,1.7043978730662859
499,3869.94,1.5841275526385374
500,3872.65,1.5596142322107889
501,3875.36,1.4479659117830406
502,3878.07,1.388885591355292
503,3880.7799999999997,1.3589502709275434
504,3883.49,1.2893629504997952
505,3886.21,1.3249796288896565
506,3888.92,1.338234308461908
507,3891.6299999999997,1.2926339880341595
508,3894.34,1.4285706676064112
509,3897.05,1.4074093471786626
510,3899.7599999999998,1.4101960267509142
511,3902.4700000000003,1.5719277063231658
512,3905.18,1.532917385895417
513,3907.9,1.6290440642852786
514,3910.61,1.63695274385753
515,3913.32,1.7118874234297816
516,3916.0299999999997,1.746079103002033
517,3918.74,1.7769577825742848
518,3921.4500000000003,1.6334534621465362
519,3924.16,1.486410141718788
520,3926.8799999999997,1.3752818201086492
521,3929.59,1.3387564996809007
522,3932.3,1.1998461792531523
523,3935.0099999999998,1.1698728588254037
524,3937.7200000000003,1.2439045383976555
525,3940.43,1.3098392179699068
526,3943.14,1.4617798975421585
527,3945.8500000000004,1.5411205771144099
528,3948.57,1.5620882555042712
529,3951.2799999999997,1.5737239350765229
530,3953.99,1.6075766146487744
531,3956.7000000000003,1.578809294221026
532,3959.41,1.5727099737932775
533,3962.12,1.4780816533655292
534,3964.83,1.2631823329377805
535,3967.54,1.1154980125100322
536,3970.2599999999998,1.0774986908998934
537,3972.9700000000003,1.130329370472145
538,3975.68,1.2418280500443966
539,3978.39,1.507600729616648
540,3981.1000000000004,1.6912094091888996
541,3983.81,1.7405760887611512
542,3986.52,1.8297457683334029
543,3989.24,1.852481446723264
544,3991.9500000000003,1.9135971262955158
545,3994.66,1.8434078058677672
546,3997.37,1.9129204854400188
547,4000.08,1.9716641650122704
548,4002.79,1.9174408445845217
549,4005.5,1.9654905241567733
550,4008.21,1.9701612037290248
551,4010.93,2.029383882118886
552,4013.64,2.031004561691138
553,4016.3500000000004,2.1063532412633896
554,4019.06,2.109366920835641
555,4021.77,2.1066566004078924
556,4024.4799999999996,2.041401279980144
557,4027.19,1.9478279595523957
558,4029.91,2.0337496379422566
559,4032.62,2.0462893175145083
560,4035.33,2.13108999708676
561,4038.04,2.026296676659012
562,4040.75,2.018728356231263
563,4043.46,2.0306660358035145
564,4046.17,1.9451897153757662
565,4048.88,1.9858583949480177
566,4051.6000000000004,2.006371073337879
567,4054.31,2.0260657529101307
568,4057.02,2.0234694324823823
569,4059.7299999999996,1.9554641120546337
570,4062.44,1.9244747916268852
571,4065.15,1.9190154711991367
572,4067.8599999999997,1.9766291507713882
573,4070.58,1.9448398291612496
574,4073.29,1.894307508733501
575,4076.0,1.8826351883057526
576,4078.71,1.8616618678780044
577,4081.42,1.9446925474502557
578,4084.13,1.9956422270225074
579,4086.8399999999997,1.9996719065947588
580,4089.55,1.9974885861670104
581,4092.27,1.9155042645568718
582,4094.9799999999996,1.8135339441291234
583,4097.69,1.6945066237013748
584,4100.400000000001,1.6429573032736264
585,4103.11,1.681478982845878
586,4105.82,1.7552466624181293
587,4108.530000000001,1.761310341990381
588,4111.24,1.7694070215626325
589,4113.96,1.808711699952494
590,4116.67,1.8066793795247453
