,lambda (Angstroms),Total Flux (erg/s/cm^2/Angstrom)
0,102.00000000000001,0.005093478128904887
1,103.89,0.005956603652792855
2,104.712855,0.006332959902912624
3,106.07000000000001,0.005824426080409641
4,108.03999999999999,0.005089438793987646
5,110.05,0.00435480240997332
6,113.91999999999999,0.002917873727915891
7,117.92,0.0014320695686833964
8,120.22644299999999,0.000800767169066249
9,120.95,0.0008639011350971433
10,124.91,0.000885649299431102
11,126.94,0.0008870679372083583
12,128.10999999999999,0.0008958689584888463
13,131.1,0.0008986999239834259
14,132.01,0.000982840196090472
15,134.15,0.0009857175162103383
16,136.96,0.0011129319015079197
17,138.038426,0.0011205582962174913
18,140.15,0.0011711646097002444
19,143.07999999999998,0.0024961733634110287
20,147.09,0.004958269121902579
21,150.87,0.005302960138635264
22,155.09,0.0057251430091675186
23,158.489319,0.006139246097201152
24,159.07000000000002,0.00620979164300145
25,162.02999999999997,0.00653917166167982
26,166.18,0.007077703785840374
27,170.06,0.007538734499513373
28,172.82,0.007924431584497259
29,176.83999999999997,0.008405116251756398
30,180.13000000000002,0.008774925661030669
31,181.8,0.009037434607379614
32,181.970086,0.009056922647007252
33,186.03,0.0095271975580811
34,190.81,0.010179762361068724
35,193.91,0.010634250392295005
36,197.97,0.011133272007384913
37,202.10999999999999,0.011709298087796787
38,204.92,0.012119677432230934
39,208.929613,0.012247922994453502
40,210.17999999999998,0.012289855809321881
41,216.07000000000002,0.013603214493297308
42,220.09,0.01421414028439768
43,223.15,0.014516383200011402
44,226.76999999999998,0.015168896126325672
45,229.93,0.022803664758135916
46,234.2,0.03760630483972761
47,239.88329199999998,0.04783085121180358
48,240.21,0.048417509817279665
49,245.80999999999997,0.045812872623785826
50,252.11,0.048735164531105254
51,256.8,0.03980840950655417
52,259.77,0.04740066583429048
53,263.99,0.05008050984205047
54,268.90000000000003,0.05007272824918356
55,273.90000000000003,0.049719858969278344
56,275.42287,0.04958196384863999
57,278.99,0.049270245513522354
58,284.18,0.049389362518888986
59,290.13,0.04707197085837481
60,296.2,0.04730183519798471
61,301.02,0.04549514786963542
62,308.03000000000003,0.04613957754355065
63,316.227766,0.046760455008135304
64,318.12,0.046898413419668966
65,327.79,0.04624328449706276
66,337.75,0.045079328626415636
67,348.01,0.04384047384400203
68,356.93999999999994,0.04332993023708648
69,363.078055,0.043457872252046545
70,366.09000000000003,0.04352706914932112
71,374.62,0.04254399377948217
72,385.12,0.03990402783771089
73,394.99,0.040747803652445895
74,405.13,0.04056848157153534
75,413.61,0.03956587951570483
76,416.86938299999997,0.03909819419210426
77,422.27,0.03832124840594584
78,430.12,0.03728587614172571
79,441.15000000000003,0.03686795538066228
80,451.43,0.035790254453759995
81,459.82,0.03442659470894383
82,470.53,0.03357633467712249
83,478.630092,0.03320282988923956
84,480.39,0.03311939980792417
85,490.45,0.03155672039854066
86,499.56,0.03155095879620629
87,506.51,0.030480743786741534
88,512.38,0.03212475207371159
89,519.51,0.03124713484817437
90,530.38,0.02997739046646475
91,540.25,0.028042460618491066
92,549.5408739999999,0.027101764513223256
93,550.29,0.02702628706149258
94,560.52,0.027649871333655544
95,569.63,0.027647453368787957
96,580.22,0.02664963157428217
97,589.65,0.02622216710570903
98,600.61,0.024645706853793692
99,610.37,0.02147787349077419
100,620.28,0.024417324266642712
101,630.3599999999999,0.023373374399917657
102,630.957344,0.023376386149545125
103,640.61,0.023430472232374915
104,649.52,0.022641423547746214
105,658.55,0.021679673534031597
106,664.65,0.022032259305497917
107,675.4499999999999,0.02173468968776615
108,684.84,0.02034127568679381
109,694.37,0.020720646801887913
110,705.65,0.019129141867812515
111,715.47,0.019936216437615673
112,724.43596,0.019573447805779517
113,725.42,0.019533496214731123
114,735.5100000000001,0.01918081626210477
115,745.75,0.01857823381266038
116,754.38,0.018119436162396214
117,764.88,0.016276931385133905
118,775.52,0.017393042277508097
119,784.5000000000001,0.016504438801335185
120,795.41,0.01658172919943692
121,804.62,0.016433007894809695
122,815.8100000000001,0.01613773963218443
123,825.26,0.015920172332648353
124,831.763771,0.014820792073896987
125,834.82,0.014302393188344776
126,844.4799999999999,0.015207031879143903
127,854.26,0.014792282603369108
128,864.1500000000001,0.014687509358234882
129,874.16,0.014517438146526734
130,884.2800000000001,0.014250322965459153
131,894.52,0.01402023981781765
132,904.88,0.013669258703602222
133,915.36,0.014434039622812872
134,925.9599999999999,0.029411012575449598
135,934.53,0.04740686696262853
136,945.3499999999999,0.07136327197654639
137,954.0899999999999,0.08960530841107894
138,954.992586,0.09036588643712835
139,965.14,0.09892017651971084
140,974.0699999999999,0.032822702326915594
141,985.35,0.08577171966233213
142,994.4699999999999,0.08616529346543486
143,1005.98,0.11277785626956999
144,1015.29,0.10845006806857069
145,1024.69,0.0550303841814178
146,1034.1699999999998,0.08285948523990617
147,1046.14,0.1346326189814785
148,1055.82,0.13126770740407
149,1065.59,0.10795139014050789
150,1075.45,0.1230777671907922
151,1085.3999999999999,0.09936992855492291
152,1095.45,0.12564960360110522
153,1096.4782,0.12510387198645495
154,1105.58,0.1202717388468575
155,1115.81,0.11592261596309468
156,1126.14,0.10428107330529703
157,1133.94,0.1259293309305805
158,1144.43,0.11538475663432714
159,1155.02,0.11998636256403895
160,1165.71,0.12165144871971592
161,1173.79,0.08754388097770188
162,1184.65,0.11591050351751965
163,1195.61,0.0857454862833026
164,1203.8999999999999,0.06596461701581542
165,1215.04,0.04420967418833568
166,1226.28,0.0816954015868211
167,1234.78,0.1132593907938608
168,1246.21,0.12191143062168006
169,1254.8500000000001,0.11696262214507099
170,1258.92541,0.11055864450518167
171,1263.55,0.10329268131759231
172,1275.24,0.12619804573909982
173,1284.08,0.13032647007495324
174,1295.9599999999998,0.10643823716883771
175,1304.94,0.10473386347381099
176,1313.9899999999998,0.12561689076334417
177,1326.15,0.11996396179546835
178,1335.3400000000001,0.10742089105412139
179,1344.59,0.12360702115668293
180,1353.91,0.11941335224380442
181,1366.4399999999998,0.10791742848003105
182,1375.9099999999999,0.11119776167692379
183,1385.45,0.11170249585837647
184,1395.05,0.09618500088373765
185,1404.72,0.09842554689365875
186,1414.4599999999998,0.10258990388813978
187,1424.27,0.10377184186718075
188,1434.14,0.10306628069013021
189,1440.76,0.10717517380136884
190,1445.43977,0.10787319389156887
191,1447.41,0.10816706288102894
192,1454.0900000000001,0.10497284173661958
193,1464.1699999999998,0.09752863072828931
194,1474.3200000000002,0.09685199054629007
195,1484.54,0.09752860119062186
196,1494.8300000000002,0.09819677266128468
197,1505.1899999999998,0.09313848495827856
198,1512.1399999999999,0.08378537700114608
199,1515.6200000000001,0.08854274808160348
200,1526.1299999999999,0.08613016214930673
201,1536.71,0.07554483704334101
202,1543.8,0.08020143073887061
203,1554.5,0.0760689670494724
204,1565.28,0.0776593243044525
205,1576.13,0.08188034238576365
206,1583.4,0.0847559582061445
207,1594.3799999999999,0.08593400782207043
208,1605.4299999999998,0.08359360826432742
209,1616.56,0.08320995965096273
210,1624.02,0.0791037877142421
211,1635.28,0.08320938063549221
212,1646.6100000000001,0.08359447438307334
213,1654.21,0.07783986409901479
214,1659.58691,0.08062799369716842
215,1665.6799999999998,0.0837879428434187
216,1673.3700000000001,0.07520075578083737
217,1677.22,0.08398176768058534
218,1684.97,0.08633336579046762
219,1696.65,0.08113457269671599
220,1704.4799999999998,0.07802317770321641
221,1716.29,0.07417372581646928
222,1724.2099999999998,0.0734956485816651
223,1736.1699999999998,0.07748894962607697
224,1744.1799999999998,0.07538078014996819
225,1756.27,0.07947664240138454
226,1764.38,0.07316092154604845
227,1776.6100000000001,0.07452065586654655
228,1784.81,0.07538333276990584
229,1793.05,0.07947902312157423
230,1805.47,0.0785725138215404
231,1813.81,0.07282904279398146
232,1826.3799999999999,0.07384206642510664
233,1834.81,0.07101222315624311
234,1843.28,0.06521994333568863
235,1856.06,0.06552129507043644
236,1864.62,0.06735589300857737
237,1873.2299999999998,0.07167114525710466
238,1886.21,0.06628221423339781
239,1894.9199999999998,0.06388837510269775
240,1903.67,0.06704975942030678
241,1905.46072,0.0667211639403179
242,1916.86,0.06462715707521983
243,1925.7099999999998,0.06286714363915737
244,1934.6,0.06344686575818613
245,1943.53,0.06720004343230615
246,1957.0000000000002,0.06315324660928225
247,1966.03,0.06844603317113036
248,1975.11,0.06939553417684255
249,1984.2299999999998,0.06642703073764596
250,1993.3899999999999,0.06461818285354062
251,2007.2,0.06581688824879228
252,2016.47,0.06387660814118785
253,2025.77,0.06536240469990187
254,2035.12,0.06329010570247993
255,2044.52,0.06566096114892205
256,2053.96,0.06227692215045541
257,2063.44,0.06241871870708001
258,2072.96,0.06687713081879586
259,2077.74,0.0693840196521994
260,2087.33,0.07399961398532494
261,2096.96,0.0695416238735417
262,2106.64,0.06938150820562251
263,2116.37,0.07148545698156739
264,2126.14,0.07018135131260352
265,2135.9500000000003,0.06595431119873087
266,2145.81,0.07066570552872228
267,2155.71,0.07181109541380494
268,2165.6600000000003,0.06779731974275165
269,2175.6600000000003,0.06732876851556241
270,2185.7,0.07082415284346442
271,2187.7616199999998,0.07116068702792905
272,2195.79,0.07247282504353636
273,2205.9300000000003,0.07049901342028511
274,2216.11,0.06371365534092636
275,2226.34,0.06519762169143324
276,2236.61,0.07399320158583263
277,2246.94,0.07083584679607074
278,2257.31,0.06329466555020138
279,2262.51,0.062433106256226376
280,2272.96,0.06493385209814201
281,2283.45,0.07286166148395012
282,2293.99,0.06570687529962389
283,2304.58,0.07041365354516325
284,2315.21,0.06468052533459515
285,2325.9,0.052595562439865774
286,2336.6400000000003,0.05623271397500203
287,2347.42,0.04990496905403078
288,2352.83,0.062094868365491405
289,2363.69,0.05072795053230516
290,2374.6,0.05524327712898453
291,2385.56,0.046501368155529535
292,2396.58,0.05098990449791329
293,2407.64,0.04961142438418954
294,2413.19,0.052189456099273925
295,2424.33,0.06464610307333518
296,2435.52,0.06347952447726204
297,2446.76,0.07057621031105456
298,2452.4,0.07205894999989705
299,2463.7200000000003,0.06619291292147456
300,2475.09,0.061366750272917686
301,2486.52,0.05165636294019957
302,2492.25,0.05335103060280019
303,2503.75,0.06746634947189395
304,2511.88643,0.053621322891280555
305,2515.31,0.04779532294524731
306,2526.92,0.04555112484423892
307,2532.74,0.054250065279392336
308,2544.43,0.05488635443522454
309,2556.1800000000003,0.0775082215336872
310,2562.07,0.06478576956857612
311,2573.9,0.07611394392387938
312,2585.7799999999997,0.07072622656470799
313,2597.7099999999996,0.066479417491062
314,2603.7,0.06078191209700167
315,2615.7200000000003,0.05752777993730134
316,2627.79,0.06821126606312639
317,2633.85,0.09834657826880158
318,2646.0099999999998,0.12352001130857229
319,2652.1099999999997,0.1643261021426678
320,2664.35,0.11140428243927909
321,2676.6499999999996,0.12328966067852086
322,2682.82,0.14026654911235187
323,2695.2,0.10643692460843424
324,2707.64,0.12738789804714704
325,2713.88,0.09755268408071358
326,2726.4100000000003,0.08042580443337205
327,2732.69,0.0975805590953589
328,2745.3100000000004,0.06585814636196302
329,2757.98,0.08083361191409254
330,2764.34,0.09943805383292
331,2777.1,0.10486141629899517
332,2783.5,0.07257709684624292
333,2796.3500000000004,0.044275976226263766
334,2802.79,0.04978841540193181
335,2815.73,0.09460179169589834
336,2822.22,0.12643076915709175
337,2835.2500000000005,0.11774682236500396
338,2841.7799999999997,0.08792026845461767
339,2854.9,0.06085974857647553
340,2868.08,0.11512409664096385
341,2874.6899999999996,0.15493006998741815
342,2884.0315,0.14674316036541663
343,2887.96,0.1433003469153294
344,2894.62,0.17549024224172638
345,2907.98,0.23457853286645072
346,2928.13,0.20531721872634554
347,2948.4300000000003,0.18861560448097905
348,2968.8700000000003,0.19484899013736864
349,2989.4500000000003,0.1980711756955143
350,3010.1699999999996,0.19587026115541611
351,3031.04,0.21138764651005656
352,3052.05,0.2204051317664531
353,3073.2,0.24285411692460576
354,3087.39,0.23519870696688402
355,3108.79,0.27640579194960113
356,3130.3399999999997,0.2539190768270569
357,3152.04,0.25575916159925133
358,3166.59,0.28243805138890243
359,3188.5400000000004,0.24438713598566134
360,3210.6400000000003,0.26928512047715886
361,3232.89,0.2287546048633951
362,3247.81,0.3231697943934016
363,3270.3300000000004,0.3780553785901674
364,3293.0,0.3721351626816719
365,3308.1899999999996,0.34498915202220803
366,3311.31121,0.3404495982346734
367,3323.4599999999996,0.32277998686067416
368,3331.13,0.3403732839706348
369,3338.81,0.30832758094644935
370,3346.5,0.35160397778811786
371,3354.22,0.3428428742273482
372,3361.9500000000003,0.25893297053243236
373,3369.7,0.3230060665692244
374,3377.4700000000003,0.3077934623377244
375,3385.25,0.31427565797207824
376,3393.06,0.35265005320399384
377,3400.88,0.3876041483017634
378,3408.7200000000003,0.34949534313124075
379,3416.5800000000004,0.313693037692426
380,3424.45,0.39403853211946516
381,3432.35,0.41551402614406613
382,3440.2599999999998,0.357806920034521
383,3448.19,0.2862307136566837
384,3456.14,0.3481312070105543
385,3464.11,0.2970391000961327
386,3472.0899999999997,0.38357209304756507
387,3480.1,0.29986108559655916
388,3488.12,0.3491027780114072
389,3496.16,0.3221186701579631
390,3504.2200000000003,0.4046172620362269
391,3512.2999999999997,0.37077005364619847
392,3520.39,0.408460745122024
393,3528.51,0.26868143619541124
394,3536.64,0.3821705271346525
395,3544.8,0.4123853176714555
396,3552.97,0.4200972080741124
397,3561.16,0.3796721982084772
398,3569.37,0.28805838807454986
399,3577.6000000000004,0.33536567767233033
400,3585.84,0.2374733671359647
401,3594.1099999999997,0.3308491561971609
402,3602.39,0.453583745124211
403,3610.7,0.33169703364882286
404,3619.02,0.4081054220392887
405,3627.36,0.4393627101614623
406,3635.73,0.32426059788119777
407,3644.1099999999997,0.49194938546678707
408,3652.5099999999998,0.3614072727840843
409,3660.93,0.5333638598330893
410,3669.3700000000003,0.5001269466138022
411,3677.82,0.516571033260369
412,3686.3,0.4657946195044977
413,3694.7999999999997,0.5190867054803341
414,3703.32,0.5499016911878785
415,3711.86,0.3543050766271306
416,3720.4100000000003,0.4649534619322367
417,3728.99,0.44510794683490457
418,3737.59,0.23964343146928027
419,3746.2000000000003,0.4060554159695099
420,3754.8399999999997,0.34645900006730135
421,3763.49,0.36957588403094666
422,3772.17,0.3834828675921538
423,3780.8599999999997,0.4839406510192148
424,3789.5800000000004,0.44755623404383765
425,3798.32,0.3723192168001683
426,3798.9,0.48573000901969593
427,3800.62,0.48867878594657105
428,3801.8939600000003,0.4908274901771297
429,3802.35,0.49159666401397445
430,3804.0800000000004,0.5141479456422148
431,3805.81,0.5729428272704552
432,3807.54,0.5788699088986954
433,3809.27,0.4573181905269358
434,3811.0,0.4773435721551761
435,3812.7299999999996,0.5075420537834163
436,3814.46,0.4534748354116567
437,3816.19,0.35957561703989704
438,3817.92,0.37488479866813734
439,3819.65,0.3847682802963777
440,3821.3799999999997,0.353542161924618
441,3823.11,0.37291954355285833
442,3824.8399999999997,0.35786922518109865
443,3826.57,0.35986980680933894
444,3828.3,0.3287197884375793
445,3830.0299999999997,0.27020187006581964
446,3831.76,0.26908715169405995
447,3833.49,0.2798397333223003
448,3835.22,0.2766933149505406
449,3836.9399999999996,0.28794319668497603
450,3838.67,0.3955687783132164
451,3840.4,0.4035191599414567
452,3842.13,0.357058741569697
453,3843.86,0.3549623231979373
454,3845.5899999999997,0.42730940482617763
455,3847.32,0.39673138645441797
456,3849.05,0.35777456808265834
457,3850.7799999999997,0.43885304971089867
458,3852.51,0.369003031339139
459,3854.24,0.3102369129673793
460,3855.9700000000003,0.3217807945956196
461,3857.7,0.3535690762238599
462,3859.43,0.4199890578521002
463,3861.1600000000003,0.3932885394803406
464,3862.89,0.3770944211085809
465,3864.6200000000003,0.37073720273682126
466,3866.35,0.3793911843650616
467,3868.08,0.39137366599330187
468,3869.8100000000004,0.3596213476215422
469,3871.54,0.3430744292497825
470,3873.26,0.352245010984218
471,3874.99,0.33167549261245827
472,3876.7200000000003,0.3554949742406986
473,3878.45,0.33619325586893894
474,3880.18,0.34331443749717927
475,3881.9100000000003,0.3896105191254196
476,3883.64,0.4468990007536599
477,3885.3700000000003,0.48438708238190026
478,3887.1,0.38718006401014055
479,3888.83,0.42024544563838084
480,3890.56,0.5272912272666213
481,3892.29,0.4604701088948615
482,3894.0200000000004,0.4860073905231019
483,3895.75,0.5303990721513422
484,3897.48,0.45397925377958254
485,3899.21,0.4337054354078228
486,3900.94,0.5195113170360631
487,3902.6699999999996,0.5076353986643034
488,3904.4,0.4865109802925438
489,3906.1299999999997,0.46619916192078414
490,3907.86,0.49036124354902444
491,3909.5800000000004,0.53551812528346
492,3911.31,0.5708355069117003
493,3913.04,0.48504528853994056
494,3914.77,0.4320669701681809
495,3916.5,0.4533793517964212
496,3918.2299999999996,0.4593282334246615
497,3919.96,0.40931231505290183
498,3921.69,0.38037379668114213
499,3923.42,0.3690580783093825
500,3925.15,0.3252589599376228
501,3926.8799999999997,0.34986184156586314
502,3928.61,0.2679711231941035
503,3930.34,0.21421080482234378
504,3932.0699999999997,0.24086168645058412
505,3933.8,0.2243431680788244
506,3935.5299999999997,0.27022954970706475
507,3937.26,0.34844043133530506
508,3938.99,0.3684566129635454
509,3940.72,0.5251160945917857
510,3942.4500000000003,0.558221776220026
511,3944.18,0.4682569578482663
512,3945.9,0.4558113395827018
513,3947.6299999999997,0.47756212121094216
514,3949.36,0.5102008028391825
515,3951.0899999999997,0.4713657844674228
516,3952.82,0.4766092660956631
517,3954.55,0.49795964772390344
518,3956.2799999999997,0.44493382935214376
519,3958.01,0.4075689109803841
520,3959.74,0.35876369260862445
521,3961.4700000000003,0.2733570742368647
522,3963.2000000000003,0.26411975586510505
523,3964.93,0.26209943749334536
524,3966.6600000000003,0.2552165191215857
525,3968.39,0.283489000749826
526,3970.12,0.35705618237806636
527,3971.85,0.48242216400630666
528,3973.58,0.5175104456345471
529,3975.3100000000004,0.4882933272627873
530,3977.04,0.5069007088910277
531,3978.77,0.5975866905192679
532,3980.5,0.6378416721475082
533,3982.2200000000003,0.6225821538819437
534,3983.95,0.6322488355101841
535,3985.68,0.6441906171384244
536,3987.4100000000003,0.6496155987666647
537,3989.14,0.620829980394905
538,3990.8700000000003,0.6280819620231454
539,3992.6,0.6725119436513857
540,3994.33,0.7057864252796261
541,3996.06,0.6895452069078664
542,3997.79,0.6761410885361065
543,3999.5199999999995,0.6880573701643469
544,4001.25,0.7016957517925873
545,4002.98,0.6879422334208276
546,4004.71,0.6804419150490679
547,4006.44,0.6972066966773083
548,4008.1699999999996,0.7179306783055486
549,4009.9,0.7330749599337889
550,4011.63,0.7566586415620292
551,4013.36,0.7728798231902696
552,4015.09,0.7866931048185098
553,4016.8199999999997,0.8166784864467502
554,4018.55,0.7898282680749905
555,4020.2700000000004,0.741572849809426
556,4022.0,0.7541816314376663
557,4023.73,0.7845140130659066
558,4025.46,0.7595186946941469
559,4027.19,0.6961509763223873
560,4028.9199999999996,0.6804687579506276
561,4030.65,0.6717196395788679
562,4032.3799999999997,0.6829178212071083
563,4034.11,0.7317136028353486
564,4035.84,0.763504284463589
565,4037.5699999999997,0.7491277660918293
566,4039.3,0.7347547477200695
567,4041.0299999999997,0.7536451293483099
568,4042.76,0.7045470109765501
569,4044.4900000000002,0.7021142926047904
570,4046.22,0.7406821742330308
571,4047.9500000000003,0.7337789558612712
572,4049.68,0.7458479374895115
573,4051.41,0.7492426191177518
574,4053.14,0.7162311007459922
