,lambda (Angstroms),Total Flux (erg/s/cm^2/Angstrom)
0,102.03,0.015624814135445673
1,103.92999999999999,0.01828336092173156
2,104.712855,0.019379410701546133
3,106.1,0.017773688715471345
4,108.07000000000001,0.015499189035460176
5,110.08,0.013196784270372663
6,113.95,0.008741928779233993
7,117.96,0.004128805270328053
8,120.22644299999999,0.0019454766501813138
9,120.97999999999999,0.0020556476960594686
10,124.94999999999999,0.0020248736685566362
11,126.97999999999999,0.0019853707318234493
12,127.86,0.001996608882402166
13,131.14000000000001,0.0019240858072864745
14,132.05,0.002095486042544012
15,133.88,0.002072949207952027
16,137.0,0.0022896850145492963
17,138.038426,0.0022887332208751414
18,139.87,0.0023821668840591503
19,143.13,0.006000868078690653
20,147.14,0.014061331397853942
21,150.91,0.014869673997167059
22,155.14,0.01590467205952634
23,158.489319,0.016871433090035273
24,159.12,0.017052832163870695
25,162.08,0.017874835718868193
26,165.85,0.01925593318587514
27,170.10999999999999,0.02032052931570262
28,172.87,0.021261087089957043
29,176.9,0.02234064507192999
30,180.19,0.02316154466515356
31,181.85,0.023801725645321074
32,181.970086,0.02383286798249604
33,186.09,0.024917207615865154
34,190.85999999999999,0.026384251455406637
35,193.96,0.027496585481104455
36,198.03,0.028587341314843206
37,202.17,0.029860162949162227
38,204.99,0.03083325377253895
39,208.929613,0.030838038989641162
40,209.76000000000002,0.030843007289346504
41,216.13,0.03406471030961529
42,220.15,0.035435268400899514
43,223.21,0.03594541635098154
44,226.84,0.037471428134902375
45,230.0,0.056692146933026294
46,233.73000000000002,0.09430823956498902
47,239.73000000000002,0.1186672604475028
48,239.88329199999998,0.11846502236560681
49,245.88,0.11049113648082949
50,252.19,0.11724986421965741
51,256.88,0.09666636987656754
52,259.85,0.11299204369341682
53,264.07,0.11882609948705453
54,268.97999999999996,0.11798831061187942
55,273.97999999999996,0.11661539851903308
56,275.42287,0.11623103426545008
57,279.08,0.11529237411348245
58,284.26,0.1147924802354457
59,290.21999999999997,0.10866060233716406
60,296.28999999999996,0.10869847669243762
61,301.11,0.1055228754391293
62,308.12,0.10604766905205643
63,316.227766,0.10647634262910456
64,318.22,0.10656434780578997
65,327.89,0.10458938765034793
66,337.85,0.1012518610579795
67,348.11,0.09801394125499756
68,357.04,0.09620061235240217
69,363.078055,0.09588780372981985
70,366.2,0.0957465082918605
71,374.73,0.09316765969745082
72,385.23,0.08700086507361708
73,395.10999999999996,0.08843722102757164
74,405.25,0.08725469319084078
75,413.74,0.08491112979499807
76,416.86938299999997,0.08381579678433668
77,422.4,0.0818736448944115
78,430.25,0.07948667250302974
79,441.29,0.07806365325451323
80,450.53000000000003,0.07527170442695051
81,459.96000000000004,0.07241791277717598
82,469.59000000000003,0.07031468552507326
83,478.630092,0.06927579265950115
84,480.53,0.06904989287547952
85,489.46999999999997,0.06564453828229268
86,499.71000000000004,0.06517477856929121
87,505.5,0.0629651259971937
88,512.53,0.0655958537723499
89,519.66,0.06380262576905886
90,530.55,0.06106352849615006
91,540.41,0.05712570674124825
92,549.5408739999999,0.05512569942144328
93,550.4599999999999,0.05492577576892261
94,559.4,0.0556794761414058
95,569.8000000000001,0.05567114362169945
96,580.39,0.053418121479036934
97,589.82,0.052442481771264725
98,599.41,0.049069414486266276
99,610.55,0.042190198171888516
100,620.47,0.04827594838386092
101,630.55,0.04610952101860707
102,630.957344,0.04610921518351213
103,639.33,0.04611737516587462
104,649.71,0.04437021701626801
105,658.75,0.04249345153722718
106,664.85,0.04308555385778591
107,675.65,0.042414451736807926
108,685.05,0.0395248828537345
109,694.58,0.04017115274142708
110,704.24,0.03701501139988567
111,715.6899999999999,0.0384878831327377
112,724.43596,0.03773481283262803
113,725.64,0.03763062497759412
114,735.74,0.036872517225315475
115,744.2600000000001,0.03563921900260122
116,754.61,0.0346067721475434
117,765.1099999999999,0.030825379830818084
118,775.75,0.03308077641653643
119,784.73,0.03126004744470849
120,795.65,0.03133597183531416
121,804.86,0.030988762488929383
122,814.1800000000001,0.030367135137321765
123,825.51,0.029895640599369586
124,831.763771,0.027844840631292677
125,835.0699999999999,0.02675470295689081
126,844.7399999999999,0.028364141911296478
127,854.52,0.027591645714201075
128,864.4100000000001,0.027268794365604605
129,874.4200000000001,0.026827775579006955
130,884.5500000000001,0.02627310935440814
131,894.7900000000001,0.025787767978308247
132,905.15,0.02502649916420719
133,915.6300000000001,0.026715672912104957
134,924.1099999999999,0.048528123960022235
135,934.81,0.07359268740491785
136,945.63,0.10308807341181232
137,954.38,0.12558172272422694
138,954.992586,0.12607738093725557
139,965.4300000000001,0.13453334313589796
140,974.37,0.05169419699754658
141,985.65,0.11169511643372065
142,994.77,0.11298274533956351
143,1003.97,0.14748735870949273
144,1015.6,0.14478720017604452
145,1025.0,0.08006890470618959
146,1034.48,0.11323673370042099
147,1044.05,0.1772401752167495
148,1056.14,0.1716247273517978
149,1065.91,0.14019433002834217
150,1075.78,0.1590889132849945
151,1085.73,0.12759008100573316
152,1095.78,0.16314992930657973
153,1096.4782,0.16259631529085772
154,1105.9199999999998,0.1551058549203705
155,1116.15,0.14880893705000386
156,1123.89,0.132952232620225
157,1134.29,0.16200571142258932
158,1144.78,0.1491319355222818
159,1155.3700000000001,0.15436179884122775
160,1166.06,0.15542300137942724
161,1174.15,0.10959338421703563
162,1185.01,0.14843048342796605
163,1195.98,0.11135591578007534
164,1204.27,0.08668485705619075
165,1215.4099999999999,0.06285153608103099
166,1223.8300000000002,0.10881088834217593
167,1235.16,0.14704320188359782
168,1243.72,0.15680779905169767
169,1255.23,0.14975370318777587
170,1258.92541,0.14271433455056645
171,1263.93,0.13318437345317052
172,1275.6200000000001,0.16193127884633152
173,1284.46,0.16685686102559102
174,1296.35,0.13472207506534162
175,1305.3400000000001,0.13318626372954326
176,1314.3799999999999,0.16044815455539235
177,1323.49,0.15289414840754775
178,1335.74,0.13628757801115962
179,1345.0,0.1575305783482572
180,1354.32,0.15219188127933167
181,1363.7099999999998,0.13660218723671252
182,1376.3300000000002,0.14106983283651509
183,1385.87,0.14074444527883812
184,1395.48,0.11872456074746747
185,1405.15,0.12092977881007372
186,1414.89,0.1289692998989863
187,1424.7,0.13016182401420526
188,1434.57,0.1298640507234011
189,1441.19,0.13504283692551622
190,1445.43977,0.1358402672979436
191,1447.85,0.13629250811072313
192,1454.53,0.13196745049431893
193,1464.6100000000001,0.12176901624681079
194,1474.76,0.12121108453925052
195,1484.99,0.1226114557344878
196,1495.28,0.12317852910682325
197,1505.64,0.11629880501910655
198,1512.5900000000001,0.1041517571996441
199,1516.08,0.11031108383418742
200,1526.59,0.10706356518921614
201,1533.64,0.09306016099825064
202,1544.27,0.0976609267074757
203,1554.97,0.0930619749566486
204,1565.75,0.09588310610861908
205,1576.6,0.10132067980053741
206,1583.88,0.10511484395511488
207,1594.86,0.10633064236407921
208,1605.91,0.10367644331299145
209,1613.3300000000002,0.10343771254746462
210,1624.5100000000002,0.09811428821342286
211,1635.77,0.10343852678217866
212,1643.3200000000002,0.10415530073369786
213,1654.71,0.0969934240194997
214,1659.58691,0.100039390718649
215,1666.1799999999998,0.10415873803043453
216,1673.8700000000001,0.09328336574461576
217,1677.73,0.10464059857644145
218,1685.47,0.1078175495397396
219,1693.25,0.10109951110233129
220,1704.99,0.09723047199498247
221,1716.81,0.09180601408622073
222,1724.7299999999998,0.09075978274633976
223,1736.6899999999998,0.09612741193510538
224,1744.7099999999998,0.09351664709345824
225,1756.8,0.09881986072992782
226,1764.91,0.09097939973669113
227,1773.06,0.09203091934274796
228,1785.35,0.09331158597568519
229,1793.59,0.09882876943015248
230,1806.0200000000002,0.09770444316061708
231,1814.3500000000001,0.0897482304634948
232,1826.9299999999998,0.09141378394131013
233,1835.3600000000001,0.08771513774242168
234,1843.84,0.08038846479265013
235,1856.62,0.08039217126693311
236,1865.1899999999998,0.08264030216557203
237,1873.8,0.08853441366350447
238,1886.7800000000002,0.08151564313425509
239,1895.49,0.07857960113042137
240,1904.24,0.08265086972588115
241,1905.46072,0.08218666826670244
242,1913.03,0.07930371779261865
243,1926.29,0.07696912863830242
244,1935.18,0.0783928021238325
245,1944.1200000000001,0.08263722853110346
246,1953.0900000000001,0.07731386469141895
247,1966.63,0.0845487398988517
248,1975.71,0.08571843848699714
249,1984.83,0.0820566834125353
250,1993.99,0.0798244146754662
251,2003.19,0.08167454227578977
252,2017.08,0.07926760793540874
253,2026.39,0.08110652796356228
254,2035.74,0.07817826432910853
255,2045.14,0.08147238361639567
256,2054.58,0.07692491924107553
257,2064.06,0.07709888120314808
258,2073.5899999999997,0.08297364608696155
259,2078.37,0.09053895340539053
260,2083.16,0.0997097273081677
261,2092.77,0.09328063486676658
262,2107.28,0.09284699875597258
263,2117.01,0.09676492532674957
264,2126.78,0.0939133282349193
265,2136.6,0.08826124406482991
266,2146.46,0.09697675623213323
267,2156.37,0.09854582132117742
268,2166.3199999999997,0.09197735274761434
269,2176.3199999999997,0.09134197709579216
270,2186.36,0.09944697778136267
271,2187.7616199999998,0.09960613924850631
272,2196.4500000000003,0.10059808512039975
273,2206.59,0.0980890365198765
274,2216.7799999999997,0.08604922153572145
275,2227.01,0.090098897444661
276,2237.29,0.10607140696996878
277,2242.45,0.10131171217916997
278,2252.8,0.08769383076739326
279,2263.2,0.08534540297198479
280,2273.6400000000003,0.09001547606967089
281,2284.14,0.10625586550699888
282,2294.68,0.09325108583742144
283,2305.27,0.10321551978421223
284,2315.91,0.09226449734737126
285,2326.6,0.0743815585268985
286,2337.34,0.07737612332279398
287,2342.73,0.06620742116728902
288,2353.54,0.08805335502610001
289,2364.4100000000003,0.06843012522455288
290,2375.3199999999997,0.07608534631610034
291,2386.28,0.061772821024016024
292,2397.3,0.06883921207157358
293,2402.83,0.06729305804189965
294,2413.92,0.07195624815237274
295,2425.06,0.09526114187921404
296,2436.25,0.09486866922242358
297,2447.5,0.108187852905275
298,2453.14,0.11252158883161116
299,2464.46,0.09966804157737809
300,2475.84,0.0915898006627869
301,2487.27,0.07069852336456392
302,2493.0,0.07592878380036291
303,2504.5099999999998,0.10261707828832911
304,2510.2799999999997,0.06530624961722267
305,2511.88643,0.06418350952403976
306,2516.07,0.06125801615274593
307,2527.68,0.06170636248359177
308,2533.5099999999998,0.0794349680140682
309,2545.2000000000003,0.08131337591308523
310,2556.9500000000003,0.12907303748823065
311,2562.85,0.10166251564085689
312,2574.67,0.12478116983815214
313,2586.56,0.11335031665759719
314,2592.52,0.1048555884863518
315,2604.49,0.09438408687396806
316,2616.51,0.08813830999169131
317,2622.54,0.10965422444259573
318,2634.65,0.17613484807451157
319,2646.81,0.22797226643653445
320,2652.91,0.3212552235095887
321,2665.15,0.20149203343978273
322,2677.46,0.22770753599212662
323,2683.63,0.26510238568733063
324,2696.0099999999998,0.19353028086182428
325,2702.23,0.23974122528713535
326,2714.7,0.17584041097582162
327,2727.23,0.13755899034063626
328,2733.52,0.17394912738809712
329,2746.1400000000003,0.10863349726710438
330,2752.4700000000003,0.14023903009865082
331,2765.17,0.1790133915458293
332,2777.94,0.18926184561515758
333,2784.34,0.12230977106885382
334,2797.19,0.0689132567063533
335,2803.64,0.07910583689015654
336,2816.5800000000004,0.16856167304184863
337,2823.0699999999997,0.23804848900973746
338,2836.1,0.22228811567562215
339,2842.6400000000003,0.15855632637361802
340,2855.7599999999998,0.1004050435536953
341,2862.3500000000004,0.21944424898179815
342,2875.56,0.30931465667606806
343,2882.19,0.2815441578882565
344,2884.0315,0.291765950301857
345,2895.49,0.3553709390822165
346,2908.8599999999997,0.48733511024324744
347,2929.02,0.4208984667583098
348,2949.32,0.38505282297139337
349,2969.77,0.4025690788609283
350,2990.35,0.40847163447005447
351,3011.08,0.40503418975563193
352,3031.95,0.4413738447392307
353,3052.97,0.45933419939928083
354,3067.06,0.5132568690072783
355,3088.32,0.49851292314965057
356,3109.73,0.5956379769684742
357,3131.28,0.5449332304853192
358,3152.99,0.5516797836570454
359,3167.54,0.613611852272827
360,3189.5,0.5227253049053057
361,3211.6099999999997,0.5802292572142357
362,3226.4300000000003,0.48290782524762965
363,3248.7899999999995,0.7033275770173119
364,3271.31,0.8307923284418756
365,3286.42,0.8160788958497422
366,3309.19,0.7552710467350581
367,3311.31121,0.7499188184146016
368,3324.47,0.716716099578529
369,3332.1299999999997,0.730234983731007
370,3339.81,0.6347524670588178
371,3347.51,0.8273499495619616
372,3355.23,0.8050365312404382
373,3362.9700000000003,0.49204831209424754
374,3370.72,0.6442935925357234
375,3378.4900000000002,0.7659211721525321
376,3386.27,0.7401339513570071
377,3394.08,0.7251658293244815
378,3401.9100000000003,0.9026777064672886
379,3409.7499999999995,0.7545351831977622
380,3417.6099999999997,0.6380030591035687
381,3425.49,0.799676734184708
382,3433.3799999999997,0.9226238088535136
383,3441.2999999999997,0.7213987822853186
384,3449.23,0.67345465530479
385,3457.1800000000003,0.7969170274995941
386,3465.15,0.6847860988697313
387,3473.1400000000003,0.8543819694152012
388,3481.15,0.7392548391360039
389,3489.1699999999996,0.814537508444473
390,3497.22,0.7245219765159415
391,3505.28,0.9228882441750763
392,3513.3599999999997,0.7839557110095441
393,3521.46,0.9341172770193445
394,3529.57,0.6303413426168115
395,3537.71,0.8823832069772777
396,3545.87,0.8949234705130767
397,3554.04,0.9330493336365422
398,3562.23,0.8280317959353406
399,3570.4399999999996,0.6489374574094716
400,3578.6800000000003,0.7591243176466022
401,3586.92,0.5302693778837325
402,3595.1899999999996,0.8120111368838622
403,3603.48,1.0084864950593246
404,3611.7899999999995,0.66657215241012
405,3620.11,0.8728597093485819
406,3628.46,1.064272465050043
407,3636.82,0.7695070203391704
408,3645.21,1.009996774391297
409,3653.61,0.8880967280310902
410,3662.03,1.243257080846216
411,3670.4700000000003,1.1033227328366748
412,3678.94,1.145059383590133
413,3687.42,1.0185260339312576
414,3695.9199999999996,1.164375683447715
415,3704.44,1.1973523321395052
416,3712.98,0.8248708800066281
417,3721.54,0.867993327049084
418,3730.1099999999997,0.9719381736792063
419,3738.72,0.4930085186599943
420,3747.33,0.7013573636407823
421,3755.9700000000003,0.9058181073845695
422,3764.63,0.8653374503036896
423,3773.3100000000004,0.8796650923981425
424,3782.01,1.107712133667928
425,3790.7200000000003,0.8924427745253803
426,3799.46,0.7563716141458319
427,3800.75,1.2231283609548
428,3801.8939600000003,1.2003410273346082
429,3802.4799999999996,1.1886672946560306
430,3804.21,1.0783562381855492
431,3805.94,1.0017851817150676
432,3807.67,1.1151561252445863
433,3809.4,1.0636530687741048
434,3811.1299999999997,0.9553014123036232
435,3812.87,1.0846559555067228
436,3814.6000000000004,0.9978867990362413
437,3816.33,1.01893684256576
438,3818.06,0.9727874860952784
439,3819.79,0.6497087296247969
440,3821.52,0.6418822731543153
441,3823.2500000000005,0.8102914166838339
442,3824.98,0.8702596602133523
443,3826.71,0.7510149037428709
444,3828.44,0.7002717472723894
445,3830.17,0.8120397908019079
446,3831.8999999999996,0.5705960343314264
447,3833.63,0.646128477860945
448,3835.3599999999997,0.6956340213904635
449,3837.09,0.5556833649199819
450,3838.82,0.6265400084495004
451,3840.56,0.7463108516526
452,3842.29,0.9285557951821185
453,3844.0200000000004,0.992744038711637
454,3845.75,0.7782747822411556
455,3847.4799999999996,0.9927957257706741
456,3849.21,1.1486087693001925
457,3850.94,0.789529612829711
458,3852.67,0.8213249563592295
459,3854.4,0.7952078998887482
460,3856.1299999999997,0.7748127434182667
461,3857.86,0.7855037869477851
462,3859.59,0.8083770304773036
463,3861.3199999999997,0.6946717740068222
464,3863.05,0.8322902175363407
465,3864.7799999999997,1.0168412610658593
466,3866.51,1.0591822045953776
467,3868.2499999999995,0.9417086477984773
468,3869.98,0.7668523913279958
469,3871.71,0.7327383348575143
470,3873.44,0.7408543783870328
471,3875.17,0.8306883219165513
472,3876.8999999999996,0.7729078654460698
473,3878.63,0.7626721089755883
474,3880.36,0.8856239525051068
475,3882.09,0.9147885960346254
476,3883.82,0.9024429395641439
477,3885.5499999999997,0.8165676830936623
478,3887.28,0.8684345266231809
479,3889.0099999999998,0.8710239701526994
480,3890.74,1.0526054136822178
481,3892.4700000000003,1.0915003572117363
482,3894.2,1.125335300741255
483,3895.9300000000003,0.9854116442707734
484,3897.6699999999996,1.0309961874738731
485,3899.4,1.1129841310033914
486,3901.1299999999997,0.99317097453291
487,3902.86,0.9781635180624285
488,3904.59,0.9808226615919471
489,3906.3199999999997,1.2171479051214655
490,3908.05,1.231562848650984
491,3909.7799999999997,1.1645917921805027
492,3911.51,1.056651735710021
493,3913.2400000000002,1.0861816792395396
494,3914.97,1.1653096227690583
495,3916.7000000000003,1.2034695662985766
496,3918.43,1.0740055098280952
497,3920.16,1.0363134533576137
498,3921.89,0.9930159968871322
499,3923.62,0.9923538404166506
500,3925.36,0.8672819836197502
501,3927.0899999999997,0.6974142271492687
502,3928.82,0.6359384706787872
503,3930.5499999999997,0.4677213142083057
504,3932.28,0.5127361577378243
505,3934.01,0.42804750126734276
506,3935.74,0.4700274447968613
507,3937.4700000000003,0.4717476883263798
508,3939.2,0.4491353318558983
509,3940.9300000000003,0.6654659753854169
510,3942.66,0.6579649189149354
511,3944.39,0.7359819624444539
512,3946.1200000000003,0.8773554059739724
513,3947.85,0.8858321495034909
514,3949.58,1.1145504930330095
515,3951.31,1.158798436562528
516,3953.05,1.0337773797656276
517,3954.7799999999997,1.106797323295146
518,3956.5099999999998,1.1424692668246645
519,3958.2400000000002,1.126164210354183
520,3959.97,0.9736066538837015
521,3961.7000000000003,0.87797589741322
522,3963.43,0.6748164409427385
523,3965.16,0.6723300844722571
524,3966.8900000000003,0.7024416280017756
525,3968.62,0.569967271531294
526,3970.3500000000004,0.5640003150608125
527,3972.08,0.6614925585903312
528,3973.81,0.8031915021198496
529,3975.54,0.9860449456493681
530,3977.27,1.0033705891788867
531,3978.9999999999995,1.1365335327084052
532,3980.74,1.2759214759115047
533,3982.4700000000003,1.3084084194410233
534,3984.2,1.3370593629705416
535,3985.93,1.4628823065000602
536,3987.6600000000003,1.4954402500295787
537,3989.39,1.5097701935590973
538,3991.1200000000003,1.380437137088616
539,3992.85,1.3780890806181343
540,3994.58,1.4079180241476528
541,3996.31,1.4407439676771714
542,3998.04,1.4709579112066897
543,3999.7700000000004,1.4092228547362085
544,4001.5,1.5401187982657267
545,4003.23,1.6801397417952453
546,4004.96,1.574120685324764
547,4006.69,1.5894856288542822
548,4008.43,1.639626572057382
549,4010.16,1.5936445155869003
550,4011.8900000000003,1.519276459116419
551,4013.62,1.6483554026459373
552,4015.35,1.761667346175456
553,4017.08,1.6255612897049745
554,4018.81,1.627258233234493
555,4020.5400000000004,1.6301191767640115
556,4022.27,1.69733112029353
557,4024.0,1.7206410638230485
558,4025.73,1.644579007352567
559,4027.46,1.5827149508820855
560,4029.19,1.5847948944116041
561,4030.92,1.5505428379411224
562,4032.6499999999996,1.476426781470641
563,4034.38,1.5588777250001598
564,4036.11,1.660344668529678
565,4037.85,1.7010996117327777
566,4039.58,1.7462995552622962
567,4041.3100000000004,1.7192114987918148
568,4043.04,1.629465442321333
569,4044.7699999999995,1.5703363858508517
570,4046.5,1.5067713293803702
571,4048.23,1.6116242729098886
572,4049.96,1.6177492164394072
573,4051.69,1.6773981599689258
574,4053.4199999999996,1.6936831034984443
575,4055.15,1.636109047027963
576,4056.88,1.523577990557481
577,4058.61,1.5149849340869999
578,4060.34,1.5431138776165183
579,4062.0699999999997,1.5062568211460368
580,4063.8,1.4945377646755553
