,lambda (Angstroms),Total Flux (erg/s/cm^2/Angstrom)
0,102.05000000000001,0.006536215748016983
1,103.95,0.007645779205670051
2,104.712855,0.008091271987635743
3,105.88,0.007522567723510193
4,108.10000000000001,0.006440848526524154
5,110.11,0.0054614564721873335
6,113.98,0.003575759986516396
7,117.97999999999999,0.001626721246590579
8,120.22644299999999,0.0005321600051227394
9,121.01,0.0005145090755195992
10,124.97,0.00042526016064539494
11,127.0,0.000379510546203871
12,127.88000000000001,0.0003596820371740476
13,130.86,0.00029252855091850994
14,132.07,0.0002652813573775035
15,133.91,0.00022382623107878222
16,137.03,0.00015356776765486352
17,138.038426,0.00013085560844089246
18,139.9,0.0001294179058784441
19,143.16,0.0001273504535244655
20,146.83,0.000125573991439465
21,150.95000000000002,0.00012275435443505028
22,155.17,0.00011996473695965464
23,158.489319,0.00011788247548800598
24,159.14999999999998,0.00011718578551111196
25,162.10999999999999,0.00011414443638827182
26,165.89,0.00011043844750167192
27,170.14999999999998,0.00010620766621677365
28,172.91,0.00010367667942655785
29,176.94000000000003,9.998925962417748e-05
30,179.81,9.749707895101834e-05
31,181.89000000000001,9.571591389172526e-05
32,181.970086,9.56483237659946e-05
33,186.13000000000002,9.886483305247517e-05
34,190.91,0.00010302450106800951
35,194.01000000000002,0.0001058479312872891
36,198.07000000000002,0.00010959644596157142
37,202.22,0.00011372300480351022
38,205.03,0.00011683606826034107
39,208.929613,0.0001204939281099356
40,209.81,0.0001230780684073771
41,216.17999999999998,0.0001441099920233195
42,220.20000000000002,0.00015738496818283116
43,222.75,0.00016602185350789438
44,226.89000000000001,0.00018023053238858545
45,230.05,0.0002114250407129776
46,233.79,0.00027135516385640374
47,239.78,0.0003243225905219446
48,239.88329199999998,0.00032467294652171666
49,245.93,0.0003188160981786658
50,252.24,0.00032765747140479993
51,256.93,0.00030013813264577764
52,259.91,0.00032600784234686794
53,264.13,0.00033555369702425086
54,269.04,0.0003379910549545708
55,274.04,0.0003398659524396216
56,275.42287,0.0003403219040482246
57,279.14,0.0003566849136530943
58,283.67,0.00037916260793644657
59,290.28000000000003,0.00039545728502539987
60,295.68,0.0004270135980784025
61,301.18,0.0004458819891509052
62,308.19,0.0004814687783178586
63,316.227766,0.0005229880416048255
64,318.29,0.0005261278214249218
65,327.96,0.0005349400096292573
66,337.92,0.0005413592315025952
67,348.19000000000005,0.0005457562824703846
68,357.12,0.0005512958399331266
69,363.078055,0.0005552131490608824
70,366.29,0.0005661331049912118
71,374.82,0.0005932312943547275
72,385.32,0.000610169192164448
73,395.2,0.000652178896960642
74,405.34000000000003,0.0006831004439883152
75,413.83000000000004,0.0007053906499316033
76,416.86938299999997,0.0007124540880983786
77,421.52000000000004,0.0007210257472102434
78,430.34999999999997,0.0007361571736698898
79,441.39,0.0007607781348380092
80,450.63,0.0007752977686417614
81,460.07,0.0007900619499304434
82,469.7,0.0008064455663298086
83,478.630092,0.0008228610957199439
84,479.53000000000003,0.0008230152846938351
85,489.58000000000004,0.0008162627000526561
86,499.83,0.0008192168853688668
87,505.61,0.0008151778271374226
88,511.46999999999997,0.0008432138168889342
89,519.7800000000001,0.0008413738636184667
90,529.4399999999999,0.0008337704825603783
91,540.53,0.0008187586216976247
92,549.5408739999999,0.0008183938071469583
93,550.58,0.0008190145565705376
94,559.53,0.0008411525565896772
95,569.9300000000001,0.0008556080644331467
96,580.52,0.0008507236926122181
97,589.96,0.000867549376654752
98,599.54,0.0008563234704182558
99,610.6899999999999,0.0008143943374812063
100,620.61,0.000899271283424208
101,630.7,0.0009014536054569587
102,630.957344,0.000901954859977105
103,639.47,0.0009246876245497843
104,649.86,0.0009436949224908723
105,657.38,0.0009468135162846145
106,665.0,0.0009801828980277416
107,674.25,0.0010054227333458421
108,685.1999999999999,0.0009924232638034852
109,694.7399999999999,0.0010626208141748018
110,704.4,0.0010358994500853803
111,715.8499999999999,0.0011316303202899478
112,724.43596,0.0011566024779177972
113,725.8000000000001,0.0011603258454574899
114,734.21,0.0011900606554689228
115,744.42,0.0012209957617967146
116,754.7800000000001,0.0012552132761508698
117,765.28,0.0012259008379962972
118,774.14,0.0013342822720868199
119,784.9100000000001,0.0013528715683797012
120,795.83,0.001416156272698946
121,805.0400000000001,0.0014674653255176496
122,814.37,0.0015145637047574436
123,825.69,0.0015828428304803235
124,831.763771,0.0015011452362152838
125,835.26,0.001451493379277
126,844.93,0.001653050123379717
127,854.71,0.0016855952606418232
128,864.61,0.0017622046449869005
129,874.62,0.0018279054224913673
130,884.75,0.001900688447078805
131,894.99,0.001964620864825632
132,905.36,0.0019885303835790106
133,915.84,0.002358744295491779
134,924.31,0.00801419356876479
135,935.02,0.01558687312091992
136,945.84,0.027477525066234437
137,954.6,0.03735311710329129
138,954.992586,0.03757000554093646
139,965.65,0.04346242822007052
140,974.58,0.010429101869447092
141,985.8699999999999,0.0401962735605402
142,994.99,0.04122338175564819
143,1004.1999999999999,0.05607751263031317
144,1015.83,0.05380381666639934
145,1025.23,0.025232222086795732
146,1034.71,0.04141056100013167
147,1044.29,0.07236723177964204
148,1053.95,0.07187017605209194
149,1066.15,0.05966017372537236
150,1076.02,0.06959151091678858
151,1085.97,0.05777138160114433
152,1096.02,0.07336845415167452
153,1096.4782,0.07327825044284078
154,1106.16,0.07137056214778519
155,1113.83,0.07006707956508844
156,1124.14,0.06405656490699152
157,1134.54,0.07841699733723323
158,1145.04,0.07251714431007342
159,1155.6299999999999,0.07645435837125222
160,1166.32,0.07895268697502951
161,1174.41,0.057486307471246376
162,1185.28,0.07697392025170094
163,1196.24,0.05721655012049411
164,1204.54,0.044533367156167784
165,1215.68,0.029115591201638223
166,1224.1100000000001,0.055270315142689916
167,1235.43,0.07911709336483762
168,1244.0,0.08673640166552717
169,1255.51,0.08456776151861198
170,1258.92541,0.08095986183994013
171,1264.21,0.07537887773565723
172,1275.91,0.0935743695955529
173,1284.75,0.09775699966747407
174,1293.66,0.08188641100693307
175,1305.63,0.08113793775590326
176,1314.68,0.09775731163043797
177,1323.79,0.09465970659143363
178,1336.04,0.08653655841055517
179,1345.3000000000002,0.09934501608770337
180,1354.63,0.09708452503238942
181,1364.02,0.08916402506353645
182,1373.47,0.0927205861811445
183,1386.1799999999998,0.09400975632980037
184,1395.7900000000002,0.08188848034463776
185,1405.46,0.08418287544593615
186,1415.21,0.0893701219958492
187,1425.02,0.09061249963222327
188,1434.89,0.09124009835505834
189,1441.52,0.09531715840899921
190,1445.43977,0.09609744044868265
191,1448.17,0.09664092087987716
192,1454.8500000000001,0.09466252239979712
193,1464.94,0.08896140574350861
194,1475.09,0.08916690999907563
195,1485.32,0.0906142354704501
196,1495.61,0.09187370185368013
197,1505.98,0.08814578945271759
198,1512.93,0.08058405507598762
199,1516.42,0.08515686811558652
200,1523.42,0.08322059449873621
201,1533.98,0.07400897498531629
202,1544.61,0.07839053653572789
203,1555.32,0.07503691930194689
204,1566.1,0.0776712331319974
205,1573.33,0.08264994301059343
206,1584.23,0.08594700866435506
207,1595.22,0.08794599568590006
208,1606.27,0.08594733361930063
209,1613.69,0.08614296638543929
210,1624.87,0.08265171629452692
211,1636.14,0.0873418475713979
212,1643.6899999999998,0.08855538231322363
213,1655.08,0.08341511541380575
214,1659.58691,0.08591879009485018
215,1666.55,0.08978758670775036
216,1670.3999999999999,0.08151891400067378
217,1678.11,0.09145561969637236
218,1685.8500000000001,0.09423318872162621
219,1693.63,0.08937796218628705
220,1705.37,0.08674597515224053
221,1713.24,0.08361366860556711
222,1725.12,0.0832299871094451
223,1733.08,0.0883594205514374
224,1745.1,0.08674956459323988
225,1753.15,0.09146457802389794
226,1765.3,0.08517097649377316
227,1773.45,0.08715466102294869
228,1785.7500000000002,0.08877292614060014
229,1793.99,0.09381135065844144
230,1806.42,0.09316858020416563
231,1814.76,0.08776149582052441
232,1823.14,0.08918701587629019
233,1835.78,0.08656026872890112
234,1844.25,0.08042054877333263
235,1857.03,0.08154074716386804
236,1865.6000000000001,0.08420935830681706
237,1874.21,0.08898868388917307
238,1882.8700000000001,0.08343901502078782
239,1895.92,0.08135640337732046
240,1904.67,0.08518556449760095
241,1905.46072,0.08499438887213522
242,1913.4599999999998,0.08305833786980017
243,1926.72,0.08098287087927886
244,1935.6200000000001,0.08191565763526379
245,1944.55,0.08736401009941497
246,1953.53,0.08267130541050988
247,1967.07,0.08959733836287348
248,1976.15,0.09126026936785585
249,1985.27,0.08775979465039323
250,1994.43,0.08596196421048559
251,2003.6399999999999,0.08755632661752169
252,2012.8899999999999,0.08595932330211277
253,2026.84,0.08775443759941501
254,2036.2,0.0857569785472823
255,2045.59,0.08876640520331584
256,2055.04,0.08361263327568186
257,2064.52,0.08477223705621413
258,2074.05,0.09166725368369015
259,2078.83,0.09315458985151126
260,2083.62,0.09754120458872113
261,2093.2400000000002,0.09272556834069587
262,2102.9,0.09272450637022558
263,2112.61,0.09488099724669903
264,2127.25,0.09444343283182481
265,2137.07,0.08895843797157449
266,2146.94,0.09378917595826788
267,2156.85,0.09619378822251629
268,2166.8,0.09186516476431966
269,2176.8,0.09186397415306678
270,2186.85,0.09421781638875763
271,2187.7616199999998,0.09451624964472109
272,2196.95,0.09752657401237691
273,2207.0899999999997,0.09508959059664567
274,2217.27,0.08834162174337704
275,2227.51,0.0885472297338023
276,2232.64,0.09730681486963057
277,2242.95,0.09357390084436538
278,2253.3,0.0867349613815628
279,2263.7,0.08713719762183846
280,2274.15,0.09040470956519235
281,2284.65,0.09664247721162451
282,2295.19,0.08937141942051925
283,2305.79,0.09356910847310791
284,2316.43,0.08853051208815915
285,2327.12,0.07330423140628864
286,2332.4900000000002,0.07944376391689252
287,2343.25,0.07346015121933155
288,2354.07,0.0854903753654645
289,2364.94,0.07411954521467569
290,2375.85,0.07885900962634948
291,2386.82,0.06932167088171717
292,2392.32,0.07460923822032448
293,2403.36,0.07273803746000172
294,2414.46,0.07562648354337285
295,2425.6,0.08700550418920658
296,2436.8,0.08501532167873421
297,2442.4100000000003,0.09150221156411367
298,2453.69,0.0921228581785665
299,2465.0099999999998,0.08857881935548192
300,2476.39,0.08400525737609124
301,2487.82,0.07821464109977883
302,2493.56,0.07590639581316173
303,2505.0699999999997,0.0914352986617745
304,2510.8399999999997,0.07214762679700436
305,2511.88643,0.07190889444050991
306,2516.63,0.07082594675036284
307,2522.43,0.07001201071035655
308,2534.0699999999997,0.07639159686455083
309,2545.77,0.07690891037005536
310,2557.52,0.09200255166831847
311,2563.42,0.0839099912138293
312,2575.25,0.09219215898050612
313,2587.14,0.08884705409849322
314,2593.1,0.08543496099531435
315,2605.0699999999997,0.08064807258171515
316,2617.09,0.07789971196087452
317,2623.13,0.08678440532610933
318,2635.24,0.10430064073223412
319,2647.3999999999996,0.12306920393111749
320,2653.4999999999995,0.1429085346476626
321,2665.75,0.11247909387351136
322,2678.05,0.1216109508921187
323,2684.23,0.1293948780770775
324,2696.6200000000003,0.11063603112265027
325,2702.84,0.12241035654181594
326,2715.3100000000004,0.1046672060558024
327,2727.84,0.09767169292109915
328,2734.13,0.1085645752501268
329,2746.75,0.08217475814238898
330,2753.08,0.09218258870562349
331,2765.7900000000004,0.10411547762485107
332,2772.17,0.10976339598084416
333,2784.96,0.08799915136848543
334,2797.8199999999997,0.06231481366598873
335,2804.27,0.0678428589318438
336,2817.21,0.10428240769776079
337,2823.71,0.12621252075637443
338,2836.74,0.12162914554925683
339,2843.28,0.10642695684207731
340,2856.4,0.08591399766192515
341,2862.9900000000002,0.12470378674750421
342,2876.2,0.14215500359431746
343,2882.83,0.13450421091410336
344,2884.0315,0.1356418637305907
345,2896.14,0.14710744693486275
346,2909.51,0.17885863485595194
347,2929.6699999999996,0.1638389166427252
348,2949.98,0.15678579829398337
349,2970.43,0.16299737981876078
350,2991.02,0.16484016121705744
351,3011.7500000000005,0.1678572424888734
352,3032.63,0.17290592362517426
353,3046.63,0.1785347109771001
354,3067.75,0.18689179189657684
355,3089.0099999999998,0.18598297268957287
356,3110.42,0.20106275334705376
357,3131.9799999999996,0.19196403386901958
358,3146.4399999999996,0.19148632080536587
359,3168.2500000000005,0.20417150110147325
360,3190.21,0.18445498126206553
361,3212.32,0.1998706612871427
362,3227.1499999999996,0.17770044788921846
363,3249.52,0.22310382767940287
364,3272.05,0.24967570732503788
365,3287.1499999999996,0.24618899368318647
366,3309.93,0.237774673102963
367,3311.31121,0.23699307693458135
368,3325.21,0.2291278318205907
369,3332.8799999999997,0.24155809935834577
370,3340.5600000000004,0.21777616672339914
371,3348.26,0.25997243374304896
372,3355.98,0.24997270041729527
373,3363.7200000000003,0.1823427667461381
374,3371.47,0.20315433290227916
375,3379.2400000000002,0.25162069871301673
376,3387.0299999999997,0.24026796417835078
377,3394.84,0.23859752929828135
378,3402.67,0.2783412940728084
379,3410.5099999999998,0.23312155867463366
380,3418.37,0.22261572293105544
381,3426.25,0.2451723868420737
382,3434.15,0.2718936504076884
383,3442.0699999999997,0.22151541362789973
384,3449.9999999999995,0.23677847667540924
385,3457.96,0.2478980392048135
386,3465.93,0.22555220156151598
387,3473.9199999999996,0.264344463572815
388,3481.93,0.23396532523871044
389,3489.95,0.25650208673190417
390,3498.0,0.23392364770699262
391,3506.06,0.27605610850937934
392,3514.14,0.24096396896636255
393,3522.24,0.2709619290779422
394,3530.36,0.23007578884411842
395,3538.5,0.27466054826489106
396,3546.66,0.28233410734026027
397,3554.84,0.28165706607022595
398,3563.0299999999997,0.26464002462748987
399,3571.24,0.22472638283935026
400,3579.48,0.2418707405331054
401,3587.73,0.1956933980541588
402,3595.9999999999995,0.25495715522980866
403,3604.29,0.28341171206005505
404,3612.6000000000004,0.22459846854489793
405,3620.92,0.253709824857039
406,3621.93,0.27096000741416193
407,3624.6699999999996,0.25034836009388156
408,3627.42,0.2406015126008993
409,3630.16,0.26535726528061887
410,3632.9,0.26163681796033844
411,3635.64,0.27909927064005796
412,3638.3900000000003,0.27821012314707577
413,3641.13,0.2725659758267953
414,3643.8700000000003,0.28453182850651487
415,3646.61,0.29738558118623437
416,3649.3599999999997,0.3139372336932522
417,3652.1,0.31708758637297174
418,3654.8399999999997,0.31810273905269126
419,3657.5800000000004,0.2992457917324109
420,3660.33,0.2984834442394287
421,3663.07,0.2920782969191482
422,3665.81,0.29431954959886775
423,3668.5499999999997,0.3017402022785873
424,3671.3,0.27687775478560517
425,3674.04,0.2805143074653247
426,3676.78,0.2784639601450442
427,3679.52,0.28358031282476376
428,3682.2700000000004,0.28247986533178154
429,3685.01,0.2961369180115011
430,3687.75,0.30340957069122065
431,3690.4900000000002,0.30138052337094023
432,3693.24,0.29499477587795797
433,3695.98,0.30152752855767756
434,3698.72,0.2993715812373971
435,3701.4599999999996,0.2820579339171167
436,3704.21,0.29588258642413445
437,3706.95,0.308651739103854
438,3709.69,0.29605239178357357
439,3712.43,0.3067921444632931
440,3715.1800000000003,0.3432792969703109
441,3717.92,0.3970187496500305
442,3720.66,0.39429210232975004
443,3723.4,0.3314418550094696
444,3726.1499999999996,0.29715070751648737
445,3728.8900000000003,0.2643621601962069
446,3731.63,0.2760532128759265
447,3734.38,0.27463556538294426
448,3737.12,0.2636217180626638
449,3739.8599999999997,0.2429677707423834
450,3742.6,0.2604301234221029
451,3745.35,0.27727797592912073
452,3748.09,0.2930067286088403
453,3750.83,0.2944657812885598
454,3753.57,0.2880183339682794
455,3756.32,0.2967691864752972
456,3759.0600000000004,0.2927952391550167
457,3761.8,0.3005540918347363
458,3764.54,0.32907304451445585
459,3767.29,0.3419884970214736
460,3770.0299999999997,0.3606135497011932
461,3772.7699999999995,0.3707826023809127
462,3775.51,0.36835185506063234
463,3778.2599999999998,0.3549473075676501
464,3781.0,0.32365996024736965
465,3783.74,0.3112720129270892
466,3786.48,0.29708706560680875
467,3789.23,0.29848111811382655
468,3791.9700000000003,0.3045276707935461
469,3794.71,0.32685232347326565
470,3797.45,0.34571007615298516
471,3800.2000000000003,0.349957928660003
472,3801.8939600000003,0.34527916952034465
473,3802.94,0.3423899851038417
474,3805.6800000000003,0.3213768476433052
475,3808.42,0.3090100101827687
476,3811.1699999999996,0.3000452725855149
477,3813.91,0.2803638351249783
478,3816.6499999999996,0.27184459766444186
479,3819.39,0.25508046020390535
480,3822.14,0.2343618226066515
481,3824.88,0.228971285146115
482,3827.62,0.23596904768557847
483,3830.3599999999997,0.24897071022504197
484,3833.11,0.2817161726277882
485,3835.85,0.3066200351672516
486,3838.59,0.30733919770671514
487,3841.33,0.3265139602461786
488,3844.0800000000004,0.3218829226489248
489,3846.82,0.3181836851883883
490,3849.5600000000004,0.32583694772785177
491,3852.3,0.33042481026731524
492,3855.0499999999997,0.34602517267006144
493,3857.79,0.3425374352095249
494,3860.5299999999997,0.3416287977489884
495,3863.27,0.3417771602884519
496,3866.02,0.3242292226911981
497,3868.7599999999998,0.3232148852306616
498,3871.5,0.31450534777012507
499,3874.24,0.3013141103095885
500,3876.9900000000002,0.2961334727123347
501,3879.73,0.3103613352517982
502,3882.4700000000003,0.32067829779126167
503,3885.21,0.3343354603307252
504,3887.9599999999996,0.34716642273347137
505,3890.7000000000003,0.36978708527293486
506,3893.44,0.3688785478123983
507,3896.1800000000003,0.3863199103518618
508,3898.93,0.39395007275460797
509,3901.67,0.40052523529407147
510,3904.41,0.405979897833535
511,3907.1499999999996,0.3923025603729985
512,3909.9,0.3850075227757447
513,3912.64,0.34765278531520816
514,3915.38,0.3198957478546716
515,3918.12,0.2856484103941351
516,3920.8700000000003,0.23230997279688131
517,3923.61,0.21298783533634477
518,3926.35,0.21121649787580826
519,3929.1,0.25531036027855447
520,3931.8399999999997,0.29196812281801793
521,3934.58,0.32592008535748146
522,3937.32,0.3611617478969449
523,3940.07,0.3793833102996911
524,3942.81,0.3875862728391546
525,3945.5499999999997,0.37137203537861807
526,3948.29,0.35498859791808157
527,3951.04,0.31881586032082776
528,3953.78,0.27607032286029126
529,3956.52,0.2329440853997547
530,3959.26,0.21495374793921818
531,3962.01,0.22852511034196438
532,3964.75,0.28194727288142785
533,3967.4900000000002,0.33481983542089133
534,3970.23,0.38460619796035483
535,3972.98,0.41821796036310105
536,3975.72,0.4380693229025645
537,3978.4599999999996,0.44386228544202794
538,3981.2,0.4604581479814915
539,3983.95,0.46210531038423763
540,3986.69,0.46415657292370116
541,3989.43,0.47736983546316464
542,3992.17,0.4838182980026281
543,3994.92,0.4779816604053743
544,3997.6600000000003,0.4804134229448378
545,4000.4,0.49024428548430127
546,4003.14,0.5061425480237648
547,4005.89,0.514026010426511
548,4008.63,0.5127159729659744
549,4011.3700000000003,0.5013006355054379
550,4014.11,0.5149790980449014
551,4016.8599999999997,0.5089732604476476
552,4019.6,0.49495782298711105
553,4022.3399999999997,0.48728428552657455
554,4025.08,0.487115848066038
555,4027.83,0.5049987104687843
556,4030.57,0.5036252730082477
557,4033.31,0.4906878355477112
558,4036.0499999999997,0.49497999808717463
559,4038.8,0.4993541604899209
560,4041.54,0.49933362302938433
561,4044.28,0.49891138556884784
562,4047.02,0.47872284810831134
563,4049.77,0.4814693105110575
564,4052.5099999999998,0.487135473050521
565,4055.2500000000005,0.4928862355899845
566,4057.9900000000002,0.49531799812944793
567,4060.74,0.48893166053219417
568,4063.48,0.4967331230716576
569,4066.22,0.4854235856111211
570,4068.9599999999996,0.49295014815058463
571,4071.71,0.5100297105533307
572,4074.45,0.5324181730927943
573,4077.19,0.5307697356322577
574,4079.93,0.5226524981717213
