,lambda (Angstroms),Total Flux (erg/s/cm^2/Angstrom)
0,101.99,0.006478336407252923
1,103.89,0.007584001366265502
2,104.712855,0.008062844497350657
3,106.06,0.007408738331981811
4,108.03,0.006452204997506969
5,110.03999999999999,0.005476249771072101
6,113.91,0.0035971717535677656
7,117.91,0.0016549723570654375
8,120.22644299999999,0.0005302269599669485
9,120.94000000000001,0.000514196410655819
10,124.89999999999999,0.0004252287322032676
11,126.92999999999999,0.00037962157120605296
12,128.1,0.0003533357941811853
13,131.09,0.0002861609599627457
14,132.0,0.00026571841982495997
15,134.14000000000001,0.0002176404065669796
16,136.95000000000002,0.00015451374996051988
17,138.038426,0.00013006122416112212
18,140.14000000000001,0.0001283961990547311
19,143.07999999999998,0.00012611259507920933
20,147.08,0.00012304106488251305
21,150.86,0.00012007522956398507
22,155.07999999999998,0.00011676660954912052
23,158.489319,0.00011410135573226629
24,159.06,0.000113412291640148
25,162.02,0.0001098406465714633
26,166.17,0.00010484064687246284
27,170.04999999999998,0.00010017081190134916
28,172.81,9.685913349406205e-05
29,176.83,9.203211768997001e-05
30,180.12,8.808016706497927e-05
31,181.970086,8.586238394664519e-05
32,182.21,8.59614103146309e-05
33,186.02,8.754690082730104e-05
34,190.79,8.95414275675731e-05
35,193.89,9.084655993378764e-05
36,197.95,9.255224932760411e-05
37,202.1,9.430889751463327e-05
38,204.91,9.551140360271807e-05
39,208.929613,9.717608001959445e-05
40,210.17000000000002,0.00010015840316202975
41,216.04999999999998,0.00011445986950082562
42,220.07,0.0001242138567630637
43,223.13,0.00013161301827611057
44,226.76000000000002,0.00014046674579648978
45,229.91,0.00014903030194227327
46,234.19,0.00016124487169908393
47,239.88329199999998,0.00017644151505115052
48,240.19,0.00017592748376314555
49,245.79,0.00016501753691490736
50,252.08999999999997,0.00015359375483563946
51,256.78,0.00014349752298774003
52,259.75,0.0001390368919646565
53,263.98,0.00013151282432571942
54,268.88,0.0001223569407085111
55,273.88,0.0001129332029154413
56,275.42287,0.00011002796156371759
57,278.97,0.00011774305487026007
58,284.16,0.00012911500698788584
59,290.11,0.00014160824814393077
60,296.19,0.00015500465045128423
61,301.0,0.00016521965304970042
62,308.01,0.00018069834128564582
63,316.227766,0.00019880858731647141
64,318.09999999999997,0.00019613799577846894
65,327.77,0.0001821111642137334
66,337.72999999999996,0.00016747563538387143
67,347.98999999999995,0.00015229996110732686
68,356.91,0.0001393928531592977
69,363.078055,0.00013064095931206076
70,366.07,0.00013457169990274432
71,374.6,0.00014528378937888803
72,385.09000000000003,0.00015772499989527108
73,394.96999999999997,0.0001711157041185183
74,405.09999999999997,0.0001843612240356737
75,413.58,0.00019500084037303578
76,416.86938299999997,0.00019901542659213402
77,422.23999999999995,0.0002029967128597322
78,430.09,0.00020898585796737997
79,441.13,0.00021815241830985525
80,451.4,0.00022617672669909627
81,459.78999999999996,0.00023253468187784326
82,470.5,0.00024135800995464676
83,478.630092,0.00024857484345695065
84,480.36,0.0002472369969950969
85,490.42,0.00023863162431420922
86,499.53,0.00023263806351670558
87,506.47999999999996,0.00024955979184352776
88,512.35,0.0004395047447325127
89,519.47,0.000453088067248624
90,530.35,0.00046814923536313117
91,540.21,0.00045148537834190333
92,549.5408739999999,0.000605586759168039
93,550.26,0.0006179203711057458
94,560.48,0.0007319698306817652
95,569.59,0.0008337406344721307
96,580.18,0.0008027027126433679
97,589.61,0.0010108053703539218
98,600.5699999999999,0.001067362667120377
99,610.3299999999999,0.0012965500116861254
100,620.25,0.001483832483211968
101,630.32,0.001642033948762899
102,630.957344,0.0016433647391010065
103,640.57,0.0016703585555491853
104,649.48,0.001955200146370599
105,658.5100000000001,0.0021296683478428066
106,664.61,0.002274374222591474
107,675.4,0.0023184340469419853
108,684.8,0.0023273152145874723
109,694.3299999999999,0.003083369127104653
110,705.61,0.0029757205282792375
111,715.42,0.0036278441989816023
112,724.43596,0.003802002206947425
113,725.3800000000001,0.003820069657147969
114,735.47,0.004012095070250853
115,745.6999999999999,0.004614050414754571
116,754.33,0.004988642400391627
117,764.8299999999999,0.005359118255454092
118,775.47,0.005900981041917392
119,784.45,0.00644076535605653
120,795.3599999999999,0.006753142653078578
121,804.57,0.007112557068804799
122,815.76,0.007424571228628513
123,825.2099999999999,0.008235299098184733
124,831.763771,0.007234948231957966
125,834.76,0.006775370238366455
126,844.4300000000001,0.008766103463243411
127,854.2099999999999,0.009103487280130341
128,864.1,0.00986906668902725
129,874.11,0.010677269561935038
130,884.23,0.011712590026852803
131,894.47,0.012447438955781452
132,904.82,0.012499231476720074
133,915.3,0.01998442733367049
134,925.9000000000001,0.14785080165463177
135,934.47,0.33233210695940896
136,945.29,0.6463920584643903
137,954.03,0.9277894765931829
138,954.992586,0.9382801337480924
139,965.0799999999999,1.0482212653687668
140,974.01,0.1594948415696944
141,985.2900000000001,0.886052027297182
142,994.41,0.9494155880981294
143,1005.92,1.4107029551835357
144,1015.23,1.362790200584503
145,1024.62,0.5774122395012677
146,1034.1,0.9450356711233052
147,1046.0800000000002,1.8553007001140236
148,1055.76,1.8214549155255553
149,1065.53,1.43028212364236
150,1075.3799999999999,1.723567325274962
151,1085.3400000000001,1.350294517991786
152,1095.3799999999999,1.821481704224408
153,1096.4782,1.8125949764760947
154,1105.51,1.739507324027862
155,1115.74,1.6650637288841392
156,1126.07,1.490816108372443
157,1133.8700000000001,1.924947129670484
158,1144.36,1.7434964685700298
159,1154.95,1.8638947821016012
160,1165.64,1.929354070265199
161,1173.72,1.3165340205329137
162,1184.58,1.8854572655709558
163,1195.54,1.2895184852410242
164,1203.83,0.908705382235994
165,1214.97,0.6059566562437095
166,1226.21,1.2776727048834513
167,1234.71,1.9652125486056757
168,1246.13,2.1548236515830648
169,1254.77,2.048390459790126
170,1258.92541,1.9450274294986558
171,1266.38,1.7596015401579785
172,1275.1599999999999,2.266765698584949
173,1283.9999999999998,2.3626698580945638
174,1295.88,1.8340360724581635
175,1304.86,1.8382672344939484
176,1313.9,2.3089423976123777
177,1326.06,2.189822617028318
178,1335.25,1.933829782853359
179,1344.5099999999998,2.3089029499414844
180,1353.83,2.2356531181122548
181,1366.3600000000001,1.9879663442045028
182,1375.8300000000002,2.086425515081884
183,1385.36,2.1106086870419096
184,1394.97,1.8130568604454615
185,1404.64,1.8941490349316576
186,1414.3700000000001,1.9472052105004982
187,1424.1799999999998,1.9971143875128647
188,1434.05,1.9971345656078756
189,1440.67,2.1009206850596462
190,1445.43977,2.1183616323768564
191,1447.32,2.12523679960032
192,1454.0,2.062556900763617
193,1464.0800000000002,1.9029030534172149
194,1474.23,1.9028932071309073
195,1484.4399999999998,1.929346361753252
196,1494.73,1.9562035175871333
197,1505.0900000000001,1.834057674481109
198,1512.04,1.6271177797333418
199,1515.53,1.7434728325866211
200,1526.03,1.703789991600786
201,1536.61,1.4771211518264868
202,1543.7,1.6048002591989083
203,1554.3999999999999,1.5220244212419143
204,1565.1799999999998,1.5646355844964566
205,1576.03,1.6611557488110933
206,1583.3,1.735473858909472
207,1594.28,1.7636450251928555
208,1605.3300000000002,1.7394541925363336
209,1616.46,1.7515183610913478
210,1623.92,1.6650234740671257
211,1635.1699999999998,1.771789644439445
212,1646.51,1.7881638161747426
213,1654.1100000000001,1.6727099312707094
214,1659.58691,1.7378073430108458
215,1665.5700000000002,1.8089216759158098
216,1673.26,1.653549526393683
217,1677.12,1.8047159532915493
218,1684.86,1.8724838092991876
219,1696.54,1.7636531010523164
220,1704.3700000000001,1.692081967013532
221,1716.1799999999998,1.5864212731440501
222,1724.1100000000001,1.5791301501647959
223,1736.0600000000002,1.6765394717786564
224,1744.0700000000002,1.6346153576470261
225,1756.1599999999999,1.731493694744229
226,1764.27,1.6084935916721292
227,1776.49,1.623397943146721
228,1784.6999999999998,1.6611688511341516
229,1797.0700000000002,1.7515392191980386
230,1805.3600000000001,1.7515441360330934
231,1813.69,1.5937470572919599
232,1826.2700000000002,1.6459494485808606
233,1834.7,1.5791323808992577
234,1843.16,1.4535213165355134
235,1855.94,1.4368847299434746
236,1864.51,1.4771366777452137
237,1873.1100000000001,1.619666628864812
238,1886.1,1.4669690654977865
239,1894.8000000000002,1.388126027676915
240,1903.55,1.5011369953858085
241,1905.46072,1.4899269733499239
242,1916.74,1.4237495987443813
243,1925.5900000000001,1.3913343371009932
244,1934.48,1.4636060697552622
245,1943.41,1.5011287967071882
246,1956.88,1.388111876443184
247,1965.9099999999999,1.5255365891392525
248,1974.99,1.575520294707392
249,1984.1000000000001,1.4771359959987747
250,1993.26,1.4368706901622283
251,2007.08,1.494245720002723
252,2016.3400000000001,1.440207399910319
253,2025.6499999999999,1.5220340726899866
254,2034.9999999999998,1.4139287397673113
255,2044.39,1.4602084011422927
256,2053.83,1.4009480553893454
257,2063.31,1.4139187039340553
258,2072.83,1.5011273467764221
259,2077.61,1.394520665346434
260,2087.2,1.4568652982097006
261,2096.83,1.3753709253706239
262,2106.51,1.4041615454036187
263,2116.23,1.4139181597342705
264,2126.0,1.4335577669369934
265,2135.82,1.3564823670117878
266,2145.6800000000003,1.359608961384239
267,2155.58,1.4139115500543473
268,2165.5299999999997,1.3816961315965268
269,2175.52,1.3690547074363635
270,2185.57,1.3286632747226856
271,2187.7616199999998,1.3408942891456024
272,2195.65,1.384919858888716
273,2205.79,1.3533840114100932
274,2215.97,1.3044251684779056
275,2226.2000000000003,1.2572443312287627
276,2236.48,1.3164974996626635
277,2246.7999999999997,1.274736672643
278,2257.17,1.2314598513063808
279,2267.5899999999997,1.2601400356528059
280,2272.81,1.2806416289626272
281,2283.3,1.298461821265314
282,2293.84,1.2344010192510455
283,2304.4300000000003,1.229324222919821
284,2315.0699999999997,1.1799454322716407
285,2325.76,0.9508029473065048
286,2336.49,1.1202018668878042
287,2347.27,1.105362092152148
288,2352.69,1.1497677081941464
289,2363.55,1.093474942551361
290,2374.46,1.1066981825916198
291,2385.41,1.059858427178314
292,2396.43,1.11287967972127
293,2407.49,1.0657879368106618
294,2413.04,1.0833995676285753
295,2424.17,1.1117108326742289
296,2435.36,1.0671391045395358
297,2446.6099999999997,1.1154103832244955
298,2452.25,1.0953210242718885
299,2463.56,1.0908503097765014
300,2474.94,1.0592036032373766
301,2486.36,1.0944769012446869
302,2497.84,1.0243142060716504
303,2503.6000000000004,1.1054538607583497
304,2511.88643,1.0529052050446106
305,2515.15,1.0322086590376747
306,2526.76,1.0279791483166179
307,2532.58,1.0306228922962433
308,2544.2799999999997,1.0053593776161087
309,2556.02,1.0460708611763836
310,2567.82,1.0346023420972736
311,2573.74,1.0737270816779234
312,2585.6200000000003,1.064453559079633
313,2597.55,1.0601020342818546
314,2603.54,1.0291107707832217
315,2615.56,1.0226032420263653
316,2627.63,1.037366711070021
317,2633.69,1.0424494444921053
318,2645.8399999999997,1.0821519100165808
319,2658.06,1.0777503724617734
320,2664.18,1.0248041032444724
321,2676.48,1.0516385621704845
322,2682.6499999999996,1.0422912907536956
323,2695.0299999999997,1.0144307461605275
324,2707.4700000000003,1.022034198927974
325,2713.7099999999996,0.9967364244319024
326,2726.24,0.997304173240271
327,2732.52,1.025529096984609
328,2745.14,0.9488221418338996
329,2757.81,0.9515449844837025
330,2764.17,0.96504670470886
331,2776.92,0.9926671438394825
332,2783.33,0.9815556618651523
333,2796.17,0.8713022970366969
334,2802.62,0.9147371133027765
335,2815.55,0.9852237445152431
336,2822.04,0.9832296590217325
337,2835.07,0.9438576858352236
338,2848.1600000000003,0.9336061100093294
339,2854.7200000000003,0.933855021436536
340,2867.9,0.9583766416515637
341,2874.51,0.9433269508792825
342,2884.0315,0.9452798386962402
343,2887.7799999999997,0.9460488286562039
344,2894.4399999999996,0.9354732226604705
345,2907.7999999999997,0.9600418106329935
346,2927.9500000000003,0.9390172924927495
347,2948.25,0.9248186742174664
348,2968.6800000000003,0.9235248558251495
349,2989.26,0.9158735372977935
350,3009.98,0.914613618644401
351,3030.85,0.9091234998559697
352,3051.86,0.8995196809415018
353,3073.0099999999998,0.8900491619009976
354,3087.19,0.8824455491353072
355,3108.59,0.8711384298697378
356,3130.1400000000003,0.8619868104691293
357,3151.84,0.8568611909334819
358,3166.39,0.8456318778346952
359,3188.34,0.8233480580739827
360,3210.44,0.8279422381782312
361,3232.6899999999996,0.8155001181474406
362,3247.61,0.8141583047155576
363,3270.1200000000003,0.8130578844506994
364,3292.79,0.8045600640417995
365,3307.9900000000002,0.7995119503578436
366,3311.31121,0.8028644337266325
367,3323.26,0.8149255417350927
368,3330.92,0.8040280099102611
369,3338.6,0.7895918777412394
370,3346.29,0.7898785454001225
371,3354.01,0.7721434125427205
372,3361.74,0.7831217795132234
373,3369.49,0.762056146139536
374,3377.26,0.7553022124216585
375,3385.0400000000004,0.782105978531686
376,3392.85,0.7841773441254282
377,3400.67,0.8008540095470752
378,3408.5,0.7633166747966273
379,3416.36,0.7742180395298942
380,3424.2400000000002,0.7834475039189708
381,3432.13,0.7873128681359522
382,3440.04,0.7785701320087437
383,3447.9700000000003,0.757621795537345
384,3455.92,0.745747458721756
385,3463.89,0.735780321561977
386,3471.8700000000003,0.7411094842301028
387,3479.88,0.7379749463819434
388,3487.9,0.7416366083616889
389,3495.94,0.7487552699972442
390,3504.0,0.7336228312886094
391,3512.0800000000004,0.7305329922357845
392,3520.17,0.7358215530108644
393,3528.29,0.736103113269659
394,3536.42,0.7448890733563587
395,3544.57,0.7434261330988682
396,3552.75,0.7488321923250925
397,3560.93,0.7473733515513167
398,3569.14,0.7255707102612557
399,3577.3700000000003,0.6995830686270045
400,3585.62,0.6918120266485631
401,3593.8799999999997,0.6952737844980267
402,3602.17,0.711701741831205
403,3610.4700000000003,0.7086928989922883
404,3618.79,0.7138588558091814
405,3627.14,0.7409017121097893
406,3635.5,0.725976368238302
407,3643.88,0.7312643240226246
408,3652.2799999999997,0.7181651794627572
409,3660.7000000000003,0.7300823345586994
410,3669.1400000000003,0.7219894893104516
411,3677.59,0.7156494438901086
412,3678.15,0.6859146342527841
413,3680.89,0.6640340870987321
414,3683.63,0.67456813994468
415,3686.37,0.699499392790628
416,3689.1099999999997,0.683028145636576
417,3691.85,0.683313098482524
418,3694.5899999999997,0.7042181513284719
419,3697.33,0.7053166041744199
420,3700.08,0.6870112568482728
421,3702.82,0.6637480096942208
422,3705.56,0.6818060625401687
423,3708.2999999999997,0.6971799153861167
424,3711.04,0.6977088682320646
425,3713.7799999999997,0.7680288210780126
426,3716.52,0.9802894739239606
427,3719.2599999999998,1.5702190267699085
428,3721.9999999999995,2.7922119796158564
429,3724.7400000000002,4.084648932461805
430,3727.48,4.312406885307753
431,3730.23,3.261946837981605
432,3732.97,1.9451967908275534
433,3735.71,1.1212927436735012
434,3738.45,0.8452612965194491
435,3741.1899999999996,0.7890548493653972
436,3743.93,0.7637986022113452
437,3746.6699999999996,0.7203626550572932
438,3749.4100000000003,0.7157672079032411
439,3752.15,0.7292701607491892
440,3754.8900000000003,0.7821018135951371
441,3757.63,0.827002666441085
442,3760.3799999999997,0.8333839191149379
443,3763.12,0.8163838719608859
444,3765.8599999999997,0.755662924806834
445,3768.6,0.7042962776527818
446,3771.34,0.7400867304987298
447,3774.0800000000004,0.8038993833446778
448,3776.82,0.8398933361906257
449,3779.56,0.8904880890365737
450,3782.3,0.8930100418825216
451,3785.04,0.8770268947284696
452,3787.78,0.8725534475744176
453,3790.5299999999997,0.8302518002482705
454,3793.2700000000004,0.7797799530942184
455,3796.01,0.7520022059401664
456,3798.75,0.7249565587861144
457,3801.4900000000002,0.7766899116320624
458,3801.8939600000003,0.7875968836523758
459,3804.23,0.8506702728545964
460,3806.9700000000003,0.8842646355256527
461,3809.71,0.9129379981967088
462,3812.45,0.9319315608677651
463,3815.19,0.9368531235388213
464,3817.94,0.8971541860736405
465,3820.6800000000003,0.8659602487446967
466,3823.42,0.8620969114157531
467,3826.1600000000003,0.8459510740868091
468,3828.9,0.7759572367578654
469,3831.64,0.7403300994289217
470,3834.38,0.7369140620999779
471,3837.12,0.7559481247710341
472,3839.86,0.7940975874420904
473,3842.6,0.8221608501131465
474,3845.3399999999997,0.8763753127842029
475,3848.09,0.890239775319022
476,3850.83,0.9296906379900783
477,3853.57,0.9435189006611345
478,3856.31,0.9653190633321908
479,3859.05,0.968735726003247
480,3861.79,1.0188427886743032
481,3864.5299999999997,1.1083187513453594
482,3867.27,1.1548457140164157
483,3870.0099999999998,1.086804676687472
484,3872.75,0.9883818393585282
485,3875.49,0.9236750020295843
486,3878.2400000000002,0.8947538645644035
487,3880.98,0.8639667272354598
488,3883.72,0.8547754899065161
489,3886.46,0.9085424525775723
490,3889.2,0.8825543152486284
491,3891.94,0.8286660779196847
492,3894.68,0.8549803405907409
493,3897.4199999999996,0.8598205032617972
494,3900.16,0.8764552659328533
495,3902.9,0.8965469286039096
496,3905.6400000000003,0.9132630912749657
497,3908.39,0.925744553809785
498,3911.13,0.9408745164808412
499,3913.87,0.9571837791518976
500,3916.6099999999997,0.9104536418229536
501,3919.35,0.9015063044940099
502,3922.0899999999997,0.9086648671650661
503,3924.8300000000004,0.8756406298361225
504,3927.57,0.8423723925071787
505,3930.3100000000004,0.8374922551782349
506,3933.05,0.8562825178492911
507,3935.79,0.8722664805203474
508,3938.54,0.8986576430551665
509,3941.2799999999997,0.9072395057262228
510,3944.0199999999995,0.906223068397279
511,3946.76,0.8954457310683352
512,3949.5000000000005,0.8979270937393914
513,3952.2400000000002,0.9137890564104477
514,3954.98,0.8831237190815039
515,3957.7200000000003,0.8469678817525602
516,3960.46,0.8102832444236163
517,3963.2000000000003,0.8230542070946726
518,3965.94,0.8395261697657288
519,3968.69,0.8810062323005481
520,3971.4300000000003,0.7964524949716042
521,3974.17,0.7928330576426604
522,3976.9100000000003,0.7802255203137167
523,3979.65,0.8332197829847728
524,3982.39,0.8665294456558291
525,3985.13,0.8779989083268853
526,3987.87,0.9036217709979416
527,3990.61,0.8927630336689978
528,3993.35,0.9375012963400541
529,3996.1000000000004,0.9361954588748732
530,3998.84,0.9237913215459296
531,4001.58,0.9154949842169857
532,4004.32,0.902968746888042
533,4007.06,0.9146823095590981
534,4009.8,0.9225727722301544
535,4012.54,0.9136257349012107
536,4015.2799999999997,0.9325785975722669
537,4018.02,0.9050041602433231
538,4020.7599999999998,0.9169618229143793
539,4023.5,0.9138712855854355
540,4026.25,0.9377407481202549
541,4028.9900000000002,0.903659110791311
542,4031.73,0.9006091734623672
543,4034.47,0.9189926361334234
544,4037.21,0.9022367988044797
545,4039.95,0.9217996614755359
546,4042.69,0.9203360241465922
547,4045.43,0.9237119868176484
548,4048.1699999999996,0.9131787494887047
549,4050.91,0.9091120121597608
550,4053.6499999999996,0.9038659748308171
551,4056.4,0.9355849373656363
552,4059.14,0.9021540000366924
553,4061.88,0.9368464627077487
554,4064.62,0.9363993253788049
555,4067.3599999999997,0.9507970880498612
556,4070.1,0.9144379507209174
557,4072.8399999999997,0.8877177133919737
558,4075.58,0.9148453760630298
559,4078.3199999999997,0.9049221387340861
560,4081.0600000000004,0.8917859014051422
561,4083.8,0.8928843640761985
562,4086.5499999999997,0.8559108266110177
563,4089.29,0.850379989282074
564,4092.0299999999997,0.8191452519531301
565,4094.77,0.8384235146241865
566,4097.51,0.9104516772952427
567,4100.25,0.9757283399662989
568,4102.990000000001,0.9538071026373551
569,4105.7300000000005,0.8513174653084115
570,4108.47,0.7913283279794676
571,4111.21,0.8280544906505238
572,4113.95,0.82459775332158
573,4116.7,0.8535922158563993
574,4119.44,0.8662004785274555
575,4122.179999999999,0.8484684411985117
576,4124.92,0.8417989038695679
