,lambda (Angstroms),Total Flux (erg/s/cm^2/Angstrom)
0,100.07000000000001,0.0004573707023907444
1,101.93,0.0005497136998559426
2,104.06,0.0006554612937773338
3,104.712855,0.000687873510058925
4,106.0,0.0006345551616556514
5,107.97,0.0005529507150091583
6,109.98,0.00046969024667248727
7,114.1,0.00029902679886420236
8,118.11,0.00013292161235465503
9,120.22644299999999,4.5284697740467084e-05
10,120.86,4.408073894248938e-05
11,125.11,3.5960979225975874e-05
12,127.15,3.2064497134049384e-05
13,128.03,3.0387403587336e-05
14,131.01,2.4700115301874782e-05
15,131.92000000000002,2.298565452175067e-05
16,134.06,1.8905546171788598e-05
17,136.87,1.3591329108987903e-05
18,138.038426,1.1370046080937807e-05
19,140.06,1.1264868350615194e-05
20,142.98999999999998,1.1718672269860137e-05
21,146.99,1.3294987726167226e-05
22,151.10999999999999,1.3530011736163532e-05
23,154.99,1.3902128638781407e-05
24,158.489319,1.4322674784652508e-05
25,158.96,1.4362147285706417e-05
26,161.92000000000002,1.4664188943579868e-05
27,166.07,1.523387599093623e-05
28,169.94,1.583395247606132e-05
29,173.1,1.6359997678385683e-05
30,177.13,1.7151610199071497e-05
31,180.01,1.7827574839164588e-05
32,181.970086,1.8294220052962063e-05
33,182.1,1.8343010198547055e-05
34,185.91,1.9965855216652117e-05
35,191.12,2.2202989821462446e-05
36,194.21999999999997,2.3756050334881263e-05
37,197.82999999999998,2.5754711126314137e-05
38,201.98000000000002,2.8037216329761907e-05
39,204.79000000000002,2.9818860214506063e-05
40,208.929613,3.1399627382583034e-05
41,210.04,3.2012178823792774e-05
42,215.92,3.818161779353651e-05
43,219.94,4.197256678305519e-05
44,223.0,4.446624287955448e-05
45,227.14000000000001,4.870382348070059e-05
46,229.77,7.104857630220161e-05
47,234.04999999999998,0.0001177920837835797
48,239.88329199999998,0.00015010091930489102
49,240.04999999999998,0.00015096246508588968
50,246.21,0.00015086603277868552
51,251.94,0.00016705259980461412
52,257.21999999999997,0.0001490252149698677
53,260.2,0.0001725750428472267
54,263.82,0.00018592080892643466
55,268.72,0.00019211035140934043
56,273.72,0.0001981242498612851
57,275.42287,0.00020022163033342304
58,278.8,0.00020555033631247432
59,283.99,0.00021385403109888004
60,289.93,0.0002135124002763848
61,296.01,0.00022657939667356138
62,300.82,0.00023243546043514354
63,307.82,0.000245095621418735
64,316.227766,0.00026130006754892485
65,317.91,0.0002640212693616326
66,328.32,0.00027557297274192767
67,338.3,0.0002840592807856688
68,347.78000000000003,0.0002923597593683006
69,356.7,0.0002990464649544901
70,363.078055,0.00030528433458432375
71,365.85,0.00030864159213270454
72,375.23,0.0003158645732967314
73,384.86,0.00031474010299924513
74,394.73,0.00033149105929870625
75,404.86,0.00034068928607819366
76,414.29,0.0003454290769499179
77,416.86938299999997,0.00034620791494217943
78,421.99,0.0003475447470447473
79,429.83,0.0003503380590945791
80,440.86,0.00035643476699121754
81,451.13,0.00035785087525037223
82,459.52,0.0003599349107220673
83,470.22,0.0003621697845655878
84,478.630092,0.000366097180159907
85,480.06,0.0003665622966015745
86,490.12,0.000362552237469767
87,500.38,0.0003673294996275855
88,506.17,0.00036445982096226093
89,512.04,0.00038204221081278674
90,520.35,0.00038306824039675087
91,530.03,0.0003814398308146538
92,539.88,0.00037313375432873884
93,549.5408739999999,0.0003771663501078981
94,549.92,0.0003773451620371409
95,560.14,0.0003916220426689468
96,570.5600000000001,0.00040374329004501516
97,579.83,0.000400802328641575
98,590.61,0.00041417205615731554
99,600.21,0.0004074862598819083
100,609.96,0.00038424993866469775
101,619.87,0.0004441433308428971
102,629.9399999999999,0.0004488963364165063
103,630.957344,0.0004506050031498806
104,640.1800000000001,0.00046666140478116773
105,650.58,0.00047978981886394247
106,658.1099999999999,0.00048112670636810535
107,665.7299999999999,0.0005092039682249075
108,674.99,0.0005281645738409166
109,684.38,0.0005133040646329605
110,695.5,0.0005812463735368503
111,705.18,0.00054981369279851
112,716.6400000000001,0.0006410661937012598
113,724.43596,0.0006632540649047818
114,726.61,0.0006694084901095958
115,735.02,0.0006957747608472567
116,745.2499999999999,0.000729661455097705
117,755.61,0.0007635692581704955
118,764.36,0.0007450779519819736
119,775.0,0.0008476401740567314
120,785.78,0.0008555529056324726
121,794.88,0.0009283004231964101
122,804.0799999999999,0.0009847752475467644
123,815.27,0.001033017306946815
124,824.71,0.0011059167475845697
125,831.763771,0.0009925719896900491
126,834.26,0.0009523015944839692
127,845.8599999999999,0.0011887756074948643
128,855.6600000000001,0.0012267248684868274
129,865.56,0.0013219517545909531
130,875.59,0.0014021259533408908
131,885.73,0.0014906893397142076
132,895.98,0.0015669789137109037
133,904.27,0.001595476235509207
134,914.74,0.0019370331847526614
135,925.34,0.008163577446641927
136,936.05,0.016692741896154575
137,944.71,0.030296503030867877
138,954.992586,0.04194587535155793
139,955.65,0.042690698633315295
140,964.4899999999999,0.04713299750564958
141,975.66,0.009010739266280123
142,984.69,0.037961467824784496
143,996.09,0.041527428994989346
144,1005.31,0.06270375523966379
145,1014.6099999999999,0.06213054093114669
146,1024.0,0.02946983600028911
147,1035.86,0.04429187398964258
148,1045.44,0.08477595774495508
149,1055.11,0.08342150087792707
150,1064.8799999999999,0.06505381331940967
151,1074.73,0.07857453520770069
152,1084.6699999999998,0.06184393647365123
153,1094.71,0.08400047704811235
154,1096.4782,0.08350273659454271
155,1104.84,0.0811488038520489
156,1115.06,0.07785296266705456
157,1125.3799999999999,0.0695457293178235
158,1135.79,0.09083658402077936
159,1146.3,0.08303445655949848
160,1154.25,0.08897295450267804
161,1164.93,0.09146354336219474
162,1175.71,0.061560550057474676
163,1183.8600000000001,0.08958915367218075
164,1194.81,0.06198120668825825
165,1205.87,0.04521596732367534
166,1214.23,0.033909376393484285
167,1225.46,0.06430619334969892
168,1233.96,0.09643651938957642
169,1245.37,0.10574498245016495
170,1254.0100000000002,0.10098309546011103
171,1258.92541,0.09537560799882984
172,1265.6100000000001,0.08774999936930977
173,1274.3799999999999,0.11408931286991313
174,1286.17,0.12001643101952696
175,1295.0900000000001,0.09381157475104143
176,1304.07,0.09337756857492033
177,1316.13,0.11864337714017419
178,1325.26,0.11356239119496422
179,1334.44,0.10028880532672461
180,1343.6899999999998,0.12085221956624354
181,1356.1200000000001,0.11728753870107815
182,1365.52,0.10477525317150818
183,1374.99,0.11021916774969674
184,1384.52,0.11149558242024975
185,1394.1200000000001,0.09424510719856129
186,1403.78,0.09733432206923726
187,1413.51,0.10380972704767176
188,1426.5900000000001,0.1067212471831212
189,1436.48,0.10721626240786089
190,1443.11,0.1133017726141323
191,1445.43977,0.11459084563753451
192,1446.44,0.11514427749290362
193,1456.46,0.11175109043883254
194,1466.5600000000002,0.10309630348812215
195,1473.33,0.10381031223502223
196,1483.5400000000002,0.10647822542643282
197,1493.82,0.10845643870828403
198,1504.18,0.10238825209349596
199,1511.12,0.09104698106003753
200,1518.1,0.09777945007825947
201,1525.1000000000001,0.09511921912232157
202,1535.68,0.08189620279177545
203,1546.32,0.08795269653874986
204,1553.46,0.0841925057636932
205,1564.23,0.08754884967862878
206,1575.0700000000002,0.09402538368400497
207,1585.99,0.09914075779274185
208,1593.31,0.1009838672502468
209,1604.35,0.09959861151402476
210,1615.47,0.09983081588116342
211,1626.67,0.0951188403516628
212,1634.18,0.10191832005464944
213,1645.51,0.10357153469310997
214,1653.1000000000001,0.0966628444994573
215,1659.58691,0.10138952343671076
216,1664.56,0.10501319980319321
217,1672.24,0.09359259226628877
218,1676.1000000000001,0.10672140868654253
219,1683.8400000000001,0.11098158171575603
220,1695.51,0.1045300918256942
221,1703.3300000000002,0.10075276560973162
222,1715.14,0.09533880704061164
223,1723.06,0.09489907176817892
224,1734.9999999999998,0.10168686442564781
225,1743.0100000000002,0.09959902000239201
226,1755.09,0.10623415398080274
227,1763.19,0.09800695040672384
228,1775.41,0.09960020570607642
229,1783.61,0.1021513230755274
230,1795.97,0.10895733969582182
231,1804.26,0.10845651791444971
232,1816.77,0.09983178595003897
233,1825.15,0.10239011501784376
234,1833.58,0.0986847445574135
235,1846.29,0.09083516448006253
236,1854.8100000000002,0.09167721486880918
237,1863.3700000000001,0.09468104563496778
238,1876.29,0.10215229753902957
239,1884.95,0.09402763924871807
240,1893.65,0.0906284213358185
241,1905.46072,0.09585458297632517
242,1906.78,0.09643832672813778
243,1915.5800000000002,0.0927398497007315
244,1924.42,0.09062833218683698
245,1933.3,0.09381405418645426
246,1946.7,0.09823295121290376
247,1955.6899999999998,0.09167684187467846
248,1969.2399999999998,0.10098589707679717
249,1973.78,0.1038122418603853
250,1982.8899999999999,0.09868536106269536
251,1996.64,0.09621800383237301
252,2005.86,0.09914118169684052
253,2015.11,0.09621874919644186
254,2024.41,0.10028952608793293
255,2033.76,0.09533861237131373
256,2043.1499999999999,0.09914168816820633
257,2057.31,0.09273822595137983
258,2066.81,0.09424529041042985
259,2076.35,0.10238819438299167
260,2085.93,0.10429297786906526
261,2095.56,0.09868281074702859
262,2105.23,0.09936674313850373
263,2114.95,0.10098362492186858
264,2124.71,0.10168590621874524
265,2134.52,0.09533715690751161
266,2144.37,0.09823065710978979
267,2154.27,0.10191674670395771
268,2164.21,0.09845607581163741
269,2174.2,0.09800462431120685
270,2184.2400000000002,0.09755225220266603
271,2187.7616199999998,0.09899604911630618
272,2194.3199999999997,0.10168500296753125
273,2204.45,0.09914005119647254
274,2214.62,0.09359196981328724
275,2224.8399999999997,0.0918893589149437
276,2235.1099999999997,0.09868258850144193
277,2245.43,0.09489770857278192
278,2255.8,0.08979519912896368
279,2266.21,0.09146115007301885
280,2276.67,0.09424487150191577
281,2287.18,0.09777938341565447
282,2292.45,0.09146199451797633
283,2303.03,0.0936353271104935
284,2313.66,0.08886772018785243
285,2324.34,0.07162452375005311
286,2335.0699999999997,0.08153753779709556
287,2345.85,0.07846077232897979
288,2356.67,0.08629308724873741
289,2367.5499999999997,0.07821107275030516
290,2373.01,0.08098847569502574
291,2383.96,0.07442703187537195
292,2394.97,0.07926092863752826
293,2406.02,0.076624915787558
294,2417.13,0.07901116351939787
295,2422.7000000000003,0.08606740753077033
296,2433.88,0.08339414594138864
297,2445.12,0.08860638493381709
298,2456.4,0.08825944431411895
299,2467.74,0.0865132242762309
300,2473.4300000000003,0.08303411945122359
301,2484.85,0.08195395018908239
302,2496.3199999999997,0.07601504141178293
303,2507.84,0.08896164311932525
304,2511.88643,0.0797145116923228
305,2513.62,0.07575283585092259
306,2519.4100000000003,0.07718729412145471
307,2525.2200000000003,0.0752828823169282
308,2536.88,0.078346468557758
309,2542.7300000000005,0.07747972660311428
310,2554.46,0.08659964258123895
311,2566.25,0.08200338833418777
312,2572.1699999999996,0.08770380611683892
313,2584.0400000000004,0.0857688615695533
314,2595.9700000000003,0.08368744679709185
315,2607.95,0.08053782183698387
316,2613.96,0.07873716928187126
317,2626.0299999999997,0.08404145398399952
318,2632.08,0.09239771127876971
319,2644.23,0.10375098568066354
320,2656.44,0.11228953985738152
321,2662.56,0.09473545688944657
322,2674.85,0.10088817076593011
323,2687.2000000000003,0.10355552441723782
324,2693.39,0.09469874118659773
325,2705.8199999999997,0.100393654537671
326,2712.06,0.09117667111938436
327,2724.58,0.08896699413269389
328,2737.1600000000003,0.09496640692082758
329,2743.4700000000003,0.07829667323983582
330,2756.13,0.08281407572773507
331,2762.48,0.08856392189662607
332,2775.23,0.09302579404676158
333,2788.04,0.08240490597172123
334,2794.47,0.0653383318403778
335,2807.3700000000003,0.06990396342757371
336,2813.84,0.09029703914611305
337,2826.8300000000004,0.10163190039554522
338,2833.35,0.09867141592643804
339,2846.42,0.09280001687563576
340,2852.9900000000002,0.08274621221888205
341,2866.15,0.10306055283031601
342,2872.7599999999998,0.10896292802344508
343,2884.0315,0.10568361025471683
344,2886.0200000000004,0.10510508556956252
345,2892.67,0.10884678505881214
346,2912.73,0.12483878351811246
347,2932.92,0.11719648196742821
348,2953.25,0.11414438040599131
349,2966.88,0.11852757935914504
350,2987.44,0.11895537778004309
351,3008.15,0.12160417618942046
352,3029.0,0.12288577458804517
353,3050.0,0.12475927297514922
354,3071.14,0.12753707135150064
355,3092.43,0.12859266971633135
356,3106.7,0.13292096862033015
357,3128.24,0.12977096696595972
358,3149.92,0.12964926530083665
359,3171.76,0.13376816362342484
360,3186.39,0.123234162499774
361,3208.48,0.13162046080316106
362,3230.7200000000003,0.11965095909502745
363,3253.12,0.13915855737460506
364,3268.13,0.1506344562217685
365,3290.7799999999997,0.148431254482145
366,3311.31121,0.14678236821783094
367,3313.6,0.1465985495448356
368,3321.24,0.1473439383277303
369,3328.89,0.15578542709594287
370,3336.56,0.15839241583479133
371,3344.26,0.1472098045295936
372,3351.9700000000003,0.14195419320971372
373,3359.69,0.15643948187515183
374,3367.44,0.1512010704965437
375,3375.2,0.12905065910325345
376,3382.98,0.13364664768059908
377,3390.7799999999997,0.15529703622858054
378,3398.6,0.1568105247471979
379,3406.43,0.15225771325113316
380,3414.28,0.15303260172570424
381,3422.1600000000003,0.16481289015622916
382,3430.04,0.15603007858675402
383,3437.9500000000003,0.15646316697323268
384,3445.88,0.12636455533034718
385,3453.82,0.16211484367277962
386,3461.7799999999997,0.1419176319858479
387,3469.76,0.14902232026955203
388,3477.7599999999998,0.139463308523892
389,3485.78,0.14745919674886782
390,3493.81,0.14219208495916158
391,3501.8700000000003,0.14794167312540912
392,3509.9399999999996,0.15356926127697457
393,3518.0299999999997,0.1427292493991759
394,3526.14,0.14247263749201305
395,3534.27,0.15701182555548604
396,3542.42,0.17027531358959488
397,3550.58,0.1684081016090217
398,3558.77,0.1605398895844022
399,3566.97,0.1670289775451007
400,3575.1899999999996,0.13996396547643505
401,3583.44,0.13189435336372315
402,3591.7,0.12895814123632918
403,3599.98,0.16506312907957105
404,3605.93,0.047468360343736415
405,3608.6800000000003,0.23220561630616576
406,3611.42,0.18489491228327723
407,3614.17,0.08365520824570659
408,3616.91,0.08122610422281804
409,3619.6600000000003,0.24296710018524742
410,3622.4,0.18534679616235883
411,3625.1499999999996,0.08308153212478822
412,3627.89,0.33707828810189966
413,3630.64,-0.06590261593567097
414,3633.3900000000003,0.015398350026758397
415,3636.13,0.15123177600386986
416,3638.88,0.2854316719662992
417,3641.62,0.46481446794341064
418,3644.37,0.16035686390584003
419,3647.11,0.026814549882951465
420,3649.8599999999997,0.2770757558453808
421,3652.6,0.2841144518224923
422,3655.35,0.4501339477849216
423,3658.1000000000004,0.160631243747351
424,3660.84,0.18536483972446247
425,3663.5899999999997,0.14721503568689182
426,3666.33,0.26095583166400327
427,3669.08,0.26434282762643263
428,3671.82,0.06042453360354408
429,3674.5699999999997,0.20425011956597344
430,3677.31,0.06577098554308489
431,3680.06,-0.036530078494485745
432,3682.8100000000004,0.11404030746794362
433,3685.55,0.02812558344505507
434,3688.2999999999997,0.09218836940748444
435,3691.04,0.05165497538459588
436,3693.79,0.20313899134702526
437,3696.53,0.31301628732413667
438,3699.2799999999997,0.22847038328656608
439,3702.02,0.0507522492636775
440,3704.77,0.15540667522610688
441,3707.5200000000004,0.17685537118853625
442,3710.26,0.1458175671656477
443,3713.0099999999998,0.13750366312807705
444,3715.75,0.2778331591051885
445,3718.5,0.33775445506761786
446,3721.2400000000002,0.16208465104472933
447,3723.99,0.19403214700715868
448,3726.7400000000002,0.10402364296958803
449,3729.48,0.11854513894669949
450,3732.2300000000005,0.18053603490912884
451,3734.9700000000003,0.18566993088624031
452,3737.72,0.14980302684866967
453,3740.46,0.12221982282578112
454,3743.21,-0.007825920211789522
455,3745.9500000000003,0.11985161476532193
456,3748.7,0.17233881072775128
457,3751.4500000000003,0.20702070669018063
458,3754.19,0.3260964026672921
459,3756.9399999999996,0.2550401986297215
460,3759.6800000000003,0.18144599460683292
461,3762.43,0.2112997905692623
462,3765.17,0.17135638654637372
463,3767.92,0.2087301825088031
464,3770.6600000000003,0.13460477848591454
465,3773.41,0.1185938744483439
466,3776.16,0.18661537041077328
467,3778.9,0.28906396638788473
468,3781.6499999999996,0.3152550623503141
469,3784.3900000000003,0.21883855832742555
470,3787.14,0.1492230542898549
471,3789.88,0.22558355026696636
472,3792.63,0.22329404622939572
473,3795.3700000000003,0.22252554220650717
474,3798.12,0.2234284381689365
475,3800.87,0.2861148341313659
476,3801.8939600000003,0.2961405221520712
477,3803.61,0.3129424306334458
478,3806.3599999999997,0.32191442743715104
479,3809.1000000000004,0.2220309242524792
480,3811.85,0.2815007210561845
481,3814.59,0.2978722178715127
482,3817.34,0.29237801467521796
483,3820.08,0.13665561149054614
484,3822.83,0.09317103829425144
485,3825.58,0.13191830509795674
486,3828.32,0.1424602019132849
487,3831.0699999999997,0.0966256787169902
488,3833.8100000000004,0.09200529553231838
489,3836.56,0.17812499233602366
490,3839.2999999999997,0.22289168915135182
491,3842.05,0.07549406595505713
492,3844.79,0.1797492827703853
493,3847.54,0.2305516795740906
494,3850.29,0.2403173763777959
495,3853.03,0.23915227319312407
496,3855.7799999999997,0.19517916999682935
497,3858.5199999999995,0.08597460681215754
498,3861.27,0.26951256361586284
499,3864.0099999999998,0.246275760431191
500,3866.76,0.2468184572348963
501,3869.5,0.17397495405022448
502,3872.25,0.15411245085392977
503,3875.0,0.12688264765763507
504,3877.7400000000002,0.20096614447296324
505,3880.49,0.11296574127666853
506,3883.2299999999996,0.1998004380919967
507,3885.98,0.189582034895702
508,3888.72,0.11482783171103018
509,3891.4700000000003,0.07908312851473547
510,3894.21,0.24719152533006364
511,3896.96,0.18599922213376893
512,3899.71,0.29002751893747425
513,3902.4500000000003,0.2230867157528024
514,3905.2,0.1400304125565077
515,3907.9399999999996,0.21402250937183587
516,3910.69,0.20244290617554117
517,3913.43,0.15120110299086933
518,3916.1800000000003,0.21552369979457464
519,3918.92,0.30849929660990283
520,3921.67,0.30171099341360813
521,3924.42,0.1265895902173134
522,3927.1600000000003,0.21178228703264157
523,3929.91,0.21557228383634686
524,3932.6499999999996,0.15270868065167503
525,3935.4,0.17913207745538035
526,3938.14,0.26260977427070853
527,3940.8900000000003,0.1605518710744138
528,3943.63,0.17366356788974197
529,3946.38,0.13584336469344727
530,3949.13,0.23605686149715258
531,3951.87,0.21938765831248075
532,3954.62,0.266515355116186
533,3957.3599999999997,0.1934156519315142
534,3960.11,0.2085650487352195
535,3962.85,0.2614866455505477
536,3965.6000000000004,0.15881834235425296
537,3968.35,0.15510073915795825
538,3971.0899999999997,0.11444913597328643
539,3973.84,0.18651143277699173
540,3976.58,0.20928562959231992
541,3979.33,0.1785154263960252
542,3982.0699999999997,0.19443502321135336
543,3984.82,0.2697140200150586
544,3987.56,0.2717351168303868
545,3990.3100000000004,0.2636834136340921
546,3993.06,0.28569351043779745
547,3995.7999999999997,0.3124722072531256
548,3998.55,0.2907965040568309
549,4001.29,0.33480050087215907
550,4004.04,0.2794739976758644
551,4006.7799999999997,0.22783559449119253
552,4009.53,0.18633469129489783
553,4012.27,0.11039018811022601
554,4015.0200000000004,0.13826648491393131
555,4017.77,0.2101639817176366
556,4020.5099999999998,0.19915307853296477
557,4023.26,0.16895667533667005
558,4026.0,0.20678917215199824
559,4028.75,0.2827211689557035
560,4031.49,0.3042016657710317
561,4034.2400000000002,0.236447662574737
562,4036.98,0.19874445939006516
563,4039.7300000000005,0.23197975619377048
564,4042.48,0.25751795299747576
565,4045.22,0.2795720498128039
566,4047.9700000000003,0.21703704661650922
567,4050.71,0.2019548434318374
568,4053.46,0.25497284023554273
569,4056.2,0.33362253705087086
