,lambda (Angstroms),Total Flux (erg/s/cm^2/Angstrom)
0,102.05000000000001,0.0005426515982542703
1,103.95,0.000634770071337639
2,104.712855,0.0006717559419758682
3,105.88,0.0006245412049261259
4,108.10000000000001,0.0005347351640374563
5,110.11,0.0004534254919386617
6,113.98,0.00029687267940798153
7,117.97999999999999,0.0001350611490573801
8,120.22644299999999,4.4195830769230095e-05
9,121.01,4.2732986002933994e-05
10,124.97,3.532831866996055e-05
11,127.0,3.1532906658613044e-05
12,127.88000000000001,2.988830516906337e-05
13,130.86,2.431793365536111e-05
14,132.07,2.205897922973037e-05
15,133.91,1.862097572885381e-05
16,137.03,1.2795456369541379e-05
17,138.038426,1.0912444683353562e-05
18,139.9,1.0797879188339898e-05
19,143.16,1.0631308009658886e-05
20,147.17,1.0433159744747576e-05
21,150.94,1.022722828022996e-05
22,155.17,1.0000100498291098e-05
23,158.489319,9.831028408081884e-06
24,159.14999999999998,9.773944445303562e-06
25,162.10999999999999,9.525515567633878e-06
26,165.89,9.219069313042186e-06
27,170.14000000000001,8.872919964361052e-06
28,172.91,8.664522354514762e-06
29,176.93,8.362494777409314e-06
30,179.81,8.158009207244217e-06
31,181.89000000000001,8.01316191212498e-06
32,181.970086,8.007567980620439e-06
33,186.13000000000002,8.275520045700298e-06
34,190.9,8.619487310576477e-06
35,194.0,8.848927539322003e-06
36,198.07000000000002,9.161659010610486e-06
37,202.21,9.492855561257735e-06
38,205.03,9.74353047256818e-06
39,208.929613,1.006377884459451e-05
40,209.79999999999998,1.0279579892150528e-05
41,216.17999999999998,1.1976480870628486e-05
42,220.20000000000002,1.3053824377443762e-05
43,222.75,1.377003596758777e-05
44,226.89000000000001,1.4917074549233348e-05
45,230.04,1.7793389513528888e-05
46,233.78,2.2353820845740108e-05
47,239.78,2.7076310587255428e-05
48,239.88329199999998,2.71071023327758e-05
49,245.93,2.6720635169964383e-05
50,252.24,2.734585353478659e-05
51,256.93,2.4490509276627506e-05
52,259.9,2.7072374085426553e-05
53,264.13,2.7944147600988823e-05
54,269.04,2.8065319624962995e-05
55,274.04,2.8176085127991688e-05
56,275.42287,2.8150052119927528e-05
57,279.13,2.9333622398919714e-05
58,284.32,3.1299857381137644e-05
59,290.28000000000003,3.2586616705611426e-05
60,295.67,3.48657371014023e-05
61,301.17,3.53542309746583e-05
62,308.18,3.8415336220390034e-05
63,316.227766,4.17925440794067e-05
64,318.28000000000003,4.203305648529342e-05
65,327.95,4.245389548019273e-05
66,337.92,4.252118260316543e-05
67,348.19000000000005,4.247185785421153e-05
68,357.12,4.279609279986312e-05
69,363.078055,4.318800674822398e-05
70,366.28000000000003,4.4127621730097486e-05
71,374.81,4.6022812076963564e-05
72,385.31,4.707171758013987e-05
73,395.19,5.032982734884291e-05
74,405.33,5.284534500619603e-05
75,413.82,5.4512413370192875e-05
76,416.86938299999997,5.498007262442096e-05
77,422.48,5.5616546327090525e-05
78,430.34000000000003,5.6367402050743634e-05
79,441.37999999999994,5.8459781693126614e-05
80,450.62,5.9699059872077604e-05
81,460.06,6.046168376918769e-05
82,469.68999999999994,6.153578459854893e-05
83,478.630092,6.290226042403362e-05
84,479.52000000000004,6.291512821470478e-05
85,489.56,6.202497987586108e-05
86,499.82,6.235569938218215e-05
87,505.6,6.393861276878407e-05
88,511.46,7.496661537180957e-05
89,519.77,7.431565897780645e-05
90,529.43,7.369288436095086e-05
91,540.52,7.120812073766631e-05
92,549.5408739999999,7.356252088683479e-05
93,550.57,7.388561635213476e-05
94,559.51,7.862382111573157e-05
95,569.92,8.098605273642985e-05
96,580.51,7.977605478860996e-05
97,589.9399999999999,8.32147085045739e-05
98,599.53,8.231455371518838e-05
99,610.68,8.268259599864523e-05
100,620.6,9.094690866697635e-05
101,630.68,9.217398282995798e-05
102,630.957344,9.222660816751409e-05
103,639.46,9.435010244850116e-05
104,649.85,9.78316570143203e-05
105,657.37,9.909184691181403e-05
106,664.98,0.00010304864678148522
107,674.23,0.00010570338503305661
108,685.1899999999999,0.00010458767275599961
109,694.72,0.00011518092536545643
110,704.39,0.00011181918015385594
111,715.8299999999999,0.00012421884106174534
112,724.43596,0.00012696856934896108
113,725.7900000000001,0.000127381101901019
114,734.1899999999999,0.00013071872207787814
115,744.41,0.00013696780995972344
116,754.76,0.00014147204553478204
117,765.26,0.000143738020755856
118,774.1199999999999,0.00015280785584716216
119,784.89,0.0001595135224310637
120,795.81,0.0001651412286609806
121,805.0300000000001,0.00017022591890272364
122,814.3499999999999,0.00017546656890847685
123,825.6800000000001,0.00018515541017083572
124,831.763771,0.00017786090092902995
125,835.24,0.00017347622012401533
126,844.91,0.00019514048128736573
127,854.69,0.00020103504283623514
128,864.5899999999999,0.00021071957753294345
129,874.5999999999999,0.00022046661261517072
130,884.7299999999999,0.00023175222084523687
131,894.9699999999999,0.00024105642946082204
132,905.34,0.00024643998398656594
133,915.8199999999999,0.0003586216388978289
134,924.29,0.0017585508685827903
135,935.0,0.003948284297027411
136,945.82,0.01072970302585755
137,954.58,0.022872578765649788
138,954.992586,0.02318646478160308
139,965.63,0.03127954930538333
140,974.5600000000001,0.006883294002284422
141,985.85,0.049454202762420296
142,994.97,0.05274729117627673
143,1004.18,0.06429515898237517
144,1015.8000000000001,0.04788582051406505
145,1025.2,0.008159535037118837
146,1034.69,0.03305567295241462
147,1044.26,0.07659003832748108
148,1053.93,0.08244431302726088
149,1066.1299999999999,0.07247210064228811
150,1076.0,0.08359175399149459
151,1085.95,0.07197389680047174
152,1096.0,0.08534146893416222
153,1096.4782,0.08520480378482305
154,1106.14,0.08244341150038287
155,1113.81,0.08056710939301531
156,1124.11,0.07819324169994024
157,1134.52,0.08793283168198766
158,1145.01,0.08149943997321508
159,1155.61,0.08475161593956501
160,1166.3,0.08977415000374243
161,1174.38,0.07801199923092238
162,1185.25,0.0863275894907548
163,1196.22,0.056385367637062214
164,1204.51,0.03964607242583966
165,1215.65,0.009129959979154573
166,1224.08,0.039462998808997014
167,1235.41,0.07818968934661442
168,1243.97,0.09102046842887437
169,1255.48,0.09039476516214678
170,1258.92541,0.08457895510954501
171,1264.18,0.07570939024196213
172,1275.88,0.09531007783099948
173,1284.73,0.09933980113552772
174,1293.63,0.0881337845152228
175,1305.6000000000001,0.08573225251016102
176,1314.65,0.09843521611535658
177,1323.76,0.09575054981075232
178,1336.01,0.08854089822662474
179,1345.27,0.09888832214752097
180,1354.6,0.09619159617365075
181,1363.99,0.09039384028998074
182,1373.4399999999998,0.0933553144965109
183,1386.1499999999999,0.09553075360391813
184,1395.76,0.09207509805098214
185,1405.43,0.09443732258824636
186,1415.18,0.09207401724577748
187,1424.9899999999998,0.09292605199350878
188,1434.8600000000001,0.09207553683144029
189,1441.49,0.09487232679856145
190,1445.43977,0.09539370237639497
191,1448.1399999999999,0.09575013614336944
192,1454.82,0.09421977457175867
193,1464.91,0.09102095730266398
194,1475.06,0.08977310010927336
195,1485.29,0.08956577301682155
196,1495.58,0.09018688600007382
197,1505.95,0.0885405490842649
198,1512.9,0.08378083785332256
199,1516.3899999999999,0.08712512225677742
200,1523.39,0.08455562108892183
201,1533.95,0.07945921441284252
202,1544.5800000000002,0.08514150782508469
203,1555.29,0.08093675133826563
204,1566.07,0.07964256493976801
205,1573.3,0.08263079406211146
206,1584.2,0.08455607781502203
207,1595.1799999999998,0.0865256116688714
208,1606.2399999999998,0.08301232562365957
209,1613.65,0.08339682497311529
210,1624.84,0.080010529091929
211,1636.1000000000001,0.08206369329906414
212,1643.65,0.08225190282516276
213,1655.0500000000002,0.0769389672089408
214,1659.58691,0.07934143884072913
215,1666.52,0.0830128368162925
216,1670.36,0.07783008219887372
217,1678.0700000000002,0.08093671324046256
218,1685.8200000000002,0.08320359465061997
219,1693.6000000000001,0.08019555633720378
220,1705.34,0.07782992451207447
221,1713.21,0.07570964702793753
222,1725.08,0.07518979640065603
223,1733.05,0.07782999983794048
224,1745.06,0.07588466050064892
225,1753.11,0.07909607467507047
226,1765.27,0.07330903671991099
227,1773.41,0.0765877417236118
228,1785.71,0.07676343505844224
229,1793.95,0.07873216098356443
230,1806.3799999999999,0.07819113551624267
231,1814.72,0.07553695236278626
232,1823.1,0.07571082957789839
233,1835.7399999999998,0.07381750604556155
234,1844.21,0.07033414408995294
235,1856.99,0.06968841184760603
236,1865.56,0.0704959708134188
237,1874.18,0.07364706023994225
238,1887.1699999999998,0.07017226993258026
239,1895.88,0.06810381018838298
240,1904.6299999999999,0.07082188081275421
241,1905.46072,0.0706245768734658
242,1913.42,0.06873400393303308
243,1926.68,0.06810409644104046
244,1935.5800000000002,0.06873305073374525
245,1944.5100000000002,0.07065809467013331
246,1953.49,0.06763355801266017
247,1967.03,0.07065783719504477
248,1976.1100000000001,0.07147600934984921
249,1985.23,0.06904950102956468
250,1994.39,0.0671676722341912
251,2003.6000000000001,0.06810224284495649
252,2012.84,0.06670588309940506
253,2026.8,0.0685732872933555
254,2036.1499999999999,0.06670559624130942
255,2045.55,0.06732242459540212
256,2054.99,0.06503661247440586
257,2064.48,0.06563836975954838
258,2074.01,0.06732127656960193
259,2078.79,0.06609341979647038
260,2083.58,0.06701277290456654
261,2093.2000000000003,0.06473757864566992
262,2102.86,0.06533609391168435
263,2117.44,0.0651854907417558
264,2127.21,0.06578881470127554
265,2137.03,0.0631182580669341
266,2146.89,0.06399572095750368
267,2156.8,0.06458785325421205
268,2166.76,0.06268296495705922
269,2176.76,0.06225128618481741
270,2186.81,0.06182288681871439
271,2187.7616199999998,0.06198619859541653
272,2196.9,0.06355467205311449
273,2207.04,0.061823688075081436
274,2217.23,0.06000077457052948
275,2227.46,0.0585006214447624
276,2232.6,0.06139816011861942
277,2242.9,0.059314167655725884
278,2253.25,0.057831325666313445
279,2263.6600000000003,0.05823081424507833
280,2274.1,0.059178203107931864
281,2284.6,0.059862932538962736
282,2295.15,0.05783130244347469
283,2305.7400000000002,0.05757965272677153
284,2316.38,0.05642142348354947
285,2327.07,0.04904798471380851
286,2332.44,0.054413305565678576
287,2343.2,0.05222536745881116
288,2354.02,0.054581869920121054
289,2364.89,0.05190677285491205
290,2375.8,0.05313734616848793
291,2386.77,0.05030066005024112
292,2392.27,0.052440262133162045
293,2403.31,0.050914616677788786
294,2414.41,0.05140604179059284
295,2425.5499999999997,0.05298961728218177
296,2436.75,0.05109365334194802
297,2442.36,0.052900426466527366
298,2453.64,0.05219623328386338
299,2464.96,0.05162038047998427
300,2476.34,0.05046697824428248
301,2487.77,0.05166389648206179
302,2493.5099999999998,0.05026622083769199
303,2505.0099999999998,0.05265777973834484
304,2510.79,0.04983747447275992
305,2511.88643,0.04992671797204879
306,2516.58,0.05030868765363624
307,2522.38,0.04849928639667669
308,2534.02,0.04852058373615786
309,2545.7200000000003,0.04820678085573945
310,2557.47,0.05015280779207139
311,2563.36,0.04936105620526247
312,2575.2000000000003,0.050999852811745024
313,2587.08,0.05078741927162787
314,2593.05,0.05033232739161951
315,2605.0099999999998,0.048982953558302914
316,2617.04,0.0485546694684368
317,2623.07,0.04935424736852886
318,2635.18,0.0500629229854633
319,2647.34,0.0528082584191481
320,2653.45,0.053063996026040706
321,2665.69,0.05069887116652606
322,2678.0,0.05178264605046191
323,2684.17,0.051794063437454935
324,2696.56,0.05017438802819134
325,2702.78,0.05076677523193471
326,2715.25,0.04895278952947167
327,2727.79,0.048525473570459124
328,2734.07,0.04989640055430292
329,2746.69,0.04616020430209092
330,2753.03,0.046598701066035135
331,2765.73,0.0478155845206237
332,2772.1099999999997,0.04893990113796819
333,2784.9,0.04751932426270738
334,2797.76,0.041983457130897066
335,2804.2099999999996,0.04387055349169204
336,2817.15,0.04845880606668228
337,2823.6499999999996,0.0490310122442276
338,2836.68,0.047937454489368474
339,2843.2200000000003,0.04674941052031408
340,2856.34,0.045707782435605575
341,2862.9300000000003,0.04809313828330153
342,2876.14,0.04811630986874364
343,2882.77,0.04801711556983988
344,2884.0315,0.04802976385779604
345,2896.08,0.04815061004275454
346,2909.4500000000003,0.04998120903993892
347,2929.61,0.048543237527839976
348,2949.9199999999996,0.04780166600449028
349,2970.37,0.04794693447063991
350,2990.9599999999996,0.047762292926288856
351,3011.69,0.047907571371437106
352,3032.57,0.047833199805334625
353,3046.56,0.04774675875601596
354,3067.68,0.0475640271719123
355,3088.95,0.0473812855765579
356,3110.3599999999997,0.04730819397070281
357,3131.92,0.04669550235359699
358,3153.63,0.04651661072524043
359,3168.18,0.04664848963391902
360,3190.1400000000003,0.04520374798681124
361,3212.26,0.04597393632770267
362,3227.08,0.04474570521612993
363,3249.45,0.046247223538270134
364,3271.98,0.047144651848409554
365,3287.08,0.04673787071583544
366,3309.86,0.046347339007223626
367,3311.31121,0.04607474695507738
368,3325.14,0.043477159070588724
369,3332.81,0.04379036807330504
370,3340.49,0.04144738706168331
371,3348.1899999999996,0.04432164602138548
372,3355.91,0.04253341495241156
373,3363.65,0.03970635385476154
374,3371.4,0.03999194274277346
375,3379.17,0.0431605216021093
376,3386.96,0.043372030432769035
377,3394.7699999999995,0.043284409234752665
378,3402.6,0.0442019380080602
379,3410.44,0.04116928676702968
380,3418.3,0.04233403549732307
381,3426.18,0.04373275419894036
382,3434.08,0.044251112871881555
383,3441.99,0.04236982153048469
384,3449.93,0.04189648014607369
385,3457.8799999999997,0.04161935874732464
386,3465.85,0.04115491731989948
387,3473.84,0.043106485863798234
388,3481.8500000000004,0.041943474379020886
389,3489.88,0.04332944286556743
390,3497.92,0.04177423133777594
391,3505.99,0.0424647597669703
392,3514.07,0.04151048818182661
393,3522.17,0.04317948656800682
394,3530.29,0.04143839492551093
395,3538.4300000000003,0.04320430325433894
396,3546.58,0.0439181515688289
397,3554.76,0.04443939984030472
398,3562.95,0.04334107809744248
399,3571.17,0.041785616311566104
400,3579.3999999999996,0.040471594511351676
401,3587.65,0.03884038268246114
402,3595.92,0.041058380824894526
403,3604.21,0.0424157389386518
404,3611.71,0.03817278818511495
405,3614.46,0.06416567424215144
406,3617.21,0.05050789029918794
407,3619.96,0.027655506356224425
408,3622.71,0.03018426241326091
409,3625.4599999999996,0.034632928470297406
410,3628.2,0.025733744541671946
411,3630.95,0.03868163059870844
412,3633.7000000000003,0.05027227665574493
413,3636.45,0.05027224271278141
414,3639.2000000000003,0.03735414876981791
415,3641.95,0.0621100248268544
416,3644.7000000000003,0.05698893088389089
417,3647.45,0.02040671694092738
418,3650.1899999999996,0.039286663012301916
419,3652.94,0.035145719069338416
420,3655.6899999999996,0.0388297051263749
421,3658.44,0.04659399118341139
422,3661.19,0.05121771724044788
423,3663.94,0.05330014329748437
424,3666.69,0.05644352935452086
425,3669.44,0.035025325411557354
426,3672.19,0.023929071468593844
427,3674.9300000000003,0.03982525753996838
428,3677.68,0.04348711359700488
429,3680.4300000000003,0.04321582965404137
430,3683.18,0.06324986571107785
431,3685.93,0.05386667176811435
432,3688.68,0.04736624782515084
433,3691.43,0.03793114388218733
434,3694.1800000000003,0.06811966993922382
435,3696.92,0.05925527601059836
436,3699.67,0.047167252067634856
437,3702.42,0.06372024812467134
438,3705.17,0.04211250418170783
439,3707.92,0.03830631023874432
440,3710.6699999999996,0.04477203629578082
441,3713.42,0.0545187323528173
442,3716.1699999999996,0.03241855840985379
443,3718.9100000000003,0.04354097448122833
444,3721.66,0.04865816053826483
445,3724.4100000000003,0.11543297659530131
446,3727.16,0.1358151726523378
447,3729.9100000000003,0.13607476870937432
448,3732.66,0.10204336476641078
449,3735.4100000000003,0.062317640823447276
450,3738.16,0.03158169688048377
451,3740.91,0.03380650293752026
452,3743.65,0.0454954590088948
453,3746.3999999999996,0.05347328506593129
454,3749.15,0.04605714112296778
455,3751.9,0.02048741718000427
456,3754.65,0.034100893237040755
457,3757.4,0.048270319294077255
458,3760.15,0.04740844535111374
459,3762.9,0.046540791408150234
460,3765.64,0.04638614747952477
461,3768.39,0.047888573536561264
462,3771.14,0.042203809593597756
463,3773.89,0.05867504565063424
464,3776.64,0.05199858170767074
465,3779.3900000000003,0.06026879776470723
466,3782.14,0.051297293821743715
467,3784.8900000000003,0.059413599878780206
468,3787.63,0.06189553595015475
469,3790.3799999999997,0.05793926200719124
470,3793.13,0.05358766806422773
471,3795.8799999999997,0.05413975412126422
472,3798.63,0.04665723017830071
473,3801.3799999999997,0.04283565623533721
474,3801.8939600000003,0.04377315031049265
475,3804.13,0.04785182296039138
476,3806.88,0.04884252983899127
477,3809.63,0.055388076717591155
478,3812.37,0.0517764536075416
479,3815.1200000000003,0.05408590048614149
480,3817.87,0.057492847364741376
481,3820.6200000000003,0.06657584424334127
482,3823.37,0.06357281112194116
483,3826.12,0.05567765800054105
484,3828.87,0.05825930487914094
485,3831.62,0.043477111757740834
486,3834.36,0.03427689864769127
487,3837.11,0.03886890552629116
488,3839.86,0.04428427240489106
489,3842.61,0.047569069283490945
490,3845.3599999999997,0.05807276616209084
491,3848.11,0.06190389304069073
492,3850.8599999999997,0.05821215991929062
493,3853.61,0.056059436797890515
494,3856.35,0.057868993687840944
495,3859.1,0.05988121056644084
496,3861.85,0.055653697445040735
497,3864.6000000000004,0.05817475432364062
498,3867.35,0.07064646120224051
499,3870.1000000000004,0.0769928980808404
500,3872.85,0.0759030349594403
501,3875.6000000000004,0.0731712518380402
502,3878.35,0.06492597871664008
503,3881.0899999999997,0.06995114560659052
504,3883.84,0.0689536324851904
505,3886.5899999999997,0.0653118993637903
506,3889.34,0.0673500862423902
507,3892.09,0.0633380331209901
508,3894.84,0.07421588999958997
509,3897.59,0.07429182687818987
510,3900.34,0.07341166375678976
511,3903.08,0.07742017064674019
512,3905.83,0.08591064752534008
513,3908.58,0.08011044440393998
514,3911.33,0.08204185128253988
515,3914.08,0.08227649816113976
516,3916.83,0.06916986503973965
517,3919.58,0.05639990191833954
518,3922.33,0.05076998879693944
519,3925.07,0.04659179568688988
520,3927.82,0.05169358256548976
521,3930.5699999999997,0.05305942944408966
522,3933.32,0.048681866322689546
523,3936.0699999999997,0.04630887320128944
524,3938.82,0.06056006007988933
525,3941.5699999999997,0.056621126958489226
526,3944.32,0.05519173383708911
527,3947.0699999999997,0.06278765071568901
528,3949.8100000000004,0.050807677605639444
529,3952.56,0.05181954448423933
530,3955.3100000000004,0.06538877136283923
531,3958.06,0.04471886824143912
532,3960.81,0.05452713512003901
533,3963.56,0.0482498619986389
534,3966.31,0.03506727887723879
535,3969.06,0.044954405755838686
536,3971.7999999999997,0.04113977264578912
537,3974.55,0.05561992952438901
538,3977.2999999999997,0.057409956402988904
539,3980.05,0.0599608232815888
540,3982.8,0.05215512016018868
541,3985.5499999999997,0.06599461703878857
542,3988.3,0.06580316391738847
543,3991.0499999999997,0.07249299079598835
544,3993.79,0.07766534768593879
545,3996.54,0.07142268456453868
546,3999.29,0.07289143144313859
547,4002.04,0.06822721832173848
548,4004.79,0.058616065200338366
549,4007.54,0.06811651207893825
550,4010.2900000000004,0.06300888895753815
551,4013.04,0.06108316583613804
552,4015.7900000000004,0.07990805271473793
553,4018.53,0.07187667960468837
554,4021.2799999999997,0.06467117648328827
555,4024.03,0.06308594336188815
556,4026.7799999999997,0.06469802024048804
557,4029.53,0.04817864711908793
558,4032.2799999999997,0.06372932399768781
559,4035.03,0.06250097087628771
560,4037.78,0.06503451775488761
561,4040.5200000000004,0.06978649464483805
562,4043.27,0.06345245152343794
563,4046.02,0.06766256840203783
564,4048.77,0.06048496528063772
565,4051.52,0.0629117621592376
566,4054.27,0.0615468090378375
567,4057.02,0.0652298059164374
568,4059.77,0.07094236279503728
569,4062.5099999999998,0.07011255968498772
