,lambda (Angstroms),Total Flux (erg/s/cm^2/Angstrom)
0,100.1,0.016578315507299483
1,101.96000000000001,0.01991459891888274
2,104.09,0.02373518112790692
3,104.712855,0.024852396733563965
4,106.03,0.02288112233647506
5,108.0,0.019932768280395842
6,110.01,0.016924553096400882
7,113.86999999999999,0.011147579015865923
8,117.88,0.005146112724744446
9,120.22644299999999,0.0016344247238349193
10,120.9,0.001587798285198567
11,124.86,0.0013136073168155988
12,126.89,0.0011730511153495817
13,128.06,0.0010920424440455227
14,131.05,0.0008850233737684823
15,131.96,0.0008220451145319922
16,134.1,0.0006738838355220048
17,136.91,0.00047938467795328175
18,138.038426,0.0004012669106333273
19,140.1,0.0003962744784445845
20,143.03,0.0003896386039063978
21,147.04,0.00038088745029918656
22,151.16,0.0003712438693062413
23,155.03,0.00036231621891723694
24,158.489319,0.0003544218106550287
25,159.01,0.0003525503904847632
26,161.97,0.00034196622860591157
27,166.11999999999998,0.0003272066779615757
28,169.99,0.0003135522879679418
29,173.15,0.0003024520166243029
30,177.18,0.0002884149862588393
31,180.06,0.0002784896815659025
32,181.970086,0.00027192248158812297
33,182.14999999999998,0.00027219757456808306
34,185.96,0.0002782014813504503
35,191.17,0.0002864511243966793
36,193.83,0.00029099721199801705
37,197.89000000000001,0.00029777150886321665
38,202.03,0.00030480914911492263
39,204.85,0.00030986249348927315
40,208.929613,0.0003164623552111328
41,210.10000000000002,0.00032553550220717993
42,215.99,0.0003734964535083408
43,220.0,0.00040590671337551484
44,223.06,0.0004304108146457275
45,227.21,0.0004643237048324539
46,229.84,0.0005043138872640419
47,234.11,0.0005725557520103845
48,239.88329199999998,0.0006473277372592392
49,240.11999999999998,0.0006472231247807029
50,246.28,0.0006134971831121489
51,252.01000000000002,0.0005960178349366921
52,257.28999999999996,0.0005454087706493606
53,260.27000000000004,0.000555456701790222
54,263.89,0.0005490383402901956
55,268.8,0.0005282542983108774
56,273.8,0.0005065245995539343
57,275.42287,0.0004992589705391241
58,278.89,0.0005271041853967453
59,284.07,0.000570340477438823
60,290.02,0.0006102059723520201
61,296.09,0.0006627708118685086
62,300.9,0.0006938476830504381
63,307.90999999999997,0.000756633005292709
64,316.227766,0.0008303986751046824
65,318.0,0.0008262851752221454
66,327.66,0.0007974712153226333
67,337.62,0.0007642586082212733
68,347.88,0.0007281652539180651
69,356.8,0.0007011958037831121
70,363.078055,0.0006845902181799019
71,365.95000000000005,0.0007011843676851747
72,375.34,0.0007462082626113233
73,384.97,0.0007817539890371823
74,394.84,0.0008433515469627507
75,404.96999999999997,0.0008976049806796718
76,414.40999999999997,0.0009406877863349269
77,416.86938299999997,0.0009512583589280884
78,422.11,0.0009660428222137611
79,429.96,0.0009871749182600584
80,440.99,0.0010279958241696968
81,451.26,0.001057682912627719
82,459.65,0.0010792541631791121
83,470.36,0.0011110988775301753
84,478.630092,0.0011407920506925314
85,480.2,0.0011383909872501813
86,490.26,0.0011091537962375617
87,500.53000000000003,0.001098714445173983
88,506.32000000000005,0.0011615691751975347
89,512.18,0.0017093746852041005
90,520.51,0.0017218876031827165
91,530.1800000000001,0.0017401053951218784
92,540.0400000000001,0.0016705383184435056
93,549.5408739999999,0.001986826672661571
94,550.08,0.0020058306742195098
95,560.31,0.0022799485162543075
96,569.41,0.002492350628914783
97,580.0,0.00241783513694494
98,589.42,0.0028124137304901793
99,600.38,0.0028573284507933446
100,610.14,0.0032659516177786455
101,620.05,0.003715615978928679
102,630.12,0.003966990080521095
103,630.957344,0.003974362337436632
104,640.36,0.004078017334582499
105,649.27,0.004574559396184609
106,658.3,0.004832014374441294
107,664.39,0.005154209894660919
108,675.1899999999999,0.005310971393572568
109,684.58,0.0052895931217929746
110,695.7099999999999,0.006607489141504701
111,705.38,0.0063443666752524466
112,715.2,0.00763742535481841
113,724.43596,0.00791612118652398
114,726.8199999999999,0.007986750313652674
115,735.23,0.008308943900985782
116,745.46,0.009285867061320821
117,755.8299999999999,0.009897441727271392
118,764.59,0.010480846078643333
119,775.2199999999999,0.011421653255022753
120,784.2,0.012340094115219103
121,795.11,0.012902754302829588
122,804.3100000000001,0.013490744671850347
123,815.5,0.014014417870691902
124,824.95,0.015350369499740397
125,831.763771,0.013808498121957316
126,834.5,0.013183014815445322
127,844.1600000000001,0.016318286014612857
128,855.91,0.01692807371546364
129,865.82,0.01816403975933013
130,875.8399999999999,0.019408421934864157
131,885.98,0.02102397443585368
132,894.18,0.02217698334197933
133,904.5400000000001,0.022461998106303938
134,915.01,0.03442869900229608
135,925.61,0.23111488441753167
136,934.17,0.5109127543000238
137,944.99,0.9957744519785945
138,954.992586,1.3652951297487557
139,955.93,1.3999268074839348
140,964.77,1.6523235989773812
141,975.95,0.30657830586615187
142,984.98,1.5743005498916973
143,994.0899999999999,1.6035672739307583
144,1005.6,2.18296139837528
145,1014.91,2.032651072448129
146,1024.3,0.8359591265344936
147,1036.16,1.4931057635381448
148,1045.75,2.7419053676582976
149,1055.42,2.7230029517919663
150,1065.19,2.2441495109425285
151,1075.04,2.624626050106606
152,1084.99,2.158071564287579
153,1095.03,2.7419200559837553
154,1096.4782,2.7286099784824644
155,1105.16,2.648812905653414
156,1115.39,2.594373906550603
157,1125.71,2.366109837074454
158,1136.1200000000001,2.8843166972249663
159,1144.0,2.6426045356482164
160,1154.5900000000001,2.7862432550520517
161,1165.27,2.8842189040825486
162,1176.05,2.108862474920447
163,1184.2,2.7862661022236823
164,1195.16,1.9954895323149033
165,1206.22,1.4895668842135263
166,1214.58,0.8632223473123047
167,1225.82,1.8537335584642507
168,1234.31,2.7670939199126514
169,1245.74,3.06908898249866
170,1254.37,2.9785682344774234
171,1258.92541,2.8301097068896572
172,1265.9799999999998,2.60021006484535
173,1274.75,3.2735355526141956
174,1283.59,3.4121080442762937
175,1295.47,2.83146770501676
176,1304.45,2.792553204465362
177,1313.49,3.3730057072510364
178,1325.6399999999999,3.251030383008332
179,1334.83,2.951343894136689
180,1344.08,3.4042954086021195
181,1356.52,3.311391100488601
182,1365.9199999999998,3.0200076232967143
183,1375.3899999999999,3.147954149998079
184,1384.92,3.1917256800365172
185,1394.52,2.8380832139682073
186,1404.1899999999998,2.944537751793149
187,1413.9199999999998,3.006178292955164
188,1423.72,3.055099838010431
189,1433.59,3.04105838695895
190,1443.5300000000002,3.19172493980072
191,1445.43977,3.217186925504571
192,1446.8600000000001,3.2361221123137414
193,1453.5400000000002,3.1624044241329314
194,1463.61,2.958156894195693
195,1473.76,2.9445463679928157
196,1483.97,2.97857484459071
197,1494.26,3.0270083249229653
198,1504.6200000000001,2.8907758085227875
199,1511.5600000000002,2.6244651324786528
200,1518.54,2.7798244583016984
201,1525.55,2.71031578552513
202,1536.12,2.410015278927651
203,1546.77,2.6244737760645336
204,1553.91,2.483358109356303
205,1564.68,2.517783612094728
206,1575.53,2.673136118567514
207,1586.45,2.7734656283078674
208,1593.77,2.8446579700019496
209,1604.8200000000002,2.76707948581064
210,1615.9399999999998,2.773479004886897
211,1623.4,2.642533353116112
212,1634.65,2.7862188782607062
213,1645.99,2.8184924076064575
214,1653.5800000000002,2.6183107619040107
215,1659.58691,2.7404216683359652
216,1665.0400000000002,2.8512759012173006
217,1672.73,2.576451522675175
218,1676.59,2.857845838517489
219,1684.33,2.951346477019953
220,1696.0,2.7926154552271565
221,1703.8300000000002,2.697799124409882
222,1715.6399999999999,2.5883611503419357
223,1723.5600000000002,2.570506850204922
224,1735.5100000000002,2.716525923861827
225,1743.52,2.654667654405075
226,1755.6,2.812181772377912
227,1763.7,2.588389533601421
228,1775.93,2.667008702708028
229,1784.1299999999999,2.6978284980207157
230,1796.49,2.844719711443255
231,1804.79,2.825157540845122
232,1813.1200000000001,2.6487413804737425
233,1825.69,2.685517665483558
234,1834.11,2.59434953579244
235,1846.8300000000002,2.404547871936024
236,1855.3500000000001,2.421364776334085
237,1863.91,2.483424694367818
238,1876.83,2.6426200986897603
239,1885.5,2.4662020542215903
240,1894.2,2.371635019980174
241,1902.9399999999998,2.489178999374429
242,1905.46072,2.475126510227457
243,1916.13,2.415639170443527
244,1924.98,2.377163281635719
245,1933.8600000000001,2.426888379645512
246,1942.79,2.5352704556846386
247,1956.26,2.3879815367873314
248,1965.2900000000002,2.570530568885127
249,1974.36,2.63046758340639
250,1983.47,2.500629580351122
251,1997.22,2.4323825384180866
252,2006.4399999999998,2.4833814870273536
253,2015.7,2.4213304180600876
254,2025.0000000000002,2.5063533315162894
255,2034.3500000000001,2.4045262230018256
256,2043.74,2.4719010969108295
257,2053.17,2.3715809532433005
258,2062.65,2.3879397876051063
259,2072.17,2.5294806043903795
260,2076.95,2.42681850399475
261,2086.54,2.489077290021091
262,2096.17,2.3770760584709003
263,2105.84,2.3934438093441766
264,2115.56,2.4100205382467874
265,2125.33,2.443596245178733
266,2135.14,2.2962999345341455
267,2144.99,2.339010606313026
268,2154.8900000000003,2.4044802561212406
269,2164.84,2.33900088395879
270,2174.83,2.317535494219807
271,2184.87,2.290966082510158
272,2187.7616199999998,2.3171501648195054
273,2194.96,2.3823383337810977
274,2205.09,2.3175348827348823
275,2215.27,2.228479449205714
276,2225.49,2.167919029690184
277,2235.7599999999998,2.291415627691701
278,2246.08,2.198949243210266
279,2256.4500000000003,2.1347688762458774
280,2266.87,2.1649515267985366
281,2277.33,2.216172191364833
282,2282.58,2.2576260306548006
283,2293.12,2.1466757232483733
284,2303.7,2.1522134298555833
285,2314.33,2.0797671539798412
286,2325.02,1.7264328991245557
287,2335.75,1.9736326582829082
288,2346.53,1.9115714349583077
289,2357.36,2.0347552291507545
290,2362.79,1.9036131315020923
291,2373.7,1.953000953721815
292,2384.6600000000003,1.8316057934585848
293,2395.66,1.9273376472089927
294,2406.72,1.8624515219798572
295,2412.27,1.8930014663721084
296,2423.4,1.9736963656668391
297,2434.59,1.9028732859820268
298,2445.83,1.9885192238142617
299,2457.1200000000003,1.9573251791635438
300,2462.7799999999997,1.9486351620932991
301,2474.15,1.887384145469857
302,2485.57,1.936374146363462
303,2497.04,1.8328591647741146
304,2502.8,1.9961291827379646
305,2511.88643,1.8716687293877508
306,2514.3500000000004,1.8379230320481093
307,2520.15,1.8766842456193233
308,2525.96,1.8049234578346256
309,2537.62,1.8138058768415835
310,2543.47,1.789199083633239
311,2555.21,1.8827314917929032
312,2567.0,1.853195893173009
313,2572.92,1.9319220904732828
314,2584.79,1.9192144810060952
315,2596.7200000000003,1.8978548634034371
316,2602.7099999999996,1.8421550512123288
317,2614.72,1.8216554227623771
318,2626.79,1.8819247861769555
319,2632.85,1.9084029644944651
320,2645.0,2.0314463170617496
321,2657.21,2.0461626614935646
322,2663.34,1.9187168303196922
323,2675.63,1.977666163904213
324,2687.98,1.9737504893532636
325,2694.18,1.8982896486880096
326,2706.6099999999997,1.9341929632897665
327,2712.85,1.860273117200866
328,2725.37,1.8565984195994176
329,2737.9500000000003,1.9269047138624993
330,2744.26,1.7375528582822166
331,2756.9300000000003,1.7622881403420927
332,2763.29,1.8077892779822515
333,2776.04,1.871937549194834
334,2782.44,1.804537681411346
335,2795.28,1.5188869404207237
336,2808.19,1.609394189938719
337,2814.66,1.856622312663849
338,2827.65,1.900519551334551
339,2834.1699999999996,1.8405526672801225
340,2847.25,1.803425893747619
341,2853.82,1.7667310029136323
342,2866.99,1.8677292171779234
343,2873.6,1.8594823209202898
344,2884.0315,1.8599906811616336
345,2886.86,1.8601288986521844
346,2893.52,1.8476178801713248
347,2906.87,1.9487938431263585
348,2927.02,1.892322787212046
349,2947.3100000000004,1.8630417309092469
350,2967.74,1.8769526742179612
351,2988.31,1.873645617138189
352,3009.0299999999997,1.8832855596421811
353,3029.8799999999997,1.879979501785436
354,3050.89,1.872362443484706
355,3072.03,1.8690783848232388
356,3093.3300000000004,1.8701123257177867
357,3107.61,1.8622012860921597
358,3129.15,1.8376702263207307
359,3150.8399999999997,1.8386921661330664
360,3172.68,1.8355111055291662
361,3187.32,1.769800064904574
362,3209.42,1.8037080035791988
363,3231.6600000000003,1.751534941865337
364,3246.58,1.8096279004637719
365,3269.08,1.840079838028435
366,3291.7400000000002,1.8284757751491139
367,3306.94,1.8207787329705754
368,3311.31121,1.8173954730486208
369,3322.2000000000003,1.8089671432398808
370,3329.86,1.838718736911564
371,3337.54,1.8222213295223377
372,3345.23,1.7975939216026566
373,3352.9399999999996,1.773273512622066
374,3360.67,1.7859251025805662
375,3368.4199999999996,1.7862576914781567
376,3376.18,1.6750822798452927
377,3383.9700000000003,1.7183898666210644
378,3391.77,1.8080194528663813
379,3399.59,1.8505070380507889
380,3407.42,1.7353336227047418
381,3415.28,1.7802002057673305
382,3423.1499999999996,1.8473627882994645
383,3431.0400000000004,1.847743369770689
384,3438.9500000000003,1.822768950181004
385,3446.88,1.7014715295304097
386,3454.82,1.7902351083493606
387,3462.79,1.6865546855769473
388,3470.7700000000004,1.7421512622740791
389,3478.77,1.6641128379103018
390,3486.79,1.7308664124856148
391,3494.83,1.7153549860000188
392,3502.8900000000003,1.7678455584535127
393,3510.96,1.7239811303765524
394,3519.05,1.7403067012386826
395,3527.17,1.6932212705094483
396,3535.3,1.7530948392497596
397,3543.4500000000003,1.8150724069291613
398,3551.61,1.8029369740781083
399,3559.8,1.782681539635691
400,3568.0099999999998,1.7667181041323645
401,3575.97,1.326804681890406
402,3578.6299999999997,1.5992405407894499
403,3581.3,1.9783393991580394
404,3583.96,1.8149032580570834
405,3586.63,1.6163671164256725
406,3589.29,1.6433639753247165
407,3591.96,1.7165578336933058
408,3594.62,1.70935769259235
409,3597.2900000000004,1.690670550960939
410,3599.96,1.6089454093295283
411,3602.6200000000003,1.5702682682285725
412,3605.29,1.6288611265971615
413,3607.95,1.7474829854962057
414,3610.62,1.944904843864795
415,3613.2799999999997,1.7634027027638388
416,3615.95,1.6776605611324282
417,3618.6099999999997,1.7736054200314724
418,3621.28,1.7616772784000614
419,3623.94,1.9292691372991055
420,3626.61,1.771134995667695
421,3629.27,1.5454248545667388
422,3631.94,1.520850712935328
423,3634.6,1.6834475718343722
424,3637.2700000000004,1.8231874302029614
425,3639.94,1.8821832885715508
426,3642.6,1.6783641474705948
427,3645.27,1.8806950058391838
428,3647.93,1.871710864738228
429,3650.6,1.7202937231068172
430,3653.2599999999998,1.8060155820058612
431,3655.93,1.7396774403744504
432,3658.5899999999997,1.9275882992734945
433,3661.26,1.8265001576420838
434,3663.92,1.9444010165411278
435,3666.59,1.7774248749097172
436,3669.25,1.8197467338087612
437,3671.92,1.6883935921773503
438,3674.5899999999997,1.6579534505459397
439,3677.2500000000005,1.6970863094449837
440,3679.92,1.672343167813573
441,3682.58,1.6702860267126167
442,3685.25,1.6082208850812063
443,3687.91,1.6214447439802502
444,3690.58,1.7192506023488396
445,3693.24,1.7625714612478836
446,3695.91,1.6666053196164727
447,3698.5699999999997,1.7293731785155166
448,3701.2400000000002,1.771749036884106
449,3703.9,1.80835289578315
450,3706.57,1.7872217541517392
451,3709.24,1.8600966125203287
452,3711.9,1.8568284714193726
453,3714.5699999999997,1.920117329787962
454,3717.2300000000005,2.066753188687006
455,3719.9,2.4788810470555953
456,3722.56,3.9088479059546395
457,3725.23,5.7288017643232285
458,3727.89,6.401716623222272
459,3730.56,5.548145481590861
460,3733.22,3.8701683404899057
461,3735.89,2.326280198858495
462,3738.5499999999997,1.997574057757539
463,3741.2200000000003,1.9514479161261284
464,3743.8900000000003,1.9755667744947176
465,3746.55,1.9840526333937616
466,3749.22,1.865961491762351
467,3751.88,1.864202350661395
468,3754.5499999999997,2.1602842090299843
469,3757.2100000000005,2.172830067929028
470,3759.88,2.2365859262976175
471,3762.54,2.2467937851966613
472,3765.21,2.141581643565251
473,3767.87,2.169643502464295
474,3770.54,1.927641360832884
475,3773.2,1.933577219731928
476,3775.87,2.1388200781005176
477,3778.5400000000004,2.3256349364691067
478,3781.2000000000003,2.5573087953681504
479,3783.87,2.70884165373674
480,3786.53,2.4402005126357835
481,3789.2,2.6078873710043733
482,3791.86,2.3403082299034175
483,3794.5299999999997,2.2015150882720063
484,3797.1899999999996,1.8926809471710504
485,3799.86,1.9889778055396399
486,3801.8939600000003,1.987697679211181
487,3802.52,1.9873036713580885
488,3805.19,2.4593255592372683
489,3807.85,2.628300447536377
490,3810.52,2.5568813354155573
491,3813.19,2.569840223294738
492,3815.85,2.812778111593846
493,3818.5200000000004,2.6231869994730266
494,3821.1800000000003,2.812353887772135
495,3823.85,2.349864775651315
496,3826.51,2.3957786639504235
497,3829.18,2.0950105518296036
498,3831.84,1.9687894401287123
499,3834.5099999999998,1.8562033280078925
500,3837.1699999999996,1.983455216307001
501,3839.84,1.9682541041861812
502,3842.5,2.04534699248529
503,3845.17,2.17622388036447
504,3847.84,2.5857777682436502
505,3850.5,2.7198976565427584
506,3853.17,2.8049055444219393
507,3855.83,2.8187284327210476
508,3858.5000000000005,2.9757873206002277
509,3861.1600000000003,3.0229792088993364
510,3863.83,2.9606980967785166
511,3866.4900000000002,2.945402985077625
512,3869.16,3.002781872956805
513,3871.82,2.9590067612559134
514,3874.49,2.775578649135094
515,3877.1499999999996,2.6068315374342026
516,3879.8199999999997,2.5872714253133826
517,3882.48,2.275271313612491
518,3885.15,2.2399842014916715
519,3887.82,2.0251240893708515
520,3890.48,2.1074669776699597
521,3893.15,2.13413586554914
522,3895.81,2.2134177538482485
523,3898.4799999999996,2.603419641727429
524,3901.1400000000003,2.7294625300265376
525,3903.81,2.743270417905718
526,3906.4700000000003,2.7394523062048264
527,3909.14,2.7947061940840063
528,3911.8,2.770272082383115
529,3914.47,2.967287970262295
530,3917.1299999999997,3.0238318585614032
531,3919.7999999999997,2.835302746440584
532,3922.4700000000003,3.0512336343197646
533,3925.13,2.7762175226188726
534,3927.8,2.610643410498053
535,3930.46,2.6582592987971614
536,3933.13,2.2665461866763414
537,3935.79,2.40130107497545
538,3938.4599999999996,2.8323229628546303
539,3941.1200000000003,2.6875908511537387
540,3943.79,2.878656739032919
541,3946.4500000000003,2.9524156273320274
542,3949.12,2.779189515211208
543,3951.7799999999997,2.8571994035103163
544,3954.45,2.7617622913894966
545,3957.12,2.790023179268677
546,3959.7799999999997,2.691413067567785
547,3962.4500000000003,2.181315955446965
548,3965.11,1.962682843746074
549,3967.78,1.8778967316252542
550,3970.44,1.9441076199243628
551,3973.11,2.166439507803543
552,3975.77,2.2223423961026514
553,3978.4399999999996,2.327544283981832
554,3981.1000000000004,2.51755917228094
555,3983.77,2.7568720601601204
556,3986.4300000000003,2.7430639484592287
557,3989.1,3.0299838363384093
558,3991.77,2.9889577242175895
559,3994.43,3.213618612516698
560,3997.1,2.987682500395878
561,3999.7599999999998,2.9122403886949866
562,4002.4300000000003,3.0731242765741666
563,4005.09,2.9511351648732753
564,4007.76,2.8833290527524555
565,4010.42,3.0410399410515643
566,4013.09,2.8909808289307444
567,4015.75,2.9600637172298527
568,4018.4199999999996,3.0446466051090333
569,4021.0800000000004,2.9789804934081414
570,4023.75,3.043585381287322
571,4026.42,3.110102269166502
572,4029.08,3.0129801574656105
573,4031.75,3.0437920453447904
574,4034.41,3.0163819336438995
575,4037.08,3.29161182152308
576,4039.74,3.150919709822188
577,4042.4100000000003,3.0605835977013682
578,4045.07,3.0931104860004766
579,4047.7400000000002,3.082476373879657
580,4050.4,2.976002262178765
581,4053.0699999999997,3.1538901500579457
582,4055.73,3.0839730383570543
583,4058.3999999999996,3.096930926236235
584,4061.07,2.948997814115415
585,4063.73,2.9906627024145234
586,4066.4,2.8982015902937035
587,4069.06,2.9740854785928117
588,4071.73,2.935821366471992
589,4074.39,2.7685612547711003
590,4077.06,2.811063142650281
