,lambda (Angstroms),Total Flux (erg/s/cm^2/Angstrom)
0,102.00000000000001,0.09575811167944195
1,103.9,0.11208672980867254
2,104.712855,0.11907245379570133
3,106.08,0.10926980607745868
4,108.05,0.09514490564495735
5,110.06,0.08073407218026818
6,113.91999999999999,0.05305884232664131
7,117.92999999999999,0.02430857959155991
8,120.22644299999999,0.00786736839160839
9,120.95,0.007635285863319364
10,124.92,0.006330842940350129
11,126.95,0.005662760198328077
12,128.12,0.005278795984354776
13,131.1,0.004298677443209107
14,132.01,0.00401132103678543
15,133.85,0.0034075474325881015
16,136.97,0.002400776181992631
17,138.038426,0.002050783158843146
18,140.16,0.0020348552597317902
19,143.09,0.0022612930389136914
20,147.10000000000002,0.0028740688851660546
21,150.87,0.0029242470498472032
22,155.1,0.0029948859375398458
23,158.489319,0.0030736896362257267
24,159.07999999999998,0.0030837100593452986
25,162.04,0.0031280200185825366
26,165.80999999999997,0.003229283409232668
27,170.07000000000002,0.003289464641107881
28,172.82999999999998,0.0033610654814777386
29,176.85,0.003441996770712096
30,180.14,0.0034965462760805123
31,181.81,0.003549371918623143
32,181.970086,0.0035526974446714946
33,186.04,0.0037340999928697984
34,190.82,0.003973941427101389
35,193.92,0.004143418252649073
36,197.98,0.0043338341403018465
37,202.12,0.004549731533130044
38,204.93999999999997,0.004708009090563743
39,208.929613,0.004790249473715449
40,210.19,0.004853274464630908
41,216.07999999999998,0.005501599147480402
42,220.1,0.005870465504875135
43,223.16,0.006073205582892019
44,226.79000000000002,0.006447792920539502
45,229.94,0.00896097161849806
46,234.21999999999997,0.013550566989057624
47,239.88329199999998,0.016347910425743357
48,240.22000000000003,0.016492618974553792
49,245.82,0.015670860114349525
50,252.13,0.01644369280936936
51,256.81,0.01415373897619865
52,259.78999999999996,0.01596298747558995
53,264.01,0.01657112615593602
54,268.92,0.01646418606600692
55,273.92,0.01632140744082454
56,275.42287,0.016288483911118458
57,279.01,0.016424869408572313
58,284.2,0.016587179619130463
59,290.15,0.01610484739424048
60,296.21999999999997,0.01655850846901658
61,301.03000000000003,0.0165435898972988
62,308.05,0.016961357927764733
63,316.227766,0.017434944281928343
64,318.14000000000004,0.017443169841324727
65,327.81,0.017159272039007776
66,337.77000000000004,0.016735371169196312
67,348.03000000000003,0.016274490574390527
68,356.96,0.015910885427059568
69,363.078055,0.015752670778053667
70,366.10999999999996,0.01579661929079646
71,374.64,0.015693412350970517
72,385.14,0.015229794101477852
73,395.02000000000004,0.015620918243859996
74,405.15000000000003,0.015741904808873268
75,413.63,0.015591373384521096
76,416.86938299999997,0.015527583176820087
77,422.29999999999995,0.015382215518597623
78,430.15,0.015207322357703008
79,441.17999999999995,0.015156710476853633
80,451.46,0.014906618388446417
81,459.84999999999997,0.014672856576993448
82,469.47999999999996,0.014513635642036107
83,478.630092,0.014482741865447074
84,480.42,0.014432792734806387
85,490.47,0.013817146619481333
86,499.59000000000003,0.013667602413335613
87,506.53999999999996,0.013257375995275003
88,512.41,0.013892818891100072
89,519.54,0.01361780758739185
90,530.42,0.013147541166025022
91,540.28,0.012489159096661338
92,549.5408739999999,0.012470123614579338
93,550.3199999999999,0.012475835547021235
94,560.55,0.012693190268392973
95,569.6600000000001,0.012872737864844249
96,580.25,0.012417652019226141
97,589.68,0.01273762022279755
98,600.64,0.012353388516662091
99,610.4,0.011735523033826138
100,620.3199999999999,0.01297918085455025
101,630.4,0.01296109497883443
102,630.957344,0.012954577724005562
103,640.64,0.01294432606848561
104,649.56,0.013333665323806879
105,658.59,0.013548406161873139
106,664.69,0.013853798477731855
107,675.49,0.013734765692694826
108,684.8799999999999,0.013351744437926522
109,694.4100000000001,0.015115497924833663
110,705.69,0.014499195682683878
111,715.51,0.015853769705918726
112,724.43596,0.016077760008934662
113,725.47,0.016100987318595772
114,735.56,0.01632803719586963
115,745.7900000000001,0.01742176339453282
116,754.43,0.018011936371702904
117,764.9200000000001,0.018087635738660564
118,775.56,0.01946256616424965
119,784.54,0.020168250207650965
120,795.46,0.020740683276018707
121,804.67,0.021279926275988206
122,815.86,0.02171227724989252
123,825.31,0.023146113943672296
124,831.763771,0.02055505234472291
125,834.87,0.019273649463107424
126,844.53,0.023505815437143085
127,854.3100000000001,0.023724952665514592
128,864.1999999999999,0.025003036877027294
129,874.21,0.026312822342875842
130,884.34,0.028117119063060237
131,894.5699999999999,0.029255938495191168
132,904.9300000000001,0.0285112334528526
133,915.41,0.04472919966484988
134,926.01,0.323832277131183
135,934.58,0.7011364775450014
136,945.4,1.355979438977617
137,954.15,2.004917176272939
138,954.992586,2.006005471000681
139,965.1999999999999,2.0192545776009756
140,974.13,0.2715986887459149
141,985.4100000000001,1.3726863870342594
142,994.53,1.673114470756751
143,1006.04,2.840860693744237
144,1015.35,2.8544275500442806
145,1024.75,1.279260298617901
146,1034.23,1.7573289514347008
147,1043.8,3.887767496525078
148,1055.89,3.8091170252756177
149,1065.6599999999999,2.7039273309739444
150,1075.52,3.4199045289458483
151,1085.47,2.4445696191913298
152,1095.51,3.6575896017103884
153,1096.4782,3.641183372774023
154,1105.6499999999999,3.485743082784376
155,1115.88,3.2165187584535313
156,1126.2,2.7958810969584857
157,1134.01,3.9311028385983784
158,1144.5,3.4803295402376198
159,1155.09,3.8168108672499708
160,1165.78,3.9064938196354326
161,1173.8600000000001,2.431956549782722
162,1184.72,3.7666328653024705
163,1195.6799999999998,2.239521806195329
164,1203.97,1.4105697496261496
165,1215.11,1.201035016190606
166,1226.36,2.5199228706654835
167,1234.86,4.162697027379836
168,1246.28,4.596952244989001
169,1254.9199999999998,4.241792877225706
170,1258.92541,3.891360204309221
171,1263.6200000000001,3.48065012284859
172,1275.31,4.87214923787891
173,1284.15,5.185654593470699
174,1296.03,3.6471567591302523
175,1305.02,3.5730441546924907
176,1314.06,4.921303563578211
177,1326.2199999999998,4.63653880384927
178,1335.4199999999998,3.839658255370137
179,1344.67,5.004509720214486
180,1353.99,4.802298203711713
181,1366.52,4.088594542576545
182,1375.99,4.4020410660442195
183,1385.5300000000002,4.4334306081647705
184,1395.14,3.7830501689381975
185,1404.81,3.9258217456998037
186,1414.55,3.962950341114287
187,1424.3500000000001,4.169730952516949
188,1434.22,4.085033582572487
189,1440.84,4.387884346601632
190,1445.43977,4.466121780595517
191,1447.4899999999998,4.500994030824979
192,1454.1699999999998,4.30896052477525
193,1464.25,3.8502187791193707
194,1474.3999999999999,3.8598760491186592
195,1484.6200000000001,3.9964283347731153
196,1494.92,4.090266638319191
197,1505.28,3.783098955283982
198,1512.23,3.2280945096184706
199,1515.71,3.5641832879039406
200,1526.22,3.381144638415519
201,1533.26,2.8129072128780797
202,1543.8899999999999,3.252616590227088
203,1554.5900000000001,3.036360983231264
204,1565.3700000000001,3.05804439412706
205,1576.22,3.2925468206780235
206,1583.49,3.5285084465789915
207,1594.47,3.5947909022038376
208,1605.52,3.538155373483851
209,1616.65,3.5635828626554846
210,1624.11,3.29585253104905
211,1635.37,3.5813690492945662
212,1646.71,3.6403595854317023
213,1654.31,3.282738285135603
214,1659.58691,3.45566339193575
215,1665.78,3.6586205800899885
216,1673.47,3.114703139700891
217,1677.32,3.6596034276725398
218,1685.07,3.912791085277805
219,1696.75,3.6109021615138714
220,1704.58,3.4252539497782886
221,1716.39,3.1683222383354748
222,1724.32,3.1542591899238306
223,1736.27,3.427503707134531
224,1744.28,3.3270267893820384
225,1756.37,3.6320875352462534
226,1764.48,3.2304977808176996
227,1776.71,3.3217817553354294
228,1784.91,3.3996651478984203
229,1793.15,3.7197056057909874
230,1805.58,3.678027906956595
231,1813.9099999999999,3.3015725118407064
232,1826.49,3.3948860579922226
233,1834.9199999999998,3.212954826200273
234,1843.39,2.8974906597378993
235,1856.17,2.878290532537293
236,1864.73,3.0005145130664643
237,1873.34,3.343957575257605
238,1886.33,3.0158267910372705
239,1895.03,2.887266000219956
240,1903.78,3.0871462910646112
241,1905.46072,3.0669834519372623
242,1916.98,2.928748784960175
243,1925.82,2.8825871744286777
244,1934.71,2.9705494586339927
245,1943.64,3.1182966586287577
246,1957.12,2.890902279673487
247,1966.15,3.2516522691418777
248,1975.23,3.3432141533470814
249,1984.34,3.1278939743943726
250,1993.5,3.0223826901784765
251,2002.7,3.129099321752031
252,2016.5900000000001,2.9686360796386255
253,2025.8899999999999,3.152297500685805
254,2035.2500000000002,2.9425417954171604
255,2044.64,3.110122026990603
256,2054.08,2.943609153300859
257,2063.56,2.930627195400565
258,2073.08,3.191815153289721
259,2077.86,3.0275090901290245
260,2082.65,3.1850950059156897
261,2097.09,2.973309605907225
262,2106.77,2.9670482269541822
263,2116.4900000000002,3.0020027637905895
264,2126.26,3.0444151953638094
265,2136.08,2.7644655216738427
266,2145.94,2.8819477637733257
267,2155.84,3.011285921662259
268,2165.79,2.8897229742880053
269,2175.79,2.8572229216505645
270,2185.83,2.7991577848025733
271,2187.7616199999998,2.8284008188772196
272,2195.92,2.951942412163869
273,2206.06,2.852378432265753
274,2216.24,2.662676519508078
275,2226.4700000000003,2.555198690675955
276,2236.75,2.7890879457693836
277,2247.0699999999997,2.632009268003254
278,2257.44,2.4663216741626757
279,2262.65,2.546195419205162
280,2273.09,2.6278339428603563
281,2283.58,2.718341550441102
282,2294.12,2.541119241947399
283,2304.71,2.5334790173792485
284,2315.35,2.3628028767366493
285,2326.04,1.714826820019602
286,2336.77,2.1177158304429957
287,2347.56,2.039714941577052
288,2352.9700000000003,2.2614500223217453
289,2363.83,2.0096272509515734
290,2374.74,2.0884485635069536
291,2385.71,1.8990339767729956
292,2396.72,2.0568014571794793
293,2402.24,1.950086722560386
294,2413.33,2.0218773372477523
295,2424.47,2.1949480358606697
296,2435.66,2.09463281839914
297,2446.9,2.2427336848631603
298,2452.54,2.2060701516653918
299,2463.86,2.1742621524102956
300,2475.24,2.070194253865862
301,2486.66,2.121719422461869
302,2492.39,1.9886250403300934
303,2503.9,2.2655943599920936
304,2511.88643,2.034810992185324
305,2515.46,1.9315374438119732
306,2527.07,1.8904999016313322
307,2532.89,1.9382441207965921
308,2544.5800000000004,1.8883095266457142
309,2556.33,2.083028893517158
310,2562.2200000000003,1.9886260672084608
311,2574.0499999999997,2.138872382109668
312,2585.9300000000003,2.088616664529477
313,2597.87,2.039466907971608
314,2603.85,1.9469470231963941
315,2615.8700000000003,1.9099632146682883
316,2627.95,2.030709367162505
317,2634.0099999999998,2.1402304304170543
318,2646.1600000000003,2.3772475374373134
319,2652.26,2.471024574706744
320,2664.5099999999998,2.135838616764207
321,2676.81,2.270959626340272
322,2682.98,2.259567618135745
323,2695.36,2.126624575741573
324,2707.8,2.214618494369723
325,2714.04,2.0565544406912393
326,2726.5699999999997,2.0407833008528726
327,2732.8599999999997,2.16560121469299
328,2745.47,1.7834820228843868
329,2758.14,1.8404297920981059
330,2764.4999999999995,1.9351306604642662
331,2777.2599999999998,2.043253371211468
332,2783.66,1.8842602135925104
333,2796.5099999999998,1.458408865873196
334,2802.96,1.5799776757728397
335,2815.9,1.991571269587009
336,2822.3900000000003,2.157587053501534
337,2835.41,2.0683475953454664
338,2841.95,1.9973363467785934
339,2855.07,1.8796808236597293
340,2868.25,2.1609942615631876
341,2874.86,2.1798679675223576
342,2884.0315,2.1510751107029074
343,2888.1299999999997,2.1382109549708352
344,2894.79,2.122603866427583
345,2908.15,2.3738196888092866
346,2928.31,2.243216420786469
347,2948.6099999999997,2.1892181509023816
348,2969.04,2.252579879289972
349,2989.62,2.249465605683345
350,3010.35,2.2879913300825008
351,3031.2099999999996,2.274270052753335
352,3052.23,2.2658327732970043
353,3073.38,2.278326492112351
354,3087.57,2.3023403034593857
355,3108.97,2.293774018951037
356,3130.52,2.248676732448471
357,3152.22,2.2503954439516876
358,3166.77,2.2482102505126003
359,3188.72,2.0999729586921214
360,3210.83,2.1954636647444774
361,3233.08,2.0459943689355633
362,3248.0,2.2202791705774065
363,3270.52,2.3106188711789013
364,3293.1899999999996,2.275348569786179
365,3308.39,2.273008367705483
366,3311.31121,2.2636352047586112
367,3323.66,2.224009190485023
368,3331.3199999999997,2.264274243734091
369,3338.9999999999995,2.1169762919002593
370,3346.7000000000003,2.2775263349835266
371,3354.42,2.178909372983893
372,3362.1499999999996,2.0701494084428096
373,3369.9,2.0882544388188253
374,3377.6699999999996,2.12101346411194
375,3385.45,2.1642374868636054
376,3393.26,2.275321501990919
377,3401.0800000000004,2.4310425145767827
378,3408.9199999999996,2.1907585220797454
379,3416.7799999999997,2.184505524499808
380,3424.65,2.32323052437842
381,3432.5499999999997,2.3979565166326817
382,3440.46,2.2888905063454925
383,3448.39,2.0960354909754026
384,3456.34,2.138629470522412
385,3464.31,2.027377444986522
386,3472.2999999999997,2.2420724143677297
387,3480.3,2.057952381207488
388,3488.3199999999997,2.1635923429643458
389,3496.36,2.1278562996383026
390,3504.4199999999996,2.226942251229359
391,3512.5,2.1501681977375147
392,3520.6,2.2604751391627698
393,3528.7200000000003,2.0229890755051247
394,3536.8500000000004,2.2167820093060286
395,3545.0,2.3146169380240322
396,3553.1800000000003,2.334578859117685
397,3561.37,2.274963777669887
398,3569.58,2.0690056911391896
399,3577.81,2.0393595995255906
400,3586.05,1.9111125053705416
401,3594.3199999999997,2.0844514035911414
402,3602.61,2.2894732967288407
403,3610.91,2.0964611873250902
404,3619.2400000000002,2.204119070296988
405,3627.5800000000004,2.306627950727436
406,3635.9399999999996,2.0641638260749833
407,3643.5099999999998,2.4283389021971047
408,3646.19,2.3091212210884238
409,3648.8599999999997,2.477637542521193
410,3651.53,2.5927908639539625
411,3654.21,1.9681901828452812
412,3656.88,2.2434315042780506
413,3659.5499999999997,2.49089882571082
414,3662.22,2.432390147143589
415,3664.8999999999996,2.1855394660349083
416,3667.57,2.339231787467677
417,3670.2400000000002,2.1576151089004467
418,3672.91,2.037005430333216
419,3675.59,2.427540749224535
420,3678.2599999999998,2.3283080706573043
421,3680.93,2.0800653920900736
422,3683.61,2.1616607109813923
423,3686.28,2.368559032414162
424,3688.95,2.354675353846931
425,3691.62,2.2087886752797004
426,3694.2999999999997,2.140437994171019
427,3696.97,2.3117623156037888
428,3699.6400000000003,2.448604637036558
429,3702.31,2.151211958469327
430,3704.9900000000002,2.220324277360646
431,3707.66,2.092537598793416
432,3710.33,2.0861429202261847
433,3713.0,2.294134241658954
434,3715.6800000000003,2.302238560550273
435,3718.3500000000004,2.0928478819830425
436,3721.02,3.0820862034158116
437,3723.7,3.8584815223071307
438,3726.37,5.0427578437399
439,3729.04,5.88439416517267
440,3731.7099999999996,4.831037486605439
441,3734.3900000000003,3.7976278054967576
442,3737.06,3.1689851269295266
443,3739.73,2.4406374483622963
444,3742.4,2.3086377697950655
445,3745.08,2.4790130886863846
446,3747.7500000000005,2.2537074101191537
447,3750.42,2.0777077315519232
448,3753.1,1.9165190504432421
449,3755.77,2.4577913718760116
450,3758.44,2.4044316933087804
451,3761.1099999999997,2.3886750147415503
452,3763.79,2.639094333632869
453,3766.4599999999996,2.294737655065638
454,3769.13,2.5259779764984076
455,3771.8,2.241068297931177
456,3774.48,2.395216616822496
457,3777.15,2.6422169382552654
458,3779.8199999999997,2.6966742596880344
459,3782.4999999999995,3.0659865785793534
460,3785.17,3.168814900012123
461,3787.84,2.812600221444892
462,3790.51,2.715396542877661
463,3793.19,2.4824318617689802
464,3795.8599999999997,2.4644911832017495
465,3798.5299999999997,2.145098504634519
466,3801.2000000000003,2.5033488260672883
467,3801.8939600000003,2.461973874103782
468,3803.88,2.343563250127654
469,3806.55,2.4980367129479863
470,3809.22,2.733802175768319
471,3811.89,3.0028026385886513
472,3814.5699999999997,2.7415950993970744
473,3817.2400000000002,2.835217562217407
474,3819.9100000000003,2.9197900250377393
475,3822.59,2.549361485846163
476,3825.2599999999998,2.253530948666495
477,3827.93,2.276938411486827
478,3830.6,2.23215987430716
479,3833.28,2.370862335115583
480,3835.9500000000003,2.1811317979359157
481,3838.62,2.262894260756248
482,3841.29,2.31579172357658
483,3843.97,2.5025511843850037
484,3846.64,2.4281266472053358
485,3849.3100000000004,2.9544221100256682
486,3851.9900000000002,2.7667055708340915
487,3854.66,3.2614820336544237
488,3857.33,3.1926764964747565
489,3860.0,3.1102959592950885
490,3862.68,3.770760420103512
491,3865.3500000000004,3.6585788829238446
492,3868.02,3.914006345744177
493,3870.69,4.052098808564509
494,3873.37,3.7468872693729325
495,3876.04,3.370857732193265
496,3878.71,3.223257195013597
497,3881.3799999999997,2.7882466578339296
498,3884.06,2.787455118642353
499,3886.73,2.2848835814626853
500,3889.4,2.6169200442830176
501,3892.08,2.760613505091441
502,3894.75,2.6155079679117734
503,3897.4199999999996,2.846281430732106
504,3900.09,2.7966658935524378
505,3902.77,3.0896803543608615
506,3905.44,3.3677308171811937
507,3908.11,3.3438612800015264
508,3910.7799999999997,3.4254707428218585
509,3913.4600000000005,3.7152052036302816
510,3916.13,3.7543736664506144
511,3918.8,3.2845691292709467
512,3921.48,3.3249685900793704
513,3924.15,3.1581760528997025
514,3926.8199999999997,3.0896825157200345
515,3929.49,2.915242978540367
516,3932.1699999999996,3.0917024393487904
517,3934.84,2.775743902169123
518,3937.51,2.921011364989455
519,3940.18,2.774658827809787
520,3942.86,2.943472288618211
521,3945.5299999999997,3.270360751438543
522,3948.2,3.3858272142588755
523,3950.8700000000003,3.3014176770792076
524,3953.55,3.3745841378876316
525,3956.22,3.2560046007079637
526,3958.89,3.082814063528296
527,3961.5699999999997,2.7434365243367194
528,3964.24,2.7818229871570517
529,3966.9100000000003,2.688363449977384
530,3969.58,2.7857299127977164
531,3972.26,2.5900573736061396
532,3974.93,2.6144008364264724
533,3977.6,2.7215972992468043
534,3980.27,2.706152762067137
535,3982.9500000000003,3.00541022287556
536,3985.6200000000003,3.2169906856958925
537,3988.29,3.249605148516225
538,3990.97,3.486758609324648
539,3993.64,3.4549330721449807
540,3996.31,3.329643534965313
541,3998.9799999999996,3.409067997785645
542,4001.6600000000003,3.4269984585940687
543,4004.33,3.461796921414401
544,4007.0,3.3993883842347334
545,4009.67,3.5098628470550657
546,4012.35,3.203561307863489
547,4015.0200000000004,3.3889297706838217
548,4017.69,3.4369912335041537
549,4020.36,3.597395696324486
550,4023.04,3.7403061571329097
551,4025.71,3.668379619953242
552,4028.3799999999997,3.426068082773574
553,4031.0600000000004,3.4193455435819975
554,4033.73,3.4811380064023303
555,4036.4,3.5366894692226625
556,4039.07,3.394080932042995
557,4041.75,3.2784493928514182
558,4044.42,3.4436898556717503
559,4047.0899999999997,3.401097318492083
560,4049.76,3.432151781312415
561,4052.44,3.4605362421208388
562,4055.11,3.737026704941171
563,4057.78,3.593795167761503
564,4060.46,3.528248628569927
565,4063.1299999999997,3.7449790913902588
566,4065.8,3.7613665542105914
567,4068.4700000000003,3.7652720170309237
568,4071.15,3.526688477839347
569,4073.82,3.6312319406596796
570,4076.49,3.629364403480012
571,4079.16,3.6607308663003444
572,4081.8399999999997,3.7318663271087673
573,4084.51,3.5813017899290998
574,4087.1800000000003,3.6455902527494324
575,4089.85,3.7743207155697642
576,4092.5299999999997,3.634815176378188
577,4095.2,3.3659786391985205
578,4097.87,3.4059261020188525
579,4100.55,3.166875562827276
580,4103.22,3.1748360256476085
581,4105.889999999999,3.1901304884679407
582,4108.56,3.328533951288273
583,4111.24,3.333358412096697
584,4113.91,3.290609874917029
585,4116.58,3.314798337737361
586,4119.25,3.3864208005576937
587,4121.929999999999,3.800981261366117
588,4124.6,3.6727287241864492
589,4127.27,3.5290281870067814
