,lambda (Angstroms),Total Flux (erg/s/cm^2/Angstrom)
0,102.07000000000001,0.02646662387121487
1,103.97,0.030941854524006936
2,104.712855,0.03269484126045975
3,105.9,0.030385702983818968
4,108.12,0.026069580168161844
5,109.88,0.022713317014307562
6,114.0,0.014723074756421355
7,118.01,0.0069428353894010475
8,120.22644299999999,0.0032139189519527892
9,121.02999999999999,0.00336267898196069
10,125.0,0.003226197934657579
11,127.03,0.0031362091724345775
12,127.91,0.003124794507037415
13,130.89,0.003000067708306114
14,132.1,0.0031183982933850147
15,133.94,0.0030534685384636735
16,137.06,0.0031658529975100956
17,138.038426,0.0031415511404054835
18,139.93,0.003259902441096937
19,142.86,0.005732462538989144
20,146.85999999999999,0.009828362672630382
21,150.97,0.010530302809946756
22,154.85,0.011385446939578756
23,158.489319,0.012237649065674316
24,158.82,0.01231451539130744
25,162.14,0.013002372049820809
26,165.92,0.014037187040537837
27,170.17999999999998,0.014956452030076076
28,172.94,0.01573390202329803
29,176.97,0.01669897784673444
30,179.85000000000002,0.0174143778396617
31,181.93,0.017923491167886944
32,181.970086,0.017933124413448878
33,186.17000000000002,0.018969719112042215
34,190.94,0.020265906126339474
35,194.04999999999998,0.021159586716373954
36,198.10999999999999,0.022247010380534723
37,201.79,0.023388902815044972
38,205.07000000000002,0.024203322376238894
39,208.929613,0.02461098215901606
40,209.85,0.02471558232693758
41,216.22,0.027311457067053953
42,220.23999999999998,0.028615112350455496
43,222.79,0.02922805346306095
44,226.94,0.030547857822791395
45,230.09,0.04588195390306872
46,233.83,0.07492810886822339
47,239.83,0.09818172854494212
48,239.88329199999998,0.09814055991965369
49,245.98,0.09332395564836614
50,251.70999999999998,0.09944526317093795
51,256.97999999999996,0.08016920155557207
52,259.96,0.09690990510134238
53,264.18,0.10258658414937957
54,269.09,0.1025492219043233
55,274.1,0.10226886816751436
56,275.42287,0.10195707448394496
57,279.19,0.10113083105256414
58,283.72999999999996,0.10186559531014819
59,289.67,0.09712831995553348
60,295.74,0.0976256931369289
61,301.23,0.09288020515766379
62,308.25,0.09487020610221006
63,316.227766,0.0964947776738415
64,318.35,0.09689587466417653
65,328.02,0.09551537127311495
66,337.99,0.09329643100332344
67,348.26000000000005,0.09070618385480197
68,357.19,0.09003134076460757
69,363.078055,0.09052525124116081
70,366.36,0.09083672026219422
71,374.89000000000004,0.08881936635717101
72,385.39,0.08355103898287516
73,395.28000000000003,0.08572366486556221
74,405.42,0.08557753842981364
75,413.90999999999997,0.08368616129574012
76,416.86938299999997,0.08261798885187052
77,421.6,0.08090135839051503
78,430.43,0.07873858108574751
79,441.46999999999997,0.07823339920073805
80,450.72,0.07615077921556254
81,460.15,0.07328991093878363
82,469.79,0.07166686132180074
83,478.630092,0.07096365182065065
84,479.63,0.07087741340714067
85,489.66999999999996,0.06753505929911593
86,499.92,0.06765002714699905
87,505.71,0.06535941393131546
88,511.57,0.06979579470093449
89,519.88,0.06788366495614509
90,529.5500000000001,0.06497038692580652
91,539.39,0.06078379285977432
92,549.42,0.05870355675384921
93,549.5408739999999,0.05872399049592836
94,559.63,0.060455418346950694
95,570.04,0.06058070240329353
96,580.64,0.058664971452019196
97,590.0699999999999,0.057724767652913817
98,599.66,0.05414553595265713
99,609.4,0.04764934872007109
100,619.3,0.05412092358633373
101,629.3700000000001,0.05181390818262311
102,630.957344,0.05186700795570555
103,639.59,0.05218085756483015
104,649.98,0.05056240022495805
105,657.51,0.04843306456863111
106,665.12,0.049449402291785426
107,674.38,0.049016360966740606
108,685.34,0.045802033955672436
109,694.8699999999999,0.04687118278637685
110,704.5400000000001,0.04320703503117346
111,715.9799999999999,0.04533764829699282
112,724.43596,0.04474444550701382
113,725.94,0.04463785318829675
114,734.35,0.043941820995269366
115,744.5699999999999,0.04257921578566891
116,754.9200000000001,0.04163652389532011
117,765.43,0.0376183237825118
118,774.29,0.040083878463817085
119,785.0600000000001,0.0380643049895121
120,794.15,0.03842008785103184
121,805.1999999999999,0.03817005998742273
122,814.52,0.03758106102915695
123,825.85,0.03708523877624372
124,831.763771,0.03483582332068834
125,835.4200000000001,0.0334340775066561
126,845.09,0.035591079819375544
127,854.88,0.034699263970515495
128,864.77,0.03452231132033921
129,874.79,0.034036599828451815
130,884.92,0.03348301085511655
131,895.17,0.032937533720201785
132,905.53,0.032181719103839164
133,916.02,0.032013305645765426
134,924.49,0.05454332957427977
135,935.2,0.07748328115331031
136,946.0300000000001,0.09940194457076135
137,954.78,0.11170176945559021
138,954.992586,0.11186471735065834
139,965.84,0.1201981841563727
140,974.77,0.06161716522838282
141,986.06,0.10403367489277189
142,995.18,0.10005581385993116
143,1004.39,0.1166585834090032
144,1016.02,0.11612088193839601
145,1025.4199999999998,0.0760169893826172
146,1034.91,0.10142810740875113
147,1044.49,0.13141787601679783
148,1054.1499999999999,0.12726351847543366
149,1063.91,0.11141172824730584
150,1076.23,0.1196142012380298
151,1086.18,0.10164604890505115
152,1096.23,0.12043546388530892
153,1096.4782,0.12025899746728796
154,1103.83,0.11502686159682907
155,1114.05,0.11240800616353233
156,1124.35,0.10161396888731351
157,1134.76,0.11499421907707681
158,1145.26,0.10907687719355277
159,1155.85,0.10956814323674137
160,1163.8700000000001,0.10855683848380207
161,1174.64,0.08224906038041598
162,1185.5,0.10343211020374254
163,1193.72,0.088896000843498
164,1204.77,0.0764036362898846
165,1215.91,0.05646504966298386
166,1224.34,0.08507554546506883
167,1235.67,0.09942298446122814
168,1244.24,0.10242571703819947
169,1255.75,0.09963003188778406
170,1258.92541,0.0977579340957825
171,1264.45,0.09450690534029053
172,1276.15,0.10359454672495168
173,1285.0,0.10455039072104151
174,1293.91,0.09151936908320656
175,1305.88,0.09110259011520602
176,1314.93,0.10124486866487982
177,1324.05,0.097149792308308
178,1336.3,0.09047911371532501
179,1345.5600000000002,0.09759790754626196
180,1354.8899999999999,0.09494666647095328
181,1364.28,0.08863095976171978
182,1373.74,0.08883700814624068
183,1386.4499999999998,0.08842938302650077
184,1396.0600000000002,0.07343926232620965
185,1405.73,0.07260540599199367
186,1415.48,0.0825529154792113
187,1425.29,0.08105338933250411
188,1435.17,0.0821763182795513
189,1441.79,0.08331540000318009
190,1445.43977,0.08331575327151274
191,1448.45,0.0833160094342356
192,1455.13,0.08087017740433489
193,1465.22,0.07689040363461959
194,1475.38,0.07671526414004007
195,1485.6,0.07689158830986263
196,1495.9,0.07601578736555466
197,1506.2700000000002,0.07294539069638245
198,1513.22,0.06778656515629113
199,1516.71,0.06983730830234601
200,1523.71,0.06888413581592309
201,1534.27,0.06171313075069084
202,1544.9099999999999,0.05976550057132803
203,1555.6200000000001,0.05841400466710099
204,1566.4,0.06171436303800973
205,1573.63,0.0646060945984615
206,1584.5400000000002,0.0658017709089081
207,1595.52,0.06640891149449046
208,1606.58,0.06431266696594228
209,1613.9999999999998,0.063726630130334
210,1625.19,0.06171766354132368
211,1636.45,0.06402134122744914
212,1644.0,0.06431481233137872
213,1655.3999999999999,0.06143708856777571
214,1659.58691,0.06264899518256914
215,1666.88,0.06476279704838439
216,1670.72,0.059368509716697174
217,1678.4299999999998,0.07213037843354392
218,1686.1799999999998,0.07263223499068559
219,1693.9599999999998,0.06796723492804845
220,1705.7,0.06735328105460887
221,1713.5800000000002,0.06907233559270903
222,1725.45,0.06987501970022797
223,1733.42,0.07571144437899172
224,1745.43,0.07349470092754287
225,1753.49,0.08000178574697021
226,1765.64,0.0708595847365536
227,1773.7900000000002,0.07555756969664451
228,1786.09,0.07695797558733389
229,1794.3300000000002,0.08730072068808838
230,1806.77,0.08358467901980998
231,1815.1100000000001,0.08207241872130179
232,1823.49,0.08095584626308852
233,1836.1299999999999,0.07822654379628476
234,1844.6000000000001,0.06897504147873507
235,1853.1200000000001,0.07611151146155404
236,1865.96,0.08457483819622488
237,1874.5800000000002,0.08419305277978116
238,1883.2299999999998,0.08247760074355864
239,1896.28,0.08654922113977784
240,1905.04,0.08595921816436636
241,1905.46072,0.08603552406005598
242,1913.83,0.08754491423866007
243,1927.1,0.08097886520331307
244,1935.99,0.06604941426704822
245,1944.93,0.09311380458536003
246,1953.9,0.09247174765641789
247,1967.45,0.10417056764670037
248,1976.53,0.1004112874778269
249,1985.6499999999999,0.1025006043126148
250,1994.82,0.10179393240197941
251,2004.02,0.09722501324409002
252,2013.28,0.09766591959169264
253,2027.2299999999998,0.09033218961858862
254,2036.5900000000001,0.10247111847534462
255,2045.99,0.11078121433576198
256,2055.43,0.10436008719984069
257,2064.92,0.10105493131849609
258,2074.45,0.11676805244081283
259,2079.23,0.14357300437834422
260,2084.03,0.15240644481770627
261,2093.65,0.14257661419826106
262,2103.31,0.1343075605824772
263,2113.02,0.14388127822127003
264,2122.77,0.1364729728637242
265,2132.57,0.12278303876075505
266,2147.35,0.14552474161362405
267,2157.26,0.14619014427072363
268,2167.22,0.1324342181823999
269,2177.22,0.13395766909773751
270,2187.27,0.15095199126765182
271,2187.7616199999998,0.15127967271392379
272,2197.37,0.15769391282639936
273,2207.51,0.15096086070042308
274,2212.6,0.12736049380483933
275,2222.81,0.1345833737647784
276,2233.07,0.16627127664322844
277,2243.38,0.15627050244018945
278,2253.74,0.1300383511556614
279,2264.14,0.12709141820594214
280,2274.59,0.13837410817473383
281,2285.0899999999997,0.1636939210620365
282,2295.64,0.14233365686785013
283,2306.23,0.1615554110084725
284,2316.88,0.1467425926513081
285,2327.5699999999997,0.11350369262895242
286,2332.94,0.11222605407703007
287,2343.71,0.08544397072429194
288,2354.52,0.13712924570636262
289,2365.39,0.0911750981906464
290,2376.31,0.11341503359344117
291,2387.2799999999997,0.0745739719147469
292,2392.7799999999997,0.09021347295095307
293,2403.83,0.08962672794187634
294,2414.92,0.10055113126760841
295,2426.0699999999997,0.14961434209555363
296,2437.27,0.14795657584200977
297,2442.89,0.17023495188264226
298,2454.16,0.1754550177150138
299,2465.49,0.16232991104959849
300,2476.87,0.14477062730269413
301,2482.58,0.11510364459664633
302,2494.04,0.12082599751935953
303,2505.55,0.1725238733605837
304,2511.33,0.09678128274045125
305,2511.88643,0.09517191553895687
306,2517.12,0.08003148934904618
307,2522.92,0.08514939042125733
308,2534.56,0.11343735546962588
309,2546.26,0.11989567987391389
310,2552.13,0.181272138528031
311,2563.91,0.14645834874021157
312,2575.75,0.17849134830831156
313,2587.64,0.1643765390063444
314,2593.6,0.1517054816943407
315,2605.5699999999997,0.13467635820026608
316,2617.6,0.12177662406211093
317,2623.63,0.16228035433201318
318,2635.74,0.23825640600175063
319,2647.91,0.3147665470274075
320,2654.0099999999998,0.4063748648792157
321,2666.2599999999998,0.2787880917127651
322,2672.41,0.31352890069450623
323,2684.75,0.35024631156193475
324,2697.14,0.26832301355929616
325,2703.36,0.32107711012294327
326,2715.8300000000004,0.24486849792819723
327,2722.0899999999997,0.21336118739579063
328,2734.66,0.2571067574609103
329,2747.28,0.15441961865596282
330,2753.61,0.19885189570546222
331,2766.3199999999997,0.24917224093439386
332,2772.7000000000003,0.2700823091138261
333,2785.5,0.17619603837663694
334,2791.92,0.07875221946001545
335,2804.81,0.09594367275670539
336,2817.75,0.2472234171833282
337,2824.25,0.3388386640745993
338,2837.29,0.32074475076108777
339,2843.83,0.25607259055630516
340,2856.95,0.17611726305068626
341,2863.54,0.3239265939758365
342,2876.7599999999998,0.4022495487300833
343,2883.3900000000003,0.3772199725591798
344,2884.0315,0.3800150877682383
345,2896.7,0.43521591276248844
346,2910.07,0.5751363642219218
347,2930.2400000000002,0.5093785909935576
348,2950.55,0.4767690172569154
349,2970.9999999999995,0.4983316430119949
350,2991.6,0.5078863682224907
351,3012.33,0.5116655929610137
352,3033.21,0.539779217154953
353,3047.22,0.562827466290829
354,3068.34,0.6075660896134344
355,3089.6099999999997,0.5995738123914559
356,3111.02,0.6730701346611994
357,3132.59,0.6285352563500534
358,3147.05,0.6331346038521779
359,3168.86,0.688230024669698
360,3190.83,0.6053535449063285
361,3212.94,0.6656421646346811
362,3227.77,0.573391310793499
363,3250.15,0.7702805295416008
364,3272.68,0.8889462477451185
365,3287.78,0.8751017929236858
366,3310.5699999999997,0.8304918101832586
367,3311.31121,0.8261706600508362
368,3318.2,0.7860095293944358
369,3325.8500000000004,0.7789677984669005
370,3333.52,0.8503229661513193
371,3341.21,0.7864907324476923
372,3348.91,0.9178012980500423
373,3356.63,0.8888653622643465
374,3364.37,0.5888783250906049
375,3372.12,0.6577744872228404
376,3379.89,0.8935178479670299
377,3387.69,0.8437410066291507
378,3395.5,0.7679077645972486
379,3403.32,0.9916550218713236
380,3411.17,0.8081503770633298
381,3419.03,0.7953771315613131
382,3426.9100000000003,0.8543803846712507
383,3434.81,0.9698863363931421
384,3442.73,0.7462173867269879
385,3450.67,0.8221239356727879
386,3458.62,0.9015812839245648
387,3466.6000000000004,0.8455079300942732
388,3474.59,0.9229814755699585
389,3482.6000000000004,0.8655509196575978
390,3490.63,0.9318976623571914
391,3498.6699999999996,0.7915684043627621
392,3506.74,1.0012526442862641
393,3514.82,0.8407510835157431
394,3522.92,0.9676960213571763
395,3531.0399999999995,0.7904389578105636
396,3539.1800000000003,0.9906412928759052
397,3547.34,1.0399298265532007
398,3555.52,0.9662777588424506
399,3563.7200000000003,0.9445134897436545
400,3571.93,0.7504761199508354
401,3580.1699999999996,0.8249165480759477
402,3588.42,0.608933975507037
403,3596.69,0.8945309015500805
404,3604.98,1.0225028262050782
405,3613.29,0.77768704947203
406,3621.62,0.753193771350936
407,3629.9700000000003,1.185571091841796
408,3638.3399999999997,0.9595149109446103
409,3646.7300000000005,1.014249928659379
410,3655.1299999999997,1.0309523456801242
411,3663.56,1.268546760618801
412,3672.0000000000005,1.1127971748634549
413,3680.4700000000003,1.0777455870260397
414,3688.95,1.013039998494602
415,3697.46,1.1264404078810955
416,3705.98,1.1743378165735658
417,3714.52,1.0517362238779904
418,3723.09,0.8571062291003462
419,3731.67,1.0211800336286792
420,3740.27,0.6156069367689663
421,3748.89,0.8004705385212075
422,3753.0,0.5732542532777865
423,3755.71,0.8085388651975747
424,3758.43,0.8754527764233399
425,3761.1499999999996,0.949407787649105
426,3763.8700000000003,0.9478129988748702
427,3766.59,0.9247104101006355
428,3769.2999999999997,1.0423034220204235
429,3772.02,1.0691562332461888
430,3774.74,1.003113044471954
431,3777.46,0.9632045556977192
432,3780.1800000000003,1.0105886669234845
433,3782.89,1.1824284788432726
434,3785.6099999999997,1.1533382900690379
435,3788.33,0.9544162012948031
436,3791.05,0.9426971125205682
437,3793.7599999999998,0.8835976244403564
438,3796.48,0.8180176356661216
439,3799.2,0.7178238468918868
440,3801.8939600000003,0.9153224234867048
441,3801.9199999999996,0.9172314584942111
442,3804.6400000000003,0.961866009053336
443,3807.35,1.0254188601618761
444,3810.0699999999997,0.9831715107210011
445,3812.79,1.039395561280126
446,3815.5099999999998,1.0528594118392511
447,3818.23,1.044223262398376
448,3820.94,0.897060813506916
449,3823.66,0.892048864066041
450,3826.3799999999997,0.899525514625166
451,3829.1,0.7860721651842909
452,3831.82,0.616111615743416
453,3834.5299999999997,0.627729066851956
454,3837.25,0.6915596174110809
455,3839.97,0.6183994679702058
456,3842.69,0.6803797185293309
457,3845.4100000000003,0.8022851690884558
458,3848.12,0.9368122201969958
459,3850.8399999999997,1.0351024707561207
460,3853.56,1.0826913213152458
461,3856.28,1.018422171874371
462,3858.99,0.9443417229829107
463,3861.71,1.0977778735420358
464,3864.43,1.0692267241011608
465,3867.1499999999996,0.8202732746602858
466,3869.8700000000003,0.9544360252194107
467,3872.58,0.9554161763279506
468,3875.2999999999997,0.7955280268870757
469,3878.02,0.8300123774462006
470,3880.74,0.9638156280053256
471,3883.46,0.9975289785644507
472,3886.17,0.9386608296729906
473,3888.89,0.9603737802321156
474,3891.6099999999997,0.8912988307912406
475,3894.33,1.1014220813503655
476,3897.05,1.0856679319094906
477,3899.7599999999998,1.0969027830180305
478,3902.48,1.0684286335771556
479,3905.2,1.1907194841362805
480,3907.9199999999996,1.2969493346954055
481,3910.6400000000003,1.1107471852545305
482,3913.35,1.2514180363630705
483,3916.0699999999997,1.4217098869221954
484,3918.79,1.2572997374813204
485,3921.51,1.3076635880404455
486,3924.22,1.2217124391489853
487,3926.94,1.0390302897081103
488,3929.66,0.8653176402672355
489,3932.3799999999997,0.5989156908263604
490,3935.1000000000004,0.5288649413854855
491,3937.81,0.5790276924940254
492,3940.5299999999997,0.6906548430531504
493,3943.25,0.8477140936122753
494,3945.97,1.1572592441714002
495,3948.69,1.2322670947305252
496,3951.4,1.3112899458390654
497,3954.12,1.2570167963981904
498,3956.8399999999997,1.1945716469573153
499,3959.56,1.1474674975164403
500,3962.28,1.0904703480755653
501,3964.99,0.8865425991841052
502,3967.71,0.6845371497432302
503,3970.43,0.6163878003023552
504,3973.1499999999996,0.6882101508614802
505,3975.86,0.8234563019700202
506,3978.58,1.0657274525291451
507,3981.2999999999997,1.3385253030882702
508,3984.02,1.3474151536473953
509,3986.74,1.4725830042065202
510,3989.45,1.46261885531506
511,3992.17,1.4755167058741852
512,3994.89,1.6361475564333101
513,3997.6099999999997,1.676232406992435
514,4000.3300000000004,1.6094192575515602
515,4003.04,1.5952911086601
516,4005.7599999999998,1.6816059592192252
517,4008.48,1.73135380977835
518,4011.2,1.724952660337475
519,4013.92,1.6771295108966
520,4016.63,1.83632936200514
521,4019.35,1.861946212564265
522,4022.0699999999997,1.76131506312339
523,4024.79,1.704111913682515
524,4027.51,1.82560476424164
525,4030.22,1.82214361535018
526,4032.94,1.6563184659093049
527,4035.66,1.64202831646843
528,4038.3799999999997,1.709481167027555
529,4041.09,1.8341180181360948
530,4043.81,1.8497398686952198
531,4046.5299999999997,1.7117967192543448
532,4049.25,1.5954125698134698
533,4051.97,1.688100420372595
534,4054.68,1.7099232714811348
535,4057.4,1.6939381220402598
536,4060.12,1.6784659725993847
537,4062.8399999999997,1.5858528231585098
538,4065.56,1.5133856737176348
539,4068.27,1.6825035248261746
540,4070.99,1.6388423753852996
541,4073.71,1.6347802259444246
542,4076.43,1.6545650765035496
543,4079.15,1.6872239270626745
544,4081.86,1.7839537781712147
545,4084.58,1.8194916287303395
546,4087.2999999999997,1.7848244792894645
547,4090.02,1.7527013298485896
548,4092.7400000000002,1.7877751804077147
549,4095.45,1.7788910315162545
550,4098.17,1.6386088820753795
551,4100.889999999999,1.4827037326345045
552,4103.61,1.5675275831936295
553,4106.32,1.5232064343021694
554,4109.04,1.5455092848612944
555,4111.76,1.6681851354204194
556,4114.48,1.6269139859795445
557,4117.2,1.6788198365386695
558,4119.91,1.6863296876472094
559,4122.63,1.7193235382063343
560,4125.349999999999,1.7570703887654593
561,4128.07,1.7503872393245843
562,4130.79,1.8347990898837094
563,4133.5,1.8069759409922495
564,4136.22,1.7169827915513742
565,4138.94,1.7512356421104993
566,4141.66,1.7849224926696243
567,4144.38,1.7159503432287493
568,4147.09,1.7935101943372893
569,4149.8099999999995,1.7299590448964144
570,4152.53,1.6783838954555395
571,4155.25,1.7688357460146644
572,4157.97,1.7634365965737895
573,4160.68,1.8239084476823293
574,4163.4,1.8689532982414543
575,4166.12,1.8686691488005793
576,4168.84,1.7878239993597043
577,4171.55,1.7022078504682443
578,4174.2699999999995,1.7022577010273692
579,4176.99,1.6869915515864942
580,4179.71,1.6751694021456192
581,4182.429999999999,1.7514872527047443
582,4185.14,1.7604881038132842
583,4187.86,1.8055839543724093
584,4190.58,1.7596358049315342
585,4193.3,1.785048655490659
586,4196.0199999999995,1.7280505060497842
587,4198.73,1.708733357158324
588,4201.45,1.754960207717449
589,4204.17,1.689097058276574
