,lambda (Angstroms),Total Flux (erg/s/cm^2/Angstrom)
0,100.04,0.0028712004710165127
1,101.89999999999999,0.003452787388526169
2,104.03,0.004118798126816559
3,104.712855,0.0043323140516009235
4,105.97,0.004004331854701431
5,107.94,0.003490369899115578
6,109.94,0.0029685821821938737
7,114.07000000000001,0.0018910895229177773
8,118.08000000000001,0.0008449050196700846
9,120.22644299999999,0.00028492787968872397
10,121.11,0.00027426923178344834
11,125.07000000000001,0.0002264794445627165
12,127.10000000000001,0.0002019819561909778
13,127.99,0.00019124317696854077
14,130.97,0.00015528420305071735
15,131.87,0.00014443406812600552
16,134.02,0.00011849262006697184
17,137.14000000000001,8.08651906973044e-05
18,138.038426,7.002887374947731e-05
19,140.01,6.920911646832165e-05
20,142.94,6.817159071256249e-05
21,146.95,6.691327677038018e-05
22,151.06,6.535234631093648e-05
23,154.94,6.393894524119399e-05
24,158.489319,6.268786122215016e-05
25,158.91,6.244335528163371e-05
26,161.87,6.07528952725918e-05
27,166.01999999999998,5.842675515518509e-05
28,169.89000000000001,5.631377159268769e-05
29,173.05,5.461943875871052e-05
30,177.08,5.2513388736264956e-05
31,179.95000000000002,5.1083594298443904e-05
32,181.970086,5.0074179728279767e-05
33,182.04000000000002,5.0099782317275816e-05
34,185.85,5.1611322026258155e-05
35,191.06,5.369768807974844e-05
36,194.16,5.503816455687318e-05
37,198.23,5.685351781554984e-05
38,201.91,5.872351174968503e-05
39,205.19,6.028114929967507e-05
40,208.929613,6.198732699135548e-05
41,209.96999999999997,6.357456272517292e-05
42,215.86,7.36589847346891e-05
43,219.87,8.04207345747841e-05
44,222.93,8.548189151011846e-05
45,227.07000000000002,9.270601501086492e-05
46,230.23,0.00010749446014670035
47,233.97,0.00013192192084544234
48,239.88329199999998,0.00015570472006229912
49,239.97,0.00015585101181478424
50,246.13,0.0001519389643861856
51,251.86,0.0001553573690021157
52,257.14,0.00014221685692045974
53,260.11,0.00015273300512452825
54,263.73,0.00015691861744733228
55,269.25,0.00015649176027105556
56,274.26,0.0001564476201708479
57,275.42287,0.00015653226706643838
58,278.72,0.0001639615155104116
59,283.9,0.00017559854015901534
60,289.84,0.00018411384332749154
61,295.90999999999997,0.00019940611255857748
62,300.72,0.00020739185687513825
63,307.72,0.00022485890640027854
64,316.227766,0.0002459798851202519
65,317.80999999999995,0.00024682159329385506
66,328.21999999999997,0.0002492275168341153
67,338.19,0.0002504710020114827
68,347.67,0.0002518449831029013
69,357.41,0.0002530634459542111
70,363.078055,0.00025596220394795253
71,365.73,0.0002612123631330521
72,375.11,0.00027470774369626127
73,384.74,0.0002828068325900464
74,394.6,0.00030453915714796147
75,404.73,0.0003210466627028985
76,414.15,0.00033309898859899985
77,416.86938299999997,0.00033622415177871133
78,421.85,0.0003406656517424705
79,429.7,0.0003476382063562723
80,440.72,0.00036058742799246286
81,450.99,0.0003692998202069526
82,460.43,0.0003759748891947602
83,470.07,0.0003845941926950212
84,478.630092,0.00039333952544493326
85,479.90999999999997,0.00039350480950178085
86,489.96,0.0003884095927152718
87,500.21999999999997,0.00039091984662277605
88,506.01,0.0003899432957577127
89,511.87000000000006,0.0004202255017906537
90,520.19,0.00041894263595346415
91,529.86,0.0004155221245777884
92,539.71,0.000404658373796981
93,549.5408739999999,0.00041352246017581286
94,549.75,0.0004137824433398635
95,559.97,0.0004316787981090881
96,570.38,0.00044393854107852335
97,579.65,0.00043907425484669476
98,590.42,0.0004551533701954765
99,600.02,0.0004518331003113822
100,609.77,0.0004424952105853489
101,619.67,0.0004887569010173766
102,629.74,0.0004948534756285402
103,630.957344,0.0004957113291133206
104,639.97,0.0005055498224720565
105,650.37,0.0005251715697576848
106,657.9,0.0005331159776481444
107,665.52,0.0005519460780631913
108,674.78,0.0005617042867040487
109,685.74,0.0005553564319204416
110,695.2800000000001,0.0006164218395266814
111,704.96,0.0005993296466156123
112,716.41,0.0006618005400214241
113,724.43596,0.0006754110446545204
114,726.38,0.0006785216277793439
115,734.7900000000001,0.0006932745698987552
116,745.01,0.0007331142783958281
117,755.3700000000001,0.0007584489815298472
118,764.1199999999999,0.000765679496338985
119,774.75,0.0008232440248442575
120,785.53,0.0008570759118891152
121,794.6300000000001,0.0008866751632906186
122,805.6800000000001,0.0009157419757067297
123,815.01,0.0009397462968689304
124,824.45,0.0009987685209601601
125,831.763771,0.0009317847060828408
126,835.92,0.0008920490169467396
127,845.5999999999999,0.0010380700220700902
128,855.39,0.0010616353181607517
129,865.29,0.001116024605218724
130,875.31,0.001171277727877399
131,885.4499999999999,0.0012403097861367768
132,895.6999999999999,0.001291723535363465
133,903.9899999999999,0.0013033653364453428
134,914.46,0.001868017467606653
135,925.0400000000001,0.010597776289735274
136,935.7600000000001,0.02303548253673138
137,944.41,0.04443087914461537
138,954.992586,0.06171311812430133
139,955.3499999999999,0.06229688768847327
140,964.19,0.07351655269773702
141,975.35,0.013873106668708017
142,984.38,0.06908808340328401
143,995.78,0.07085922692201782
144,1004.99,0.09733760581741592
145,1014.2900000000001,0.09168465079322508
146,1026.04,0.038347629069113
147,1035.53,0.06751571577023438
148,1045.1100000000001,0.12422390855176683
149,1054.78,0.12308488741371033
150,1064.54,0.1012175623560649
151,1074.39,0.11890713337883052
152,1084.33,0.09755849048200718
153,1094.3700000000001,0.12479126323008503
154,1096.4782,0.12396759850284814
155,1104.49,0.1208366793538006
156,1114.71,0.11808738629923485
157,1125.03,0.10769917961399823
158,1135.44,0.13218496066115776
159,1145.94,0.12110962944071352
160,1153.89,0.12827654580237716
161,1164.56,0.13309279140979238
162,1175.34,0.09665218202346962
163,1186.21,0.12917154036954304
164,1194.4299999999998,0.09272887992839525
165,1205.49,0.06922858237619398
166,1213.8400000000001,0.04125606421517402
167,1225.07,0.08754064349083221
168,1236.41,0.13035149777275243
169,1244.98,0.14391182962425647
170,1253.61,0.13966615329735801
171,1258.92541,0.13180022575881395
172,1265.21,0.12250098970297296
173,1273.98,0.15384417473169373
174,1285.77,0.16072228904054417
175,1294.68,0.132776275426622
176,1303.65,0.1315636623944242
177,1315.72,0.15961727941798867
178,1324.84,0.15384386784010196
179,1334.02,0.1393513568439397
180,1346.3600000000001,0.16109957648526405
181,1355.7,0.15707006704036694
182,1365.09,0.14325655808024018
183,1374.56,0.149660549895746
184,1384.08,0.15173654219602217
185,1393.6799999999998,0.1343159352719309
186,1406.57,0.1393508602457292
187,1416.3200000000002,0.14325795477594902
188,1426.1399999999999,0.14591344998484734
189,1436.03,0.14558504587242418
190,1442.65,0.1527914100560196
191,1445.43977,0.15456943376193355
192,1445.98,0.15491374149996529
193,1456.0,0.15139722303526754
194,1466.1,0.14194710522155027
195,1476.26,0.14162028789606837
196,1486.49,0.1435859711401943
197,1493.35,0.14558642696176854
198,1503.7,0.1393523111823652
199,1510.64,0.12621686765491985
200,1517.6200000000001,0.13400312445296478
201,1524.62,0.13095938141375477
202,1535.1899999999998,0.11644976742454768
203,1545.83,0.12592585400494852
204,1556.55,0.11971154123632978
205,1563.73,0.12221319966182582
206,1574.5700000000002,0.12975768786967778
207,1585.49,0.1349367767285102
208,1596.48,0.13839336615695053
209,1603.85,0.13493682612852514
210,1614.96,0.13555681653343615
211,1626.16,0.12945510767070015
212,1633.66,0.13680586870011804
213,1644.99,0.13870956089522532
214,1656.39,0.12916455365994048
215,1659.58691,0.1339660121079151
216,1664.03,0.14063934370399359
217,1671.7199999999998,0.1273928006811284
218,1675.5700000000002,0.1432591294668201
219,1683.3000000000002,0.14795528882094916
220,1694.97,0.13999788230900684
221,1706.7199999999998,0.13555968055105294
222,1714.6,0.13156924881891024
223,1726.48,0.13126705478618747
224,1734.4499999999998,0.1396729284022817
225,1746.47,0.13649594268903864
226,1754.54,0.1455930222476184
227,1766.7,0.13339154485385502
228,1774.8500000000001,0.13840252916642315
229,1783.05,0.14064481645023402
230,1795.41,0.15105245094144168
231,1803.69,0.14898144297924096
232,1816.2,0.14097468638417684
233,1824.5800000000002,0.1426134843644616
234,1833.0,0.1377750847217406
235,1845.71,0.1268088400116475
236,1854.22,0.12977094571716338
237,1867.0800000000002,0.1355690099207985
238,1875.6999999999998,0.14294322216304853
239,1884.35,0.13433373618804414
240,1893.05,0.13188315318428254
241,1905.46072,0.13715087917732366
242,1906.17,0.13745183635916783
243,1914.97,0.13463746228533452
244,1923.81,0.13097248514752924
245,1937.15,0.12887206331287737
246,1946.0900000000001,0.1422746785151422
247,1955.07,0.13588329065343502
248,1968.6200000000001,0.14830305273293032
249,1977.71,0.15001125644530022
250,1982.2699999999998,0.14491650715249568
251,1996.01,0.14195585467812413
252,2005.22,0.14326654919857815
253,2014.4799999999998,0.1403289398890672
254,2023.78,0.14260842751558425
255,2033.12,0.14162641207812937
256,2047.2099999999998,0.14761703279400307
257,2056.66,0.1412966089306253
258,2066.15,0.1412968820032755
259,2075.69,0.15314635124596074
260,2085.27,0.16072621742467402
261,2094.9,0.15244057977342235
262,2104.57,0.1510444390581987
263,2114.28,0.15421039527900307
264,2124.04,0.1545608476698425
265,2133.8399999999997,0.14325619699670994
266,2143.69,0.15173334249361245
267,2153.59,0.15562538416054997
268,2163.5299999999997,0.14896632276351554
269,2173.5099999999998,0.14862655830250912
270,2183.5499999999997,0.15173008924554476
271,2187.7616199999998,0.1547201004022929
272,2193.63,0.1588871250323906
273,2203.75,0.15384234308151892
274,2213.92,0.14325426418424966
275,2224.14,0.1416164883405828
276,2234.41,0.15634141555051834
277,2244.7200000000003,0.14930854520333584
278,2255.08,0.1393498779097557
279,2265.49,0.14096391366977803
280,2275.95,0.14693245248340275
281,2286.45,0.1549387937399094
282,2297.0099999999998,0.14443533866073893
283,2307.61,0.1500277860244504
284,2312.93,0.14302871092774713
285,2323.61,0.11559856317722246
286,2334.33,0.12806221786957972
287,2345.11,0.11774787622625989
288,2355.93,0.13881013702582198
289,2366.81,0.11938890148970695
290,2377.73,0.12867196839647388
291,2383.21,0.1111082030712983
292,2394.21,0.12112737486382907
293,2405.2599999999998,0.11769514970996225
294,2416.3599999999997,0.12253642760969786
295,2427.52,0.14052480917375634
296,2433.11,0.1367775505665061
297,2444.34,0.14707693640560796
298,2455.63,0.14690612590903274
299,2466.96,0.14440881785533943
300,2472.65,0.13673146535529399
301,2484.06,0.13346986218736454
302,2495.5299999999997,0.128509062683758
303,2507.05,0.15254976623375385
304,2511.88643,0.12730883384475136
305,2512.83,0.12238433930175677
306,2518.62,0.11884740244647626
307,2524.43,0.11728786511846596
308,2536.08,0.1243848897533506
309,2547.78,0.12569491320641074
310,2553.66,0.1440589742238461
311,2565.44,0.13524089578598697
312,2577.29,0.14710241569357352
313,2583.2300000000005,0.1438395752928194
314,2595.15,0.14010359354585164
315,2607.1299999999997,0.13304411038069439
316,2613.14,0.12831356832538596
317,2625.2,0.14347518326930947
318,2637.32,0.16006819679504355
319,2643.4,0.18559935308518077
320,2655.6000000000004,0.2014173647199956
321,2667.86,0.169696974936621
322,2674.01,0.18236132957220388
323,2686.35,0.18770993789791007
324,2692.54,0.16895759158803333
325,2704.97,0.18169309778645532
326,2717.46,0.16289180256668787
327,2723.7200000000003,0.1600289546022568
328,2736.29,0.1728747574915701
329,2742.6,0.13522440834531452
330,2755.2599999999998,0.1470986091073437
331,2767.98,0.16075570845118342
332,2774.36,0.17117455765037348
333,2787.1600000000003,0.14588495510329394
334,2793.59,0.10194670312065947
335,2806.48,0.1119257984462958
336,2812.9500000000003,0.1679359455182017
337,2825.94,0.19306723848018897
338,2832.4500000000003,0.18792518460663524
339,2845.53,0.17683777544133839
340,2852.0800000000004,0.15448372062232502
341,2865.2499999999995,0.195177209329744
342,2871.8500000000004,0.20451765332890612
343,2884.0315,0.20005926712045308
344,2885.11,0.19966456487929743
345,2891.7599999999998,0.20445666166251883
346,2911.8100000000004,0.23738645196381036
347,2931.99,0.22353584220221756
348,2952.3100000000004,0.21839393237290305
349,2972.7799999999997,0.22757532247102968
350,2993.38,0.2306934125062719
351,3007.2,0.23639260582117708
352,3028.0499999999997,0.23907219573548777
353,3049.04,0.2445914855820768
354,3070.1699999999996,0.2513857753609442
355,3091.45,0.2548427650672526
356,3112.88,0.2619263547010022
357,3127.2499999999995,0.255739547749858
358,3148.93,0.258662437262676
359,3170.75,0.2670936267077724
360,3192.7299999999996,0.24751581607547257
361,3207.4700000000003,0.26376830894534975
362,3229.7,0.2433186981921184
363,3252.09,0.2793316873614909
364,3267.1,0.30182008010076206
365,3289.75,0.30041156914436573
366,3311.31121,0.29908109966425084
367,3312.55,0.2990046472595795
368,3320.19,0.2958023766126542
369,3327.84,0.3142773058732591
370,3335.5099999999998,0.33161023494892433
371,3343.2000000000003,0.30058286383965005
372,3350.9100000000003,0.2980457925454361
373,3358.63,0.32256112115875246
374,3366.3700000000003,0.2930497495871291
375,3374.13,0.2619858778305662
376,3381.9100000000003,0.2789913058890637
377,3389.71,0.31981883376262166
378,3397.52,0.29870106154370973
379,3405.36,0.31736808904738845
380,3413.21,0.3089499164585974
381,3421.07,0.32901364377733655
382,3428.9599999999996,0.31808447081866625
383,3436.8700000000003,0.3154136976750564
384,3444.79,0.26194842443897676
385,3452.73,0.3353798510179575
386,3460.69,0.30681447741199863
387,3468.6699999999996,0.3084636036211002
388,3476.66,0.30028962973773193
389,3484.68,0.3168579555769543
390,3492.71,0.30352708132370687
391,3500.7599999999998,0.2914351068855199
392,3508.83,0.32423273226239324
393,3516.92,0.295254857454327
394,3525.03,0.3115561824613212
395,3533.15,0.3340940073758456
396,3541.3,0.35253003201296057
397,3549.46,0.3544355565576058
398,3557.6400000000003,0.33256528091731136
399,3565.85,0.3533544049996076
400,3574.0699999999997,0.288109228989434
401,3582.2999999999997,0.29167785288679066
402,3590.56,0.25955817650673785
403,3598.8399999999997,0.33308639994174544
404,3607.14,0.3147094231918135
405,3615.4500000000003,0.31495294634941173
406,3623.79,0.3066190692296006
407,3632.14,0.3943890920173196
408,3640.51,0.3542151146200991
409,3648.9,0.33466323703793893
410,3654.6400000000003,0.49570728396027514
411,3657.38,0.3621717586235506
412,3660.1099999999997,0.29125103337929587
413,3662.84,0.31870030813504113
414,3665.57,0.3208839828907864
415,3668.2999999999997,0.31673605764653173
416,3671.04,0.38063283230980716
417,3673.77,0.34197650706555244
418,3676.4999999999995,0.29719478182129766
419,3679.23,0.331424556577043
420,3681.96,0.31685733133278826
421,3684.7000000000003,0.3152548059960637
422,3687.43,0.27810258075180894
423,3690.1600000000003,0.27732655550755425
424,3692.89,0.2970616302632995
425,3695.6299999999997,0.337051104926575
426,3698.36,0.29970477968232023
427,3701.09,0.30653405443806553
428,3703.8199999999997,0.3720943291938108
429,3706.55,0.37066340394955605
430,3709.29,0.3506239786128315
431,3712.02,0.3269596533685768
432,3714.75,0.34699802812432207
433,3717.48,0.3840662028800673
434,3720.21,0.30273807763581256
435,3722.95,0.3904086522990881
436,3725.6800000000003,0.5809027270548334
437,3728.41,0.7211932018105787
438,3731.14,0.6772487765663239
439,3733.8700000000003,0.5832454513220692
440,3736.61,0.4728162259853446
441,3739.3399999999997,0.3439045007410899
442,3742.07,0.34677957549683514
443,3744.7999999999997,0.3067040502525804
444,3747.54,0.3675198249158559
445,3750.27,0.2977513996716012
446,3753.0,0.3662348744273464
447,3755.73,0.3764119491830917
448,3758.46,0.386904323938837
449,3761.2000000000003,0.38710889860211245
450,3763.93,0.3575254733578577
451,3766.66,0.28334184811360297
452,3769.3900000000003,0.3894875228693483
453,3772.12,0.4079125976250935
454,3774.8599999999997,0.342108472288369
455,3777.59,0.4091607470441143
456,3780.3199999999997,0.44080692179985953
457,3783.05,0.4899562965556048
458,3785.78,0.4725023713113501
459,3788.5200000000004,0.4127991459746256
460,3791.25,0.4063830207303708
461,3793.98,0.3069578954861161
462,3796.7099999999996,0.32511607024186134
463,3799.44,0.3362756449976066
464,3801.8939600000003,0.41079611826502666
465,3802.18,0.4194824202120006
466,3804.9100000000003,0.39207020022768696
467,3807.64,0.4164993802433733
468,3810.3700000000003,0.4206966602590597
469,3813.11,0.46723564020154346
470,3815.8399999999997,0.44843552021722977
471,3818.57,0.38473180023291614
472,3821.3,0.35275888024860247
473,3824.0299999999997,0.38740106026428883
474,3826.77,0.4111732402067726
475,3829.5,0.3955994202224589
476,3832.23,0.3481372002381453
477,3834.96,0.32649838025383165
478,3837.69,0.330780460269518
479,3840.4300000000003,0.3807040402120017
480,3843.16,0.4508129202276881
481,3845.8900000000003,0.45632020024337444
482,3848.62,0.4469323802590608
483,3851.35,0.47655316027474715
484,3854.09,0.4543905402172309
485,3856.82,0.47174842023291724
486,3859.5499999999997,0.45584710024860364
487,3862.28,0.48401228026429
488,3865.0099999999998,0.5110859602799763
489,3867.75,0.5204114402224601
490,3870.48,0.49344812023814644
491,3873.21,0.4960929002538328
492,3875.94,0.43908458026951913
493,3878.68,0.47923136021200285
494,3881.4100000000003,0.4042109402276892
495,3884.14,0.36891452024337557
496,3886.87,0.3853019002590619
497,3889.6,0.3833614802747483
498,3892.34,0.31328796021723204
499,3895.0699999999997,0.4109427402329184
500,3897.8,0.42030722024860473
501,3900.5299999999997,0.4433052002642911
502,3903.26,0.4358702802799775
503,3906.0,0.43703286022246124
504,3908.7300000000005,0.4481196402381476
505,3911.46,0.42800952025383393
506,3914.19,0.5113397002695202
507,3916.92,0.4535430802852066
508,3919.66,0.45846576022769037
509,3922.39,0.46005514024337674
510,3925.1200000000003,0.3863567202590631
511,3927.85,0.39277360027474945
512,3930.5899999999997,0.4039068802172332
513,3933.32,0.30296576023291955
514,3936.0499999999997,0.32044464024860586
515,3938.78,0.36010842026429224
516,3941.5099999999998,0.4345962002799786
517,3944.2500000000005,0.4184015802224623
518,3946.98,0.4717111602381487
519,3949.71,0.46957674025383506
520,3952.44,0.49548592026952143
521,3955.17,0.4732651002852078
522,3957.91,0.46547608022769155
523,3960.6400000000003,0.44758556024337787
524,3963.37,0.39989284025906424
525,3966.1000000000004,0.35023492027475056
526,3968.83,0.29805410029043694
527,3971.5699999999997,0.3054396802329207
528,3974.3,0.37587596024860703
529,3977.0299999999997,0.4077770402642934
530,3979.7599999999998,0.44990322027997975
531,3982.4900000000002,0.49113200029566606
532,3985.23,0.5009791802381499
533,3987.96,0.5311942602538362
534,3990.69,0.4556642402695225
535,3993.4199999999996,0.5236629202852089
536,3996.1600000000003,0.5388833002276926
537,3998.89,0.5827924802433789
538,4001.6200000000003,0.5765464602590653
539,4004.35,0.5497529402747516
540,4007.08,0.572751020290438
541,4009.82,0.5090204002329218
542,4012.5499999999997,0.5624149802486081
543,4015.2799999999997,0.5042667602642945
544,4018.01,0.5828422402799809
545,4020.74,0.5870154202956672
546,4023.48,0.600986200238151
547,4026.21,0.5561925802538373
548,4028.9399999999996,0.5325164602695237
549,4031.67,0.54400354028521
550,4034.4,0.5211521203008964
551,4037.1400000000003,0.5729065002433801
552,4039.87,0.5635187802590664
553,4042.6,0.5734049602747529
554,4045.33,0.5748853402904391
555,4048.0699999999997,0.560000220232923
556,4050.8,0.5702623002486094
557,4053.53,0.5373554802642957
558,4056.2599999999998,0.519234560279982
559,4058.9900000000002,0.5326625402956684
560,4061.73,0.5506484202381521
561,4064.4599999999996,0.5511099002538385
562,4067.19,0.5652048802695249
563,4069.92,0.5446459602852112
564,4072.65,0.5285263403008976
565,4075.39,0.5287911202433813
566,4078.12,0.5111190002590676
567,4080.85,0.510998180274754
568,4083.58,0.5405097602904403
569,4086.3100000000004,0.5567881403061267
570,4089.05,0.4993044202486105
