,lambda (Angstroms),Total Flux (erg/s/cm^2/Angstrom)
0,100.05999999999999,0.010627213843916409
1,101.92,0.01277517049816883
2,104.05,0.015234927307270319
3,104.712855,0.01600040248842318
4,105.99000000000001,0.014769803004210942
5,107.96,0.012871599660770287
6,109.97,0.010934854307200184
7,114.09,0.006965008094360827
8,118.1,0.003101153302469199
9,120.22644299999999,0.0010522150772911308
10,121.13000000000001,0.0010119326646425458
11,125.10000000000001,0.0008349355886515745
12,127.13000000000001,0.0007444308883226898
13,128.01,0.0007051982508884451
14,131.0,0.0005718946403203834
15,131.9,0.0005317749985024046
16,134.05,0.00043592226331112273
17,136.85,0.0003111017437585242
18,138.038426,0.0002581205095684259
19,140.04000000000002,0.000254977154978309
20,142.97,0.00025051423711620636
21,146.98,0.0002446306077105984
22,151.1,0.00023828853483426302
23,154.97,0.00023238172345503528
24,158.489319,0.00022704875590464946
25,158.95,0.00022596150324389613
26,161.9,0.00021901547483171033
27,166.06,0.00020926857855893308
28,169.93,0.00020023223921142164
29,173.08,0.00019290576016112155
30,177.11999999999998,0.00018354946827121304
31,179.99,0.00017694425811427288
32,181.970086,0.0001723936124670096
33,182.07999999999998,0.0001724925087608649
34,185.89000000000001,0.00017599339483656003
35,191.1,0.00018081676186395412
36,194.2,0.00018377559782843043
37,197.81,0.00018730400819673995
38,201.95999999999998,0.00019136619787499053
39,204.76999999999998,0.00019422280341375777
40,208.929613,0.00019810443983152905
41,210.02,0.0002034284375520494
42,215.9,0.0002332214287952131
43,219.92000000000002,0.0002534759661961516
44,222.98,0.00026876497690432854
45,227.12,0.0002898093313918622
46,229.75,0.0003108086867064064
47,234.01999999999998,0.00034641733887108485
48,239.88329199999998,0.000387223309703079
49,240.03,0.0003869792933599246
50,246.18,0.0003642181961421446
51,251.92,0.00035003337140555
52,257.19,0.00032342709634250916
53,260.16999999999996,0.00032268380245486963
54,263.79,0.0003153813551819646
55,268.69,0.00030057466113853017
56,273.69,0.0002850630284411481
57,275.42287,0.0002797349354376565
58,278.78,0.0002964477088739252
59,283.96000000000004,0.0003225856756210331
60,289.90999999999997,0.00034856536729000777
61,295.98,0.00038049450621953373
62,300.79,0.00040298130891327653
63,307.79,0.0004397083691120705
64,316.227766,0.00048411829020049023
65,317.88,0.00048091166383445994
66,328.28999999999996,0.000458250619366564
67,338.27000000000004,0.00043571206338293247
68,347.74,0.00041389705885738244
69,356.66,0.0003944617372768221
70,363.078055,0.00038166290626501307
71,365.81,0.0003910299476765996
72,375.2,0.0004197155319333179
73,384.82000000000005,0.0004433528520131509
74,394.69,0.0004803898501615863
75,404.82,0.0005138326975013687
76,414.24999999999994,0.0005411161662490634
77,416.86938299999997,0.000548263293773422
78,421.95000000000005,0.000557295012510974
79,429.79,0.0005716809334800652
80,440.82000000000005,0.0005958947597924474
81,451.08000000000004,0.0006144194813667938
82,459.47,0.0006283522342916249
83,470.17,0.0006481145014305633
84,478.630092,0.0006663514220575596
85,480.02000000000004,0.0006647660749405965
86,490.07,0.0006454439342078764
87,500.33,0.0006352784905344725
88,506.13,0.0006260544093155893
89,511.99,0.0006590509272565106
90,520.3,0.0006493929108894555
91,529.98,0.0006359358753379398
92,539.83,0.0006122109374058708
93,549.5408739999999,0.0006221150224053454
94,549.87,0.000622865845434657
95,560.09,0.0006518243713917719
96,570.5,0.0006757382543872284
97,579.77,0.000669222195152635
98,590.5500000000001,0.0007079508786964409
99,600.15,0.000708015465896862
100,609.9,0.0007213280560222896
101,619.8100000000001,0.0008025482626010575
102,629.88,0.0008282498856331658
103,630.957344,0.000830998759862082
104,640.11,0.0008674317864122195
105,650.52,0.0009354781598822258
106,658.0500000000001,0.000974399723400876
107,665.67,0.0010388282247305058
108,674.93,0.0010854784150602136
109,684.32,0.0010877475600057813
110,695.4399999999999,0.0012910867317624066
111,705.11,0.001257113594342134
112,716.5699999999999,0.0014850913089402386
113,724.43596,0.0015568013992504181
114,726.54,0.001575238852987215
115,734.95,0.0016556085862758474
116,745.17,0.0018005982157895005
117,755.54,0.0019239828643273268
118,764.29,0.0019796043074040847
119,774.9200000000001,0.002216815322250477
120,785.7,0.0023228753561210427
121,794.8,0.0025061851769208705
122,805.86,0.002680118912969893
123,815.1899999999999,0.0028268140962734527
124,824.63,0.003086129626861406
125,831.763771,0.0027927208958658358
126,834.1800000000001,0.0026897557938814656
127,845.78,0.0033566712678463864
128,855.5699999999999,0.003487367654925401
129,865.48,0.0037867949262178464
130,875.5,0.004056422258039269
131,885.64,0.004376434474074122
132,895.9,0.004635386574322405
133,904.1899999999999,0.0047478154087335425
134,914.6600000000001,0.006244058806355328
135,925.25,0.033479386088190545
136,935.96,0.07255695725423919
137,944.62,0.13767758456497506
138,954.992586,0.19354085036982388
139,955.5600000000001,0.1965972378281111
140,964.4,0.22310381595299536
141,975.57,0.03836375930762851
142,984.6,0.18948306687184852
143,995.9999999999999,0.20302623323199337
144,1005.21,0.3015584518440051
145,1014.51,0.29334645597991277
146,1023.9,0.1299722456397163
147,1035.76,0.20869153801088453
148,1045.34,0.40296159711002383
149,1055.01,0.397442941733059
150,1064.78,0.31501657027153396
151,1074.63,0.3786789859423609
152,1084.57,0.30015218713708364
153,1094.6100000000001,0.40388017224724637
154,1096.4782,0.40118517786023716
155,1104.73,0.389278617654032
156,1114.96,0.37520296769184736
157,1125.27,0.3382860774562536
158,1135.69,0.4357236318447224
159,1146.19,0.39740564595978217
160,1154.14,0.42580734378975593
161,1164.82,0.44075516728964526
162,1175.6,0.30358234044777327
163,1183.74,0.4317118426284005
164,1194.7,0.30078862517135807
165,1205.75,0.21845846240673047
166,1214.1100000000001,0.15188085383548278
167,1225.3400000000001,0.30286440045568475
168,1233.84,0.4583102214059712
169,1245.25,0.5048278774110028
170,1253.89,0.4843271278828234
171,1258.92541,0.45636408986511817
172,1265.49,0.41991262803204116
173,1274.2600000000002,0.5446567420661487
174,1286.05,0.5729539642397093
175,1294.96,0.454106283286904
176,1303.94,0.45200960484064223
177,1316.01,0.5690074370403774
178,1325.1299999999999,0.5459174636072028
179,1334.31,0.4854555923224944
180,1343.56,0.5795875235443295
181,1355.99,0.5637973686348604
182,1365.3899999999999,0.5059881052278604
183,1374.86,0.5322672443274039
184,1384.39,0.5396730855754136
185,1393.98,0.4646793289718891
186,1403.6499999999999,0.4821075752329859
187,1413.3799999999999,0.5059869236425487
188,1426.45,0.5201650916500496
189,1436.3400000000001,0.5213539457888551
190,1442.97,0.5509666831943434
191,1445.43977,0.5576078570769346
192,1446.3000000000002,0.5599209974838596
193,1456.3200000000002,0.5446685986158257
194,1466.4199999999998,0.5048273021520391
195,1476.5800000000002,0.5071600074914379
196,1483.4,0.5177695124535145
197,1493.68,0.5286102213992844
198,1504.0300000000002,0.5013543324487703
199,1510.98,0.44787524131774886
200,1517.95,0.47990035078778914
201,1524.96,0.4678963614599531
202,1535.53,0.406607779121119
203,1546.17,0.44071969888600127
204,1553.31,0.419926713465067
205,1564.08,0.434672637136851
206,1574.9199999999998,0.46574936291235125
207,1585.83,0.4888223907915679
208,1596.83,0.5001966213755626
209,1604.2,0.49220684286683924
210,1615.3200000000002,0.49447417705720487
211,1626.51,0.47115091335128684
212,1634.02,0.502511539049996
213,1645.35,0.5118510795515107
214,1656.75,0.4766045221567416
215,1659.58691,0.492759233803543
216,1664.4,0.5201681637535891
217,1672.08,0.4657574492992613
218,1675.9399999999998,0.5298329964615391
219,1683.6699999999998,0.5509819929808158
220,1695.34,0.5177876542201381
221,1703.17,0.5002119726866241
222,1714.98,0.47770596465203913
223,1726.8600000000001,0.4766169719805007
224,1734.83,0.5106882211730798
225,1746.8600000000001,0.4990710614223552
226,1754.92,0.5335241303674225
227,1763.0199999999998,0.49110420809137356
228,1775.2399999999998,0.5036962900403467
229,1783.44,0.514239589711507
230,1795.8,0.549739602386573
231,1804.0900000000001,0.5459644218102218
232,1816.59,0.5071970652113809
233,1824.98,0.5178154065822388
234,1833.4,0.5002432545372596
235,1846.11,0.460463444027558
236,1854.6299999999999,0.465799413929788
237,1863.19,0.48327169261090175
238,1876.11,0.5190150281903397
239,1884.77,0.48105452881866273
240,1893.4699999999998,0.4647369382258694
241,1905.46072,0.48989577140062285
242,1906.59,0.4922646503787451
243,1915.3899999999999,0.4766561608414146
244,1924.23,0.46580485998800536
245,1933.1200000000001,0.4755508449894976
246,1946.52,0.5048695541031081
247,1955.5,0.4744543136434231
248,1969.05,0.5202087803217381
249,1978.1399999999999,0.5335342087428365
250,1982.7,0.5083576187098561
251,1996.4499999999998,0.4956397288077773
252,2005.6599999999999,0.5083534232806394
253,2014.92,0.49449800360840296
254,2024.2199999999998,0.5130539726200878
255,2033.5600000000002,0.4922313303156939
256,2042.95,0.5118674738662015
257,2057.11,0.48323876797431514
258,2066.61,0.4888296804056061
259,2076.15,0.5298382815208182
260,2085.73,0.5298351713199516
261,2095.36,0.5025114469739866
262,2105.0299999999997,0.5048280113119429
263,2114.74,0.5118497643338202
264,2124.51,0.5177676003815794
265,2134.31,0.4832175279422795
266,2144.16,0.4978937413578812
267,2154.06,0.5153795406283844
268,2164.0,0.49903672858280884
269,2173.9900000000002,0.4967390023921348
270,2184.03,0.49218266205636235
271,2187.7616199999998,0.5007670718566509
272,2194.11,0.5153744382865265
273,2204.23,0.5024938209094396
274,2214.41,0.4776771170656901
275,2224.63,0.46573732224416553
276,2234.9,0.4978899387004222
277,2245.22,0.47878476643446005
278,2255.58,0.4572419031907228
279,2265.99,0.4668225512247668
280,2276.45,0.48099881053659194
281,2286.96,0.4944877811261983
282,2297.51,0.46480296073802957
283,2302.81,0.47132015618283585
284,2313.44,0.45230185383911703
285,2324.12,0.36439116277317946
286,2334.84,0.4194115807294668
287,2345.62,0.4043494122190916
288,2356.45,0.44141225498649755
289,2367.33,0.40360770903168475
290,2372.7799999999997,0.41783573830983456
291,2383.73,0.3838212081439154
292,2394.74,0.4094722915113337
293,2405.79,0.3956700839009769
294,2416.9,0.4059110898239575
295,2422.47,0.4349850461687822
296,2433.65,0.4203336678806565
297,2444.88,0.44329170087031206
298,2456.17,0.43832664739330496
299,2467.5,0.43441910293852287
300,2473.19,0.41877008635002244
301,2484.6099999999997,0.4246981621952464
302,2496.08,0.39282734931825164
303,2507.6,0.44903674771903807
304,2511.88643,0.40880919819898814
305,2513.38,0.39479178416479643
306,2519.17,0.4021805787211598
307,2524.98,0.3894761715316038
308,2536.63,0.396812754533613
309,2542.4799999999996,0.39322404385221843
310,2554.22,0.42240671899759075
311,2566.01,0.41005268977816484
312,2577.85,0.43345205619394067
313,2583.7900000000004,0.42756103765590925
314,2595.7200000000003,0.4208352962150483
315,2607.7,0.407599850409389
316,2613.71,0.40021182576064007
317,2625.7799999999997,0.422075572098344
318,2637.9,0.43903171407124963
319,2643.98,0.47811358331178316
320,2656.1800000000003,0.4916330183010117
321,2662.31,0.44331728317674696
322,2674.59,0.4643294111822982
323,2686.94,0.46551603307713196
324,2693.13,0.44157419271510934
325,2705.5600000000004,0.4561573076262659
326,2718.05,0.43076181729966456
327,2724.32,0.43081946995396475
328,2736.8900000000003,0.4512355726436862
329,2743.2000000000003,0.3894857218061479
330,2755.86,0.40142461663923246
331,2762.2200000000003,0.41845586143689584
332,2774.97,0.4382817484133436
333,2787.78,0.4072746301520335
334,2794.2,0.329604569711939
335,2807.1000000000004,0.35163614359399203
336,2813.57,0.4326250787890992
337,2826.5600000000004,0.46048644481451545
338,2833.0699999999997,0.4449244765177841
339,2846.15,0.4339190346865635
340,2852.71,0.41350416202503393
341,2865.88,0.4587590123371764
342,2872.49,0.45881903531084856
343,2884.0315,0.4570964715127718
344,2885.74,0.4568416247321807
345,2892.4,0.4548100128338803
346,2912.45,0.49544257701392186
347,2932.63,0.4766435409617143
348,2952.96,0.468152704641527
349,2966.59,0.4780860802911014
350,2987.16,0.47939914354214647
351,3007.86,0.4851586065609425
352,3028.71,0.48537676931175877
353,3049.71,0.4867064317945953
354,3070.84,0.49143849404518275
355,3092.13,0.4950610560099251
356,3113.5600000000004,0.4964279177245531
357,3127.94,0.4886422920342287
358,3149.6200000000003,0.4922496533022238
359,3171.4500000000003,0.4947537143022391
360,3193.43,0.46837877503427466
361,3208.17,0.486104148700799
362,3230.4100000000003,0.4623199089683364
363,3252.8,0.493328068967894
364,3267.82,0.5108253421341894
365,3290.47,0.5075503016692489
366,3311.31121,0.5077729300594864
367,3313.28,0.5077938971984362
368,3320.92,0.5067087362801967
369,3328.57,0.5174002750204411
370,3336.24,0.5307500130776536
371,3343.93,0.49541995045183396
372,3351.6400000000003,0.5058689871429822
373,3359.37,0.5118040231510986
374,3367.1099999999997,0.5048710588176989
375,3374.88,0.4626576934597511
376,3382.6600000000003,0.4778890277602873
377,3390.45,0.5168811617193074
378,3398.27,0.5122209946537797
379,3406.1000000000004,0.5006513272467357
380,3413.9599999999996,0.5076950588151438
381,3421.8199999999997,0.5256254903835518
382,3429.71,0.5125645209274118
383,3437.6200000000003,0.5221728507882397
384,3445.5400000000004,0.4622821803075517
385,3453.4900000000002,0.5308385088023155
386,3461.45,0.4853361369555633
387,3469.43,0.49787106442577916
388,3477.42,0.4777484915544789
389,3485.44,0.49234061765863063
390,3493.48,0.48790784307975027
391,3501.5299999999997,0.49136766815935395
392,3509.6,0.4937219925559256
393,3517.69,0.47925131626946516
394,3525.8,0.4916197392999727
395,3533.9300000000003,0.5160507616474482
396,3542.0800000000004,0.5330497833118916
397,3550.2400000000002,0.5306885046348191
398,3558.42,0.5175132252747144
399,3566.63,0.5284370448900618
400,3574.85,0.4754234641638931
401,3583.0899999999997,0.4722388827546924
402,3591.35,0.44283400066245965
403,3599.6299999999997,0.5132134178871948
404,3607.93,0.48459643442889794
405,3610.12,0.5184050596368895
406,3612.86,0.47964996606149995
407,3615.59,0.5023841728276264
408,3618.3199999999997,0.5167759795937528
409,3621.05,0.4947258863598793
410,3623.79,0.4884210927844897
411,3626.5199999999995,0.49608999955061617
412,3629.25,0.5049495063167426
413,3631.98,0.5254165130828691
414,3634.7200000000003,0.5478327195074796
415,3637.45,0.5102534262736059
416,3640.1800000000003,0.5305191330397324
417,3642.92,0.5371873394643429
418,3645.6499999999996,0.5524896462304694
419,3648.38,0.5461438529965957
420,3651.11,0.5533137597627222
421,3653.8500000000004,0.5308318661873327
422,3656.58,0.5605603729534592
423,3659.31,0.5388429797195856
424,3662.04,0.5166352864857121
425,3664.78,0.5415112929103225
426,3667.5099999999998,0.522069899676449
427,3670.2400000000002,0.5274279064425754
428,3672.98,0.5161334128671858
429,3675.71,0.5326699196333123
430,3678.44,0.5364697263994388
431,3681.17,0.5281280331655652
432,3683.9100000000003,0.5252809395901756
433,3686.64,0.5072313463563022
434,3689.3700000000003,0.5034065531224287
435,3692.1,0.510602759888555
436,3694.8399999999997,0.5311019663131654
437,3697.57,0.5352168730792919
438,3700.3,0.5325739798454184
439,3703.0299999999997,0.5395338866115448
440,3705.77,0.5314081930361553
441,3708.5,0.5314525998022818
442,3711.23,0.5118274065684082
443,3713.97,0.5560667129930186
444,3716.7,0.547121119759145
445,3719.4300000000003,0.5837650265252715
446,3722.16,0.704480533291398
447,3724.9,0.8735125397160084
448,3727.63,1.219392446482135
449,3730.3599999999997,1.5195603532482613
450,3733.09,1.3556042600143878
451,3735.83,0.9676326664389981
452,3738.5600000000004,0.6986922732051247
453,3741.29,0.6011234799712512
454,3744.0299999999997,0.5863534863958616
455,3746.76,0.604789593161988
456,3749.49,0.5877117999281145
457,3752.22,0.545878306694241
458,3754.96,0.5676116131188514
459,3757.69,0.6094728198849778
460,3760.42,0.6318220266511043
461,3763.15,0.6285488334172308
462,3765.89,0.6199501398418412
463,3768.62,0.6148037466079677
464,3771.35,0.5787738533740941
465,3774.0800000000004,0.5693030601402206
466,3776.82,0.617962866564831
467,3779.5499999999997,0.6841421733309574
468,3782.28,0.732778980097084
469,3785.02,0.7613833865216943
470,3787.7499999999995,0.7634327932878209
471,3790.48,0.7422671000539472
472,3793.21,0.6970723068200737
473,3795.9500000000003,0.6478471132446841
474,3798.68,0.6108984200108106
475,3801.41,0.583814926776937
476,3801.8939600000003,0.585573280521457
477,3804.14,0.5937337495256438
478,3806.88,0.658973175447801
479,3809.61,0.7294767016403153
480,3812.34,0.7465475278328295
481,3815.08,0.7422640537549866
482,3817.81,0.754073879947501
483,3820.54,0.7561320061400152
484,3823.2699999999995,0.7191570323325294
485,3826.01,0.6963944582546866
486,3828.74,0.6671665844472008
487,3831.4700000000003,0.6309531106397152
488,3834.2,0.5901438368322294
489,3836.9399999999996,0.5515549627543865
490,3839.67,0.5636708889469008
491,3842.4,0.612789015139415
492,3845.13,0.6655576413319292
493,3847.87,0.7189440672540864
494,3850.6,0.7605778934466007
495,3853.33,0.789501419639115
496,3856.0699999999997,0.8096231455612721
497,3858.8,0.8111736717537864
498,3861.53,0.8211715979463007
499,3864.2599999999998,0.8362378241388149
500,3867.0,0.8500830500609721
501,3869.73,0.8452346762534864
502,3872.4599999999996,0.8364206024460006
503,3875.19,0.8207612286385149
504,3877.93,0.785357854560672
505,3880.6600000000003,0.7525935807531863
506,3883.39,0.7136053069457006
507,3886.1299999999997,0.6666386328678577
508,3888.86,0.6402643590603719
509,3891.5899999999997,0.6214795852528863
510,3894.32,0.6390843114454005
511,3897.06,0.6601695373675576
512,3899.7900000000004,0.692112863560072
513,3902.52,0.7385349897525861
514,3905.25,0.7751705159451004
515,3907.9900000000002,0.7990740418672576
516,3910.72,0.8096758680597718
517,3913.45,0.8243394942522861
518,3916.1800000000003,0.8452446204448003
519,3918.92,0.8472197463669574
520,3921.6499999999996,0.8361822725594718
521,3924.38,0.810412298751986
522,3927.12,0.7855046246741432
523,3929.85,0.7260502508666574
524,3932.58,0.6829124770591717
525,3935.3100000000004,0.641473003251686
526,3938.05,0.6409978291738431
527,3940.7799999999997,0.7072208553663574
528,3943.51,0.7586764815588717
529,3946.24,0.7950406077513859
530,3948.9800000000005,0.810750533673543
531,3951.71,0.8222540598660574
532,3954.44,0.8306938860585715
533,3957.1800000000003,0.7811269119807288
534,3959.91,0.731809338173243
535,3962.64,0.6870347643657572
536,3965.37,0.6358695905582715
537,3968.11,0.5749586164804287
538,3970.84,0.5397342426729429
539,3973.57,0.5563057688654572
540,3976.2999999999997,0.5974316950579714
541,3979.04,0.6456714209801286
542,3981.77,0.7209020471726428
543,3984.5000000000005,0.7795794733651571
544,3987.23,0.7967815995576714
545,3989.97,0.8254034254798286
546,3992.7000000000003,0.8517620516723428
547,3995.43,0.8609458778648571
548,3998.1699999999996,0.8759729037870142
549,4000.9,0.8801757299795285
550,4003.63,0.8767629561720427
551,4006.36,0.8853426823645569
552,4009.1,0.8952311082867143
553,4011.83,0.9060868344792284
554,4014.56,0.8828029606717426
555,4017.29,0.917469086864257
556,4020.03,0.8998707127864141
557,4022.76,0.9261331389789285
558,4025.49,0.9073135651714426
559,4028.23,0.8956676910935998
560,4030.96,0.8962816172861141
561,4033.6899999999996,0.8999593434786283
562,4036.42,0.8992602696711426
563,4039.16,0.8980313955932997
564,4041.8900000000003,0.917815921785814
565,4044.62,0.9144030479783283
566,4047.35,0.9158047741708425
567,4050.09,0.9179899000929996
568,4052.8199999999997,0.8901541262855139
569,4055.55,0.9090632524780282
570,4058.28,0.9150170786705425
571,4061.02,0.9045967045926996
572,4063.75,0.8809626307852139
573,4066.48,0.8835899569777281
574,4069.2200000000003,0.8805228828998853
575,4071.95,0.8668069090923995
576,4074.68,0.8931306352849139
577,4077.4100000000003,0.862510961477428
578,4080.15,0.8465847873995852
