,lambda (Angstroms),Total Flux (erg/s/cm^2/Angstrom)
0,102.08999999999999,2.666768575566749
1,103.97999999999999,2.659207398284872
2,104.712855,2.6562755265294142
3,105.92,2.6309076759997865
4,107.89,2.5895086300206356
5,109.89,2.5474792325630364
6,114.02000000000001,2.4606883977588665
7,118.02,2.376629506215469
8,120.22644299999999,2.330262793725146
9,121.05,2.3157532484569625
10,125.02,2.2458078081072688
11,127.05,2.210042257628994
12,127.93,2.1945380551526386
13,130.91,2.142035008001344
14,132.12,2.1207170576198555
15,133.96,2.088299186294385
16,137.07999999999998,2.033330327121761
17,138.038426,2.0164444647656246
18,139.95000000000002,1.9923716486065886
19,142.88,1.9554804589424915
20,146.88,1.905120472368878
21,151.0,1.853239928257356
22,154.87,1.8045086424423096
23,158.489319,1.7589346773232228
24,158.83999999999997,1.7555964509523116
25,162.17,1.7238970972714314
26,165.95,1.6879159998831352
27,169.81,1.6511733611152977
28,172.97,1.621094166093442
29,177.0,1.5827344183465806
30,179.87,1.5554169249430594
31,181.96,1.5355236643850594
32,181.970086,1.5354276636825523
33,186.19,1.5047875464535596
34,190.97,1.47008285962958
35,194.07,1.447576328755451
36,198.14,1.4180274162436106
37,201.82,1.3913127014201285
38,205.1,1.3674999924513729
39,208.929613,1.3396941757496965
40,209.88,1.3345069422345985
41,215.76000000000002,1.3024304327625094
42,219.77,1.2805517672579043
43,222.83,1.2638541867020214
44,226.96999999999997,1.2412683647675915
45,230.13,1.2241657526118428
46,233.87,1.2040489307768747
47,239.86,1.1716194646949336
48,239.88329199999998,1.1714922700861206
49,246.01999999999998,1.1456677888726627
50,251.75,1.1216714940493238
51,257.02,1.0993097109922563
52,260.0,1.0869938300890185
53,264.22,1.0693399897723534
54,269.13,1.048722755906281
55,274.14,1.0276831192649323
56,275.42287,1.0222918201175928
57,279.23,1.0100178680675453
58,283.77,0.9954079463725908
59,289.71,0.9762108877056237
60,295.78000000000003,0.9566645555055415
61,301.28,0.9388710922583501
62,308.3,0.9162860264701165
63,316.227766,0.8907830982961031
64,317.66,0.8873464415815738
65,328.07000000000005,0.8623021096614613
66,338.04,0.83828885618754
67,348.31,0.81355283013667
68,357.25,0.7920469983436051
69,363.078055,0.7780418894930717
70,366.41,0.7720532702930356
71,374.94,0.7566711195624448
72,384.55999999999995,0.7392433529342755
73,395.34,0.7198884820848298
74,404.54999999999995,0.7033180266383184
75,413.97,0.6863107752207137
76,416.86938299999997,0.6810694712727973
77,421.66,0.6744546243415646
78,430.48999999999995,0.6622684179916112
79,440.52,0.6484807656110864
80,450.78,0.6343317795997021
81,460.22,0.6212890123592082
82,469.86,0.6079952076136191
83,478.630092,0.5959276009053199
84,479.7,0.594796227816866
85,489.73999999999995,0.5840991709699693
86,500.0,0.5732783910985388
87,505.78999999999996,0.567207554089223
88,511.64,0.5619038326186705
89,519.96,0.5530983513272182
90,529.62,0.5428564760681522
91,539.47,0.5322611815151707
92,549.5,0.52205759657848
93,549.5408739999999,0.5220160505621988
94,559.71,0.5142384367746161
95,570.12,0.506125275275252
96,579.38,0.49851421221337777
97,590.16,0.49028512258195184
98,599.75,0.4824912664293196
99,609.49,0.4749498218717973
100,619.39,0.4677511621490592
101,629.46,0.459872989500779
102,630.957344,0.45868795665090806
103,639.6899999999999,0.45324163535071477
104,650.0799999999999,0.44712944698856844
105,657.61,0.44252015422177715
106,665.22,0.4381042013963744
107,674.4799999999999,0.4324075121121132
108,685.4399999999999,0.42519943108236125
109,694.97,0.42077941785028655
110,704.64,0.4140578930156422
111,716.09,0.40849950237689575
112,724.43596,0.40353831324175604
113,726.0500000000001,0.4028457444182339
114,734.4599999999999,0.39930483022358554
115,744.6700000000001,0.3955173928600466
116,755.03,0.3913251743991005
117,765.54,0.38678523484074673
118,774.4,0.38399445735387566
119,785.1800000000001,0.3797948338201882
120,794.27,0.37637933331729234
121,805.32,0.3719597658082714
122,814.64,0.3682752122893507
123,824.0799999999999,0.36543313589250387
124,831.763771,0.3598858422184373
125,835.5400000000001,0.3576137680048653
126,845.21,0.35843729202040453
127,855.0000000000001,0.35576615571348924
128,864.9,0.35396407911099065
129,874.92,0.35201053218603756
130,885.05,0.3503816649655011
131,895.3,0.34824551742251014
132,905.66,0.3451041295839358
133,914.04,0.3539690470658613
134,924.63,0.5508807186092493
135,935.33,0.8241333898570538
136,943.99,1.2823395065865852
137,954.92,1.642190997216352
138,954.992586,1.6436370049100062
139,965.98,1.862605100146874
140,974.92,0.5987204842654512
141,983.9399999999999,1.7216254033649552
142,995.3299999999999,1.7309361212744174
143,1004.54,2.237216160953623
144,1013.83,2.137326335613755
145,1025.57,1.0907211440647724
146,1035.06,1.6615446561772216
147,1044.64,2.701899820143214
148,1054.31,2.637500635962748
149,1064.06,2.21212258676321
150,1073.91,2.52382170628983
151,1083.84,2.121559960797377
152,1093.87,2.6073883840310828
153,1096.4782,2.571153237474022
154,1103.99,2.4672676877611783
155,1114.21,2.393980132023199
156,1124.52,2.161516909943105
157,1134.9199999999998,2.5955040215208953
158,1145.43,2.39492776312499
159,1156.02,2.493806690202759
160,1164.04,2.544212533938709
161,1174.81,1.8649651283322477
162,1185.68,2.4905112045678806
163,1193.8999999999999,1.9727360119880188
164,1204.94,1.5374286073552117
165,1216.09,1.0413866327487082
166,1224.52,1.8621587520372442
167,1235.85,2.4814016447465104
168,1244.42,2.613738638613978
169,1255.93,2.5180161986390135
170,1258.92541,2.447103071546593
171,1264.6399999999999,2.312284179877759
172,1276.34,2.662025555831578
173,1285.19,2.706117340206903
174,1294.1,2.2629739265101962
175,1306.07,2.299006411139873
176,1315.12,2.6541345352750922
177,1324.2399999999998,2.5306544283262746
178,1336.49,2.331897988619804
179,1345.76,2.5864143864909073
180,1355.09,2.5297075862899785
181,1364.4800000000002,2.341125588017018
182,1373.9399999999998,2.3744033586600213
183,1383.46,2.392744931230992
184,1396.26,2.0386756758642304
185,1405.94,2.111152720243117
186,1415.69,2.2429465335379666
187,1425.5,2.240977148760784
188,1435.3799999999999,2.2726975328995653
189,1442.01,2.335409645940063
190,1445.43977,2.332131532125888
191,1448.6599999999999,2.3292513975675235
192,1455.35,2.2789880421569833
193,1465.44,2.1499002041760633
194,1475.59,2.157719851796842
195,1485.82,2.160821146886554
196,1496.12,2.1593425085115814
197,1506.49,2.0503469366719242
198,1513.45,1.8706122664690301
199,1516.9299999999998,1.9552864313675828
200,1523.94,1.9542556658327714
201,1534.5,1.7421131317318284
202,1545.14,1.773817245099818
203,1555.85,1.7172344250031228
204,1566.6299999999999,1.7934936714417438
205,1573.86,1.8860576864464957
206,1584.77,1.9208364850221313
207,1595.76,1.9398699310666994
208,1606.82,1.9095854436465831
209,1614.23,1.9045029154564328
210,1625.4199999999998,1.8547339801733314
211,1636.69,1.9382746923591623
212,1644.2499999999998,1.9372008781732597
213,1655.6399999999999,1.866336561562489
214,1659.58691,1.9143817625946238
215,1663.29,1.959616421691691
216,1670.96,1.8528001065521056
217,1678.6799999999998,1.9749688219526798
218,1686.4199999999998,1.9912465495693175
219,1694.2099999999998,1.9067763077261144
220,1705.95,1.8532224785554845
221,1713.8300000000002,1.7710122916845679
222,1725.71,1.7549085480263837
223,1733.6699999999998,1.8347364100197217
224,1745.69,1.7946117518739833
225,1753.75,1.8525136749476396
226,1765.8999999999999,1.765844096206315
227,1774.0500000000002,1.7575810742522575
228,1786.35,1.7866795871314105
229,1794.6000000000001,1.8405046262576716
230,1807.04,1.8431682246492702
231,1815.38,1.7125243187478176
232,1823.76,1.7563454372784926
233,1836.3999999999999,1.7104421578307276
234,1844.8700000000001,1.596376331333689
235,1853.39,1.5853125353768094
236,1866.24,1.618290384197713
237,1874.8500000000001,1.71030464321312
238,1883.51,1.5789439327686863
239,1896.56,1.5019649037502265
240,1905.31,1.6040682482780793
241,1905.46072,1.6028445453201523
242,1914.11,1.5328503059761949
243,1922.95,1.4933904526980817
244,1936.27,1.5577273027360377
245,1945.21,1.594277166049801
246,1954.19,1.484756116000315
247,1967.74,1.5892142141995873
248,1976.82,1.6371868807419776
249,1985.9399999999998,1.5541046339211189
250,1995.11,1.5204067453961982
251,2004.32,1.5628189435080282
252,2013.5700000000002,1.5354862282566089
253,2022.86,1.5920685996419404
254,2036.89,1.4979167374822198
255,2046.29,1.5232180971186153
256,2055.73,1.4397835433917616
257,2065.2200000000003,1.473495347960846
258,2074.7599999999998,1.5610365108258686
259,2079.54,1.4661383639175674
260,2084.33,1.517178488668454
261,2093.95,1.4494118248069778
262,2103.62,1.48022451924144
263,2113.33,1.4859233003126526
264,2123.08,1.5013301680206164
265,2132.88,1.4559633940245178
266,2142.73,1.433444978324358
267,2152.62,1.4766596492609485
268,2162.55,1.4506594068342897
269,2172.54,1.4405697943627567
270,2182.56,1.4121459968687866
271,2187.7616199999998,1.4292673935460283
272,2192.64,1.4454397556031424
273,2202.76,1.4232630845593994
274,2212.93,1.389360949725915
275,2223.1400000000003,1.3562958438606367
276,2233.4,1.388363274205617
277,2243.71,1.3670222407608552
278,2254.07,1.3316127435263516
279,2264.4700000000003,1.3484412752600545
280,2274.92,1.3566873432040158
281,2285.42,1.3618979473582353
282,2295.97,1.3036610877227128
283,2306.57,1.3142337642974486
284,2317.2200000000003,1.2799419770824425
285,2322.56,1.108387844338017
286,2333.28,1.2328936078173722
287,2344.05,1.218997907506986
288,2354.87,1.2420947434068577
289,2365.7400000000002,1.2071081155169876
290,2376.66,1.2089850238373758
291,2387.63,1.1724294683680223
292,2393.13,1.200118451496423
293,2404.18,1.1713339539634824
294,2415.2799999999997,1.1756329926408
295,2426.42,1.1927520602863242
296,2437.62,1.1591021713841583
297,2443.2400000000002,1.1839462414171784
298,2454.52,1.1730384104514255
299,2465.85,1.1597351156959308
300,2477.23,1.1391963571506944
301,2482.94,1.1486599923621794
302,2494.4,1.062443891753356
303,2505.9199999999996,1.1471506345968425
304,2511.6899999999996,1.0890333132606373
305,2511.88643,1.090067902035258
306,2517.4800000000005,1.1195992680638958
307,2523.2900000000004,1.0954589559603158
308,2534.9300000000003,1.0924945974602005
309,2546.64,1.0755626689347406
310,2552.51,1.101002153952294
311,2564.29,1.0862636554014902
312,2576.12,1.1069063211182972
313,2582.06,1.0994502361105063
314,2593.98,1.0917455975090138
315,2605.9500000000003,1.0701621231751322
316,2617.9799999999996,1.060360545962384
317,2624.0200000000004,1.0669135894898154
318,2636.1299999999997,1.0731980751052452
319,2642.21,1.0986518500467657
320,2654.4,1.1027662984903734
321,2666.6600000000003,1.0578078769086365
322,2672.8,1.0712737489712905
323,2685.14,1.0683186902177317
324,2697.53,1.0381373957317843
325,2703.7499999999995,1.0423059306226161
326,2716.23,1.0216179318183685
327,2722.4900000000002,1.0125334981232894
328,2735.0600000000004,1.025065395000742
329,2747.6800000000003,0.9769843561458058
330,2754.02,0.9787565852789045
331,2766.73,0.9865789421056685
332,2773.1099999999997,1.0012502026528562
333,2785.91,0.9834749551613202
334,2792.33,0.9157840471225969
335,2805.22,0.9390391953127611
336,2818.1699999999996,0.979711140624059
337,2824.66,0.9814901625599911
338,2837.7000000000003,0.9516536035529889
339,2844.2400000000002,0.9431409897565324
340,2857.3700000000003,0.9323744264312304
341,2863.96,0.954416776902385
342,2877.18,0.9516910092587831
343,2883.81,0.9472680911440267
344,2884.0315,0.9472566754573578
345,2897.1200000000003,0.9467232824054168
346,2910.4900000000002,0.9627125068461105
347,2930.67,0.9413103523370003
348,2950.9800000000005,0.9223974270109335
349,2971.44,0.9196062122806861
350,2992.0400000000004,0.9089175674398698
351,3012.7799999999997,0.9002900924884851
352,3026.68,0.8958589743677403
353,3047.66,0.8873536763696664
354,3068.79,0.8826982889674118
355,3090.06,0.8686371714545885
356,3111.48,0.8678062645375846
357,3133.05,0.8520975682163998
358,3147.51,0.8442109296533804
359,3169.3300000000004,0.8397393509918945
360,3191.29,0.81391924221984
361,3213.41,0.8166075847499928
362,3228.2499999999995,0.7986047930297155
363,3250.6200000000003,0.8134333532195671
364,3273.16,0.817860605418014
365,3288.26,0.8084831720638235
366,3311.06,0.795483182628357
367,3311.31121,0.7958158913082862
368,3318.69,0.8056443484786635
369,3326.3399999999997,0.8089090469429482
370,3334.01,0.8139577780829566
371,3341.7000000000003,0.7809190418986884
372,3349.4,0.8152629220522822
373,3357.12,0.7804600348815997
374,3364.86,0.7472299803866407
375,3372.62,0.7453834585674053
376,3380.39,0.7730434530860317
377,3388.1800000000003,0.7863124802803818
378,3395.99,0.7792951401504555
379,3403.82,0.7756954326962529
380,3411.67,0.7572222579177736
381,3419.53,0.7619300994771564
382,3427.42,0.7733113900501246
383,3435.32,0.7764451969609546
384,3443.2400000000002,0.7385077365475082
385,3451.17,0.7642826924719236
386,3459.13,0.7444608974099244
387,3467.1000000000004,0.739418518685787
388,3475.1,0.7423837889752352
389,3483.1099999999997,0.734173975602545
390,3491.14,0.7467442949055786
391,3499.1899999999996,0.7242446468843357
392,3507.25,0.7350462152009546
393,3515.34,0.711361732531159
394,3523.44,0.7329968661992251
395,3531.5600000000004,0.7264428325430149
396,3539.7000000000003,0.7420923315625283
397,3547.86,0.7531960632577654
398,3556.04,0.740007127628726
399,3564.2400000000002,0.7381672246754103
400,3572.45,0.7066700380599564
401,3580.69,0.692827200458088
402,3588.9500000000003,0.6619215955319431
403,3597.22,0.69836090694366
404,3605.51,0.7057027510311006
405,3613.8199999999997,0.6888940277942649
406,3622.15,0.6931373372331526
407,3630.5,0.755667879347764
408,3638.8700000000003,0.7124207541380991
409,3644.89,0.7225457895309089
410,3647.62,0.7180171497671829
411,3650.34,0.6996898936655953
412,3653.0699999999997,0.7348656539018694
413,3655.79,0.7541181978002818
414,3658.52,0.7187894580365559
415,3661.2400000000002,0.7127401019349683
416,3663.97,0.6776061621712425
417,3666.69,0.6220075060696548
418,3669.4100000000003,0.6077185499680672
419,3672.14,0.6651309102043412
420,3674.8599999999997,0.5946590541027535
421,3677.59,0.6926354143390278
422,3680.31,0.6855317582374402
423,3683.0400000000004,0.7528213184737144
424,3685.76,0.6333193623721267
425,3688.49,0.6853631226084007
426,3691.2099999999996,0.7551218665068131
427,3693.94,0.6695303267430873
428,3696.66,0.6783049706414996
429,3699.38,0.746912314539912
430,3702.11,0.716416774776186
431,3704.83,0.7545808186745985
432,3707.56,0.6668157789108726
433,3710.28,0.5126370228092849
434,3713.0099999999998,0.6301575830455591
435,3715.73,0.7108803269439715
436,3718.46,0.8190418871802456
437,3721.18,1.1712076310786579
438,3723.9100000000003,2.152489491314932
439,3726.63,3.4376465352133447
440,3729.3599999999997,4.139871395449619
441,3732.08,3.584003439348031
442,3734.7999999999997,2.2653464832464434
443,3737.53,1.2054363434827176
444,3740.25,0.8108754873811298
445,3742.98,0.712940947617404
446,3745.7000000000003,0.7063238915158163
447,3748.43,0.7243723517520905
448,3751.1499999999996,0.6887393956505028
449,3753.88,0.746751655886777
450,3756.6,0.7656958997851894
451,3759.3300000000004,0.7821221600214635
452,3762.05,0.7816848039198758
453,3764.77,0.7892110478182882
454,3767.4999999999995,0.6644987080545623
455,3770.2200000000003,0.7071877519529747
456,3772.95,0.761372312189249
457,3775.67,0.8037533560876612
458,3778.4,0.8087614163239354
459,3781.12,0.8293277602223477
460,3783.8500000000004,0.7947287204586219
461,3786.57,0.8198202643570343
462,3789.2999999999997,0.8116259245933083
463,3792.02,0.7457282684917207
464,3794.74,0.743652612390133
465,3797.47,0.8175919726264073
466,3800.19,0.7362373165248196
467,3801.8939600000003,0.7095500948838636
468,3802.92,0.6934858422187623
469,3805.6400000000003,0.8099701748747851
470,3808.37,0.8012388771361608
471,3811.0899999999997,0.7888462097921836
472,3813.82,0.8097474120535594
473,3816.54,0.7951814447095821
474,3819.27,0.7846499469709579
475,3821.9900000000002,0.7622663796269806
476,3824.72,0.7309421818883564
477,3827.4399999999996,0.7950873145443792
478,3830.1600000000003,0.7192455472004019
479,3832.89,0.6698856494617778
480,3835.6099999999997,0.6703381821178004
481,3838.34,0.8216735843791763
482,3841.06,0.7233845170351989
483,3843.7900000000004,0.7426477192965748
484,3846.51,0.7637474519525975
485,3849.24,0.8134212542139732
486,3851.96,0.801077286869996
487,3854.69,0.8708140891313717
488,3857.41,0.8320006217873945
489,3860.13,0.8299397544434173
490,3862.86,0.9477497567047931
491,3865.58,0.9130722893608157
492,3868.31,0.9675142916221916
493,3871.0299999999997,1.0471657242782144
494,3873.7599999999998,0.9290198265395901
495,3876.48,0.8788693591956128
496,3879.21,0.8718572614569886
497,3881.9300000000003,0.8407154941130114
498,3884.66,0.8081908963743871
499,3887.3799999999997,0.91247842903041
500,3890.11,0.9329088312917857
501,3892.83,0.8893272639478085
502,3895.5499999999997,0.8528006966038312
503,3898.28,0.765082498865207
504,3901.0,0.7989953315212297
505,3903.7300000000005,0.7848307337826055
506,3906.4500000000003,0.7952584664386283
507,3909.18,0.8249178687000039
508,3911.8999999999996,0.8119576013560268
509,3914.63,0.8260954036174025
510,3917.35,0.8858940362734253
511,3920.0800000000004,0.888775438534801
512,3922.8,0.8206866711908237
513,3925.52,0.8261837038468466
514,3928.25,0.7648216061082223
515,3930.97,0.7679829387642451
516,3933.7,0.6996467410256209
517,3936.42,0.6845776736816437
518,3939.15,0.7363278759430194
519,3941.87,0.7468363085990422
520,3944.6,0.855126010860418
521,3947.32,0.8293852435164406
522,3950.0499999999997,0.8462638457778164
523,3952.77,0.8301572784338391
524,3955.5,0.882604280695215
525,3958.2200000000003,0.7907869133512376
526,3960.94,0.8170606460072605
527,3963.67,0.7416203482686362
528,3966.3900000000003,0.815156480924659
529,3969.12,0.8204223831860348
530,3971.8399999999997,0.9499795158420575
531,3974.57,0.8024614181034333
532,3977.29,0.8436079507594559
533,3980.0200000000004,0.7375947530208318
534,3982.7400000000002,0.8678003856768545
535,3985.47,0.8404982879382303
536,3988.1899999999996,0.9040922205942531
537,3990.91,0.9013988532502759
538,3993.64,0.9054804555116516
539,3996.36,0.9959659881676745
540,3999.09,0.9025219904290501
541,4001.81,0.9433607230850728
542,4004.54,0.9139823253464486
543,4007.26,0.9756950580024714
544,4009.99,0.9225557602638472
545,4012.71,0.9677896929198699
546,4015.44,0.9104496951812457
547,4018.16,0.9468443278372685
548,4020.89,0.9385832300986443
549,4023.61,0.957088162754667
550,4026.3300000000004,0.9665916954106897
551,4029.06,0.9182206976720655
552,4031.7799999999997,0.9401966303280882
553,4034.51,0.946565232589464
554,4037.23,0.8864885652454868
555,4039.96,0.9323506675068626
556,4042.6800000000003,0.9140870001628852
557,4045.41,0.8752530024242611
558,4048.1299999999997,0.9080144350802838
559,4050.86,0.8570972373416595
560,4053.58,0.9120788699976824
561,4056.2999999999997,0.8438115026537051
562,4059.03,0.8935177049150809
563,4061.75,0.9101088375711036
564,4064.4799999999996,0.8482761398324794
565,4067.2000000000003,0.8980189724885022
566,4069.93,0.933192674749878
567,4072.65,0.9232656074059007
568,4075.38,0.9136098096672765
569,4078.1,0.8278257423232992
570,4080.83,0.8586529445846749
571,4083.55,0.8595925772406977
572,4086.27,0.8508979098967204
573,4089.0,0.8385174121580963
574,4091.72,0.799995644814119
575,4094.45,0.8023097470754949
576,4097.17,0.8512092797315175
577,4099.900000000001,0.9645104819928932
578,4102.62,1.046383914648916
579,4105.349999999999,1.0378623169102918
580,4108.07,0.9294372495663146
581,4110.8,0.8437463518276903
582,4113.5199999999995,0.8266014844837132
583,4116.25,0.8428800867450889
584,4118.97,0.8472742194011117
585,4121.6900000000005,0.8530957520571344
586,4124.42,0.8188032543185101
587,4127.14,0.8692920869745329
588,4129.87,0.8471963892359087
589,4132.59,0.8444541218919315
590,4135.32,0.8425026241533071
591,4138.04,0.83954935680933
592,4140.7699999999995,0.8400631590707057
593,4143.49,0.8503609917267285
594,4146.22,0.8661043939881042
