,lambda (Angstroms),Total Flux (erg/s/cm^2/Angstrom)
0,102.06,0.004771008680076456
1,103.95,0.005575935171770309
2,104.712855,0.005900825231143828
3,105.89,0.005482524794270601
4,108.10000000000001,0.004697197634605804
5,110.11,0.0039829409032217464
6,113.98,0.002607730218086397
7,117.99000000000001,0.0011827704936339055
8,120.22644299999999,0.00038805024430607236
9,121.02,0.00037500330231760823
10,124.98,0.0003098935783510662
11,127.01,0.00027651676037291213
12,127.89,0.00026204847253456955
13,130.87,0.00021305274120813649
14,132.07999999999998,0.00019316094744166565
15,133.92,0.00016290958516876737
16,137.04,0.00011161865308646158
17,138.038426,9.520459351080155e-05
18,139.91,9.412288227291704e-05
19,142.84,9.251100883210589e-05
20,146.84,9.04553511627391e-05
21,150.95000000000002,8.816260532146472e-05
22,154.83,8.603108939417897e-05
23,158.489319,8.403296263501643e-05
24,159.16,8.34578012862086e-05
25,162.12,8.094407059045406e-05
26,165.9,7.778166973979453e-05
27,170.14999999999998,7.421246337595779e-05
28,172.92,7.194057875999829e-05
29,176.95,6.862792899381896e-05
30,179.82000000000002,6.63064686516515e-05
31,181.9,6.462759754652671e-05
32,181.970086,6.457129260644103e-05
33,186.14,6.613924785434242e-05
34,190.92000000000002,6.805203082149862e-05
35,194.01999999999998,6.933355935249951e-05
36,198.07999999999998,7.102263698987485e-05
37,202.23000000000002,7.281496916847284e-05
38,205.04000000000002,7.411841651108976e-05
39,208.929613,7.573593646221095e-05
40,209.82,7.740309690001964e-05
41,216.19,8.998734203195116e-05
42,220.20999999999998,9.793723652023442e-05
43,222.76000000000002,0.0001030097825165336
44,226.89999999999998,0.00011134940861640736
45,230.05999999999997,0.00012314586338829173
46,233.8,0.00014196058578286384
47,239.8,0.00016255131636239115
48,239.88329199999998,0.0001627149125678912
49,245.95,0.00015533833941734702
50,252.26,0.00015273391189611236
51,256.95,0.0001417137693644815
52,259.92,0.00014574913855020777
53,264.14,0.0001450696786390176
54,269.06,0.00014171687163355408
55,274.06,0.00013806702524588792
56,275.42287,0.00013707028011207726
57,279.15,0.00014541357979823633
58,283.69,0.00015632645037501143
59,290.3,0.00016777303180947912
60,295.69,0.00018190072621670765
61,301.19,0.00019325781806081842
62,308.21000000000004,0.00021039247357821077
63,316.227766,0.0002304224570194173
64,318.29999999999995,0.0002300938318914888
65,327.98,0.00022734783750166175
66,337.94,0.00022340293951378197
67,348.21,0.00021879153004234365
68,357.14000000000004,0.00021583149279015817
69,363.078055,0.00021460467007232875
70,366.3,0.00022038264875867333
71,374.84000000000003,0.00023388743111899693
72,385.34,0.0002447245684472636
73,395.22,0.0002653267761428136
74,405.36,0.00028260001561982546
75,413.84999999999997,0.00029497376494525245
76,416.86938299999997,0.00029884788884986587
77,421.53999999999996,0.00030320281989486405
78,430.37,0.0003114134788992229
79,441.41,0.0003250153676204145
80,450.65000000000003,0.0003336950810066291
81,460.09000000000003,0.0003416713916522856
82,469.71999999999997,0.0003511399396944119
83,478.630092,0.0003611338259150754
84,479.56,0.0003610464179528035
85,489.59999999999997,0.0003545865644696075
86,499.85,0.0003545348851665438
87,505.64,0.00035005533041876445
88,511.49,0.00035975739686530857
89,519.81,0.0003565525358115047
90,529.47,0.0003509198480975929
91,540.56,0.00033970296551505874
92,549.5408739999999,0.00033761757087144475
93,550.61,0.0003378666541351581
94,559.55,0.0003464492425139529
95,569.96,0.0003523619682436234
96,580.5500000000001,0.00034886849038360515
97,589.99,0.0003546729465688203
98,599.57,0.00034966497773983296
99,609.31,0.00032940049460890037
100,620.64,0.0003613994131023841
101,629.28,0.00036067794079732676
102,630.957344,0.00036121245452204123
103,639.5000000000001,0.0003684369422877864
104,649.8900000000001,0.00037724378871031665
105,657.42,0.00038078530031394057
106,665.0300000000001,0.0003915264170873241
107,674.28,0.0003963005398407798
108,685.24,0.00039372014809784737
109,694.77,0.00042096548894546173
110,704.44,0.0004134865888401555
111,715.88,0.0004410386281157806
112,724.43596,0.0004480968171804327
113,725.8399999999999,0.0004490719641879976
114,734.25,0.0004557993443882631
115,744.46,0.00047074869431034517
116,754.8199999999999,0.00048053496670924533
117,765.32,0.000474334540086509
118,774.1800000000001,0.0005064284877172285
119,784.9499999999999,0.0005161192415527648
120,795.87,0.000530502417865119
121,805.0799999999999,0.0005431593179417473
122,814.41,0.0005532423759998302
123,825.7399999999999,0.0005766991337488204
124,831.763771,0.0005462095600801313
125,835.3,0.0005263748970665323
126,844.97,0.0005860294975163335
127,854.75,0.0005896551155513964
128,864.65,0.0006074294982249262
129,874.66,0.0006273370984837174
130,884.7900000000001,0.0006520199633809757
131,895.04,0.0006680404929167011
132,905.4,0.0006641551400376878
133,915.89,0.0008977339988503471
134,924.36,0.004585098852915478
135,935.0600000000001,0.009967462199845454
136,945.8900000000001,0.019156129758467103
137,954.64,0.027577995930021994
138,954.992586,0.027691579604836876
139,965.7,0.031144298457361535
140,974.63,0.005038527742094638
141,985.92,0.026338969034887107
142,995.04,0.028411478049082617
143,1004.25,0.04265821172460242
144,1015.88,0.04140211184906446
145,1025.28,0.01771364425404668
146,1034.76,0.028803161913539384
147,1044.34,0.057113953641170195
148,1054.0,0.05633128062331149
149,1066.21,0.04414940634297456
150,1076.07,0.05342965146139207
151,1086.03,0.0418760906479477
152,1096.08,0.05697979449582762
153,1096.4782,0.056894035352076634
154,1106.22,0.05479474224628769
155,1113.89,0.05269186826063809
156,1124.19,0.04740409599829248
157,1134.6000000000001,0.06160501331372763
158,1145.09,0.055932735776639715
159,1155.69,0.060201537817332576
160,1163.7,0.06245623070845992
161,1174.47,0.04273611118754125
162,1185.34,0.061171453100968734
163,1196.3,0.04137938830530777
164,1204.6,0.029177687356038966
165,1215.74,0.019746719142201084
166,1224.17,0.04166004405758229
167,1235.5,0.06478415056900211
168,1244.06,0.07184756134903333
169,1255.57,0.06861582444227624
170,1258.92541,0.06473072432412585
171,1264.2700000000002,0.05854349206713959
172,1275.9699999999998,0.07733562657299056
173,1284.8200000000002,0.08153819344280092
174,1293.7199999999998,0.06359921097289267
175,1305.6899999999998,0.06301663904426329
176,1314.74,0.0804219185551993
177,1323.8600000000001,0.07715687899052928
178,1336.1100000000001,0.06783107075947582
179,1345.37,0.08229259304359378
180,1354.69,0.07968423612004942
181,1364.08,0.07086263012089905
182,1373.54,0.07505792504614266
183,1386.25,0.0762760728896782
184,1395.86,0.06644116979576606
185,1405.5300000000002,0.06941083749419161
186,1415.28,0.07086260624906743
187,1425.09,0.07335020579628093
188,1434.96,0.07301534613583215
189,1441.5900000000001,0.0775149536891477
190,1445.43977,0.07834874313809508
191,1448.24,0.07895521556370366
192,1454.93,0.07680479971130365
193,1465.01,0.0707008514314543
194,1475.17,0.07070026403827283
195,1485.39,0.07234672731009223
196,1495.69,0.07403010146857951
197,1506.06,0.06989220640290117
198,1513.01,0.061869183432171695
199,1516.5,0.0667490721130572
200,1523.5000000000002,0.06463446969649514
201,1534.06,0.05604254673665297
202,1544.69,0.06244225455264519
203,1555.4,0.05895262325530526
204,1566.18,0.060047132733799705
205,1573.41,0.06433733286640776
206,1584.31,0.067990533674904
207,1595.3,0.0697323454809016
208,1606.35,0.06846161795190008
209,1613.77,0.06893468019034431
210,1624.95,0.06508348410217807
211,1636.2199999999998,0.06973284901151318
212,1643.77,0.07102826269079268
213,1655.1599999999999,0.06538423893012958
214,1659.58691,0.06794159590259752
215,1666.64,0.07201654886952094
216,1670.48,0.06389719967765171
217,1678.19,0.07369325372210178
218,1685.9399999999998,0.07734185100413656
219,1693.72,0.07218367071435984
220,1705.46,0.069417260945468
221,1713.3300000000002,0.06675534794025687
222,1725.21,0.06675616950291145
223,1733.17,0.07218726378226588
224,1745.18,0.07022381586707073
225,1753.24,0.07628686824038688
226,1765.39,0.06878621165673818
227,1773.5400000000002,0.07169431131461991
228,1785.83,0.07302814606251762
229,1794.0800000000002,0.08006547381436109
230,1806.51,0.07860763989380526
231,1814.8500000000001,0.07319807493021428
232,1823.23,0.07455747320420801
233,1835.87,0.07120655628097182
234,1844.34,0.06479985183953112
235,1857.12,0.06661456624784136
236,1865.7,0.07023264070975857
237,1874.31,0.07525109759986429
238,1882.9599999999998,0.0700733077275547
239,1896.01,0.06863889398956165
240,1904.76,0.07203614221121381
241,1905.46072,0.07189285550340431
242,1913.56,0.07023517391259605
243,1926.82,0.06800857046938297
244,1935.71,0.06661530295730421
245,1944.65,0.07490328022862208
246,1953.6200000000001,0.07120757436997793
247,1967.17,0.07915305067046532
248,1976.25,0.08025199333529377
249,1985.37,0.07717289182683952
250,1994.53,0.07541755614510258
251,2003.74,0.07628903524676228
252,2012.99,0.07404035017513928
253,2026.94,0.07593645474279972
254,2036.3,0.07506744819464932
255,2045.7,0.0791448774732162
256,2055.14,0.07575876257850041
257,2064.62,0.07506478351050191
258,2074.15,0.08248954922590004
259,2078.94,0.08421307947529744
260,2083.73,0.08797712972469482
261,2093.35,0.08286610605020689
262,2103.0099999999998,0.08135471820243628
263,2112.72,0.0834383151380623
264,2127.36,0.08362964771659627
265,2137.18,0.07609999317569488
266,2147.04,0.0819133744615108
267,2156.96,0.08478864948740267
268,2166.91,0.08041778138333251
269,2176.91,0.080416988062659
270,2186.96,0.08209815952538212
271,2187.7616199999998,0.08245220620884879
272,2197.06,0.08656070935949779
273,2207.2,0.08343193283691057
274,2217.38,0.07627295964165041
275,2222.5,0.07505470553951564
276,2232.75,0.08478973816707785
277,2243.06,0.08041995578563069
278,2253.42,0.07368793756334237
279,2263.82,0.07505745266838111
280,2274.27,0.07895471193257869
281,2284.76,0.08440544452410334
282,2295.31,0.0777034321066186
283,2305.9,0.08086193301646094
284,2316.55,0.07587163891729388
285,2327.24,0.05748051814545389
286,2332.6,0.06555686400728156
287,2343.37,0.05970108989009571
288,2354.19,0.0726471799320687
289,2365.0499999999997,0.06048144330136878
290,2375.97,0.06590270166165946
291,2386.94,0.05575942418110898
292,2392.44,0.06171941168858139
293,2403.48,0.05953529003085328
294,2414.58,0.0629612433641158
295,2425.7200000000003,0.07435760002470536
296,2436.92,0.07205607167628554
297,2442.54,0.07848774916573917
298,2453.81,0.07872931664014174
299,2465.1400000000003,0.0766435491055349
300,2476.52,0.07208363573008691
301,2482.22,0.07047272987419469
302,2493.68,0.06782348315340084
303,2505.19,0.08234285059176581
304,2510.9700000000003,0.06293964139052774
305,2511.88643,0.06267231790966855
306,2516.76,0.06125013072198652
307,2522.56,0.06015686399632553
308,2534.2,0.06465164925724037
309,2545.8999999999996,0.06514862258651044
310,2557.65,0.07694151430607654
311,2563.55,0.0708556543610076
312,2575.38,0.07828259350504735
313,2587.27,0.07603602071744231
314,2593.2300000000005,0.0734854088407286
315,2605.2,0.06927380347759722
316,2617.2200000000003,0.06651802650476185
317,2623.26,0.07569152205252179
318,2635.3700000000003,0.08656438218221928
319,2647.53,0.10318956070221279
320,2653.63,0.11370126431832794
321,2665.88,0.09208480994085431
322,2672.03,0.10053817194726551
323,2684.36,0.10343457499426549
324,2696.75,0.09227027610962074
325,2702.9700000000003,0.10051027586244636
326,2715.45,0.08863531408033444
327,2727.98,0.08688978068851855
328,2734.27,0.09508569818775861
329,2746.8900000000003,0.07040260189847555
330,2753.2200000000003,0.07757562810995244
331,2765.93,0.08591107892320224
332,2772.31,0.09272549352497514
333,2785.1,0.07631897176269858
334,2797.96,0.051190197746836454
335,2804.41,0.0569262600950238
336,2817.35,0.08984273350363532
337,2823.85,0.1073058842421187
338,2836.88,0.10422906475326306
339,2843.4199999999996,0.09799136420398324
340,2856.5499999999997,0.08445167149571967
341,2863.1299999999997,0.11033061965867667
342,2876.35,0.11563209405294594
343,2882.98,0.11252448060619898
344,2884.0315,0.11276042549096651
345,2896.2799999999997,0.11550923868408883
346,2909.6499999999996,0.13771392987514278
347,2929.82,0.1278062165859549
348,2950.13,0.12477010320452674
349,2970.58,0.13142668973085833
350,2991.17,0.1331286761649496
351,3011.9,0.13767256250680066
352,3032.7799999999997,0.1388112487498228
353,3046.78,0.14184643952579556
354,3067.9,0.14702602561069153
355,3089.1600000000003,0.15030821160334726
356,3110.58,0.15508679749058552
357,3132.14,0.15106668328558348
358,3146.6,0.15366157375848105
359,3168.41,0.15855285938876423
360,3190.3700000000003,0.1448108449202186
361,3212.4799999999996,0.15609263035284407
362,3227.31,0.14151872058196374
363,3249.68,0.1661128058432859
364,3272.21,0.18113669099919052
365,3287.31,0.17965068105041826
366,3310.1000000000004,0.17908536603501957
367,3311.31121,0.17883984155545846
368,3325.38,0.17598778804273424
369,3333.04,0.18607039156620017
370,3340.73,0.16822469471182067
371,3348.43,0.19592609773149272
372,3356.15,0.1876288004992678
373,3363.89,0.1498138030151459
374,3371.6400000000003,0.15949620540507556
375,3379.41,0.18920770754310826
376,3387.2000000000003,0.18499230942924397
377,3395.0099999999998,0.17393611106348272
378,3402.8399999999997,0.20776021244582454
379,3410.68,0.1761203137022179
380,3418.54,0.1749929147067143
381,3426.42,0.18459241545931374
382,3434.32,0.2039042159600162
383,3442.24,0.1756589162088217
384,3450.18,0.18529831620573028
385,3458.1299999999997,0.18839651607669036
386,3466.1,0.1825195156957535
387,3474.09,0.19611871506291964
388,3482.1000000000004,0.1860983141781889
389,3490.13,0.19631301304156115
390,3498.17,0.17265331177898494
391,3506.24,0.20108151013856326
392,3514.32,0.18264210837219313
393,3522.42,0.20082570635392605
394,3530.54,0.179493004083762
395,3538.6800000000003,0.20242500156170104
396,3546.84,0.20867059878774308
397,3555.01,0.20878429588783665
398,3563.21,0.20087659261008478
399,3571.42,0.17707208920638445
400,3579.66,0.18254848542483867
401,3587.9100000000003,0.15871338151734443
402,3596.18,0.19090757735795322
403,3604.4700000000003,0.20702967294666505
404,3611.73,0.1690618815080701
405,3614.5899999999997,0.16969794548680542
406,3617.45,0.20194310946554075
407,3620.32,0.19902947331832763
408,3623.18,0.21232153729706293
409,3626.04,0.19848640127579825
410,3628.9,0.2031941652545336
411,3631.7700000000004,0.20335732910732043
412,3634.6299999999997,0.20000389308605576
413,3637.49,0.2036551570647911
414,3640.35,0.21145002104352642
415,3643.22,0.21668988489631327
416,3646.08,0.2079725488750486
417,3648.94,0.19848591285378392
418,3651.8,0.19900927683251923
419,3654.6600000000003,0.23470044081125457
420,3657.5299999999997,0.22164350466404142
421,3660.39,0.22326426864277674
422,3663.25,0.2048754326215121
423,3666.11,0.22458779660024739
424,3668.98,0.23642216045303424
425,3671.84,0.2211307244317696
426,3674.7000000000003,0.22932558841050488
427,3677.5600000000004,0.2102393523892402
428,3680.4300000000003,0.19900821624202705
429,3683.29,0.19567518022076238
430,3686.15,0.20677244419949772
431,3689.0099999999998,0.21504920817823306
432,3691.88,0.2221659720310199
433,3694.7400000000002,0.21400243600975521
434,3697.6,0.22950969998849052
435,3700.46,0.22331536396722587
436,3703.32,0.21233142794596122
437,3706.1899999999996,0.20754099179874805
438,3709.0499999999997,0.20855655577748336
439,3711.91,0.2234895197562187
440,3714.77,0.22803318373495404
441,3717.64,0.24272904758774086
442,3720.5,0.22562231156647622
443,3723.36,0.2682772755452115
444,3726.2200000000003,0.29077933952394686
445,3729.0899999999997,0.2872808033767337
446,3731.95,0.26299496735546907
447,3734.81,0.23391943133420434
448,3737.67,0.21370509531293969
449,3740.54,0.22337555916572652
450,3743.4,0.21740682314446186
451,3746.26,0.2099406871231972
452,3749.1200000000003,0.2195815511019325
453,3751.9799999999996,0.22757121508066783
454,3754.85,0.22952917893345468
455,3757.71,0.23238064291219
456,3760.5699999999997,0.23734480689092533
457,3763.43,0.24441147086966067
458,3766.3,0.23199043472244749
459,3769.16,0.22532429870118284
460,3772.02,0.23813426267991816
461,3774.88,0.2520006266586535
462,3777.7500000000005,0.26565029051144035
463,3780.6099999999997,0.26593775449017565
464,3783.47,0.280717018468911
465,3786.33,0.2930962824476463
466,3789.2,0.26833714630043315
467,3792.06,0.24504611027916848
468,3794.92,0.22656507425790381
469,3797.78,0.22406283823663914
470,3800.6400000000003,0.23921120221537445
471,3801.8939600000003,0.24542597821148743
472,3803.5099999999998,0.2534352703091133
473,3806.37,0.2617326417933081
474,3809.23,0.25623571327750283
475,3812.09,0.26407158476169756
476,3814.96,0.2641217561461867
477,3817.82,0.24228712763038152
478,3820.6800000000003,0.2350363991145763
479,3823.5400000000004,0.22823687059877107
480,3826.4100000000003,0.22149774198326022
481,3829.27,0.214975213467455
482,3832.13,0.20261698495164976
483,3834.99,0.19829935643584454
484,3837.86,0.20366242782033367
485,3840.7200000000003,0.21498529930452845
486,3843.58,0.2353128707887232
487,3846.44,0.254461142272918
488,3849.2999999999997,0.27233771375711274
489,3852.1699999999996,0.2872897851416019
490,3855.0299999999997,0.26942415662579666
491,3857.89,0.26702452810999144
492,3860.75,0.27622459959418627
493,3863.62,0.2792488709786754
494,3866.48,0.2893308424628701
495,3869.34,0.2935566139470649
496,3872.2000000000003,0.28839818543125967
497,3875.0699999999997,0.27747435681574883
498,3877.93,0.25724992829994364
499,3880.79,0.2470249997841384
500,3883.65,0.23625637126833315
501,3886.52,0.2297018426528223
502,3889.38,0.24079911413701707
503,3892.2400000000002,0.25260408562121184
504,3895.1000000000004,0.26317825710540665
505,3897.9599999999996,0.27425502858960144
506,3900.83,0.2930325999740906
507,3903.69,0.2941303714582853
508,3906.5499999999997,0.2984279429424801
509,3909.41,0.29839751442667484
510,3912.28,0.295606685811164
511,3915.14,0.30683735729535877
512,3918.0,0.29418182877955357
513,3920.86,0.2810031002637483
514,3923.7300000000005,0.26218227164823743
515,3926.5899999999997,0.23776304313243224
516,3929.45,0.20467741461662703
517,3932.31,0.19307808610082178
518,3935.18,0.20254355748531092
519,3938.04,0.2277940289695057
520,3940.9,0.2618340004537005
521,3943.76,0.27589527193789526
522,3946.6200000000003,0.28383364342209005
523,3949.49,0.2922732148065792
524,3952.35,0.301750086290774
525,3955.21,0.2948584577749687
526,3958.07,0.26915712925916346
527,3960.94,0.24610060064365263
528,3963.8,0.2093331721278474
529,3966.6600000000003,0.1817857436120422
530,3969.5200000000004,0.18281151509623694
531,3972.39,0.20821488648072609
532,3975.25,0.25824375796492083
533,3978.11,0.2931349294491156
534,3980.97,0.3097808009333104
535,3983.84,0.32442507231779955
536,3986.7000000000003,0.32797404380199435
537,3989.56,0.3303127152861891
538,3992.42,0.34080508677038385
539,3995.2799999999997,0.3535843582545786
540,3998.1499999999996,0.3469987296390678
541,4001.0099999999998,0.3594293011232626
542,4003.87,0.3582400726074574
543,4006.73,0.3764858440916521
544,4009.6,0.3775408154761412
545,4012.46,0.37293618696033604
546,4015.32,0.3932332584445308
547,4018.1800000000003,0.37489592992872556
548,4021.0499999999997,0.37815590131321475
549,4023.91,0.3696438727974095
550,4026.77,0.37595174428160427
551,4029.63,0.369788215765799
552,4032.5,0.35954108715028815
553,4035.36,0.368546158634483
554,4038.2200000000003,0.37682323011867774
555,4041.0800000000004,0.3709675016028725
556,4043.9399999999996,0.35649667308706723
557,4046.81,0.3652436444715564
558,4049.67,0.3604442159557512
559,4052.5299999999997,0.374136387439946
560,4055.39,0.37538805892414073
561,4058.26,0.3594795303086299
562,4061.12,0.3556441017928247
563,4063.98,0.3767104732770194
564,4066.8399999999997,0.3693982447612142
565,4069.7100000000005,0.36398171614570335
566,4072.5699999999997,0.35886438762989814
567,4075.43,0.3633773591140929
568,4078.29,0.36409563059828765
569,4081.16,0.3709248019827768
570,4084.02,0.37692487346697157
571,4086.88,0.36820774495116637
