,lambda (Angstroms),Total Flux (erg/s/cm^2/Angstrom)
0,100.00999999999999,0.0013626855494144928
1,102.10000000000001,0.0016738583225731846
2,104.0,0.0019567427336274466
3,104.712855,0.002062877330675212
4,105.94,0.001910432509700896
5,107.89999999999999,0.0016669475371504032
6,109.91000000000001,0.0014172524493300373
7,114.03999999999999,0.0009041967628939999
8,118.04,0.00040729232855441964
9,120.22644299999999,0.00013571635572728658
10,121.07,0.0001308831510592483
11,125.03999999999999,0.00010809223847828366
12,127.07,9.64383151228534e-05
13,127.95,9.139051035498209e-05
14,130.93,7.428608352287259e-05
15,132.14,6.736388714204976e-05
16,133.98,5.6809223581955295e-05
17,137.1,3.8950868732229936e-05
18,138.038426,3.3572488508829495e-05
19,139.97,3.3213061766297415e-05
20,142.9,3.330468317920727e-05
21,146.91,3.4314990684589e-05
22,151.02,3.393296085594035e-05
23,154.9,3.369519609556159e-05
24,158.489319,3.3546948215010586e-05
25,158.86999999999998,3.3489764553680203e-05
26,161.82,3.308296694820042e-05
27,165.97,3.262317140150853e-05
28,169.84,3.221966784109947e-05
29,173.0,3.192456899590757e-05
30,177.03,3.16194704433369e-05
31,179.89999999999998,3.1482112833937934e-05
32,181.970086,3.138846952467876e-05
33,181.99,3.1395779275273176e-05
34,185.79999999999998,3.290030515556198e-05
35,191.0,3.495532761684853e-05
36,194.11,3.635633131965646e-05
37,198.17000000000002,3.8118973549045576e-05
38,201.85999999999999,4.0055316141766223e-05
39,205.14000000000001,4.1588344001962355e-05
40,208.929613,4.292849271775709e-05
41,209.91,4.377440160714872e-05
42,215.79000000000002,5.087805289505091e-05
43,219.81,5.535707091841261e-05
44,222.86,5.841827444359997e-05
45,227.01,6.327232678114998e-05
46,230.17,8.102264318757359e-05
47,233.91,0.00011615411114960662
48,239.88329199999998,0.0001424123741366702
49,239.91,0.00014250008941865295
50,246.06,0.000138954713379474
51,251.79,0.00014711053648443413
52,257.06,0.00013074531436630844
53,260.04,0.00014630257472455994
54,264.27,0.00015281431905858812
55,269.18,0.00015433530763543876
56,274.18,0.0001553547035385453
57,275.42287,0.0001556124362283641
58,279.28000000000003,0.00016041693550794545
59,283.82,0.00016657245344493457
60,289.76,0.00016757071876337412
61,295.83000000000004,0.0001774766777672341
62,301.33,0.00018239525676578923
63,308.35,0.00019254651577849056
64,316.227766,0.00020482591534921416
65,317.72,0.00020576595366055277
66,328.13,0.00020764013003492262
67,338.1,0.00020795368665859864
68,348.37,0.00020746863856683863
69,357.31,0.000207574258046845
70,363.078055,0.00020844590167045035
71,365.63,0.0002106157455079745
72,375.01,0.0002155842578891419
73,384.63,0.00021560722367878265
74,395.4,0.00022696213288402495
75,404.60999999999996,0.00023327974493419037
76,414.04,0.00023704568094212307
77,416.86938299999997,0.00023758823847362675
78,421.74,0.0002379251180935858
79,429.58000000000004,0.00023982163715860347
80,440.6,0.00024361629456887062
81,450.86,0.0002446231031922228
82,460.3,0.000245472130229693
83,469.94,0.00024679113326371983
84,478.630092,0.0002491703806855735
85,479.78,0.0002489965311056605
86,489.82,0.00024307534554662093
87,500.08,0.0002427865192681602
88,505.87,0.00023876028397066623
89,511.73,0.0002485136720806292
90,520.04,0.00024605897945158354
91,529.7099999999999,0.00024099289873884323
92,539.56,0.0002328102210738492
93,549.5408739999999,0.00023217288344125223
94,549.59,0.00023217773549813377
95,559.8100000000001,0.00023721836504684527
96,570.22,0.00024101828516446633
97,579.48,0.00023612484657552978
98,590.26,0.00024038543253786931
99,599.85,0.00023452309862124926
100,609.59,0.00022008089410113676
101,619.5,0.00024427834956373273
102,629.56,0.00024398433442283625
103,630.957344,0.0002440083398969552
104,639.79,0.0002457874475999457
105,650.1899999999999,0.000250806895279695
106,657.72,0.00025208927210935967
107,665.3299999999999,0.00025844561084425316
108,674.59,0.0002594181763744915
109,685.5500000000001,0.00025305875739084266
110,695.09,0.0002768792395893819
111,704.76,0.00026724927238391805
112,716.21,0.0002891383825697959
113,724.43596,0.0002923641871684969
114,726.17,0.0002929651317500903
115,734.5799999999999,0.0002975255624225253
116,744.8000000000001,0.0003107138225262454
117,755.16,0.0003194231081108384
118,765.67,0.00031567942099636654
119,774.53,0.00034022003357160726
120,785.3100000000001,0.0003498021955988188
121,794.4,0.00035954945003549354
122,805.45,0.0003697019612043885
123,814.78,0.0003769853593225596
124,824.2099999999999,0.0003986191756413541
125,831.763771,0.00036481521904812924
126,835.6800000000001,0.000346540169150316
127,845.36,0.0004070689572542953
128,855.15,0.0004124569134049108
129,865.05,0.0004319511376021624
130,875.07,0.00045259791785028975
131,885.2,0.00048049806614505324
132,895.45,0.0004976829704906925
133,905.8199999999999,0.0004931711308872076
134,914.2,0.0007248109784400327
135,924.7800000000001,0.004517556386925581
136,935.4899999999999,0.009905224239466243
137,944.15,0.01923481005113778
138,954.992586,0.02809797036529503
139,955.0799999999999,0.02816943569572593
140,963.9200000000001,0.030182762378481606
141,975.0799999999999,0.0044618819508292565
142,984.1,0.023009103900880856
143,995.5,0.02629089749628975
144,1004.71,0.04184236650626483
145,1014.0100000000001,0.04145753364988788
146,1025.75,0.018073760194633526
147,1035.24,0.027089553398180054
148,1044.8200000000002,0.05682213473537454
149,1054.48,0.05591412441358945
150,1064.24,0.04174564201807987
151,1074.0900000000001,0.051705357756218255
152,1084.03,0.038692641628004606
153,1094.06,0.05527339363343892
154,1096.4782,0.05476648207596152
155,1104.18,0.05315166361037605
156,1114.3999999999999,0.0501795702933137
157,1124.71,0.04441808113490736
158,1135.1200000000001,0.0600443054861188
159,1145.62,0.05376343399598625
160,1156.22,0.058542596015471474
161,1164.23,0.060320146135856074
162,1175.01,0.03958647647265332
163,1185.8799999999999,0.058675840968106574
164,1194.1,0.03720208745868852
165,1205.1499999999999,0.025042990271453788
166,1216.3,0.018958656593836838
167,1224.73,0.03976611945461613
168,1236.06,0.0637430340943112
169,1244.63,0.0705342278685554
170,1256.15,0.06628455017652425
171,1258.92541,0.06284960875922099
172,1264.85,0.05551754739307075
173,1273.6200000000001,0.07557719788035867
174,1285.4099999999999,0.08005407230967733
175,1294.32,0.05948763344328456
176,1306.29,0.05867167870358518
177,1315.3500000000001,0.0776943005296774
178,1324.46,0.0738577625865979
179,1333.65,0.06315685501284375
180,1345.99,0.07932052198127397
181,1355.3200000000002,0.07662835505383911
182,1364.71,0.06674294840339824
183,1374.17,0.07135054207611703
184,1383.6999999999998,0.07217625607199547
185,1396.5,0.06214672516404626
186,1406.1799999999998,0.06462767985240968
187,1415.93,0.06597933486393275
188,1425.74,0.06877132015244979
189,1435.62,0.0681405757641265
190,1442.25,0.07267804637196217
191,1445.43977,0.07430310479663295
192,1445.57,0.07436945160234135
193,1455.59,0.07168084042620261
194,1465.68,0.06522631952128845
195,1475.84,0.06537696888759886
196,1486.07,0.06720739852513384
197,1496.3799999999999,0.0689303184726398
198,1503.28,0.06447959520763408
199,1513.7,0.05616146558135007
200,1517.1899999999998,0.06115391910383269
201,1524.19,0.058808976226290645
202,1534.76,0.04994152718120217
203,1545.4,0.05642173840733827
204,1556.11,0.05314300990469896
205,1563.29,0.05400677772459156
206,1574.1299999999999,0.05800146972565503
207,1585.04,0.061719741997943084
208,1596.03,0.06301276458020208
209,1603.39,0.06200444309752932
210,1614.5100000000002,0.06257914618349111
211,1625.6999999999998,0.05867325954067748
212,1633.1999999999998,0.06315866860045387
213,1644.52,0.06433098246134304
214,1655.9199999999998,0.058943176632203144
215,1659.58691,0.061882648209651114
216,1663.57,0.06507567354465665
217,1671.25,0.056682100855997425
218,1675.1,0.06537721979462528
219,1686.7099999999998,0.06909001830825372
220,1694.5,0.0643312187321267
221,1706.24,0.061580070924202306
222,1714.1200000000001,0.05773566389469257
223,1726.0,0.05747230004817282
224,1733.97,0.06200613556528036
225,1745.98,0.060457695397207786
226,1754.04,0.06522904346093261
227,1766.2,0.05908166753722215
228,1774.3500000000001,0.060737328147564246
229,1786.6499999999999,0.06200855618525844
230,1794.9,0.06705701962517528
231,1803.19,0.06659475419692201
232,1815.68,0.060598867610808245
233,1824.0700000000002,0.062295295012129735
234,1836.71,0.05963000267037809
235,1845.1899999999998,0.05426103261831685
236,1853.7,0.05438766341512804
237,1866.55,0.056297917015483354
238,1875.1699999999998,0.06201065092482677
239,1883.82,0.056428595683042614
240,1896.8799999999999,0.054138385225504904
241,1905.46072,0.0576671454677749
242,1905.64,0.0577408614844163
243,1914.43,0.055271430882058235
244,1923.27,0.054388818456023495
245,1936.6,0.05629817226382405
246,1945.54,0.058814116190435986
247,1954.52,0.05476232865810658
248,1968.0700000000002,0.06073819444172981
249,1977.15,0.06258418326204707
250,1986.28,0.05894649025868766
251,1995.45,0.05720979579638692
252,2004.66,0.05921914987514485
253,2013.9099999999999,0.05681561249496144
254,2023.21,0.06004040329110137
255,2037.2299999999998,0.056424421932163925
256,2046.64,0.059079828716215185
257,2056.08,0.055905174406060444
258,2065.5699999999997,0.05616305827222903
259,2075.11,0.060873990314720954
260,2079.89,0.05773479597123159
261,2084.68,0.06031612126300688
262,2094.31,0.05681224002288081
263,2103.97,0.05720638768854873
264,2113.69,0.05786715316580465
265,2123.44,0.058808007548854575
266,2133.2400000000002,0.05438090010822783
267,2143.09,0.055901870843924416
268,2152.98,0.05840131012067967
269,2162.92,0.05641940757375826
270,2172.9,0.05590100356789552
271,2182.93,0.054880577738356105
272,2187.7616199999998,0.05624670024513864
273,2193.0099999999998,0.057731004135388425
274,2203.13,0.05603114842575024
275,2213.3,0.053141144170115825
276,2223.52,0.051455871368485166
277,2233.7799999999997,0.05513612973005753
278,2244.09,0.05277591954563365
279,2254.4500000000003,0.050286080815213526
280,2264.85,0.051575783247996415
281,2275.31,0.05302007742558383
282,2285.81,0.054632622766374254
283,2296.36,0.05135612956116844
284,2306.96,0.05158863780996639
285,2317.61,0.0490360775127681
286,2322.95,0.03811090280037009
287,2333.67,0.04549615453877707
288,2344.45,0.04435532802198857
289,2355.27,0.048183002668403085
290,2366.14,0.04414488876882136
291,2377.06,0.0455895463232434
292,2382.54,0.042301685682055924
293,2393.54,0.045427645562883985
294,2404.59,0.0436823968977158
295,2415.69,0.044904229686551396
296,2426.84,0.047890643929390755
297,2432.43,0.046105756487011554
298,2443.66,0.04906014305625693
299,2454.94,0.04849697107950607
300,2466.27,0.048052160556758976
301,2477.65,0.04631445148801564
302,2483.36,0.04733860753524548
303,2494.83,0.044079061083708924
304,2506.34,0.049910775795375374
305,2511.88643,0.044459986287534274
306,2512.12,0.04423043445720423
307,2517.91,0.045730969292174184
308,2523.72,0.04392658390204905
309,2535.3599999999997,0.04484661289670367
310,2547.07,0.044028061103525466
311,2552.94,0.04777621503811504
312,2564.72,0.046369782457104006
313,2576.56,0.04934253920080768
314,2582.5,0.048610852347564425
315,2594.42,0.04794535819088772
316,2606.3999999999996,0.04631986335892573
317,2612.4,0.04573936583039719
318,2624.46,0.04811671009805482
319,2636.58,0.05050120369042716
320,2642.66,0.054927645261518235
321,2654.8500000000004,0.05738603806605775
322,2667.1099999999997,0.050800710082764426
323,2673.25,0.05350252097857022
324,2685.59,0.05387578209489652
325,2697.9900000000002,0.050868302535937535
326,2704.21,0.052838212531362935
327,2716.69,0.04977457207202357
328,2722.96,0.049150331504711244
329,2735.52,0.051946150144991494
330,2748.1499999999996,0.04493846799743891
331,2754.4800000000005,0.046360106754841306
332,2767.2000000000003,0.048437283594360794
333,2773.58,0.050778571789025444
334,2786.38,0.04750564772816455
335,2792.7999999999997,0.038754235472639016
336,2805.69,0.04162544039885019
337,2812.1600000000003,0.05033149758058691
338,2825.14,0.05356468149387016
339,2838.1800000000003,0.051517144731868136
340,2844.7299999999996,0.04960146101322448
341,2857.8599999999997,0.047267353238294514
342,2864.4399999999996,0.05334187918200821
343,2877.67,0.054717650281602775
344,2884.0315,0.05406111602158447
345,2884.3,0.05403340862263649
346,2897.61,0.05479320555692965
347,2910.99,0.06064327247509964
348,2931.17,0.05799613782701819
349,2951.48,0.056887783148993704
350,2971.94,0.05816241843641956
351,2992.5400000000004,0.05851474369159905
352,3013.29,0.05914230891222889
353,3027.2,0.05970220570832339
354,3048.18,0.06006620087597707
355,3069.31,0.061272916009081094
356,3090.58,0.06150679110993876
357,3112.01,0.06303357617394344
358,3133.5800000000004,0.06169323120570178
359,3148.0399999999995,0.06213658787511419
360,3169.8599999999997,0.06324292284928976
361,3191.84,0.059387547786612344
362,3206.57,0.062060784393835354
363,3228.7900000000004,0.058413149275878484
364,3251.1800000000003,0.06489066411876532
365,3273.71,0.06852736892940581
366,3288.82,0.067920585449103
367,3311.31121,0.06725993056862542
368,3311.6200000000003,0.06725085890906232
369,3319.2500000000005,0.06703079531384264
370,3326.9100000000003,0.06820837158653165
371,3334.57,0.07085958785922065
372,3342.26,0.06698539399981837
373,3349.97,0.07055771005235523
374,3357.69,0.06920227606086164
375,3365.43,0.0619021319813072
376,3373.1899999999996,0.060295927813691884
377,3380.96,0.06619695360204615
378,3388.76,0.07037253925830911
379,3396.5699999999997,0.06591579487054164
380,3404.4,0.0710476303947133
381,3412.25,0.06654712583082412
382,3420.11,0.06929633122290449
383,3428.0,0.06938838648289355
384,3435.9,0.0702839516988522
385,3443.82,0.062294146826749976
386,3451.7599999999998,0.0701479318665869
387,3459.72,0.06817034681836294
388,3467.69,0.06763498172610855
389,3475.69,0.06882614650176287
390,3483.7000000000003,0.06828700123338677
391,3491.73,0.06932772587694978
392,3499.78,0.06404709043245195
393,3507.85,0.07146158489989324
394,3515.93,0.0658664893233041
395,3524.04,0.07018345361462368
396,3532.16,0.07125622786191281
397,3540.3,0.07335081202114109
398,3548.4700000000003,0.07567877604827805
399,3556.64,0.07170883007541504
400,3564.84,0.07347726397046071
401,3573.06,0.06497613777744553
402,3581.3,0.06521560149636947
403,3589.55,0.057802675171262995
404,3597.8300000000004,0.06926525871406522
405,3606.12,0.07048507221283701
406,3614.44,0.0678717055795175
407,3622.77,0.06475723890216756
408,3627.3100000000004,0.0743061789123514
409,3630.05,0.061469396848012996
410,3632.79,0.053532434783674594
411,3635.54,0.07476246267530577
412,3638.2799999999997,0.08565394061096739
413,3641.03,0.07779011850259854
414,3643.77,0.05485572643826016
415,3646.51,0.07689868437392176
416,3649.2599999999998,0.07381032226555292
417,3652.0000000000005,0.07840869020121453
418,3654.75,0.0830292480928457
419,3657.49,0.07951146602850731
420,3660.23,0.07253415396416893
421,3662.98,0.0763327618558001
422,3665.7200000000003,0.0676436097914617
423,3668.47,0.07298814768309286
424,3671.2099999999996,0.07576720561875448
425,3673.9500000000003,0.07648754355441609
426,3676.7,0.07898340144604725
427,3679.44,0.07781090938170886
428,3682.19,0.07146664727334003
429,3684.9300000000003,0.07006225520900164
430,3687.67,0.06258721314466323
431,3690.4199999999996,0.07968466103629442
432,3693.16,0.07846314897195603
433,3695.8999999999996,0.07811640690761762
434,3698.65,0.0720605947992488
435,3701.39,0.07039978273491039
436,3704.1400000000003,0.07753912062654157
437,3706.88,0.07855355856220318
438,3709.6200000000003,0.07285635649786479
439,3712.37,0.07642682438949595
440,3715.1099999999997,0.07581803232515756
441,3717.86,0.08458058021678874
442,3720.6,0.09839049815245035
443,3723.34,0.14065333608811195
444,3726.09,0.16382492397974313
445,3728.8300000000004,0.15968511191540474
446,3731.58,0.1214302998070359
447,3734.3199999999997,0.08827018774269749
448,3737.06,0.0736574556783591
449,3739.81,0.08117761356999029
450,3742.55,0.058737151505651876
451,3745.2999999999997,0.07489760939728306
452,3748.0400000000004,0.05913296733294466
453,3750.78,0.07389115526860626
454,3753.5299999999997,0.08149615316023745
455,3756.27,0.08159812109589903
456,3759.02,0.07818358898753022
457,3761.76,0.07807062692319182
458,3764.5,0.08064042485885342
459,3767.2499999999995,0.07558193275048461
460,3769.99,0.0746733706861462
461,3772.7300000000005,0.07898140862180782
462,3775.48,0.08193538651343897
463,3778.22,0.08554022444910059
464,3780.9700000000003,0.09566581234073175
465,3783.71,0.09573387027639337
466,3786.4500000000003,0.09616955821205497
467,3789.2,0.08899383610368614
468,3791.9399999999996,0.07656616403934775
469,3794.69,0.07265960193097891
470,3797.43,0.07736352986664052
471,3800.17,0.08302332780230214
472,3801.8939600000003,0.08401593249701372
473,3802.92,0.08460669663524957
474,3805.6600000000003,0.09363740708465974
475,3808.41,0.09605591749921374
476,3811.1499999999996,0.09705342794862393
477,3813.89,0.0928965483980341
478,3816.64,0.09013806881258811
479,3819.38,0.09087915926199829
480,3822.13,0.08478561967655229
481,3824.8700000000003,0.07519721012596246
482,3827.61,0.07537079057537265
483,3830.3599999999997,0.07393395098992665
484,3833.1,0.06670024143933681
485,3835.85,0.06312175185389082
486,3838.59,0.067412782303301
487,3841.33,0.08210876275271117
488,3844.0800000000004,0.08684810316726518
489,3846.82,0.09342605361667536
490,3849.5600000000004,0.08932571406608553
491,3852.31,0.08921042448063954
492,3855.0499999999997,0.09295667493004971
493,3857.8,0.09336170534460371
494,3860.54,0.1001470857940139
495,3863.28,0.10404417624342406
496,3866.0299999999997,0.10083316665797806
497,3868.7700000000004,0.09915922710738824
498,3871.52,0.10003364752194226
499,3874.2599999999998,0.09515662797135242
500,3877.0,0.0908998084207626
501,3879.75,0.0870968888353166
502,3882.4900000000002,0.07931646928472677
503,3885.24,0.07446913969928078
504,3887.9799999999996,0.08014777014869097
505,3890.72,0.08240839059810114
506,3893.47,0.08550188101265514
507,3896.21,0.09620295146206533
508,3898.96,0.09991100187661933
509,3901.7000000000003,0.09426475232602949
510,3904.44,0.09533389277543967
511,3907.19,0.09974516318999369
512,3909.93,0.10192851363940385
513,3912.68,0.10348920405395785
514,3915.42,0.10070299450336802
515,3918.16,0.09717764495277821
516,3920.9100000000003,0.09843106536733222
517,3923.65,0.09072229581674238
518,3926.3900000000003,0.08394105626615256
519,3929.14,0.07307964668070657
520,3931.8799999999997,0.061843437130116745
521,3934.63,0.06693539754467075
522,3937.37,0.07723673799408093
523,3940.11,0.08798870844349109
524,3942.86,0.0956634288580451
525,3945.6000000000004,0.09390840930745528
526,3948.35,0.09750334972200929
527,3951.0899999999997,0.10104597017141946
528,3953.83,0.09520178062082964
529,3956.58,0.08553184103538364
530,3959.32,0.0793953814847938
531,3962.0699999999997,0.07200291189934782
532,3964.81,0.064214922348758
533,3967.55,0.06462037279816817
534,3970.2999999999997,0.06558166321272217
535,3973.04,0.08056231366213236
536,3975.79,0.08815786407668635
537,3978.53,0.09848941452609652
538,3981.27,0.1019019649755067
539,3984.02,0.10305735539006071
540,3986.7599999999998,0.10803284583947088
541,3989.51,0.11123183625402489
542,3992.25,0.11182592670343505
543,3994.99,0.11601331715284524
544,3997.7400000000002,0.11050790756739924
545,4000.48,0.12159359801680941
546,4003.2200000000003,0.11602658846621959
547,4005.97,0.1151721788807736
548,4008.7099999999996,0.11852066933018376
549,4011.46,0.11922735974473778
550,4014.2,0.11487255019414797
551,4016.94,0.12043244064355813
552,4019.69,0.11600923105811213
553,4022.4300000000003,0.11756292150752232
554,4025.18,0.11961751192207633
555,4027.9199999999996,0.11881650237148648
556,4030.66,0.11398089282089667
557,4033.41,0.12224568323545068
558,4036.15,0.12238727368486084
559,4038.9,0.11859936409941485
560,4041.6400000000003,0.11950455454882503
561,4044.38,0.1115318449982352
562,4047.13,0.11924613541278921
563,4049.87,0.11856762586219938
564,4052.62,0.1254221162767534
