,lambda (Angstroms),Total Flux (erg/s/cm^2/Angstrom)
0,100.03,0.00014613338914119323
1,101.89,0.00017580920848653053
2,104.02,0.00020887212872070708
3,104.712855,0.00021985182621807
4,105.95,0.00020538657458898257
5,107.92,0.00018278817223554318
6,109.92999999999999,0.0001634410991236584
7,114.05,0.00011679577100377497
8,118.06,7.113834996961654e-05
9,120.22644299999999,8.794069382616173e-05
10,121.09,0.00010495503417264411
11,125.06,0.00011623876555075263
12,127.09,0.00012079413325794665
13,127.97,0.00012446266605712437
14,130.95000000000002,0.00013012469303615794
15,131.85999999999999,0.0001461497371807622
16,134.0,0.0001501557464878534
17,137.12,0.00017478072641221071
18,138.038426,0.00017748675033918586
19,139.98999999999998,0.0001843280362219014
20,142.93,0.00038318615182822267
21,146.93,0.000737199168299408
22,151.05,0.0007735059282647289
23,154.92000000000002,0.0008191042059506008
24,158.489319,0.0008623230323310005
25,158.9,0.0008672912216916321
26,161.85000000000002,0.0009037509353367507
27,166.0,0.0009614257053798835
28,169.86999999999998,0.0010065281822634797
29,173.03,0.0010464527907782508
30,177.06,0.0010930440351815823
31,179.92999999999998,0.0011287737650668333
32,181.970086,0.0011542106732384998
33,182.01999999999998,0.0011548351034465745
34,185.82999999999998,0.0012036966666305795
35,191.02999999999997,0.0012633732987977256
36,194.14000000000001,0.0013075557768823071
37,198.20000000000002,0.0013567308704589634
38,201.89,0.001407529219054496
39,205.17000000000002,0.00144684741780608
40,208.929613,0.001449512480915009
41,209.95,0.0014502881903602847
42,215.83,0.0015794666119295254
43,219.84,0.001635150091605147
44,222.9,0.00165418517834016
45,227.04,0.0017164076486287068
46,230.2,0.0025549528819890474
47,233.94000000000003,0.004276818765776285
48,239.88329199999998,0.005168593681030955
49,239.94000000000003,0.005177096206346016
50,246.1,0.004864790304301677
51,251.83,0.0050354291746403015
52,257.11,0.004169337830030868
53,260.08,0.0047866964486880615
54,263.7,0.004954351155603563
55,269.22,0.004875218658966427
56,274.23,0.004796549985388157
57,275.42287,0.004773165090886365
58,278.68,0.004709653661045695
59,283.86,0.004645251682831163
60,289.81,0.004365573329476632
61,295.88,0.004366007463113271
62,300.68,0.004208654942760035
63,307.69,0.004179793891160831
64,316.227766,0.004139762023475739
65,317.77,0.0041323863613420345
66,328.18,0.0040010321650017135
67,338.15,0.003847478390985095
68,347.62,0.0036910784150635924
69,357.35999999999996,0.0035735127481707277
70,363.078055,0.003511937027712481
71,365.69,0.003483994052452776
72,375.07,0.0033583019245293413
73,384.69000000000005,0.0031349402133754554
74,394.56,0.003113486228023184
75,404.67999999999995,0.003022073968472527
76,414.11,0.002913269385709415
77,416.86938299999997,0.0028732822465000205
78,421.8,0.002801770080857804
79,429.65000000000003,0.002706982632159373
80,440.67,0.0026154679602285826
81,450.93,0.002503952196706812
82,460.37,0.0024082142291000372
83,470.01,0.002316117969806678
84,478.630092,0.0022521268126158493
85,479.86,0.0022429438998107032
86,489.9,0.002132221819683906
87,500.15999999999997,0.002078756391187796
88,505.95,0.002017490631831804
89,511.80999999999995,0.00204531217072194
90,520.13,0.001984967905118857
91,529.8,0.0018955988199768118
92,539.65,0.0017936523588962386
93,549.5408739999999,0.0017218258406993833
94,549.6800000000001,0.0017208178032882683
95,559.9,0.0017010359364712671
96,570.31,0.0016661905662594294
97,579.58,0.0015912272164166114
98,590.35,0.0015479529976671885
99,599.9399999999999,0.0014682101157909616
100,609.69,0.0012968799678980299
101,619.6,0.0014021205539883938
102,629.67,0.001345230874062053
103,630.957344,0.0013417597081474778
104,639.9000000000001,0.0013178130676774994
105,650.3000000000001,0.001270355991158867
106,657.8299999999999,0.001221808304025665
107,665.44,0.0012163124701500116
108,674.7,0.0011860972347113063
109,685.66,0.0011200741309955165
110,695.1999999999999,0.0011124778819582325
111,704.8699999999999,0.0010481990194644655
112,716.33,0.001048291248608357
113,724.43596,0.0010252496752578986
114,726.29,0.0010199709556743413
115,734.6999999999999,0.0009945953914405603
116,744.9200000000001,0.0009610617111231712
117,755.28,0.0009329133803904754
118,765.79,0.0008473831599270939
119,774.66,0.0008811036871858764
120,785.44,0.0008436307052072605
121,794.53,0.0008321618675277041
122,805.58,0.0008152871240338538
123,814.91,0.0007950602427852001
124,824.3499999999999,0.0007771312290673769
125,831.763771,0.0007374702077011813
126,835.82,0.0007156925572526242
127,845.49,0.0007338034276979892
128,855.2800000000001,0.0007138088105997602
129,865.1899999999999,0.0006991458059579368
130,875.21,0.0006847487460678187
131,885.34,0.0006691321309294059
132,895.59,0.0006538877282473989
133,905.9599999999999,0.0006345794380217977
134,914.35,0.0007097726422655011
135,924.9300000000001,0.00123608447383861
136,935.64,0.0018516797855728253
137,944.3,0.0026320862178434417
138,954.992586,0.0031945370293771642
139,955.24,0.003207554242603291
140,964.07,0.003541035778690466
141,975.24,0.0014280054217361904
142,984.26,0.003178034560525128
143,995.66,0.0031418297226308814
144,1004.8700000000001,0.003918000464121582
145,1014.17,0.0037418870174183794
146,1025.91,0.0019518344685693918
147,1035.4099999999999,0.0029865436036575193
148,1044.99,0.004550137571462178
149,1054.66,0.004436190351072935
150,1064.4099999999999,0.003733211963400224
151,1074.26,0.004178697366623177
152,1084.2,0.003412908581652228
153,1094.23,0.004227190608487377
154,1096.4782,0.004187027240710716
155,1104.3600000000001,0.004046186324276726
156,1114.58,0.003917702438596077
157,1124.89,0.003548599963902585
158,1135.3,0.004168700834750377
159,1145.8,0.0038550751165853272
160,1153.75,0.003963004087117503
161,1164.42,0.0040087902563726375
162,1175.2,0.0029722367057231865
163,1186.07,0.0038019745660608914
164,1194.29,0.0029314057695545375
165,1205.34,0.002334318451866556
166,1213.7,0.0015323997391180017
167,1224.93,0.002741965243404334
168,1236.26,0.0036555810932319506
169,1244.83,0.003898905006120095
170,1256.35,0.003757847612476154
171,1258.92541,0.0036416374836302184
172,1265.0600000000002,0.003364869613207506
173,1273.83,0.004008132695749572
174,1285.6100000000001,0.004110845179483386
175,1294.5300000000002,0.0034353823318522838
176,1303.5,0.0033804465074967916
177,1315.5600000000002,0.003953257121574023
178,1324.68,0.0037840823670453627
179,1333.8600000000001,0.0034354446404474344
180,1346.1999999999998,0.0038631943848680844
181,1355.53,0.0037407087280969874
182,1364.93,0.0034118451039117452
183,1374.39,0.0034992185076572354
184,1383.9199999999998,0.00349921494398858
185,1393.51,0.0030270024082506572
186,1406.4099999999999,0.003069061413358144
187,1416.1499999999999,0.003228571947447052
188,1425.97,0.0032358005187769373
189,1435.85,0.003221095118037555
190,1442.4799999999998,0.003326391204383496
191,1445.43977,0.0033468612138231953
192,1445.81,0.003349421726841284
193,1455.83,0.00325082264165146
194,1465.92,0.0030409475838106092
195,1476.08,0.003013100553318732
196,1486.3100000000002,0.0030270225501758275
197,1496.62,0.0030339755782888924
198,1503.5200000000002,0.0028841922741162595
199,1510.46,0.0026246399855716102
200,1517.4399999999998,0.0027544357126549463
201,1524.44,0.002679560447552275
202,1535.01,0.002371961577247241
203,1545.65,0.0024722447342911806
204,1556.36,0.0023556689186840928
205,1563.55,0.0024104467278143484
206,1574.3799999999999,0.0025298149590912158
207,1585.3,0.0026006062255310475
208,1596.29,0.0026367735193198534
209,1603.65,0.0025591023948690447
210,1614.77,0.0025414707394488005
211,1625.9599999999998,0.00242719411137753
212,1633.47,0.0025356300455316636
213,1644.79,0.0025473484682513436
214,1656.1899999999998,0.0023829499222269928
215,1659.58691,0.0024559488471160807
216,1663.8400000000001,0.0025473573843410357
217,1671.52,0.002307438296964372
218,1675.37,0.002612680281808102
219,1683.1,0.002673508337091747
220,1694.77,0.002518327634007676
221,1706.52,0.0024497701591800988
222,1714.39,0.0023885926139126067
223,1726.28,0.002388593538533892
224,1734.25,0.002547568278587016
225,1746.27,0.0024896485741251026
226,1754.3300000000002,0.002673709570966781
227,1766.49,0.002421929265953731
228,1774.64,0.0025127705195839645
229,1786.9399999999998,0.002583124614019777
230,1795.19,0.002819235152970627
231,1803.48,0.002761346806049723
232,1815.98,0.0025951174711267683
233,1824.36,0.0026372563809944198
234,1837.01,0.0025596064740523892
235,1845.4799999999998,0.0022554866407085952
236,1854.0,0.0024222009500251087
237,1866.86,0.002613213642256373
238,1875.47,0.002705017208361442
239,1884.1299999999999,0.0025774419171268187
240,1892.8300000000002,0.002637455740020442
241,1905.46072,0.0026787062410198173
242,1905.9499999999998,0.0026803009785875236
243,1914.74,0.0026741086505981592
244,1923.58,0.0025015271387180695
245,1936.92,0.0022194990766727764
246,1945.8600000000001,0.002838677197011238
247,1954.84,0.00275502417023712
248,1968.3899999999999,0.0031122493358507843
249,1977.47,0.0030066479412952174
250,1982.03,0.003105233170461144
251,1995.77,0.0030979456372900553
252,2004.98,0.0030274217646186047
253,2014.24,0.0030482927080564296
254,2023.53,0.0028384235411598197
255,2032.87,0.0031771691903724857
256,2046.9699999999998,0.0034199093331881807
257,2056.41,0.003243544614619397
258,2065.91,0.0031770046753817447
259,2075.44,0.0035479386258096576
260,2080.23,0.005127373009078251
261,2085.02,0.005955004392346846
262,2094.65,0.005506556974993309
263,2104.31,0.005270969447305339
264,2114.03,0.005792439698948498
265,2123.79,0.005246701803479079
266,2133.59,0.004896664760897079
267,2143.44,0.006009707534424355
268,2153.33,0.006037582160839052
269,2163.27,0.005319497603363024
270,2173.25,0.005405795898774417
271,2183.29,0.006468985973516939
272,2187.7616199999998,0.006502309517918773
273,2193.36,0.006544066943824079
274,2203.49,0.006292879647962089
275,2213.66,0.005033507469391858
276,2223.88,0.005634687437436327
277,2234.14,0.007258151522772555
278,2244.4500000000003,0.006868240754723482
279,2254.81,0.005393581133289108
280,2265.22,0.005127220658469433
281,2275.68,0.005621727330264456
282,2286.18,0.0072250891193512395
283,2296.73,0.00607907605505272
284,2307.33,0.007240145137368902
285,2312.65,0.006233775737172872
286,2323.33,0.004940028054072571
287,2334.05,0.004484165488264029
288,2344.83,0.0032041010983931265
289,2355.65,0.005721670825813982
290,2366.52,0.003488015699849538
291,2377.4500000000003,0.004471661749822732
292,2382.93,0.0027898608187937384
293,2393.93,0.003439020074027511
294,2404.97,0.0034149644465530427
295,2416.08,0.004001940024339153
296,2427.23,0.006593477719417022
297,2432.82,0.006608264110940366
298,2444.05,0.007816284040601754
299,2455.33,0.008221036116877842
300,2466.67,0.007225845369091566
301,2472.35,0.006380817024521369
302,2483.77,0.004245250511318613
303,2495.23,0.004975109115407616
304,2506.75,0.007614625895434258
305,2511.88643,0.003963573204107655
306,2512.53,0.0035061112265855365
307,2518.32,0.0027854066556594497
308,2524.1200000000003,0.003088812073384613
309,2535.77,0.00482585485209119
310,2547.4799999999996,0.005170247562705271
311,2553.35,0.008858729900989185
312,2565.1400000000003,0.006673263520813267
313,2576.98,0.0084378900838936
314,2582.92,0.007502782342736268
315,2594.84,0.006732463815026604
316,2606.82,0.005795973219224441
317,2612.83,0.00520151039862586
318,2624.89,0.007177876712033699
319,2637.0,0.01201865496869779
320,2643.08,0.01632313806865796
321,2655.2799999999997,0.021913504223183305
322,2667.54,0.014245320309616151
323,2673.69,0.016278983330135072
324,2686.0299999999997,0.01855856932577792
325,2692.2200000000003,0.013757252300901844
326,2704.65,0.016843998194405945
327,2717.1299999999997,0.012314204031166296
328,2723.4,0.010265646915500222
329,2735.96,0.012773012661470576
330,2742.27,0.007036002500409502
331,2754.93,0.009554564132892358
332,2767.6499999999996,0.012505686697282716
333,2774.03,0.013491749456780396
334,2786.83,0.008054681930380758
335,2793.25,0.003468821644483438
336,2806.15,0.004236941004596301
337,2812.6200000000003,0.011963465661955233
338,2825.6,0.017569430931278097
339,2832.11,0.016777433543242033
340,2845.19,0.012725398699077399
341,2851.74,0.007425060265646334
342,2864.91,0.017239976319342955
343,2878.1299999999997,0.022153911316295828
344,2884.0315,0.020214266435096207
345,2884.77,0.01997154460167917
346,2898.08,0.023622984292548135
347,2911.46,0.031494903981791326
348,2931.64,0.027613993513101297
349,2951.96,0.025824173041159703
350,2972.42,0.027284362565966544
351,2993.0299999999997,0.027656922087289565
352,3006.84,0.0281661517665458
353,3027.68,0.02955201128252696
354,3048.67,0.0309374607950243
355,3069.7999999999997,0.033063040304270076
356,3091.08,0.03260197981003203
357,3112.51,0.03665171931231017
358,3126.88,0.034279668978560135
359,3148.55,0.03403320847526415
360,3170.3700000000003,0.037220097968484356
361,3192.35,0.03248401745798848
362,3207.09,0.03610489711564502
363,3229.32,0.030581026599342774
364,3251.7000000000003,0.041717416079556716
365,3266.71,0.048219485730942376
366,3289.35,0.04721740520511769
367,3311.31121,0.04495922233615427
368,3312.1600000000003,0.044871944318211114
369,3319.7900000000004,0.04235781093063184
370,3327.44,0.04274392753417292
371,3335.11,0.048734414128834384
372,3342.8,0.043832160714616215
373,3350.5099999999998,0.04717967729151841
374,3358.23,0.048608133863980794
375,3365.97,0.040894600427563536
376,3373.7299999999996,0.034089416982266654
377,3381.5099999999998,0.04360947352809015
378,3389.31,0.047372380065034005
379,3397.1200000000003,0.041446566597538044
380,3404.95,0.049253933121162455
381,3412.7999999999997,0.043893639635907235
382,3420.67,0.04595730614177238
383,3428.55,0.046482772643197716
384,3436.46,0.0462655491313036
385,3444.38,0.03237657561496967
386,3452.3199999999997,0.04922185208975611
387,3460.2699999999995,0.04498991856010273
388,3468.25,0.04550707501712991
389,3476.25,0.04315371146527745
390,3484.26,0.04623608790898518
391,3492.29,0.043545274343813285
392,3500.34,0.04072823076976175
393,3508.4100000000003,0.050216337186830586
394,3516.5,0.04176278359501979
395,3524.61,0.044850249994329364
396,3532.73,0.04996957638919912
397,3540.88,0.052802402770749435
398,3549.04,0.055541709147859934
399,3557.22,0.0485920255160908
400,3565.42,0.05352078187544203
401,3573.6400000000003,0.037624508225913636
402,3581.88,0.042505044567505604
403,3590.13,0.03231513090465776
404,3598.4100000000003,0.05062094722849047
405,3606.7,0.046375563547883365
406,3615.02,0.044692219853956806
407,3623.3500000000004,0.04132326615559044
408,3631.71,0.06340541244390463
409,3640.08,0.051770688727779
410,3648.47,0.049095655002773735
411,3656.88,0.06067160126888884
412,3665.31,0.06308657752612433
413,3673.7599999999998,0.05766190377448016
414,3682.23,0.05393350001395637
415,3690.7200000000003,0.04861871624455296
416,3699.22,0.05858118247070973
417,3707.75,0.04917097868354705
418,3716.3,0.06421752488750473
419,3724.8700000000003,0.03652825108258279
420,3733.45,0.054268707273221035
421,3742.06,0.04451518345053983
422,3750.6800000000003,0.03736460962341881
423,3759.3300000000004,0.05989706578297834
424,3768.0000000000005,0.05132846193365824
425,3776.68,0.058656258079898334
426,3785.3900000000003,0.06874701421281897
427,3794.1200000000003,0.05262825033685998
428,3801.8939600000003,0.04325450553790494
429,3802.86,0.04208966654582842
430,3811.6299999999997,0.05890007346341273
431,3820.42,0.050009550373967586
432,3829.22,0.038996787281007715
433,3838.05,0.031840434177503665
434,3846.8999999999996,0.05174912106697016
435,3855.77,0.056605717949407205
436,3864.65,0.050443914828329516
437,3873.56,0.04985965169670765
438,3882.4900000000002,0.049398678558056325
439,3884.16,0.047200717971096894
440,3885.9300000000003,0.07077365734899019
441,3887.7099999999996,0.048331876723368764
442,3889.48,0.047329526101262065
443,3891.26,0.05273023547564064
444,3893.04,0.059023174850019205
445,3894.8100000000004,0.059596814227912506
446,3896.5899999999997,0.053711113602291076
447,3898.36,0.05362809298018438
448,3900.1400000000003,0.04627092235456295
449,3901.9199999999996,0.04863200172894152
450,3903.69,0.05567569110683482
451,3905.47,0.07255045048121339
452,3907.2400000000002,0.0630893298591067
453,3909.0200000000004,0.06626781923348526
454,3910.7999999999997,0.06079488860786384
455,3912.57,0.07416925798575714
456,3914.35,0.06677727736013571
457,3916.1200000000003,0.064391946738029
458,3917.9,0.06732118611240757
459,3919.68,0.04910914548678615
460,3921.4500000000003,0.05331179486467945
461,3923.2299999999996,0.051995604239058024
462,3925.0,0.04168507361695132
463,3926.78,0.04110866299132989
464,3928.56,0.03701313236570846
465,3930.3300000000004,0.029841081743601762
466,3932.1099999999997,0.030988091117980333
467,3933.88,0.03276260049587364
468,3935.6600000000003,0.024484609870252205
469,3937.44,0.04428457924463077
470,3939.21,0.038549158622524074
471,3940.99,0.043113417996902645
472,3942.76,0.051424827374795944
473,3944.5400000000004,0.06084320674917452
474,3946.3199999999997,0.062094626123553084
475,3948.09,0.06172245550144639
476,3949.87,0.056152714875824954
477,3951.6400000000003,0.05550953425371826
478,3953.42,0.06303834362809682
479,3955.2,0.0649544530024754
480,3956.9700000000003,0.0563885423803687
481,3958.7499999999995,0.04745006175474727
482,3960.52,0.04104706113264057
483,3962.3,0.04201199050701915
484,3964.08,0.04278372988139772
485,3965.8500000000004,0.025049829259291015
486,3967.6299999999997,0.024343888633669587
487,3969.4,0.027021458011562884
488,3971.1800000000003,0.03768861738594146
489,3972.96,0.04318846676032003
490,3974.73,0.059033986138213326
491,3976.5099999999998,0.06409700551259191
492,3978.28,0.06714448489048519
493,3980.0600000000004,0.07659735426486378
494,3981.8399999999997,0.06693256363924235
495,3983.61,0.07126120301713565
496,3985.39,0.08386597239151422
497,3987.1600000000003,0.08524680176940752
498,3988.94,0.08560027114378609
499,3990.72,0.07653317051816466
500,3992.4900000000002,0.08364388989605796
501,3994.27,0.08223108927043653
502,3996.04,0.08697023864832983
503,3997.82,0.0859969780227084
504,3999.6,0.08190932739708698
505,4001.3700000000003,0.09077601677498028
506,4003.1499999999996,0.09657566614935885
507,4004.92,0.09014636552725214
508,4006.7000000000003,0.08938215490163072
509,4008.48,0.09644953427600929
510,4010.25,0.09536999365390258
511,4012.0299999999997,0.08919439302828115
512,4013.8,0.09534024240617446
513,4015.5800000000004,0.09738268178055302
514,4017.3599999999997,0.0985642811549316
515,4019.13,0.11026678053282489
516,4020.91,0.10285287990720347
517,4022.6800000000003,0.10156917928509676
518,4024.46,0.10354187865947534
519,4026.24,0.09543652803385391
520,4028.01,0.0882643674117472
521,4029.79,0.08978683678612578
522,4031.56,0.07875512616401908
523,4033.34,0.08556030553839765
524,4035.12,0.09878149491277623
525,4036.8900000000003,0.09515795429066952
526,4038.6699999999996,0.0957128636650481
527,4040.44,0.10237337304294139
528,4042.2200000000003,0.09789431241731997
529,4044.0,0.08395190179169854
530,4045.77,0.08887557116959183
531,4047.5499999999997,0.0886500905439704
532,4049.32,0.0956647799218637
533,4051.1000000000004,0.09476653929624228
534,4052.8799999999997,0.09667229867062084
535,4054.65,0.09316130804851415
536,4056.43,0.08620847742289271
537,4058.2000000000003,0.08873376680078601
538,4059.9800000000005,0.09082132617516459
539,4061.7599999999998,0.09189037554954317
540,4063.53,0.09388501492743646
541,4065.31,0.08813827430181505
542,4067.08,0.09425509367970833
543,4068.86,0.09849216305408691
544,4070.64,0.09513885242846548
545,4072.4100000000003,0.08809041180635878
546,4074.1899999999996,0.08931495118073736
547,4075.96,0.09386070055863065
548,4077.7400000000002,0.09844934993300923
549,4079.52,0.0915259693073878
550,4081.2900000000004,0.09545036868528109
551,4083.0699999999997,0.09781933805965967
552,4084.84,0.10418225743755297
553,4086.6200000000003,0.10196855681193154
554,4088.3999999999996,0.10134365618631011
555,4090.17,0.10492455556420341
