,lambda (Angstroms),Total Flux (erg/s/cm^2/Angstrom)
0,100.04,0.006921210072717193
1,101.89999999999999,0.008323161989563078
2,104.03,0.009928623020112902
3,104.712855,0.010443316623455698
4,105.96,0.009658983484751863
5,107.94,0.008413756133722125
6,109.94,0.007155952135892116
7,114.07000000000001,0.004558586706515843
8,118.08000000000001,0.0020366923182401912
9,120.22644299999999,0.0006868373047163762
10,121.11,0.0006611462232826895
11,125.07000000000001,0.0005459522935756296
12,127.10000000000001,0.00048690213607655605
13,127.99,0.0004610191026158789
14,130.97,0.00037434222740147526
15,131.87,0.0003482017153816888
16,134.02,0.0002856743475733103
17,137.14000000000001,0.00019500590913138434
18,138.038426,0.00016888947744334644
19,140.01,0.00016692481103456017
20,142.94,0.000165033668067958
21,146.95,0.00016407074343141375
22,151.06,0.00016081851716802305
23,154.94,0.00015802967784637925
24,158.489319,0.00015567699307458772
25,158.91,0.00015516619339041505
26,161.87,0.00015167147939108177
27,166.01999999999998,0.0001470864682602598
28,169.89000000000001,0.00014293687627802332
29,173.05,0.00013970212088684316
30,177.08,0.0001357658993911293
31,179.95000000000002,0.00013325989936812708
32,181.970086,0.0001315266995109998
33,182.04000000000002,0.0001316126447866548
34,185.85,0.00013664108887868364
35,191.06,0.00014361024862132678
36,194.16,0.0001483131782762584
37,198.23,0.00015442611427482993
38,201.91,0.00016094833741358747
39,205.19,0.00016631506608074092
40,208.929613,0.00017155055591541718
41,209.96999999999997,0.00017568901507394505
42,215.86,0.00020488068046786584
43,219.87,0.00022390152074454187
44,222.93,0.00023758046886090815
45,227.07000000000002,0.0002582232739595213
46,230.23,0.0003142957280927622
47,233.97,0.0004237656191238765
48,239.88329199999998,0.0005124696913333807
49,239.97,0.0005132823830801031
50,246.13,0.0005030698028386331
51,251.86,0.0005289423217049279
52,257.14,0.00047995358149795355
53,260.11,0.0005281224713815304
54,263.73,0.0005518230021487184
55,269.25,0.0005572744601141542
56,274.26,0.0005629413844632184
57,275.42287,0.0005650095916150944
58,278.72,0.0005882037933328466
59,283.9,0.0006212978008403012
60,289.84,0.0006385174758585022
61,295.90999999999997,0.0006863208755824888
62,300.72,0.0007146132896965542
63,307.72,0.0007654902430850065
64,316.227766,0.0008308411216473991
65,317.80999999999995,0.0008355551148861757
66,328.21999999999997,0.0008518200829504952
67,338.19,0.0008635279520764574
68,347.67,0.0008728777201119761
69,357.41,0.0008812885193383423
70,363.078055,0.0008908640565900927
71,365.73,0.0009047307132055493
72,375.11,0.0009404426620972579
73,384.74,0.0009571376907568693
74,394.6,0.001018510068802951
75,404.73,0.0010610945569983678
76,414.15,0.0010915673666529407
77,416.86938299999997,0.0010986125805607146
78,421.85,0.0011084249653801276
79,429.7,0.001125840779588996
80,440.72,0.0011587464262873054
81,450.99,0.0011746186028382707
82,460.43,0.0011918411377595088
83,470.07,0.001211425451386705
84,478.630092,0.0012307347156590525
85,479.90999999999997,0.0012308682057779942
86,489.96,0.0012142332712743729
87,500.21999999999997,0.0012191995232139594
88,506.01,0.0012077247922909777
89,511.87000000000006,0.0012340829235157316
90,520.19,0.0012285151245037785
91,529.86,0.0012121393954838762
92,539.71,0.0011842947691295808
93,549.5408739999999,0.001172286974301151
94,549.75,0.001172203709789047
95,559.97,0.0011885165295079387
96,570.38,0.0012028173701413695
97,579.65,0.0011875048852875657
98,590.42,0.0011925543129169655
99,600.02,0.0011680387328094665
100,609.76,0.001069092536533733
101,619.67,0.0011855595063394297
102,629.74,0.0011699521148100008
103,630.957344,0.0011711272203212477
104,639.97,0.0011882336170350324
105,650.37,0.0011868306150958532
106,657.9,0.0011793285838841202
107,665.52,0.001201888145924837
108,674.78,0.0012115586961212986
109,685.74,0.001187353663308471
110,695.2800000000001,0.0012248650480681084
111,704.96,0.0011908228001093338
112,716.41,0.0012456697527820641
113,724.43596,0.0012518866448230715
114,726.38,0.0012529437926320568
115,734.7900000000001,0.001260199082235681
116,745.01,0.0012609418277468624
117,755.3700000000001,0.0012665052273061427
118,764.1199999999999,0.001193236805312291
119,774.75,0.001282032766250047
120,785.53,0.0012637931279536221
121,794.6300000000001,0.0012929016410800167
122,805.6800000000001,0.0013109232641620673
123,815.01,0.001321121851796052
124,824.45,0.0013414999533249714
125,831.763771,0.0012853749451986831
126,835.92,0.0012494536912029859
127,845.5899999999999,0.0013396328902513732
128,855.39,0.0013330947434751785
129,865.29,0.0013494541768339207
130,875.31,0.0013636689063545868
131,885.4499999999999,0.0013727419320371773
132,895.6999999999999,0.0013820468958681978
133,903.9899999999999,0.0013738566890544577
134,914.46,0.0015589235291823393
135,925.0400000000001,0.0034726743074586517
136,935.7600000000001,0.005953636097923876
137,944.41,0.009536873779595906
138,954.992586,0.012549363269542823
139,955.3499999999999,0.01265130631806501
140,964.19,0.014012678273402048
141,975.35,0.0040070466695062736
142,984.38,0.011841938678182003
143,995.78,0.012503631878503521
144,1004.99,0.017714044990342223
145,1014.2900000000001,0.01755212865376241
146,1026.04,0.008978214110234153
147,1035.53,0.013352118826993033
148,1045.1100000000001,0.0234012830953334
149,1054.78,0.023081807915255246
150,1064.54,0.018577213286758584
151,1074.39,0.021947639209843404
152,1084.33,0.01766507568450971
153,1094.3700000000001,0.023290021660933226
154,1096.4782,0.0231368412608917
155,1104.49,0.022552917851830938
156,1114.71,0.02183946980517356
157,1125.03,0.019655508900916795
158,1135.44,0.02493076842482058
159,1145.94,0.023008608376884915
160,1153.88,0.024417009483493565
161,1164.56,0.025036050291879004
162,1175.34,0.017357938242665058
163,1186.21,0.02451854662161166
164,1194.4299999999998,0.017875605726942023
165,1205.49,0.013678921676449794
166,1213.8400000000001,0.010122348066900955
167,1225.07,0.018195208158489764
168,1236.41,0.026126362106719248
169,1244.98,0.02843697621045176
170,1253.61,0.027346890599624637
171,1258.92541,0.02591069821450102
172,1265.21,0.024214850963141295
173,1273.98,0.030669275930282347
174,1285.77,0.03218431147903867
175,1294.68,0.025880929718175134
176,1303.65,0.025763129359595342
177,1315.72,0.03203755145234249
178,1324.84,0.030882474599472066
179,1334.02,0.027725719148885393
180,1346.3600000000001,0.032781947551909406
181,1355.7,0.03189112584074605
182,1365.09,0.02882923529815249
183,1374.56,0.030182816625270593
184,1384.08,0.030461819120958484
185,1393.6799999999998,0.025824203486358038
186,1406.57,0.02654519474364973
187,1416.3200000000002,0.028698392614758653
188,1426.1399999999999,0.02936491212186528
189,1436.03,0.029567503264969614
190,1442.65,0.031098687983609725
191,1445.43977,0.03164213838553964
192,1445.98,0.03174737378124129
193,1456.0,0.030957110327274724
194,1466.1,0.02869904844253797
195,1476.26,0.02889773773472357
196,1486.49,0.029636568399985255
197,1493.35,0.03025569296144128
198,1503.7,0.028832335980547675
199,1510.65,0.025826492307387237
200,1517.6200000000001,0.027539629026534247
201,1524.62,0.027288486334142437
202,1535.1899999999998,0.0238906536686308
203,1545.83,0.026065832376195253
204,1556.55,0.024783052652989506
205,1563.73,0.025591523491364766
206,1574.5700000000002,0.028179996122003736
207,1585.49,0.02977488032187251
208,1596.48,0.030959625894817367
209,1603.85,0.03018793046011342
210,1614.96,0.02998089838690299
211,1626.16,0.028180698079076093
212,1633.66,0.03039740519437058
213,1644.99,0.03167873743654212
214,1656.39,0.028506101051789745
215,1659.58691,0.03001566526199145
216,1664.04,0.03211894165390642
217,1671.7199999999998,0.02735497179388909
218,1675.5700000000002,0.03504755329635435
219,1683.3000000000002,0.0366108205987067
220,1694.97,0.033554852295789736
221,1706.7199999999998,0.03272006545266426
222,1714.6,0.03249684424212564
223,1726.48,0.03257303602116132
224,1734.4499999999998,0.035623657702888126
225,1746.48,0.034816590969032855
226,1754.54,0.03816523554302508
227,1766.7,0.03364227743133097
228,1774.8500000000001,0.03604059489758862
229,1783.05,0.036457699526215935
230,1795.41,0.041080280064000545
231,1803.69,0.03960065615241935
232,1816.19,0.03773931674483905
233,1824.5800000000002,0.03782633859047116
234,1833.0,0.036048664733525075
235,1845.71,0.03258992540789743
236,1854.23,0.03467329587569069
237,1867.0800000000002,0.03705922660469816
238,1875.6999999999998,0.038534601397230785
239,1884.35,0.036723870487185215
240,1893.05,0.037319896739509334
241,1905.46072,0.03781054528999686
242,1906.17,0.03783835357603422
243,1914.97,0.037923608678174195
244,1923.81,0.036555606394414804
245,1937.15,0.03373353319697699
246,1946.0900000000001,0.040526282448469196
247,1955.07,0.039154024314062036
248,1968.6200000000001,0.04371141234065257
249,1977.71,0.04350946389502216
250,1982.2699999999998,0.04291286190249469
251,1996.01,0.04222646484606324
252,2005.22,0.04174261424273474
253,2014.4799999999998,0.04098179440703203
254,2023.78,0.04041916718542996
255,2033.12,0.042219722577928526
256,2047.2099999999998,0.045124360894877646
257,2056.66,0.04240938597615296
258,2066.15,0.041924023671528914
259,2075.69,0.047239762134530655
260,2085.27,0.058491543211633044
261,2094.9,0.05484443505636122
262,2104.57,0.052620689515190035
263,2114.28,0.05522030658811949
264,2124.04,0.05396374442867473
265,2133.8399999999997,0.04854993488333061
266,2143.69,0.05572546610561229
267,2153.59,0.05715042809551976
268,2163.5299999999997,0.052488912699527865
269,2173.5099999999998,0.05285084991763661
270,2183.5499999999997,0.05767294605689632
271,2187.7616199999998,0.05857490908352599
272,2193.63,0.05983363232336503
273,2203.75,0.05767423217010935
274,2213.92,0.04967202937775656
275,2224.14,0.05141590394630666
276,2234.41,0.06165438587575964
277,2244.7200000000003,0.058213393693934926
278,2255.08,0.050021598873013114
279,2265.49,0.04979425141299418
280,2275.95,0.05384156131387813
281,2286.45,0.06194723710348439
282,2297.0099999999998,0.05485266172617412
283,2307.61,0.060705672237586154
284,2312.93,0.054623865437653324
285,2323.61,0.04119048772650998
286,2334.33,0.04333750590408894
287,2345.11,0.035993492914751374
288,2355.93,0.05127789581413611
289,2366.8,0.03753420607442374
290,2377.73,0.04358766516779483
291,2383.21,0.03294732192275124
292,2394.21,0.03790848132138637
293,2405.2599999999998,0.03705967808092439
294,2416.3599999999997,0.04082269220136529
295,2427.52,0.05554791515488967
296,2433.11,0.054921318103832426
297,2444.35,0.06205081283480142
298,2455.63,0.0639511534544927
299,2466.96,0.0591632814350869
300,2472.65,0.05447483910583544
301,2484.06,0.04608210886387424
302,2495.5299999999997,0.04695017745499651
303,2507.05,0.06433065340702167
304,2511.88643,0.04381911188889397
305,2512.83,0.03981719165481536
306,2518.62,0.03666517175645493
307,2524.43,0.037092780718549205
308,2536.08,0.045196676933419846
309,2547.78,0.04700779029942726
310,2553.66,0.06665663527311304
311,2565.44,0.055353674080939316
312,2577.29,0.06547720890035709
313,2583.2300000000005,0.060844250455407006
314,2595.15,0.05654736128641627
315,2607.1299999999997,0.05124321869878968
316,2613.14,0.0478381562654311
317,2625.2,0.06006804911962336
318,2637.32,0.08403999855517977
319,2643.4,0.10923933213341268
320,2655.6000000000004,0.13658163701078793
321,2667.86,0.09456082846952733
322,2674.01,0.10707878805935174
323,2686.35,0.11715848495991
324,2692.54,0.09461604227064384
325,2704.97,0.1109156240432483
326,2717.46,0.0875500023972169
327,2723.7200000000003,0.07895325571954223
328,2736.29,0.0925536295153297
329,2742.6,0.05738897998879181
330,2755.2599999999998,0.07043198865662548
331,2767.98,0.08545921390582328
332,2774.36,0.0928466003908769
333,2787.1600000000003,0.06399737108189357
334,2793.59,0.03466856471808397
335,2806.48,0.040349580281146845
336,2812.9500000000003,0.08594223163824667
337,2825.94,0.11807113150358312
338,2832.4500000000003,0.11513986058159237
339,2845.53,0.09760113531897502
340,2852.0899999999997,0.06945854154812106
341,2865.2499999999995,0.12317229172732257
342,2871.86,0.1457205151076054
343,2884.0315,0.1351178480163799
344,2885.11,0.134178420351245
345,2891.7599999999998,0.1502119125969955
346,2911.8100000000004,0.1944593892176418
347,2931.99,0.17340786568670125
348,2952.3100000000004,0.16569034199251334
349,2972.7799999999997,0.17761081812341756
350,2993.38,0.18017099410273496
351,3007.2,0.18655227798788865
352,3028.0499999999997,0.19275215367569287
353,3049.04,0.20008232920024976
354,3070.1699999999996,0.2125181045615593
355,3091.45,0.21409967974796096
356,3112.88,0.2337810547594547
357,3127.2499999999995,0.22333553800327952
358,3148.93,0.22396091272326013
359,3170.75,0.24009378727999342
360,3192.7299999999996,0.21214546165015827
361,3207.4700000000003,0.2353693444625436
362,3229.7,0.20184121854119533
363,3252.09,0.26495479243327863
364,3267.1,0.3022013749308298
365,3289.75,0.29684594851973944
366,3311.31121,0.2893417711978408
367,3312.55,0.28891059576506994
368,3320.19,0.28762902546616187
369,3327.84,0.30613065494434943
370,3335.5099999999998,0.3288289839767284
371,3343.2000000000003,0.29584761256329867
372,3350.9100000000003,0.29385774070406023
373,3358.63,0.3252350686219175
374,3366.38,0.2813867958710618
375,3374.14,0.23464282289730176
376,3381.9100000000003,0.2645243497006374
377,3389.71,0.31952637583526
378,3397.52,0.3017157017469783
379,3405.35,0.324833627212888
380,3413.21,0.3067259520100846
381,3421.07,0.3302322768072813
382,3428.9599999999996,0.31470420093576496
383,3436.8700000000003,0.3104437246184399
384,3444.79,0.2302060480782106
385,3452.73,0.3327612710921726
386,3460.69,0.302148693660326
387,3468.6699999999996,0.30429881578267065
388,3476.66,0.29334833768211105
389,3484.68,0.3100696589128384
390,3492.71,0.29346077992066144
391,3500.7599999999998,0.2770962004826758
392,3508.83,0.33242302059888157
393,3516.92,0.2862830402692786
394,3525.03,0.305394259493867
395,3533.15,0.34035067849555106
396,3541.3,0.3630745968285222
397,3549.46,0.36649881493858893
398,3557.6400000000003,0.33202893260284705
399,3565.84,0.36160624982129647
400,3574.0699999999997,0.2669092663710329
401,3582.2999999999997,0.27254718292076935
402,3590.56,0.2363477988017928
403,3598.8399999999997,0.3440117142370076
404,3607.14,0.3152545292264137
405,3615.4500000000003,0.31823554399291554
406,3619.9199999999996,0.32928534435468004
407,3622.66,0.31410918327889364
408,3625.3999999999996,0.33751572220310727
409,3628.1400000000003,0.36717106112732084
410,3630.88,0.3359053000515344
411,3633.6099999999997,0.2927972391986523
412,3636.35,0.27558267812286596
413,3639.0899999999997,0.3652737170470795
414,3641.83,0.3628131559712931
415,3644.5699999999997,0.3609569948955067
416,3647.3100000000004,0.3443469338197203
417,3650.04,0.3673547729668382
418,3652.7799999999997,0.3679519118910518
419,3655.52,0.39765645081526535
420,3658.2599999999998,0.434636189739479
421,3661.0,0.43848762866369256
422,3663.74,0.4214346675879062
423,3666.47,0.42767830673502405
424,3669.21,0.4260120456592377
425,3671.95,0.4029490845834513
426,3674.69,0.35351302350766484
427,3677.43,0.3534986624318785
428,3680.1699999999996,0.38176920135609205
429,3682.9,0.35626924050320996
430,3685.64,0.36188517942742354
431,3688.38,0.3815803183516372
432,3691.12,0.3695039572758507
433,3693.86,0.4004666962000643
434,3696.6,0.4107709351242779
435,3699.33,0.3851304742713959
436,3702.07,0.36105541319560946
437,3704.81,0.366818852119823
438,3707.55,0.3673105910440366
439,3710.29,0.4004453299682502
440,3713.0299999999997,0.4207730688924638
441,3715.77,0.40419100781667744
442,3718.5,0.3826696469637953
443,3721.2400000000002,0.38540358588800894
444,3723.98,0.4111788248122225
445,3726.7200000000003,0.4073405637364361
446,3729.46,0.4152690026606497
447,3732.2,0.3335343415848633
448,3734.9300000000003,0.3290512807319812
449,3737.67,0.3272374196561948
450,3740.4100000000003,0.3511008585804084
451,3743.15,0.336732997504622
452,3745.89,0.31642563642883553
453,3748.63,0.3053263753530492
454,3751.36,0.3454076145001671
455,3754.1000000000004,0.3957638534243807
456,3756.84,0.37547039234859425
457,3759.58,0.37326293127280785
458,3762.32,0.40177247019702145
459,3765.06,0.37271390912123503
460,3767.79,0.38484064826835296
461,3770.53,0.39368288719256656
462,3773.2700000000004,0.42573522611678016
463,3776.01,0.46405046504099373
464,3778.75,0.45235360396520735
465,3781.4900000000002,0.4642393428894209
466,3784.22,0.45219348203653886
467,3786.9599999999996,0.4165062209607524
468,3789.7,0.413483259884966
469,3792.44,0.39900989880917964
470,3795.1800000000003,0.3574254377333932
471,3797.92,0.36454547665760684
472,3800.6600000000003,0.3782799155818204
473,3801.8939600000003,0.3882442280763195
474,3803.39,0.4003248616772619
475,3806.1299999999997,0.4424640133273429
476,3808.87,0.44351086497742387
477,3811.61,0.4112469166275049
478,3814.3500000000004,0.40344426827758584
479,3817.09,0.3920005199276668
480,3819.8199999999997,0.3552398717542074
481,3822.56,0.3404784234042884
482,3825.2999999999997,0.29083857505436944
483,3828.04,0.25096922670445043
484,3830.7799999999997,0.25822997835453143
485,3833.5200000000004,0.2660391300046124
486,3836.25,0.3131492818311529
487,3838.99,0.29413523348123394
488,3841.73,0.3784490851313149
489,3844.47,0.3804871367813959
490,3847.2099999999996,0.4298520884314769
491,3849.95,0.4109083400815579
492,3852.68,0.38367929190809846
493,3855.42,0.37588364355817944
494,3858.16,0.3818930952082604
495,3860.9,0.3756298468583414
496,3863.64,0.3859551985084224
497,3866.3799999999997,0.42823485015850343
498,3869.11,0.4091806019850439
499,3871.85,0.36529045363512497
500,3874.59,0.40686020528520594
501,3877.33,0.39183865693528697
502,3880.0699999999997,0.3814845085853679
503,3882.81,0.3750383602354489
504,3885.5499999999997,0.3490304118855299
505,3888.28,0.3797983637120705
506,3891.02,0.4600352153621515
507,3893.76,0.4429048670122324
508,3896.5,0.43882761866231346
509,3899.24,0.47002927031239444
510,3901.98,0.4799750219624754
511,3904.71,0.47544327378901596
512,3907.4500000000003,0.501478625439097
513,3910.19,0.518994777089178
514,3912.93,0.515444528739259
515,3915.67,0.47882258038933995
516,3918.41,0.442896432039421
517,3921.1400000000003,0.43662838386596153
518,3923.88,0.37620573551604247
519,3926.62,0.2936203871661235
520,3929.36,0.25869243881620446
521,3932.1,0.25201459046628544
522,3934.84,0.26223464211636643
523,3937.57,0.296917293942907
524,3940.3100000000004,0.36378494559298796
525,3943.05,0.41913889724306896
526,3945.79,0.45086774889314996
527,3948.53,0.45249110054323094
528,3951.27,0.5024815521933119
529,3954.01,0.464931803843393
530,3956.7400000000002,0.45190875566993355
531,3959.48,0.3692250073200145
532,3962.2200000000003,0.3286455589700955
533,3964.96,0.2718291106201765
534,3967.7000000000003,0.2678714622702575
535,3970.44,0.31059391392033847
536,3973.1699999999996,0.383859665746879
537,3975.9100000000003,0.46602251739696
538,3978.65,0.536650569047041
539,3981.3900000000003,0.5458933206971219
540,3984.13,0.565335272347203
541,3986.8700000000003,0.5924811239972839
542,3989.6,0.6140277758238245
543,3992.3399999999997,0.6159461274739055
544,3995.08,0.6080026791239865
545,3997.82,0.6301157307740676
546,4000.5600000000004,0.6226010824241485
547,4003.3,0.6203161340742295
548,4006.0299999999997,0.6440137859007701
549,4008.77,0.646157137550851
550,4011.5099999999998,0.682813289200932
551,4014.2499999999995,0.678419540851013
552,4016.99,0.698908692501094
553,4019.7300000000005,0.6813635441511751
554,4022.46,0.6909399959777155
555,4025.2,0.6953818476277965
556,4027.94,0.6623725992778776
557,4030.68,0.6378544509279586
558,4033.4199999999996,0.6279851025780395
559,4036.16,0.6668202542281205
560,4038.9,0.6662995058782015
561,4041.63,0.6432818577047421
562,4044.37,0.6548441093548231
563,4047.1099999999997,0.637819061004904
564,4049.85,0.644840612654985
565,4052.5899999999997,0.649162964305066
566,4055.33,0.623836515955147
567,4058.06,0.6195794677816875
568,4060.8,0.6093023194317686
569,4063.54,0.6012605710818495
