,lambda (Angstroms),Total Flux (erg/s/cm^2/Angstrom)
0,102.03,7.985947e-07
1,103.92,9.383478e-07
2,104.712855,1.0082689550600922e-06
3,106.1,1.1306e-06
4,108.07000000000001,1.387861e-06
5,110.08,1.992357e-06
6,113.95,2.718794e-06
7,117.95,3.502266e-06
8,120.22644299999999,9.444724361855435e-06
9,120.97999999999999,1.141182e-05
10,124.94,1.410411e-05
11,126.97,1.532388e-05
12,127.85,1.619399e-05
13,131.13,1.804493e-05
14,132.04,2.090842e-05
15,133.88,2.235441e-05
16,137.0,2.77534e-05
17,138.038426,2.877322116901741e-05
18,139.87,3.057198e-05
19,143.13,7.08472e-05
20,147.13,0.0001511364
21,150.91,0.0001657154
22,155.14,0.0001829557
23,158.489319,0.00019897882526525123
24,159.12,0.000201996
25,162.07,0.0002164441
26,165.85,0.0002395257
27,170.1,0.0002602385
28,172.87,0.000277551
29,176.9,0.0002994414
30,180.18,0.0003165081
31,181.85,0.0003291159
32,181.970086,0.0003298052644454246
33,186.09,0.000353456
34,190.85999999999999,0.0003849171
35,193.96,0.0004067803
36,198.02,0.0004328653
37,202.17,0.000461688
38,204.98,0.0004823481
39,208.929613,0.0004941960379476045
40,210.24,0.0004981269
41,216.13,0.0005627771
42,220.15,0.0005947604
43,223.21,0.0006114133
44,226.84,0.0006476361
45,229.98999999999998,0.0009870542
46,234.27,0.001672359
47,239.73000000000002,0.002119995
48,239.88329199999998,0.0021180815419570734
49,245.88,0.002043228
50,252.18,0.002184419
51,256.87,0.001833749
52,259.85,0.002154486
53,264.07,0.002276861
54,268.97999999999996,0.002292493
55,273.97999999999996,0.002297946
56,275.42287,0.0022994897858585463
57,279.07,0.002303392
58,284.26,0.002319205
59,290.21000000000004,0.002224987
60,296.28999999999996,0.002266398
61,301.1,0.00222012
62,308.12,0.002261151
63,316.227766,0.002303485752399405
64,318.21000000000004,0.002313836
65,327.88,0.002308492
66,337.84000000000003,0.002282062
67,348.11,0.00225083
68,357.04,0.002240529
69,363.078055,0.002243880911536572
70,366.2,0.002245614
71,374.73,0.002214828
72,385.23,0.002110214
73,395.10999999999996,0.002154477
74,405.23999999999995,0.002144515
75,413.73,0.002105381
76,416.86938299999997,0.00208629855407194
77,422.39,0.002052742
78,430.24,0.002015448
79,441.28000000000003,0.001992241
80,450.52000000000004,0.001942452
81,459.96000000000004,0.00189382
82,469.59000000000003,0.001854999
83,478.630092,0.0018339892637709058
84,480.52,0.001829597
85,489.46000000000004,0.001763377
86,499.71000000000004,0.00175527
87,505.48999999999995,0.001715327
88,512.53,0.001796097
89,519.66,0.001759252
90,530.54,0.001703498
91,540.4,0.001619362
92,549.5408739999999,0.001589148910195821
93,550.4499999999999,0.001586144
94,559.39,0.001611951
95,569.79,0.001611946
96,580.38,0.001560787
97,589.81,0.001550069
98,599.4,0.001480254
99,610.54,0.001331509
100,620.4599999999999,0.001483701
101,630.54,0.001443279
102,630.957344,0.0014431192399562641
103,639.32,0.001439918
104,649.7,0.001413675
105,658.74,0.001378299
106,664.84,0.001394266
107,675.64,0.001378299
108,685.04,0.001310221
109,694.57,0.001359406
110,704.23,0.001277473
111,715.6700000000001,0.001337652
112,724.43596,0.0013241818174899599
113,725.63,0.001322347
114,735.73,0.001310185
115,744.24,0.001304222
116,754.6,0.0012952
117,765.0999999999999,0.001211536
118,775.74,0.001289286
119,784.72,0.001268683
120,795.64,0.001277436
121,804.85,0.001277477
122,814.1700000000001,0.001271572
123,825.5,0.001289262
124,831.763771,0.0011956644879820076
125,835.06,0.00114641
126,844.73,0.001265727
127,854.51,0.00125414
128,864.4,0.001274507
129,874.4100000000001,0.001292248
130,884.5400000000001,0.001313245
131,894.78,0.00132539
132,905.14,0.001307207
133,915.62,0.001672407
134,924.09,0.007150674
135,934.7900000000001,0.01466721
136,945.6199999999999,0.02693574
137,954.3699999999999,0.03718274
138,954.992586,0.03747658481606519
139,965.4200000000001,0.04239806
140,974.3499999999999,0.008116056
141,985.63,0.03718332
142,994.7499999999999,0.03831386
143,1003.96,0.05362214
144,1015.5799999999999,0.05073949
145,1024.98,0.02179403
146,1034.46,0.03617025
147,1044.04,0.06658053
148,1056.1299999999999,0.06521388
149,1065.9,0.0522808
150,1075.76,0.06128412
151,1085.71,0.0490174
152,1095.76,0.06343756
153,1096.4782,0.06325518961301775
154,1105.8999999999999,0.06086274
155,1116.13,0.05852542
156,1123.8700000000001,0.05264368
157,1134.27,0.06536436
158,1144.76,0.05920312
159,1155.35,0.06242446
160,1166.05,0.06417228
161,1174.13,0.04522204
162,1184.99,0.0614255
163,1195.96,0.04298791
164,1204.25,0.03142984
165,1215.3899999999999,0.01983019
166,1223.81,0.04076994
167,1235.14,0.06086241
168,1243.7,0.0667337
169,1255.21,0.06387791
170,1258.92541,0.06013955841089655
171,1263.91,0.05512419
172,1275.6000000000001,0.06987808
173,1284.44,0.07283648
174,1296.33,0.05852504
175,1305.3200000000002,0.05745737
176,1314.36,0.07052616
177,1326.53,0.06735005
178,1335.72,0.0600273
179,1344.98,0.07020126
180,1354.3,0.06781829
181,1363.6899999999998,0.06086233
182,1376.31,0.06343644
183,1385.8500000000001,0.06402475
184,1395.45,0.05576299
185,1405.1299999999999,0.05772214
186,1414.8700000000001,0.05893109
187,1424.67,0.06002699
188,1434.55,0.05947722
189,1441.1699999999998,0.06242371
190,1445.43977,0.062980956719594
191,1447.82,0.0632916
192,1454.51,0.0614248
193,1464.5900000000001,0.05679905
194,1474.74,0.05640822
195,1484.9599999999998,0.05719367
196,1495.26,0.05785648
197,1505.6200000000001,0.05474521
198,1512.57,0.04901701
199,1516.06,0.05216077
200,1526.57,0.05062232
201,1533.61,0.04429449
202,1544.24,0.04812271
203,1554.95,0.04543036
204,1565.7299999999998,0.04616781
205,1576.58,0.048904
206,1583.86,0.05097294
207,1594.8300000000002,0.05192173
208,1605.89,0.05062265
209,1613.3,0.05050566
210,1624.48,0.04779141
211,1635.74,0.05050588
212,1643.3,0.05109134
213,1654.69,0.04724295
214,1659.58691,0.04898661285219704
215,1666.1599999999999,0.05132712
216,1673.8500000000001,0.04595518
217,1677.7,0.05144435
218,1685.45,0.05325266
219,1693.23,0.05004356
220,1704.97,0.04801123
221,1716.78,0.04574513
222,1724.71,0.0453254
223,1736.6599999999999,0.04812269
224,1744.68,0.04681016
225,1756.77,0.04958445
226,1764.88,0.04543081
227,1773.03,0.04659539
228,1785.32,0.04724311
229,1793.56,0.05004373
230,1805.99,0.04947109
231,1814.3300000000002,0.04595541
232,1826.8999999999999,0.04659542
233,1835.34,0.04480584
234,1843.81,0.04114695
235,1856.59,0.0414325
236,1865.1599999999999,0.04259322
237,1873.77,0.04553413
238,1886.75,0.04210688
239,1895.46,0.04058402
240,1904.21,0.04269112
241,1905.46072,0.04247143295290102
242,1913.0,0.04114717
243,1926.26,0.04021038
244,1935.1499999999999,0.04086382
245,1944.09,0.04308733
246,1953.0600000000002,0.04039582
247,1966.6,0.04388827
248,1975.6699999999998,0.04470497
249,1984.79,0.04259347
250,1993.9599999999998,0.04143221
251,2003.1599999999999,0.04220246
252,2017.04,0.04095949
253,2026.3600000000001,0.04230022
254,2035.71,0.04058379
255,2045.1,0.04210692
256,2054.54,0.04002645
257,2064.03,0.04021005
258,2073.56,0.04288837
259,2078.33,0.04259359
260,2083.13,0.0444977
261,2092.74,0.04210687
262,2107.25,0.04210675
263,2116.97,0.04279073
264,2126.75,0.04279037
265,2136.56,0.03993438
266,2146.42,0.04162414
267,2156.33,0.04279086
268,2166.2799999999997,0.0409594
269,2176.2799999999997,0.04067588
270,2186.33,0.04105329
271,2187.7616199999998,0.04127183551892961
272,2196.42,0.04259359
273,2206.56,0.04133646
274,2216.7400000000002,0.0385781
275,2226.98,0.03804899
276,2237.26,0.041528
277,2247.58,0.03975051
278,2252.76,0.0370973
279,2263.16,0.03743988
280,2273.61,0.03857781
281,2284.1,0.04076977
282,2294.64,0.0378769
283,2305.2400000000002,0.03904164
284,2315.88,0.03678864
285,2326.57,0.02984582
286,2337.31,0.03326926
287,2342.69,0.03112562
288,2353.51,0.03542456
289,2364.37,0.03115041
290,2375.2799999999997,0.03278286
291,2386.25,0.02929608
292,2397.2599999999998,0.03147617
293,2402.79,0.03041491
294,2413.88,0.03142255
295,2425.02,0.03519079
296,2436.21,0.03416604
297,2447.46,0.0366258
298,2453.1,0.03663357
299,2464.42,0.03532116
300,2475.7999999999997,0.03359111
301,2487.23,0.03209314
302,2492.96,0.03108168
303,2504.47,0.03636529
304,2510.2400000000002,0.02970037
305,2511.88643,0.029682890543678758
306,2516.03,0.0296389
307,2527.64,0.02890911
308,2533.47,0.03077107
309,2545.1600000000003,0.03071182
310,2556.91,0.0359341
311,2562.81,0.0331582
312,2574.63,0.03620635
313,2586.52,0.03499159
314,2592.4799999999996,0.03381154
315,2604.45,0.03208146
316,2616.4700000000003,0.03107579
317,2622.5,0.03400314
318,2634.6000000000004,0.03969313
319,2646.77,0.04601501
320,2652.87,0.05248042
321,2665.11,0.04199397
322,2677.41,0.04501878
323,2683.59,0.04747678
324,2695.97,0.04117972
325,2702.19,0.04505698
326,2714.66,0.03908179
327,2727.19,0.03665649
328,2733.48,0.04038818
329,2746.1000000000004,0.03151057
330,2752.4300000000003,0.0345586
331,2765.13,0.03843811
332,2777.89,0.04035969
333,2784.3,0.03350099
334,2797.15,0.02461762
335,2803.6,0.02669049
336,2816.54,0.03833075
337,2823.03,0.045149
338,2836.0600000000004,0.04333673
339,2842.6,0.03827911
340,2855.72,0.03214865
341,2862.2999999999997,0.04418358
342,2875.51,0.04971254
343,2882.1400000000003,0.04737722
344,2884.0315,0.047979397712622024
345,2895.45,0.05161459
346,2908.81,0.06222837
347,2928.9700000000003,0.05692359
348,2949.28,0.05427561
349,2969.7200000000003,0.05609595
350,2990.31,0.05652466
351,3011.03,0.05709015
352,3031.9,0.0588683
353,3052.92,0.06042344
354,3067.01,0.06315758
355,3088.27,0.06262678
356,3109.6800000000003,0.06777625
357,3131.23,0.06447946
358,3152.94,0.06452718
359,3167.4900000000002,0.06838542
360,3189.45,0.06156162
361,3211.56,0.06632019
362,3226.3799999999997,0.05900217
363,3248.74,0.07365805
364,3271.2599999999998,0.08233046
365,3286.3599999999997,0.08105673
366,3309.14,0.07782829
367,3311.31121,0.07743407755295158
368,3324.42,0.075054
369,3332.08,0.07664634
370,3339.7599999999998,0.06960042
371,3347.46,0.08274255
372,3355.18,0.07940322
373,3362.91,0.05969744
374,3370.66,0.06999693
375,3378.43,0.07712541
376,3386.22,0.07608692
377,3394.03,0.07681285
378,3401.8500000000004,0.08862393
379,3409.69,0.07685517
380,3417.56,0.07092379
381,3425.43,0.08126545
382,3433.33,0.09037096
383,3441.25,0.07711747
384,3449.18,0.07282217
385,3457.13,0.07968859
386,3465.1,0.0723625
387,3473.0899999999997,0.08465008
388,3481.09,0.07529374
389,3489.12,0.08201219
390,3497.1600000000003,0.07498924
391,3505.22,0.08772513
392,3513.2999999999997,0.07911209
393,3521.4,0.08940537
394,3529.52,0.06846771
395,3537.6600000000003,0.08582439
396,3545.81,0.08784964
397,3553.98,0.09054351
398,3562.18,0.08374997
399,3570.39,0.07064973
400,3578.6200000000003,0.07607351
401,3586.87,0.06242537
402,3595.14,0.08044153
403,3603.4300000000003,0.09388814
404,3611.73,0.0725658
405,3620.06,0.08607182
406,3628.4,0.09749585
407,3629.2200000000003,0.08890538
408,3631.96,0.09182321
409,3634.7000000000003,0.07635913
410,3637.45,0.0816808
411,3640.1899999999996,0.09154712
412,3642.93,0.08650872
413,3645.6699999999996,0.08383247
414,3648.4100000000003,0.08273481
415,3651.16,0.08820013
416,3653.9,0.08550665
417,3656.64,0.08740527
418,3659.3799999999997,0.09611065
419,3662.12,0.08221177
420,3664.8599999999997,0.09040373
421,3667.61,0.09575408
422,3670.35,0.09714886
423,3673.09,0.08652024
424,3675.83,0.08934802
425,3678.5699999999997,0.0903788
426,3681.32,0.08968297
427,3684.06,0.08386295
428,3686.8,0.0800698
429,3689.54,0.09012771
430,3692.28,0.09054927
431,3695.03,0.09208724
432,3697.7700000000004,0.09909331
433,3700.51,0.08617917
434,3703.25,0.07529383
435,3705.9900000000002,0.08445515
436,3708.73,0.08094553
437,3711.4799999999996,0.08767528
438,3714.22,0.09247438
439,3716.96,0.09928123
440,3719.7000000000003,0.1012795
441,3722.44,0.1275104
442,3725.19,0.1600359
443,3727.93,0.1804332
444,3730.6699999999996,0.1485645
445,3733.41,0.1106955
446,3736.1499999999996,0.08109874
447,3738.9,0.08112904
448,3741.64,0.07665963
449,3744.38,0.07830152
450,3747.12,0.07510415
451,3749.8599999999997,0.0686519
452,3752.6,0.08831936
453,3755.35,0.08798564
454,3758.09,0.09302421
455,3760.83,0.0942389
456,3763.57,0.08671191
457,3766.31,0.08719669
458,3769.0600000000004,0.09322908
459,3771.8,0.09955697
460,3774.54,0.1051224
461,3777.28,0.1113162
462,3780.02,0.1172073
463,3782.7699999999995,0.1138044
464,3785.51,0.1069959
465,3788.2500000000005,0.1023196
466,3790.9900000000002,0.09275996
467,3793.73,0.08842848
468,3796.4700000000003,0.09091334
469,3799.22,0.09309309
470,3801.8939600000003,0.1032245780553313
471,3801.9599999999996,0.1034748
472,3804.7,0.103812
473,3807.44,0.1082587
474,3810.1800000000003,0.1017911
475,3812.93,0.1024037
476,3815.67,0.101195
477,3818.41,0.09312773
478,3821.1499999999996,0.09457615
479,3823.89,0.08550887
480,3826.64,0.07728794
481,3829.38,0.07654086
482,3832.12,0.0682303
483,3834.86,0.06662494
484,3837.6,0.07473832
485,3840.3399999999997,0.07689748
486,3843.09,0.08756992
487,3845.83,0.09538636
488,3848.57,0.1017545
489,3851.31,0.1018945
490,3854.05,0.09925652
491,3856.8,0.09773689
492,3859.5400000000004,0.09978112
493,3862.28,0.0992314
494,3865.02,0.1089866
495,3867.76,0.1078583
496,3870.5099999999998,0.1025723
497,3873.2499999999995,0.100375
498,3875.9900000000002,0.1004249
499,3878.73,0.09869887
500,3881.4700000000003,0.09705906
501,3884.21,0.09512805
502,3886.96,0.09644953
503,3889.7,0.09836731
504,3892.4399999999996,0.1008579
505,3895.18,0.104703
506,3897.92,0.1043755
507,3900.67,0.1044
508,3903.41,0.1098888
509,3906.15,0.1114483
510,3908.89,0.1117932
511,3911.6299999999997,0.1176518
512,3914.38,0.1208315
513,3917.12,0.1136858
514,3919.86,0.1053638
515,3922.6,0.09775057
516,3925.34,0.09457813
517,3928.08,0.0838077
518,3930.8300000000004,0.07315566
519,3933.57,0.0682322
520,3936.31,0.07759466
521,3939.05,0.08547433
522,3941.79,0.09525254
523,3944.5400000000004,0.102034
524,3947.28,0.1090477
525,3950.02,0.1080325
526,3952.76,0.1076283
527,3955.5,0.1031091
528,3958.25,0.09915838
529,3960.99,0.08808339
530,3963.7299999999996,0.0801809
531,3966.4700000000003,0.07270562
532,3969.21,0.07018261
533,3971.96,0.08060795
534,3974.7,0.09176549
535,3977.44,0.1056703
536,3980.18,0.1195501
537,3982.9199999999996,0.1212323
538,3985.66,0.1259127
539,3988.41,0.1306077
540,3991.15,0.1370583
541,3993.89,0.1343208
542,3996.63,0.136865
543,3999.37,0.1446106
544,4002.1200000000003,0.1405563
545,4004.86,0.1428572
546,4007.6,0.143798
547,4010.34,0.1443058
548,4013.08,0.1466624
549,4015.8300000000004,0.1487787
550,4018.57,0.1476045
551,4021.31,0.1490415
552,4024.05,0.1502715
553,4026.79,0.150605
554,4029.53,0.1476357
555,4032.2799999999997,0.1441867
556,4035.0200000000004,0.1428592
557,4037.76,0.1466258
558,4040.5,0.1491816
559,4043.2400000000002,0.1422255
560,4045.99,0.1457768
561,4048.73,0.1507981
562,4051.47,0.1481641
563,4054.2099999999996,0.1474803
564,4056.95,0.1451834
565,4059.7,0.1396424
566,4062.44,0.1440603
567,4065.18,0.1426006
568,4067.92,0.1441621
569,4070.66,0.1440033
570,4073.3999999999996,0.1431068
571,4076.15,0.1493172
572,4078.89,0.1465969
573,4081.63,0.1461449
574,4084.37,0.1506433
575,4087.11,0.1513983
576,4089.86,0.1497405
577,4092.6,0.1472904
578,4095.34,0.1383189
579,4098.08,0.1314299
580,4100.82,0.1312979
581,4103.570000000001,0.1322514
582,4106.31,0.1352727
583,4109.05,0.1396485
584,4111.79,0.147442
585,4114.53,0.1556436
586,4117.27,0.1478311
587,4120.0199999999995,0.1460757
588,4122.759999999999,0.1487464
589,4125.5,0.1452522
590,4128.240000000001,0.1449573
591,4130.9800000000005,0.1487104
592,4133.73,0.1490968
593,4136.47,0.1510625
594,4139.21,0.151534
595,4141.95,0.1466239
596,4144.69,0.1451719
597,4147.44,0.1454645
598,4150.18,0.1445489
599,4152.92,0.1419033
600,4155.66,0.1516049
601,4158.4,0.1492966
602,4161.139999999999,0.1519673
603,4163.89,0.1470393
604,4166.63,0.1463038
605,4169.37,0.148645
606,4172.11,0.14344
607,4174.85,0.1398978
608,4177.6,0.1431024
609,4180.34,0.1434761
610,4183.08,0.1457234
611,4185.82,0.1479497
612,4188.56,0.1492832
613,4191.3099999999995,0.1458151
614,4194.049999999999,0.1517464
615,4196.79,0.1444417
616,4199.530000000001,0.1414168
617,4202.27,0.1432619
618,4205.01,0.1453004
619,4207.76,0.1506736
620,4210.5,0.1538615
621,4213.24,0.1499362
622,4215.98,0.15172
623,4218.72,0.1516664
624,4221.47,0.1473037
625,4224.21,0.1432788
626,4226.95,0.13784
627,4229.69,0.1414935
628,4232.429999999999,0.1422159
629,4235.18,0.1470143
630,4237.92,0.1517139
631,4240.66,0.1567563
632,4243.4,0.1555917
633,4246.14,0.1489747
634,4248.89,0.1510834
635,4251.63,0.1516142
636,4254.37,0.1428918
637,4257.11,0.1453672
638,4259.85,0.1470493
639,4262.59,0.1533505
640,4265.34,0.1515835
641,4268.08,0.1457233
642,4270.820000000001,0.1430758
643,4273.56,0.1395854
644,4276.3,0.1461777
645,4279.05,0.1503497
646,4281.79,0.149254
647,4284.53,0.1447138
648,4287.27,0.1375374
649,4290.01,0.1376774
650,4292.76,0.1337534
651,4295.5,0.1344776
652,4298.24,0.1292132
653,4300.98,0.1222744
654,4303.719999999999,0.1213702
655,4306.46,0.1223781
656,4309.21,0.1299468
657,4311.95,0.1379759
658,4314.69,0.1451908
659,4317.43,0.1585708
660,4320.17,0.1574253
661,4322.92,0.1524034
662,4325.66,0.1486506
663,4328.4,0.1508289
664,4331.14,0.1617202
665,4333.88,0.1582682
666,4336.63,0.1562867
667,4339.37,0.1508
668,4342.110000000001,0.1529554
669,4344.85,0.1548905
670,4347.59,0.1537239
671,4350.33,0.1563352
672,4353.08,0.1565358
673,4355.820000000001,0.1594115
674,4358.56,0.1637375
675,4361.3,0.1675194
676,4364.04,0.167713
677,4365.15832,0.16734269374836377
678,4366.79,0.1668024
679,4369.53,0.1638561
680,4372.2699999999995,0.1601281
681,4375.009999999999,0.1579807
682,4377.75,0.1589349
683,4380.5,0.1552177
684,4383.24,0.1500567
685,4385.98,0.1475203
686,4388.72,0.1501891
687,4391.46,0.1601475
688,4394.2,0.1630539
689,4396.95,0.1605972
690,4399.69,0.1594479
691,4402.43,0.1544268
692,4405.17,0.1554461
693,4407.91,0.1568716
694,4410.66,0.1659211
695,4413.400000000001,0.1658044
696,4416.14,0.1701553
697,4418.88,0.1720137
698,4421.62,0.1711843
699,4424.37,0.1697296
700,4427.110000000001,0.1700363
701,4429.85,0.1714503
702,4432.59,0.1702799
703,4435.33,0.1716058
704,4438.07,0.171512
705,4440.82,0.1722739
706,4443.5599999999995,0.1712931
707,4446.3,0.1754448
708,4449.04,0.1756863
709,4451.78,0.1750121
710,4454.53,0.1708447
711,4457.2699999999995,0.1640247
712,4460.01,0.164224
713,4462.75,0.1673086
714,4465.49,0.1708682
715,4468.24,0.177023
716,4470.98,0.1830368
717,4473.72,0.1827342
718,4476.46,0.183765
719,4479.2,0.1815103
720,4481.94,0.1816178
721,4484.6900000000005,0.1847168
722,4487.43,0.1848338
723,4490.17,0.1831749
724,4492.91,0.1815237
725,4495.65,0.1835028
726,4498.400000000001,0.1889027
727,4501.14,0.192516
728,4503.88,0.190951
729,4506.62,0.1915527
730,4509.36,0.1923633
731,4512.11,0.1907725
732,4514.85,0.1905255
733,4517.59,0.1914529
734,4520.33,0.1907404
735,4523.07,0.184133
736,4525.81,0.1788361
737,4528.5599999999995,0.1740575
738,4531.3,0.1701609
739,4534.04,0.1734007
740,4536.780000000001,0.1788033
741,4539.52,0.1823151
742,4542.2699999999995,0.1861076
743,4545.01,0.1834679
744,4547.75,0.183196
745,4550.49,0.1842574
746,4553.23,0.183248
747,4555.9800000000005,0.1871325
748,4558.72,0.1903626
749,4561.46,0.1906349
750,4564.2,0.1900201
751,4566.94,0.1916544
752,4569.68,0.1939343
753,4572.43,0.1899507
754,4575.17,0.1861347
755,4577.91,0.1869184
756,4580.65,0.1838399
757,4583.39,0.1854857
758,4586.14,0.1847666
759,4588.88,0.1875197
760,4591.62,0.1907767
761,4594.36,0.1890795
762,4597.1,0.1849262
763,4599.849999999999,0.1881881
764,4602.59,0.1903378
765,4605.33,0.1909318
766,4608.070000000001,0.1976698
767,4610.81,0.200103
768,4613.55,0.1967122
769,4616.3,0.1984932
770,4619.04,0.2021141
771,4621.78,0.1997771
772,4624.5199999999995,0.1987427
773,4627.26,0.1998157
774,4630.01,0.1969605
775,4632.75,0.1939721
776,4635.49,0.1924013
777,4638.23,0.1898975
778,4640.97,0.184204
779,4643.72,0.1828891
780,4646.46,0.1828069
781,4649.2,0.1847879
782,4651.94,0.1880775
783,4654.68,0.1911658
784,4657.42,0.1933213
785,4660.17,0.1914163
786,4662.91,0.1862554
787,4665.65,0.1789315
788,4668.39,0.1796232
789,4671.13,0.1824128
790,4673.88,0.1839773
791,4676.62,0.1873645
