,lambda (Angstroms),Total Flux (erg/s/cm^2/Angstrom)
0,102.06,6.621614988460217
1,103.96000000000001,6.602741943615221
2,104.712855,6.595263698899535
3,105.89,6.533843146747052
4,108.11,6.418008968304357
5,110.11999999999999,6.313132085959207
6,113.99,6.111204951282659
7,118.0,5.9019729672459125
8,120.22644299999999,5.785802849758261
9,121.02,5.751088464156834
10,124.99,5.577419361398925
11,127.02,5.4886162660198385
12,127.89999999999999,5.450120366224988
13,130.88,5.319759188736848
14,132.09,5.266827429756239
15,133.93,5.186335998010704
16,137.05,5.049850734059058
17,138.038426,5.006611722332152
18,139.92,4.947777886408043
19,142.85,4.8561648707249425
20,146.85,4.731100646182544
21,150.96,4.602589295410262
22,154.84,4.481270148547915
23,158.489319,4.367163975897691
24,159.17000000000002,4.3510734545784615
25,162.13000000000002,4.281102708885362
26,165.91000000000003,4.191749093160931
27,170.17000000000002,4.09104816349816
28,172.93,4.025806169232702
29,176.96,3.930542886678719
30,179.84,3.8624643413786757
31,181.92,3.813296548249201
32,181.970086,3.812112595736694
33,186.15,3.7367338684806537
34,190.92999999999998,3.650534388307536
35,194.03,3.594631438918317
36,198.10000000000002,3.521235802287858
37,201.78,3.4548745841902693
38,205.06,3.3957256577874184
39,208.929613,3.32594207870071
40,209.83,3.313734834480447
41,216.21,3.227244673308337
42,220.23000000000002,3.1727467625219603
43,222.78,3.138176721371274
44,226.92000000000002,3.0820528607654527
45,230.08,3.0392757713967593
46,233.82,2.9887103455224184
47,239.81,2.907584967221001
48,239.88329199999998,2.9065911477908055
49,245.97,2.8429883082067686
50,252.28,2.7770998809025706
51,256.97,2.728037673918943
52,259.94,2.6970718745312308
53,264.15999999999997,2.6530116165517197
54,269.08000000000004,2.601616621144801
55,274.08,2.5493848831776087
56,275.42287,2.53535680149394
57,279.17,2.5053175584552703
58,283.71,2.468924852511126
59,290.32,2.415907095824167
60,295.72,2.3726283771342147
61,301.21,2.328610593651098
62,308.23,2.272337263284161
63,316.227766,2.2082289504301325
64,318.33,2.195644463460754
65,328.0,2.1377443013921016
66,337.97,2.0780418403477925
67,348.24,2.0165383648278277
68,357.16999999999996,1.9630620157057943
69,363.078055,1.9276831391169413
70,366.33,1.913100400296912
71,374.85999999999996,1.8748438758346941
72,385.37,1.8276868115522893
73,395.25,1.7833932388081255
74,405.39,1.7379169172259579
75,413.88,1.699833648777279
76,416.86938299999997,1.6864235966556849
77,421.57,1.6703199989690913
78,430.40000000000003,1.6400719599764189
79,441.44000000000005,1.6022571757792383
80,450.69,1.5705660216214559
81,460.11999999999995,1.5382599194071978
82,469.76,1.5052360206603839
83,478.630092,1.4748510560494326
84,479.59000000000003,1.4723220502565537
85,489.64,1.4458338671428954
86,499.89,1.4188319552906568
87,505.68,1.403571978608758
88,511.53,1.388182903505285
89,519.85,1.366262270880346
90,529.51,1.3408044204069192
91,540.6,1.3115725513526435
92,549.38,1.28844171702897
93,549.5408739999999,1.2880180767509117
94,559.6,1.26781299102172
95,570.0,1.2469189051445375
96,580.6,1.2256029078562556
97,590.03,1.2066608940629069
98,599.62,1.1873733442206782
99,609.36,1.167751833520125
100,620.6899999999999,1.1450523258213292
101,629.32,1.1277066208723787
102,630.957344,1.124416674820922
103,639.55,1.1107301917563686
104,649.9399999999999,1.0941837548846691
105,657.47,1.082184851275632
106,665.0799999999999,1.0700775474081987
107,674.33,1.0553444093936444
108,685.2900000000001,1.0378636013933724
109,694.82,1.0227324641244318
110,704.49,1.007296758378298
111,715.94,0.9891149988078497
112,724.43596,0.9755899391192062
113,725.9,0.973860339224356
114,734.3,0.9639403565216981
115,744.5200000000001,0.9518787383417973
116,754.87,0.939657027827808
117,765.38,0.9272040167718633
118,774.2400000000001,0.9168026704485832
119,785.01,0.9040762489244611
120,794.0999999999999,0.8933642233408706
121,805.15,0.8803298322433263
122,814.47,0.8693338594994247
123,825.8,0.8559861785284586
124,831.763771,0.848857428839037
125,835.36,0.8456326143071233
126,845.03,0.8372489749419613
127,854.82,0.8286167672249046
128,864.7199999999999,0.8199277064436116
129,874.7299999999999,0.811134356598082
130,884.8599999999999,0.8022404715006577
131,895.1099999999999,0.7932319031513391
132,905.47,0.7840891967377837
133,915.9599999999999,0.7751719728846763
134,924.43,0.7735763889384588
135,935.14,0.772276904956878
136,945.96,0.7759125939110605
137,954.72,0.7797152355227649
138,954.992586,0.7795960477910387
139,965.77,0.7750894202819855
140,974.71,0.7302360132171234
141,985.99,0.7500551807191764
142,995.12,0.7445862948285511
143,1004.3299999999999,0.7554989029060254
144,1015.95,0.7438390017725021
145,1025.3600000000001,0.7041676047702253
146,1034.8400000000001,0.7108899499900361
147,1044.4199999999998,0.7389343726699715
148,1054.08,0.7291712793180063
149,1063.8400000000001,0.7047182734261657
150,1076.15,0.705677642767502
151,1086.11,0.6821121917959108
152,1096.16,0.6922576765384314
153,1096.4782,0.6918544215515479
154,1103.76,0.6837676032882211
155,1113.97,0.6736053261230949
156,1124.28,0.6590518612482221
157,1134.68,0.6690281994345774
158,1145.1799999999998,0.6546054199111861
159,1155.78,0.6515683626780483
160,1163.79,0.6482334651273469
161,1174.56,0.6154404847876399
162,1185.43,0.630572966738186
163,1193.6399999999999,0.6018061837679916
164,1204.69,0.5793895018409939
165,1215.83,0.5597566329752246
166,1224.26,0.5798764130435876
167,1235.59,0.5981270395292996
168,1244.15,0.5995778295749918
169,1255.67,0.5876765414121855
170,1258.92541,0.5812658530536919
171,1264.37,0.5716510297392764
172,1276.07,0.5862858661399861
173,1284.9099999999999,0.5862217729760779
174,1293.82,0.5612743654658492
175,1305.79,0.5547000622450368
176,1314.84,0.569330676042167
177,1323.96,0.5604094154929765
178,1336.2099999999998,0.5440785848868821
179,1345.47,0.5545332656450506
180,1354.8,0.5467599620568986
181,1364.19,0.5322361718861861
182,1373.64,0.5316141951329131
183,1386.3500000000001,0.526011337393855
184,1395.96,0.5081334664204209
185,1405.6399999999999,0.5057247811006663
186,1415.3799999999999,0.504869309198351
187,1425.2,0.5018250751859552
188,1435.07,0.49684462235475907
189,1441.6999999999998,0.498071514981828
190,1445.43977,0.49687821179269703
191,1448.35,0.4963932273732362
192,1455.04,0.49138316364059315
193,1465.1200000000001,0.4812618277474628
194,1475.28,0.47786657466470456
195,1485.51,0.4757658877910217
196,1495.8,0.47348022052511785
197,1506.17,0.465141716069586
198,1513.1200000000001,0.45426040397065187
199,1516.61,0.45790682782312964
200,1523.61,0.45338267873067806
201,1534.17,0.43989237969977957
202,1544.8100000000002,0.4408536234792531
203,1555.52,0.43370338346780224
204,1566.3,0.43218912966542683
205,1573.53,0.43428738240279463
206,1584.44,0.43383308441727364
207,1595.4199999999998,0.4315412926408282
208,1606.48,0.4260677736747546
209,1613.89,0.4236309352354594
210,1625.0800000000002,0.4161248320862403
211,1636.34,0.4167703851460968
212,1643.9,0.41517088572624905
213,1655.2900000000002,0.40597886460295995
214,1659.58691,0.4067394320041202
215,1666.77,0.40876915669845704
216,1670.61,0.39960799702935446
217,1678.3200000000002,0.4068281744906095
218,1686.0700000000002,0.40770660101781137
219,1693.8500000000001,0.40101013434447336
220,1705.59,0.3953138751998734
221,1713.46,0.3893597989249158
222,1725.34,0.38610275151112977
223,1733.3000000000002,0.3888189856345525
224,1745.32,0.3841471499515805
225,1753.37,0.3866796144733838
226,1765.53,0.37782234052122565
227,1773.68,0.376978927707896
228,1785.97,0.3754783332200651
229,1794.22,0.3780452630716026
230,1806.6499999999999,0.37443300031458576
231,1814.99,0.3664494905645036
232,1823.37,0.36590506988036836
233,1836.0099999999998,0.3600985947195725
234,1844.48,0.3523141744338176
235,1853.0,0.3508207154804962
236,1865.84,0.3496732656494346
237,1874.45,0.3526193970944937
238,1883.1000000000001,0.3447863476054996
239,1896.16,0.33910656763714553
240,1904.9099999999999,0.3408257608130187
241,1905.46072,0.3405327904440783
242,1913.7,0.33669292905346243
243,1926.97,0.3326212365306535
244,1935.8600000000001,0.33283930179608134
245,1944.8,0.3347015950776253
246,1953.77,0.32852926316883885
247,1967.32,0.3322703455362796
248,1976.4,0.3324777512629483
249,1985.52,0.32733813340250995
250,1994.69,0.3239175735581875
251,2003.89,0.32401625852353466
252,2013.1399999999999,0.32042377150499796
253,2027.1,0.32030689960459
254,2036.4499999999998,0.3155803786182853
255,2045.85,0.31642829564809655
256,2055.2999999999997,0.31047220069402387
257,2064.7799999999997,0.3095251205496208
258,2074.31,0.31342240842133373
259,2079.1,0.31189005636524814
260,2083.89,0.3149357843091626
261,2093.51,0.3089533966098843
262,2103.17,0.3073717253234989
263,2112.88,0.3069493620532295
264,2122.63,0.3051864751958529
265,2137.34,0.2979633035371852
266,2147.21,0.29891367591848705
267,2157.12,0.29962590471268175
268,2167.08,0.2946674515229924
269,2177.08,0.2926966647461959
270,2187.13,0.29136743598551534
271,2187.7616199999998,0.2914198797041169
272,2197.22,0.2927584612312737
273,2207.37,0.28950960092062733
274,2212.45,0.284111419031161
275,2222.67,0.28209597444251017
276,2232.93,0.28654756598071396
277,2243.23,0.28253392364577234
278,2253.59,0.2766605405011126
279,2263.99,0.27628343348330753
280,2274.44,0.27714431912407067
281,2284.94,0.279363497423402
282,2295.48,0.273035471849588
283,2306.08,0.2738926754660559
284,2316.72,0.26863330520937834
285,2327.42,0.25508467414298264
286,2332.78,0.26035447514149845
287,2343.55,0.2558004297970983
288,2354.37,0.26155294711126653
289,2365.2400000000002,0.25314079708400283
290,2376.15,0.2543727331835938
291,2387.12,0.24740691847346674
292,2392.62,0.2502871909159736
293,2403.67,0.24706375845955572
294,2414.7599999999998,0.24757177212999237
295,2425.91,0.2526339449907109
296,2437.11,0.2494474905099977
297,2442.72,0.25287724480135476
298,2454.0,0.25149383257435076
299,2465.33,0.24808085300591495
300,2476.71,0.24390667609604746
301,2482.41,0.24107641917282735
302,2493.87,0.23649367451666903
303,2505.3900000000003,0.2450413290507925
304,2511.16,0.232671437849568
305,2511.88643,0.23262745707517418
306,2516.95,0.23247881264300413
307,2522.7500000000005,0.23087615179208998
308,2534.4,0.23271989215189182
309,2546.0899999999997,0.23140276616099772
310,2557.85,0.23830553905638563
311,2563.74,0.23337448391640558
312,2575.58,0.2368261641104016
313,2587.4700000000003,0.23391022636602765
314,2593.43,0.23145717011232975
315,2605.4,0.22761340966656385
316,2617.43,0.22500207969475408
317,2623.46,0.2289795523273382
318,2635.5699999999997,0.23591973965413648
319,2647.73,0.2444880490425648
320,2653.84,0.252053348973757
321,2666.0899999999997,0.23578173407311948
322,2672.23,0.2401671292412897
323,2684.57,0.24164220005158618
324,2696.96,0.23247972292351277
325,2703.18,0.23716223539029108
326,2715.65,0.2276778655608257
327,2721.92,0.22473183008923409
328,2734.48,0.22857227597070284
329,2747.1,0.21314212232612767
330,2753.43,0.2168200173284921
331,2766.1400000000003,0.22097662939485097
332,2772.52,0.22369167645884547
333,2785.32,0.21244749423613843
334,2798.1699999999996,0.19787957407506152
335,2804.62,0.200494910025338
336,2817.5699999999997,0.21670945398752123
337,2824.06,0.22677693358710174
338,2837.1000000000004,0.22338327326021895
339,2843.64,0.21733636492142963
340,2856.7599999999998,0.20630617189315495
341,2863.35,0.22439020561599565
342,2876.57,0.22859845671098103
343,2883.2000000000003,0.22433697408312575
344,2884.0315,0.22448907153873215
345,2896.5099999999998,0.22710578987975372
346,2909.88,0.23999564943159873
347,2930.05,0.23174159506067243
348,2950.36,0.2276339074913361
349,2970.81,0.23011618672358977
350,2991.4,0.22898581275743346
351,3012.14,0.22992626179298076
352,3033.0099999999998,0.22963175143000442
353,3047.01,0.23044234158900445
354,3068.13,0.23126514622886743
355,3089.4,0.23055281387043397
356,3110.82,0.2330339545137041
357,3132.38,0.2286598919585642
358,3146.84,0.22727052732278857
359,3168.65,0.22951085977048796
360,3190.6200000000003,0.2194029414200045
361,3212.7299999999996,0.2250333098711111
362,3227.56,0.21386920463953757
363,3249.93,0.228995354293597
364,3272.46,0.23720927314947352
365,3287.56,0.23437423532096646
366,3310.3500000000004,0.23107891537979583
367,3311.31121,0.2310326649346952
368,3325.63,0.2306125750115775
369,3333.3,0.2344622118402132
370,3340.99,0.22785763663971892
371,3348.69,0.24148610542465956
372,3356.4100000000003,0.23501226218047022
373,3364.14,0.21020305292171587
374,3371.9,0.2137967056192665
375,3379.67,0.23421137230225209
376,3387.46,0.23142763695610766
377,3395.2700000000004,0.22560258958083315
378,3403.1,0.24156873017642871
379,3410.94,0.2246248147574592
380,3418.81,0.22275233129479471
381,3426.69,0.22907389181756516
382,3434.59,0.24011004031120559
383,3442.5,0.22041773279028098
384,3450.44,0.2258785572256614
385,3458.39,0.22948122564647677
386,3466.37,0.22410622602359714
387,3474.36,0.23174527038615245
388,3482.3700000000003,0.22491930271957772
389,3490.39,0.23045017903843806
390,3498.44,0.2163630873136033
391,3506.5099999999998,0.23361098355963855
392,3514.59,0.22136322379110873
393,3522.69,0.2320152519934489
394,3530.81,0.21757716816665912
395,3538.9500000000003,0.23268547231073922
396,3547.11,0.23724916442568939
397,3555.29,0.23192884451150947
398,3563.48,0.22956816858276455
399,3571.7,0.2142009246103246
400,3579.93,0.21757602462331965
401,3588.1800000000003,0.19837803260718462
402,3596.45,0.22123148856191965
403,3604.75,0.2307804964729596
404,3613.0499999999997,0.21106800438399956
405,3621.38,0.21044064425134446
406,3625.1499999999996,0.22782892676033492
407,3627.9,0.22521812275495656
408,3630.64,0.22334267476414327
409,3633.38,0.21966002677332994
410,3636.12,0.2250245787825166
411,3638.8700000000003,0.22750777477713827
412,3641.61,0.224954626786325
413,3644.35,0.23318807879551165
414,3647.1,0.22741477479013333
415,3649.8399999999997,0.22220732679932004
416,3652.5800000000004,0.22673607880850669
417,3655.32,0.22995463081769335
418,3658.0699999999997,0.23556652681231505
419,3660.81,0.24500847882150173
420,3663.5499999999997,0.24417223083068842
421,3666.3,0.23943792682531007
422,3669.04,0.23921157883449676
423,3671.78,0.23858983084368346
424,3674.52,0.2388378828528701
425,3677.2700000000004,0.23788737884749178
426,3680.01,0.2333915308566785
427,3682.75,0.23293928286586518
428,3685.5,0.23384117886048683
429,3688.24,0.2383812308696735
430,3690.98,0.2359071828788602
431,3693.72,0.2464673348880469
432,3696.4700000000003,0.23171453088266852
433,3699.21,0.23140908289185524
434,3701.95,0.2332271349010419
435,3704.7000000000003,0.2295772308956636
436,3707.44,0.22639158290485029
437,3710.1800000000003,0.23421833491403696
438,3712.93,0.23538003090865864
439,3715.6699999999996,0.2421677829178453
440,3718.41,0.235187034927032
441,3721.1499999999996,0.24155688693621868
442,3723.9,0.24958578293084033
443,3726.64,0.26309393494002703
444,3729.38,0.26645938694921373
445,3732.13,0.24518938294383538
446,3734.8700000000003,0.22196673495302205
447,3737.61,0.21093568696220874
448,3740.35,0.21644253897139543
449,3743.1,0.21982943496601712
450,3745.8399999999997,0.2133794869752038
451,3748.5800000000004,0.21694813898439047
452,3751.33,0.22401713497901216
453,3754.0699999999997,0.22921218698819884
454,3756.81,0.23288253899738554
455,3759.5499999999997,0.2333225910065722
456,3762.3,0.23079078700119385
457,3765.04,0.23431433901038054
458,3767.78,0.23553369101956723
459,3770.53,0.2338151870141889
460,3773.2700000000004,0.23056173902337557
461,3776.01,0.24927679103256228
462,3778.75,0.25473174304174895
463,3781.5,0.2613601390363706
464,3784.24,0.2558477910455573
465,3786.9799999999996,0.252142543054744
466,3789.73,0.24040553904936565
467,3792.47,0.23124489105855237
468,3795.21,0.229866443067739
469,3797.95,0.22931249507692575
470,3800.7000000000003,0.2330268910715474
471,3801.8939600000003,0.23665890519449986
472,3803.44,0.24138239066690398
473,3806.1800000000003,0.24943748131552138
474,3808.93,0.24643384820738196
475,3811.6699999999996,0.2419629388559994
476,3814.41,0.23847472950461684
477,3817.15,0.23416192015323425
478,3819.9,0.22913658704509485
479,3822.64,0.2227341776937123
480,3825.38,0.2167158683423297
481,3828.13,0.20517463523419027
482,3830.87,0.20134742588280774
483,3833.61,0.19461074653142518
484,3836.35,0.1973210071800426
485,3839.1,0.20448857407190318
486,3841.84,0.21471446472052058
487,3844.5800000000004,0.22249845536913804
488,3847.33,0.23059772226099862
489,3850.0699999999997,0.23515141290961605
490,3852.81,0.2420318035582335
491,3855.5499999999997,0.23300909420685095
492,3858.3,0.2316883610987115
493,3861.04,0.23751835174732894
494,3863.78,0.24036654239594635
495,3866.53,0.24146290928780692
496,3869.2700000000004,0.24051599993642436
497,3872.01,0.2393206905850418
498,3874.7599999999998,0.23697215747690237
499,3877.5,0.2334161481255198
500,3880.24,0.23082013877413723
501,3882.9799999999996,0.2273432294227547
502,3885.73,0.22777329631461524
503,3888.47,0.23170568696323268
504,3891.21,0.23358247761185014
505,3893.96,0.24046184450371066
506,3896.7000000000003,0.24991753515232812
507,3899.44,0.25101492580094553
508,3902.1800000000003,0.250700616449563
509,3904.93,0.24704188334142357
510,3907.6699999999996,0.24853467399004103
511,3910.4100000000003,0.25733516463865846
512,3913.16,0.259854631530519
513,3915.9,0.2567392221791364
514,3918.64,0.25438041282775387
515,3921.3799999999997,0.2420371034763713
516,3924.13,0.2347300703682319
517,3926.87,0.22261256101684934
518,3929.61,0.20822475166546678
519,3932.3599999999997,0.19442561855732735
520,3935.1000000000004,0.19332060920594477
521,3937.84,0.2070207998545622
522,3940.5800000000004,0.21678129050317962
523,3943.33,0.22797535739504024
524,3946.0699999999997,0.24086464804365768
525,3948.81,0.2517660386922751
526,3951.56,0.25133760558413565
527,3954.3,0.24832379623275308
528,3957.04,0.23956088688137056
529,3959.7799999999997,0.23458167752998796
530,3962.53,0.22229374442184852
531,3965.27,0.20819953507046599
532,3968.01,0.1950960257190834
533,3970.7599999999998,0.19707129261094397
534,3973.5,0.21007908325956143
535,3976.24,0.23450037390817888
536,3978.9799999999996,0.2461133645567963
537,3981.73,0.26192693144865686
538,3984.47,0.2741611220972743
539,3987.21,0.28073661274589173
540,3989.96,0.2808163796377523
541,3992.7000000000003,0.28461327028636974
542,3995.44,0.28737116093498716
543,3998.1800000000003,0.2878362515836046
544,4000.93,0.2892600184754652
545,4003.6699999999996,0.2848908091240826
546,4006.4100000000003,0.28753569977270005
547,4009.16,0.2920316666645606
548,4011.9,0.2912994573131781
549,4014.64,0.2957177479617955
550,4017.3799999999997,0.29944693861041294
551,4020.13,0.3006561055022735
552,4022.87,0.29783429615089096
553,4025.61,0.29645828679950836
554,4028.36,0.29468555369136895
555,4031.1000000000004,0.2882494443399864
556,4033.84,0.28575523498860383
557,4036.5899999999997,0.2904432018804644
558,4039.33,0.2911906925290818
559,4042.0699999999997,0.28808648317769925
560,4044.81,0.2829605738263167
561,4047.56,0.28008104071817724
562,4050.3,0.28783123136679467
563,4053.04,0.29141362201541215
564,4055.7900000000004,0.2822766889072727
565,4058.53,0.2824141795558901
566,4061.27,0.28360207020450756
567,4064.01,0.278227660853125
568,4066.7599999999998,0.2814699277449856
569,4069.5,0.284001918393603
570,4072.24,0.2850881090422205
571,4074.99,0.28582287593408107
572,4077.73,0.28605076658269846
573,4080.47,0.2880857572313159
574,4083.21,0.29284274787993336
575,4085.96,0.2945489147717939
576,4088.7000000000003,0.2923710054204114
577,4091.44,0.2909158960690288
578,4094.1899999999996,0.2857208629608894
579,4096.929999999999,0.2764271536095068
580,4099.67,0.2722387442581242
581,4102.41,0.2731893349067417
582,4105.16,0.2736079017986023
583,4107.9,0.2791781924472197
584,4110.639999999999,0.28546008309583715
585,4113.39,0.29046434998769766
586,4116.13,0.29230734063631514
587,4118.87,0.2915638312849326
588,4121.61,0.29109132193355003
589,4124.360000000001,0.28901378882541057
590,4127.1,0.285841779474028
