,lambda (Angstroms),Total Flux (erg/s/cm^2/Angstrom)
0,100.07000000000001,3.025563098139982
1,101.93,3.01714656395354
2,104.07,3.0074629375683832
3,104.712855,3.004554017921026
4,106.0,2.9739586584098765
5,107.97,2.927132003268872
6,109.98,2.879355022013589
7,114.11,2.7811857772135045
8,118.11999999999999,2.6858691202312577
9,120.22644299999999,2.6358112060718217
10,120.87,2.622989735064367
11,125.11,2.538497078595504
12,126.85,2.5038232431612535
13,128.03,2.480309015337796
14,131.01,2.420924470288218
15,131.92000000000002,2.4027955757281783
16,134.06,2.36015058686479
17,136.87,2.304161947648845
18,138.038426,2.2808784089819305
19,140.06,2.2520845990702063
20,142.98999999999998,2.210456424466172
21,147.0,2.1535954405482616
22,151.10999999999999,2.095076069776289
23,154.99,2.0398390142786598
24,158.489319,1.9900248655144481
25,158.97000000000003,1.98485277303372
26,161.92000000000002,1.953109387782961
27,166.08,1.908355362346975
28,169.94,1.8668199518602189
29,173.1,1.832820273354999
30,177.14000000000001,1.7893483275787048
31,180.01,1.758468444234407
32,181.970086,1.737380363395849
33,182.1,1.736314366638609
34,185.91,1.70504876458606
35,191.12,1.662294133916563
36,193.78,1.6404751235743635
37,197.84,1.6071552293152165
38,201.98000000000002,1.5731862949179578
39,204.79000000000002,1.5501307343917996
40,208.929613,1.5161235092062837
41,210.04,1.5092657644851057
42,215.93,1.472989508035537
43,219.94,1.4482666540657965
44,223.0,1.4293839818943739
45,227.14999999999998,1.4038018124069866
46,229.77999999999997,1.3881872573969076
47,234.04999999999998,1.3631199116086803
48,239.88329199999998,1.3277508363514459
49,240.04999999999998,1.32697624501276
50,246.21,1.2974239556874207
51,251.95,1.2702800816569912
52,257.21999999999997,1.2445889240994368
53,260.2,1.230857359292698
54,263.82,1.2137796616080019
55,268.72,1.1904213111673911
56,273.72,1.1665702923708496
57,275.42287,1.1584534013564745
58,278.81,1.1460575370679886
59,283.99,1.127101169174706
60,289.94,1.1051549311080977
61,296.01,1.083004639715776
62,300.82,1.0653631612434422
63,307.83000000000004,1.039747487133034
64,316.227766,1.0090634761564377
65,317.91,1.0044722358798959
66,328.33,0.9759654306561654
67,338.3,0.9486662901541891
68,347.78000000000003,0.9226923810159003
69,356.7,0.8982775768646838
70,363.078055,0.8808324279365566
71,365.85,0.8751498048465457
72,375.24,0.8558763248047622
73,384.86,0.8360479884382065
74,394.74,0.8158536677914736
75,404.86,0.7951083955015001
76,414.29,0.7757630831858433
77,416.86938299999997,0.770463830179378
78,421.99,0.7624165303956435
79,429.84000000000003,0.750100764909115
80,440.86,0.7328297817675171
81,451.13,0.7167160971373708
82,459.52,0.7035491693625971
83,470.22,0.6867802331325518
84,478.630092,0.6736090376227828
85,480.07,0.6718727890513989
86,490.12,0.659725876177133
87,500.39,0.6473570477145747
88,506.18,0.6403573792317885
89,512.04,0.6333416325618186
90,520.36,0.62331075331367
91,530.0400000000001,0.6116207814288048
92,539.89,0.5997146880893502
93,549.5408739999999,0.5880757005484304
94,549.93,0.5877171606196216
95,560.15,0.5783391159230561
96,570.5699999999999,0.5687747137803739
97,579.84,0.5602224524528626
98,590.62,0.5503200243071702
99,600.21,0.5414696348658724
100,609.97,0.5323612818953752
101,619.88,0.5234094813402906
102,629.9499999999999,0.5141372352283127
103,630.957344,0.5132130370832269
104,640.19,0.5064942905279849
105,650.59,0.4989017087845891
106,658.12,0.493396327369419
107,665.7399999999999,0.4878608042401234
108,675.0,0.4811142702089846
109,684.39,0.47423923736855333
110,695.51,0.46616639991215336
111,705.1899999999999,0.4590796780817621
112,716.6500000000001,0.45076714461644335
113,724.43596,0.44509690638489124
114,726.62,0.44391483256330444
115,735.03,0.43936418852623566
116,745.26,0.43382062266402255
117,755.62,0.4282143460285848
118,764.37,0.42341028100000566
119,775.01,0.41772418270685335
120,785.79,0.41187833793484385
121,794.89,0.4069685104091215
122,804.0899999999999,0.40199754982707253
123,815.2800000000001,0.39595120092412384
124,824.72,0.39085153380689097
125,831.763771,0.38701106689442255
126,834.27,0.38598554763896886
127,845.87,0.3813390410944506
128,855.6700000000001,0.37737305840166796
129,865.5799999999999,0.373369647617946
130,875.6,0.36932373994328455
131,885.74,0.3652266267785075
132,896.0,0.3610829899236146
133,904.29,0.3577269690064546
134,914.76,0.35358848766885936
135,925.35,0.3497703718411483
136,936.06,0.34595504292332163
137,944.73,0.3430062670374619
138,954.992586,0.3392457813275727
139,955.67,0.3390034510311936
140,964.51,0.3357256737799047
141,975.6800000000001,0.3298339481614774
142,984.7,0.3274041072037143
143,996.11,0.32288642997665473
144,1005.3199999999999,0.3198406374953911
145,1014.62,0.31612875366089027
146,1024.01,0.3111979114731524
147,1035.87,0.3072609394799074
148,1045.46,0.30459062195164255
149,1055.1299999999999,0.30068402488716706
150,1064.89,0.29628966446945426
151,1074.75,0.29274543088147825
152,1084.69,0.28823861775729137
153,1094.73,0.28494166646284114
154,1096.4782,0.28422962777001903
155,1104.86,0.2814142683377757
156,1115.08,0.27801652913026037
157,1125.4,0.2743839196115169
158,1135.81,0.27153510451266816
159,1143.68,0.26878378711901396
160,1154.27,0.26543941085995454
161,1164.95,0.2620017270207898
162,1175.72,0.2576734026015197
163,1183.8700000000001,0.2557635127364267
164,1194.8300000000002,0.2516231194258232
165,1205.88,0.24762901953511438
166,1214.24,0.24438791631644238
167,1225.48,0.24167039253440004
168,1233.97,0.23958860181113148
169,1245.3899999999999,0.23606111686887854
170,1254.0200000000002,0.2331699519098905
171,1258.92541,0.23147670416196345
172,1265.63,0.2297833691222187
173,1274.4,0.22825521321347983
174,1286.19,0.225628418158288
175,1295.11,0.2230169546992286
176,1304.08,0.2209415653900623
177,1316.15,0.21863946537427215
178,1325.27,0.2164023055147854
179,1334.46,0.21401393266514906
180,1343.7099999999998,0.21224229939538453
181,1356.14,0.20928924685882516
182,1365.5400000000002,0.20685363703874007
183,1375.0100000000002,0.20474204122850545
184,1384.54,0.20253733699814266
185,1394.14,0.1998485707776302
186,1403.8,0.1976327481369896
187,1413.53,0.19566538850619944
188,1426.6100000000001,0.19265146291825122
189,1436.5,0.19039570916711923
190,1443.1299999999999,0.18895306824295288
191,1445.43977,0.18843530602613354
192,1446.46,0.18827745858355932
193,1456.48,0.18658028830356008
194,1466.5800000000002,0.1847838670073532
195,1473.35,0.18369720701078687
196,1483.56,0.18208183431729463
197,1493.85,0.1804301576075948
198,1504.2,0.17863678213573927
199,1511.1399999999999,0.17730916397973184
200,1518.1200000000001,0.17629313831562052
201,1525.13,0.17511515627043142
202,1535.7,0.17313522200400508
203,1546.34,0.17144111684839713
204,1553.4800000000002,0.17022724315187063
205,1564.25,0.1685940813449254
206,1575.0900000000001,0.16696917764879843
207,1586.01,0.16527630793646392
208,1593.33,0.16412683195347044
209,1604.37,0.16229916371682457
210,1615.5,0.16049767633694517
211,1626.69,0.15861884519491004
212,1634.2,0.15751605079842357
213,1645.53,0.15570745487802523
214,1653.12,0.15437174946533122
215,1659.58691,0.15340282996222795
216,1664.58,0.1528948571195959
217,1672.2699999999998,0.15182849975096135
218,1676.1200000000001,0.15163821746367354
219,1683.8600000000001,0.15080955506533392
220,1695.5300000000002,0.14937549673217845
221,1703.36,0.14842705148036983
222,1715.16,0.14700225946998127
223,1723.08,0.14609368836470357
224,1735.02,0.14486304347114093
225,1743.0300000000002,0.1439199645123941
226,1755.1200000000001,0.14266645352971638
227,1763.22,0.14160845971750052
228,1775.44,0.14025312205758964
229,1783.6299999999999,0.13937923239190475
230,1796.0,0.13811048164287879
231,1804.29,0.1371486199177838
232,1816.79,0.13558150949152475
233,1825.18,0.13468458770701963
234,1833.6,0.1336734823046916
235,1846.31,0.1320713385536714
236,1854.8400000000001,0.13116697888599219
237,1863.4,0.13028294560049003
238,1876.32,0.12893071752470867
239,1884.98,0.1278260591797964
240,1893.68,0.1268393090111201
241,1905.46072,0.12557858143718825
242,1906.8,0.125475484615796
243,1915.6000000000001,0.12470148497528004
244,1924.45,0.12388636314930654
245,1933.3300000000002,0.12310505281205857
246,1946.73,0.12225011210945466
247,1955.72,0.12140504556420023
248,1964.74,0.12088141450767134
249,1973.81,0.12010971126568498
250,1982.92,0.11938862267533262
251,1996.67,0.11824107967452634
252,2005.8799999999999,0.11748722771325905
253,2015.14,0.11670478856653424
254,2024.44,0.11587625707144347
255,2033.79,0.11520765839089524
256,2043.18,0.11457223836198098
257,2057.34,0.11325762504042342
258,2066.83,0.11247086364059423
259,2076.37,0.11189677205530758
260,2085.96,0.11297547728456343
261,2095.59,0.1118641961654533
262,2105.2599999999998,0.11095249369797723
263,2114.98,0.11051724004504362
264,2124.74,0.10933890804374408
265,2134.55,0.10832758985698698
266,2144.4,0.10830910332186397
267,2154.3,0.10751387660128348
268,2164.2400000000002,0.10618184553233698
269,2174.23,0.10540353727793304
270,2184.27,0.1054241508380716
271,2187.7616199999998,0.10511377637582454
272,2194.35,0.10470368844861955
273,2204.48,0.10402159687173845
274,2214.65,0.10249490383157255
275,2224.87,0.10243392196230065
276,2235.15,0.1030892698981015
277,2245.46,0.10226153973643871
278,2255.83,0.10054957337984871
279,2266.24,0.09972974655997388
280,2276.7000000000003,0.09952604091099301
281,2287.21,0.10026224543290614
282,2292.48,0.09904326964513091
283,2303.06,0.09941562560629558
284,2313.69,0.09793333473835422
285,2324.37,0.09641175704130685
286,2335.1,0.09547618751515345
287,2345.88,0.093976867159894
288,2356.71,0.09515912297552857
289,2367.58,0.0929820673278783
290,2373.04,0.09332213458950013
291,2384.0,0.09161289164945902
292,2395.0,0.09143479024613306
293,2406.05,0.09080656301370109
294,2417.16,0.0906075175863419
295,2422.73,0.09224567582393048
296,2433.92,0.09170237747000164
297,2445.15,0.09202817565278794
298,2456.44,0.09181284064064703
299,2467.78,0.09018675579940011
300,2473.46,0.08929120201295544
301,2484.8799999999997,0.0868446872451389
302,2496.35,0.08683569464821628
303,2507.87,0.08827133022218765
304,2511.88643,0.08586338145466298
305,2513.65,0.0848311347558762
306,2519.45,0.0841674775576968
307,2525.2599999999998,0.08411430807469296
308,2536.91,0.08504033225421191
309,2542.76,0.08503940363191026
310,2554.5,0.0879980762480092
311,2566.29,0.08546305543998589
312,2572.2099999999996,0.08677883282391315
313,2584.0800000000004,0.08541250873729422
314,2596.01,0.08425207994172866
315,2607.9900000000002,0.08298645872204086
316,2614.0,0.08229596354254808
317,2626.0699999999997,0.08337748975944027
318,2632.12,0.08784479644064967
319,2644.2700000000004,0.09121209537894624
320,2656.48,0.09669229260829616
321,2662.6,0.08844563829573446
322,2674.89,0.08983618324648879
323,2687.2400000000002,0.09170677648829642
324,2693.43,0.0868230451819636
325,2705.86,0.08939232614517566
326,2712.1,0.08473387841472058
327,2724.62,0.08190507481451263
328,2737.19,0.08378821879018244
329,2743.5,0.07853338206595623
330,2756.17,0.08024938819338155
331,2762.52,0.08268341232985756
332,2775.2700000000004,0.0828974541786873
333,2788.08,0.07754510731857041
334,2794.51,0.0736620021764508
335,2807.4100000000003,0.07375210375291386
336,2813.88,0.0798477094714965
337,2826.8700000000003,0.08455631448453953
338,2833.39,0.08366178877899993
339,2846.46,0.07896608151344736
340,2853.0299999999997,0.07407228338378553
341,2866.2,0.0827057992699885
342,2872.7999999999997,0.08798903128585334
343,2884.0315,0.08550844721257551
344,2886.06,0.08508518008656195
345,2892.72,0.08920489838114826
346,2912.77,0.09678320022896436
347,2932.96,0.09202775600489493
348,2953.29,0.08947893570893992
349,2966.92,0.09059677028179447
350,2987.48,0.09035215429631316
351,3008.19,0.09016794894809729
352,3029.04,0.09128116752799587
353,3050.04,0.0919399467451599
354,3071.18,0.09397572989043836
355,3092.47,0.09274817367298227
356,3106.75,0.09732044434065379
357,3128.2799999999997,0.09405199914282246
358,3149.96,0.09324962458225655
359,3171.8,0.09615862736810714
360,3186.44,0.09032808956521578
361,3208.53,0.09353394007984213
362,3230.77,0.08671344123173394
363,3253.16,0.09873196302089121
364,3268.18,0.10563653016573901
365,3290.83,0.10382196639282305
366,3311.31121,0.10065864177850983
367,3313.64,0.10031888227140076
368,3321.2799999999997,0.09787985664419274
369,3328.94,0.10271988553104962
370,3336.6099999999997,0.10266927667493894
371,3344.3,0.09924286233289317
372,3352.01,0.09554622250491229
373,3359.74,0.10354273719099635
374,3367.4900000000002,0.10100646639114527
375,3375.25,0.08741630784832666
376,3383.03,0.09057421381957292
377,3390.8300000000004,0.1018493843048841
378,3398.64,0.09968773704722775
379,3406.48,0.10106399656066872
380,3414.33,0.09989868833114217
381,3422.2000000000003,0.10580032461568051
382,3430.09,0.10101280541428373
383,3438.0,0.10222125072695187
384,3445.92,0.08246206829665245
385,3453.87,0.1030579726374504
386,3461.8300000000004,0.09292334923528078
387,3469.81,0.09646327034717607
388,3477.81,0.09024779597313626
389,3485.82,0.0957076438561289
390,3493.8599999999997,0.09045677851021888
391,3501.92,0.09651815767837377
392,3509.9900000000002,0.1013842791035611
393,3518.08,0.09501879504281335
394,3526.19,0.08995428549613049
395,3534.32,0.09993176046351251
396,3542.47,0.10720028994495948
397,3550.63,0.10493879168343886
398,3558.8199999999997,0.1004597801930156
399,3567.02,0.10208536095962481
400,3575.2400000000002,0.0899406062402989
401,3583.49,0.08214855829207035
402,3591.75,0.08371227260087422
403,3600.03,0.10439649142374302
404,3608.33,0.09403787476067671
405,3616.64,0.09759763035464286
406,3624.98,0.09685295271970637
407,3633.3399999999997,0.09816308959883477
408,3641.71,0.1083474987349956
409,3650.1099999999997,0.09722735464225381
410,3658.52,0.11355272280654445
411,3666.96,0.11291439774193243
412,3675.41,0.11458006493435291
413,3683.88,0.10119720664083823
414,3692.37,0.1046527128613885
415,3700.89,0.11172803585303609
416,3709.42,0.09157027110171614
417,3717.97,0.11767913086446109
418,3726.54,0.09490984514127093
419,3735.1299999999997,0.09788421393214569
420,3743.74,0.10328366723708535
421,3752.37,0.0792751850560899
422,3761.02,0.09745212738915934
423,3769.69,0.09525135423629369
424,3778.38,0.10783843559749295
425,3787.09,0.11651564147275711
426,3795.8199999999997,0.09867606186208618
427,3801.8939600000003,0.09960372208707127
428,3804.5699999999997,0.10002855034777962
429,3813.34,0.10832919046147865
430,3822.13,0.09254065559254075
431,3830.94,0.07997374574096588
432,3839.77,0.07893087090675409
433,3848.62,0.09845859108990535
434,3857.5,0.09719276879910119
435,3866.3900000000003,0.09895007901697853
436,3875.2999999999997,0.08795817425221895
437,3884.24,0.09283859701350394
438,3884.89,0.09876444007780319
439,3886.6600000000003,0.08369863411443344
440,3888.43,0.0895102381510637
441,3890.19,0.09957527967901242
442,3891.96,0.10779658371564267
443,3893.7300000000005,0.10802152775227292
444,3895.5,0.10653810178890316
445,3897.27,0.10991893582553341
446,3899.0399999999995,0.12238256986216367
447,3900.81,0.11499008389879392
448,3902.58,0.09758863793542417
449,3904.35,0.09563145197205442
450,3906.1200000000003,0.09675602600868467
451,3907.89,0.11226449004531491
452,3909.66,0.11637765408194517
453,3911.4300000000003,0.11483074811857542
454,3913.2,0.11204561215520567
455,3914.97,0.10680884619183593
456,3916.7400000000002,0.10131021022846617
457,3918.51,0.10324123426509642
458,3920.2799999999997,0.10746846830172668
459,3922.05,0.10611728233835693
460,3923.81,0.09883602386630566
461,3925.5800000000004,0.0903669379029359
462,3927.35,0.08960294193956615
463,3929.12,0.0806628059761964
464,3930.8900000000003,0.06974438001282665
465,3932.66,0.06560999404945692
466,3934.43,0.07069459808608716
467,3936.2000000000003,0.07629194212271741
468,3937.9700000000003,0.07965138615934766
469,3939.74,0.08397910019597792
470,3941.5099999999998,0.09541148423260817
471,3943.28,0.1000061082692384
472,3945.0499999999997,0.10165706230586866
473,3946.8199999999997,0.10048837634249892
474,3948.59,0.10201207037912915
475,3950.36,0.10509664441575942
476,3952.1299999999997,0.10160296845238967
477,3953.9,0.10304995248901991
478,3955.67,0.09843475652565017
479,3957.44,0.10547867056228043
480,3959.2,0.10049098209022914
481,3960.97,0.0906544061268594
482,3962.7400000000002,0.08938495016348963
483,3964.5099999999998,0.0831747542001199
484,3966.2799999999997,0.07466862823675016
485,3968.05,0.0705161122733804
486,3969.82,0.07179671631001064
487,3971.5899999999997,0.0720351603466409
488,3973.36,0.08695881438327115
489,3975.13,0.09386284841990139
490,3976.9,0.10477418245653165
491,3978.67,0.11577510649316189
492,3980.44,0.11158049052979213
493,3982.21,0.11230269456642239
494,3983.9799999999996,0.12144181860305267
495,3985.75,0.1247803526396829
496,3987.52,0.12240778667631315
497,3989.29,0.1239503207129434
498,3991.06,0.13170875474957366
499,3992.82,0.12558341627752237
500,3994.59,0.11901620031415262
501,3996.36,0.1295704843507829
502,3998.1299999999997,0.13416237838741313
503,3999.9,0.13090679242404338
504,4001.67,0.13729463646067364
505,4003.4399999999996,0.1314680504973039
506,4005.21,0.13131777453393412
507,4006.98,0.1263292185705644
508,4008.75,0.12709147260719464
509,4010.52,0.1320567366438249
510,4012.29,0.13384746068045514
511,4014.06,0.1342526547170854
512,4015.8300000000004,0.14282316875371565
513,4017.6,0.1442646627903459
514,4019.37,0.13600203682697615
515,4021.1400000000003,0.13403149086360638
516,4022.9100000000003,0.13428590490023662
517,4024.68,0.1327390389368669
518,4026.44,0.13212865046481562
519,4028.21,0.13654111450144585
520,4029.98,0.1331982285380761
521,4031.75,0.12305445257470636
522,4033.52,0.1300828766113366
523,4035.2900000000004,0.13652937064796686
524,4037.06,0.13650294468459712
525,4038.83,0.14006897872122737
526,4040.6,0.13175601275785762
527,4042.3700000000003,0.13184068679448788
528,4044.14,0.12731019083111814
529,4045.91,0.11727491486774837
530,4047.6800000000003,0.1275990189043786
531,4049.45,0.1371799329410089
532,4051.22,0.13255903697763913
533,4052.9900000000002,0.12273842101426936
534,4054.76,0.12757935505089962
535,4056.5299999999997,0.13105498908752988
536,4058.3,0.13152364312416012
537,4060.07,0.13342063716079036
538,4061.8300000000004,0.1255045986887391
539,4063.6,0.12177816272536936
540,4065.37,0.1250849767619996
541,4067.1400000000003,0.12852363079862983
542,4068.91,0.1306666048352601
543,4070.68,0.12786816887189034
544,4072.4500000000003,0.1260726429085206
545,4074.2200000000003,0.12609691694515085
546,4075.99,0.12764963098178111
547,4077.76,0.12978995501841134
548,4079.53,0.12495525905504161
549,4081.2999999999997,0.13158381309167186
550,4083.0699999999997,0.1413445371283021
551,4084.84,0.14408533116493236
552,4086.61,0.1390306652015626
553,4088.3799999999997,0.13950726923819287
554,4090.15,0.14061021327482312
555,4091.92,0.13973260731145337
556,4093.69,0.13722027134808362
557,4095.45,0.12780979287603234
558,4097.219999999999,0.1257576969126626
559,4098.99,0.12430337094929284
560,4100.76,0.1256841749859231
561,4102.53,0.12576398902255334
562,4104.3,0.12552641305918358
563,4106.07,0.13223699709581385
564,4107.84,0.12800802113244408
565,4109.610000000001,0.13062976516907432
566,4111.38,0.13462912920570458
567,4113.15,0.13188931324233485
568,4114.92,0.1353199872789651
569,4116.6900000000005,0.14062907131559535
570,4118.46,0.1377385653522256
571,4120.23,0.13328164938885587
572,4122.0,0.1358372534254861
573,4123.7699999999995,0.14360104746211635
574,4125.54,0.1388425514987466
575,4127.31,0.13243936553537683
576,4129.08,0.12821039957200708
577,4130.84,0.12577493109995583
578,4132.61,0.13035400513658607
579,4134.38,0.12606904917321632
580,4136.150000000001,0.13095494320984657
581,4137.92,0.13394966724647683
582,4139.69,0.13489396128310707
583,4141.46,0.12816276531973733
584,4143.23,0.1245738893563676
585,4145.0,0.13288737339299783
586,4146.77,0.13211813742962808
587,4148.54,0.1327745814662583
588,4150.3099999999995,0.1282224655028886
589,4152.08,0.12881279953951882
