,lambda (Angstroms),Total Flux (erg/s/cm^2/Angstrom)
0,100.09,0.007692247258071202
1,101.94999999999999,0.009243036155472156
2,104.09,0.011024737316352845
3,104.712855,0.011543991088032802
4,106.02000000000001,0.010642109028641393
5,107.99,0.009284657452917391
6,110.0,0.007910520123320804
7,114.13,0.005068048488478075
8,117.87,0.0024961967763928827
9,120.22644299999999,0.0010406649580283769
10,120.89000000000001,0.001069386422300726
11,125.14000000000001,0.0009950876455534223
12,126.88,0.0009656394444851151
13,128.06,0.0009466413885882163
14,131.04,0.0008881682660689309
15,131.95,0.0009298056051653907
16,134.09,0.0008884322004032185
17,136.9,0.0009179833969538248
18,138.038426,0.0008998656676508845
19,140.09,0.0009306812995556633
20,143.02,0.0018764827046479496
21,147.03,0.0036791591471121367
22,151.15,0.003890438008197536
23,155.02,0.00415296000878018
24,158.489319,0.004414549641859803
25,159.0,0.004452745143719329
26,161.95999999999998,0.004659795308014086
27,166.11,0.004997148697143558
28,169.98,0.005277676327488392
29,173.14,0.0055138944623436045
30,177.17,0.005800018669136804
31,180.05,0.006020657045207377
32,181.970086,0.0061689226799102196
33,182.14000000000001,0.006182433961219392
34,185.95000000000002,0.00648558148148935
35,191.16,0.006880541972462179
36,193.82,0.007151472516797634
37,197.88,0.007451420031835962
38,202.02,0.007798824345200168
39,204.83,0.008051346886396646
40,208.929613,0.008110595249427647
41,210.09,0.008130661642069494
42,215.97000000000003,0.008941824403930723
43,219.99,0.009326840975815442
44,223.04999999999998,0.009486217933518738
45,227.19,0.009894496582176135
46,229.83,0.014780644271175054
47,234.1,0.02451784500300285
48,239.88329199999998,0.030469058586212974
49,240.1,0.030690714829189267
50,246.26,0.02896863875060007
51,252.0,0.030514689222823778
52,257.27,0.02505688631143335
53,260.25,0.02933066840328468
54,263.87,0.030763977655802067
55,268.78,0.03046980321653698
56,273.78,0.03017553665924056
57,275.42287,0.030038004014950635
58,278.87,0.029769394111316006
59,284.05,0.02971845640456769
60,290.0,0.0281465416062757
61,296.07,0.028229575702808075
62,300.88,0.027230491403684637
63,307.89,0.027375786843007857
64,316.227766,0.02750437112089264
65,317.98,0.027522314782503256
66,327.64,0.02694210289422879
67,338.37,0.02613189698727382
68,347.85,0.02523196941989888
69,356.78000000000003,0.02475332672193915
70,363.078055,0.02462348034442694
71,365.93,0.024575805806112436
72,375.32000000000005,0.02387139016710969
73,384.94,0.02235920776591625
74,394.82000000000005,0.022579889894420283
75,404.95000000000005,0.022290449455325736
76,414.38000000000005,0.021656382205507214
77,416.86938299999997,0.02141038102762867
78,422.08000000000004,0.020891903522154833
79,429.93,0.020290836193640072
80,440.96000000000004,0.019891970966440353
81,451.23,0.019192926117542704
82,459.62,0.018517832730760686
83,470.32,0.01795105898361318
84,478.630092,0.01765432905851174
85,480.16999999999996,0.017595692448017623
86,490.22999999999996,0.016765691738303834
87,500.49,0.016526742028396938
88,506.29,0.016039811022796543
89,512.15,0.016623489317138217
90,520.47,0.01613020890910455
91,530.15,0.015437129299757685
92,540.0,0.014542081040246676
93,549.5408739999999,0.014007370349994192
94,550.04,0.013979850054450588
95,560.27,0.014070571694721909
96,569.37,0.01393967801206981
97,579.96,0.013377522056104341
98,589.38,0.013103668287908432
99,600.3399999999999,0.012349100358032935
100,610.09,0.01085036212661997
101,620.01,0.012035959474761855
102,630.0799999999999,0.011524871157805082
103,630.957344,0.011517825611050867
104,640.32,0.011452261841342057
105,650.72,0.011050978717796065
106,658.26,0.01063898795322522
107,664.3499999999999,0.01069022156645646
108,675.1500000000001,0.01050508447662024
109,684.54,0.009868363367957078
110,695.6600000000001,0.00994166410508867
111,705.34,0.009278061120865095
112,716.8,0.00947417148664999
113,724.43596,0.009317707173940242
114,726.7700000000001,0.009269287976156408
115,735.19,0.009086867903351415
116,745.41,0.008770510161775758
117,755.7800000000001,0.00854190578113588
118,764.53,0.007711444502389599
119,775.1700000000001,0.008138967771434122
120,784.15,0.007735462712789366
121,795.06,0.007704675631518288
122,804.26,0.007605810435579341
123,815.45,0.007442197361388382
124,824.8900000000001,0.0072986287429466805
125,831.763771,0.006845371788663117
126,834.44,0.006666043733205386
127,844.11,0.006929529990405289
128,855.8499999999999,0.006724252156850672
129,865.76,0.006628275751354399
130,875.7800000000001,0.006504954833789044
131,885.9300000000001,0.006340765765596595
132,894.12,0.006209794276089584
133,904.48,0.00603890150303798
134,914.95,0.006461897217917296
135,925.54,0.010129856101448525
136,934.1099999999999,0.013897011479339232
137,944.9200000000001,0.017237699338732298
138,954.992586,0.019102871262304068
139,955.87,0.019265885426059705
140,964.71,0.020441942747405805
141,975.88,0.011290810516572769
142,984.91,0.01778540585726907
143,994.0200000000001,0.017186721942954928
144,1005.5400000000001,0.019884999221451205
145,1014.84,0.019793713326487262
146,1024.23,0.012930617019636576
147,1036.0900000000001,0.01741850496433847
148,1045.6799999999998,0.022386815519961675
149,1055.3500000000001,0.021681666820574437
150,1065.12,0.018948356552424144
151,1074.97,0.02033626702926341
152,1084.92,0.01705904593733962
153,1094.96,0.02047338443352909
154,1096.4782,0.020342979309105433
155,1105.09,0.019601150624484864
156,1115.31,0.019068220153190377
157,1125.6299999999999,0.017242763473761892
158,1136.05,0.01954550058619941
159,1143.9199999999998,0.018542581006053847
160,1154.51,0.01862326656466357
161,1165.19,0.018408189535952694
162,1175.97,0.013995396299107824
163,1184.1200000000001,0.01753925533618707
164,1195.08,0.015116506924701005
165,1206.14,0.013000232305080942
166,1214.5,0.009602536305078796
167,1225.74,0.014563345510817538
168,1234.23,0.016969061440241195
169,1245.6499999999999,0.017397166471338744
170,1254.2900000000002,0.01688449808856141
171,1258.92541,0.016537074051700754
172,1265.89,0.01601777906339075
173,1274.67,0.017592595188859226
174,1286.46,0.017755068835701292
175,1295.3799999999999,0.015408118566815052
176,1304.36,0.015373089843205361
177,1316.43,0.01715653070133799
178,1325.55,0.016465045583373587
179,1334.74,0.015268952268231821
180,1343.99,0.016541150498366602
181,1356.43,0.01609361088570463
182,1365.8300000000002,0.014958842979030789
183,1375.3000000000002,0.01499349687517959
184,1384.83,0.014891172316604941
185,1394.43,0.012320929560852931
186,1404.1000000000001,0.012236988607923566
187,1413.8300000000002,0.01387407920027075
188,1423.6299999999999,0.013622871595440577
189,1433.5,0.013811235793433043
190,1443.43,0.01400204153670206
191,1445.43977,0.014002093297542923
192,1446.76,0.014002121835078953
193,1453.44,0.013592546227147517
194,1463.5200000000002,0.012868424112185107
195,1473.66,0.012839363294157446
196,1483.87,0.01286899398922032
197,1494.1599999999999,0.01272320641352953
198,1504.52,0.012155850350929275
199,1511.46,0.01122425036304841
200,1518.44,0.01158829123979071
201,1525.4499999999998,0.011430982765000383
202,1536.02,0.010177491241671747
203,1546.67,0.009881346447589439
204,1553.81,0.0096373537828244
205,1564.5800000000002,0.010155188582611588
206,1575.4199999999998,0.010604042895489316
207,1586.34,0.010799388937613372
208,1593.67,0.010848967379808365
209,1604.71,0.010556886015801917
210,1615.8400000000001,0.01043723659719759
211,1623.29,0.010110343633262079
212,1634.55,0.010485451024683038
213,1645.88,0.010485715929194537
214,1653.47,0.010065181991440105
215,1659.58691,0.010302559580489597
216,1664.93,0.010510635642938786
217,1672.62,0.009663322544254152
218,1676.48,0.011052088862729745
219,1684.2099999999998,0.011129539078226206
220,1695.8899999999999,0.01051545281910572
221,1703.72,0.010303688820054918
222,1715.5300000000002,0.01016611308202299
223,1723.44,0.010167391711334375
224,1735.39,0.010812858072936277
225,1743.3999999999999,0.010547132487700396
226,1755.49,0.011242500948936128
227,1763.59,0.010289839570607712
228,1775.81,0.010600148552931999
229,1784.01,0.010795972960056317
230,1796.3799999999999,0.01182582562055971
231,1804.6699999999998,0.011456804234591488
232,1813.0,0.010924099162804363
233,1825.56,0.011025911815667953
234,1833.99,0.010657582529333562
235,1846.7,0.009538325860376255
236,1855.23,0.010211065359494599
237,1863.79,0.011056766594248766
238,1876.71,0.011235886074742202
239,1885.3700000000001,0.010787553094949106
240,1894.08,0.011111818007882374
241,1902.8200000000002,0.011240047656451464
242,1905.46072,0.011235389278462278
243,1916.01,0.01121296797820816
244,1924.85,0.010425649248228395
245,1933.74,0.009098983344436528
246,1947.1399999999999,0.011861603762792994
247,1956.13,0.01159324451137692
248,1965.1599999999999,0.013017177120911166
249,1974.2299999999998,0.01260732159139573
250,1983.3400000000001,0.01295460792283061
251,1997.09,0.012892900124502357
252,2006.31,0.012543514073550612
253,2015.57,0.012570189883549184
254,2024.87,0.011738287554498074
255,2034.22,0.013062485051634863
256,2043.61,0.014081494409721968
257,2053.04,0.013238525628759391
258,2067.27,0.01293760016183495
259,2072.04,0.014665739580160351
260,2076.81,0.02047497899848575
261,2086.4,0.023434097661324444
262,2096.03,0.021776148185113454
263,2105.7000000000003,0.02079983056985279
264,2115.42,0.022740552780780014
265,2125.19,0.020938834817895137
266,2135.0,0.01941330871596058
267,2144.85,0.023746434474976343
268,2154.75,0.023744430060179997
269,2164.7,0.021075185471571552
270,2174.69,0.021267372743913427
271,2184.73,0.025486769842443194
272,2187.7616199999998,0.025556929878072062
273,2194.81,0.025722626439089038
274,2204.94,0.024854519829856224
275,2215.12,0.01999352133212769
276,2225.34,0.02242154932360258
277,2235.62,0.028921127048882608
278,2245.94,0.027436661263366056
279,2256.3,0.021619701967052932
280,2266.7200000000003,0.020464992404544944
281,2277.18,0.022481459331240378
282,2282.43,0.02899518103918981
283,2292.96,0.024302079321991236
284,2303.55,0.028988617338597797
285,2314.1800000000003,0.025029931844407785
286,2324.86,0.019768854461722055
287,2335.5899999999997,0.018371265190540605
288,2346.3700000000003,0.013281904030863434
289,2357.2000000000003,0.02324802098269054
290,2362.64,0.014482523514356237
291,2373.54,0.018321841822289336
292,2384.5,0.011741129864027578
293,2395.5099999999998,0.014347216017270096
294,2406.56,0.014345778659716037
295,2417.67,0.016524061035967118
296,2423.25,0.026955406279844794
297,2434.43,0.027075050012201868
298,2445.67,0.03207323347836408
299,2456.95,0.033881623433729705
300,2462.62,0.02945858327831509
301,2473.9900000000002,0.026027377834388427
302,2485.4100000000003,0.017323850501966043
303,2496.88,0.02018555128104794
304,2502.63,0.030892774104040174
305,2511.88643,0.017977568293862545
306,2514.19,0.014762951140497768
307,2519.98,0.011891367601947702
308,2525.79,0.01305141280765135
309,2537.45,0.02026237070756607
310,2543.3,0.021549703401777143
311,2555.04,0.03828020627870672
312,2566.83,0.028539926016270575
313,2572.7499999999995,0.036549684315369646
314,2584.6200000000003,0.03243443902994835
315,2596.55,0.0291154499772882
316,2602.54,0.025200583881275267
317,2614.5499999999997,0.022677079805629965
318,2626.62,0.031237761962745806
319,2632.68,0.05379885147162087
320,2644.8300000000004,0.07283607860575156
321,2657.04,0.10138478197264339
322,2663.16,0.06386834771427959
323,2675.45,0.07295769605818626
324,2687.8,0.08449578063485409
325,2693.9999999999995,0.06124104135350515
326,2706.4300000000003,0.07616116090718783
327,2712.6699999999996,0.054828699114346305
328,2725.19,0.04366892301717069
329,2737.77,0.05568577315275621
330,2744.08,0.031015396964802683
331,2756.75,0.042452531449529915
332,2763.1,0.055913072750083816
333,2775.86,0.060025491583952754
334,2782.2599999999998,0.03572326974514094
335,2795.1,0.015702973556024732
336,2808.0,0.019149593599669664
337,2814.4700000000003,0.05297810736574585
338,2827.4700000000003,0.07791549113065933
339,2833.98,0.07338917238524295
340,2847.06,0.05318883112717129
341,2853.6299999999997,0.03129742861451604
342,2866.7999999999997,0.0736729617055861
343,2873.4100000000003,0.10001365668143826
344,2884.0315,0.0924502735212731
345,2886.67,0.0905716063956211
346,2893.33,0.11112681783781057
347,2906.68,0.1512027006836408
348,2926.8300000000004,0.13135467479176657
349,2947.12,0.12114444871999844
350,2967.54,0.12709032248118596
351,2988.11,0.12939709604962998
352,3008.83,0.12993956942533053
353,3029.6800000000003,0.1388416426339867
354,3050.68,0.14531891564989943
355,3071.83,0.15853068847306867
356,3093.12,0.154858861116344
357,3107.4,0.17978474276716466
358,3128.94,0.16580451508920083
359,3150.6299999999997,0.16611108721849355
360,3172.47,0.18330505915504275
361,3187.11,0.15816214034327905
362,3209.2,0.17574031195858916
363,3231.4500000000003,0.14782048336830617
364,3246.3599999999997,0.20820746420960423
365,3268.87,0.24392393528523257
366,3291.5299999999997,0.23881590616811743
367,3306.7200000000003,0.22384338664962763
368,3311.31121,0.21991269122417242
369,3321.98,0.21077851868816216
370,3329.64,0.23644543053237174
371,3337.3199999999997,0.21911934188531296
372,3345.0099999999998,0.22367075299262
373,3352.7200000000003,0.20349886360865865
374,3360.45,0.2314512737334289
375,3368.2000000000003,0.2287678833669308
376,3375.96,0.1800521927547985
377,3383.7400000000002,0.1833685016513978
378,3391.54,0.2323750100567287
379,3399.36,0.23994251797079127
380,3407.2000000000003,0.2307017253935854
381,3415.05,0.2197843325707454
382,3422.92,0.258752439256637
383,3430.82,0.24034264520562598
384,3438.7200000000003,0.245335451154615
385,3446.65,0.16210865636670146
386,3454.6,0.23967516108751952
387,3462.56,0.19615646556270339
388,3470.54,0.2256787695466189
389,3478.54,0.17762117303926597
390,3486.5600000000004,0.21645417604064468
391,3494.6,0.19378377855075504
392,3502.65,0.24842188081523117
393,3510.73,0.24780708234280477
394,3518.8199999999997,0.21680858362474414
395,3526.93,0.19680128441541514
396,3535.06,0.2454149847148178
397,3543.21,0.27657288452295203
398,3551.38,0.26961338383981787
399,3559.57,0.25274478266541534
400,3567.77,0.2315406812453786
401,3575.9999999999995,0.19933877908843933
402,3584.2400000000002,0.15332237668586585
403,3592.5,0.192956673792024
404,3600.79,0.28008697016127954
405,3609.0899999999997,0.2224693662849009
406,3610.5,0.23065963165047998
407,3613.23,0.2166512645923458
408,3615.9599999999996,0.2214520975342116
409,3618.7000000000003,0.24470513023044324
410,3621.43,0.22406856317230908
411,3624.17,0.25465719586854074
412,3626.9,0.24930512881040653
413,3629.6299999999997,0.25233546175227234
414,3632.37,0.26067599444850403
415,3635.1,0.2762717273903698
416,3637.8300000000004,0.27157806033223564
417,3640.57,0.26996189302846724
418,3643.2999999999997,0.2487979259703331
419,3646.03,0.28034475891219895
420,3648.77,0.28865649160843054
421,3651.4999999999995,0.2989285245502964
422,3654.23,0.3028258574921622
423,3656.97,0.32356799018839383
424,3659.7000000000003,0.32898642313025966
425,3662.44,0.3302323558264913
426,3665.1699999999996,0.32713758876835713
427,3667.9,0.31350152171022294
428,3670.64,0.31204055440645456
429,3673.3700000000003,0.30775168734832037
430,3676.1,0.2821348202901862
431,3678.8399999999997,0.27785265298641787
432,3681.57,0.26627728592828365
433,3684.2999999999997,0.2755597188701495
434,3687.04,0.2918245515663811
435,3689.77,0.30784568450824695
436,3692.5,0.3162081174501128
437,3695.2400000000002,0.32629035014634444
438,3697.97,0.30743668308821026
439,3700.71,0.29471881578444187
440,3703.44,0.2753335487263077
441,3706.1699999999996,0.2878258816681735
442,3708.9100000000003,0.29980541436440517
443,3711.64,0.294886947306271
444,3714.3700000000003,0.30312668024813677
445,3717.11,0.27688671294436845
446,3719.8399999999997,0.27413944588623423
447,3722.57,0.2704515788281001
448,3725.31,0.2602405115243317
449,3728.0400000000004,0.25306884446619754
450,3730.77,0.2469439774080634
451,3733.5099999999998,0.227516410104295
452,3736.2400000000002,0.23673744304616084
453,3738.97,0.25474567598802667
454,3741.7099999999996,0.2352690086842583
455,3744.44,0.2323211416261241
456,3747.18,0.24555627432235574
457,3749.9100000000003,0.2695466072642216
458,3752.64,0.27514084020608737
459,3755.3799999999997,0.30307147290231906
460,3758.11,0.3039102058441849
461,3760.8399999999997,0.28769383878605065
462,3763.5800000000004,0.28150207148228235
463,3766.31,0.3056316044241481
464,3769.04,0.30139183736601394
465,3771.78,0.3282224700622456
466,3774.5099999999998,0.3269187030041114
467,3777.2400000000002,0.34117343594597727
468,3779.98,0.36018176864220885
469,3782.71,0.32907760158407473
470,3785.4500000000003,0.3150308342803063
471,3788.18,0.31387416722217215
472,3790.9100000000003,0.286854800164038
473,3793.65,0.2680650328602696
474,3796.3799999999997,0.28399606580213543
475,3799.11,0.30196749874400125
476,3801.85,0.2923123314402329
477,3801.8939600000003,0.2926596610578642
478,3804.5800000000004,0.31388217812946867
479,3807.31,0.31733382504369534
480,3810.0499999999997,0.29455307176346857
481,3812.78,0.26310121867769515
482,3815.5099999999998,0.2530345655919218
483,3818.2500000000005,0.22980021231169503
484,3820.98,0.21972945922592163
485,3823.72,0.2045055059456949
486,3826.4500000000003,0.2079936528599215
487,3829.18,0.19349859977414813
488,3831.9199999999996,0.17736284649392137
489,3834.65,0.19800019340814798
490,3837.38,0.2230618403223746
491,3840.1200000000003,0.24562388704214785
492,3842.85,0.2468468339563745
493,3845.58,0.2737936808706011
494,3848.32,0.27978712759037433
495,3851.0499999999997,0.25006487450460096
496,3853.78,0.25530732141882756
497,3856.52,0.2485677681386008
498,3859.25,0.26790901505282744
499,3861.9900000000002,0.26927796177260066
500,3864.72,0.2744795086868273
501,3867.4500000000003,0.27116385560105394
502,3870.19,0.2735835023208271
503,3872.92,0.27459804923505376
504,3875.65,0.27940299614928044
505,3878.39,0.25779194286905366
506,3881.1200000000003,0.26837048978328026
507,3883.85,0.28524613669750687
508,3886.5899999999997,0.2926910834172801
509,3889.32,0.31639943033150675
510,3892.05,0.31826457724573337
511,3894.7900000000004,0.33773102396550664
512,3897.52,0.3324772708797332
513,3900.2599999999998,0.33280321759950643
514,3902.9900000000002,0.34456366451373305
515,3905.72,0.3563486114279597
516,3908.4600000000005,0.3576885581477329
517,3911.19,0.3609890050619596
518,3913.92,0.3425687519761862
519,3916.6600000000003,0.3276796986959594
520,3919.39,0.30579604561018603
521,3922.12,0.26329159252441264
522,3924.86,0.2302641392441859
523,3927.59,0.18149948615841255
524,3930.3199999999997,0.16985843307263915
525,3933.06,0.1717346797924124
526,3935.79,0.20714542670663902
527,3938.53,0.24865987342641224
528,3941.2599999999998,0.28743592034063886
529,3943.99,0.3081961672548655
530,3946.73,0.34181451397463875
531,3949.46,0.35103566088886534
532,3952.19,0.351498307803092
533,3954.93,0.3228743545228652
534,3957.66,0.28181760143709184
535,3960.39,0.23102894835131846
536,3963.13,0.2061630950710917
537,3965.86,0.20006674198531832
538,3968.59,0.22321478889954496
539,3971.33,0.27676713561931815
540,3974.06,0.3410093825335448
541,3976.7999999999997,0.38248252925331805
542,3979.53,0.40744627616754464
543,3982.26,0.43751322308177126
544,3985.0,0.4425820698015445
545,3987.73,0.44789851671577113
546,3990.46,0.4698161636299978
547,3993.2000000000003,0.46511231034977096
548,3995.93,0.47459945726399766
549,3998.66,0.47594960417822424
550,4001.4,0.5021583508979974
551,4004.13,0.48388149781222406
552,4006.8599999999997,0.5030185447264507
553,4009.6,0.5076783914462241
554,4012.33,0.5152437383604506
555,4015.07,0.5174909850802238
556,4017.8,0.5143024319944505
557,4020.5299999999997,0.5152437789086771
558,4023.27,0.49827292562845027
559,4026.0,0.49389857254267694
560,4028.73,0.4788111194569036
561,4031.47,0.4843704661766768
562,4034.2,0.5055930130909034
563,4036.9300000000003,0.50326316000513
564,4039.67,0.4884186067249033
565,4042.4,0.4689968536391299
566,4045.13,0.4723506005533565
