,lambda (Angstroms),Total Flux (erg/s/cm^2/Angstrom)
0,101.99,10.03570047365312
1,103.89,10.007118621295833
2,104.712855,9.994741963757296
3,106.07000000000001,9.887447257290225
4,108.03999999999999,9.731712306822136
5,110.05,9.572854481891751
6,113.91,9.267731240880167
7,117.92,8.950751212434971
8,120.22644299999999,8.76921410427352
9,120.94000000000001,8.722168986245096
10,124.89999999999999,8.459954078368856
11,126.92999999999999,8.325498405003005
12,128.10999999999999,8.247365793908571
13,131.09,8.049981368415844
14,132.0,7.990021125631153
15,134.14000000000001,7.848264649324294
16,136.95000000000002,7.662605254285851
17,138.038426,7.590528877189463
18,140.14000000000001,7.491097153849203
19,143.07999999999998,7.357331026742809
20,147.09,7.179019179284766
21,150.86,7.001410009447653
22,155.09,6.802371605253761
23,158.489319,6.642623221539756
24,159.06,6.622402182428462
25,162.02,6.517412177675523
26,166.18,6.370228868833555
27,170.04999999999998,6.232895977146438
28,172.81,6.135249889741668
29,176.83999999999997,5.992303736176013
30,180.12,5.875838677665999
31,181.79000000000002,5.816774426808766
32,181.970086,5.810382955516794
33,186.03,5.700775282603989
34,190.8,5.572139292598286
35,193.9,5.488787145697306
36,197.96,5.379160031562474
37,202.1,5.267585000991487
38,204.91,5.191835673671565
39,208.929613,5.0819049813496076
40,210.17000000000002,5.056395665056118
41,216.06,4.939299390951247
42,220.07999999999998,4.858302935806665
43,223.14000000000001,4.795869311144371
44,226.76000000000002,4.723280232034076
45,229.92,4.683804303363212
46,234.19,4.6458476581972015
47,239.88329199999998,4.559814709608289
48,240.2,4.5565216026008954
49,245.79,4.456491986445741
50,252.1,4.364876673218723
51,256.79,4.262033653403395
52,259.76,4.237324915481962
53,263.98,4.17818992153299
54,268.89,4.099026047056817
55,273.89,4.0177302229466605
56,275.42287,3.992520090688668
57,278.98,3.947115902215245
58,284.17,3.8837096582159685
59,290.12,3.8030874459239272
60,296.19,3.7286855175856597
61,301.0,3.6648781577327654
62,308.02,3.580181519028542
63,316.227766,3.480439700584818
64,318.11,3.4633555458698178
65,327.77,3.3726186185225515
66,337.72999999999996,3.2774464300775445
67,347.98999999999995,3.1797270805347964
68,356.92,3.0972749818586998
69,363.078055,3.042511637053909
70,366.08000000000004,3.0226571568172202
71,374.6,2.9611337417608206
72,385.1,2.8805261401068063
73,394.97999999999996,2.817496449407601
74,405.10999999999996,2.749435380097586
75,413.59,2.6886669496189155
76,416.86938299999997,2.6644719530213874
77,422.25,2.633417741809414
78,430.1,2.58928445032052
79,441.14,2.531742127258432
80,451.41,2.475395542851942
81,459.8,2.426903923604576
82,470.51000000000005,2.368716631394887
83,478.630092,2.32656450285824
84,480.37000000000006,2.3196178940496694
85,490.43,2.2732805111276244
86,499.53999999999996,2.238928616523267
87,506.49,2.206626940935969
88,512.36,2.192979809857201
89,519.48,2.161597843097265
90,530.36,2.1134861280483728
91,540.22,2.0663773100353144
92,549.5408739999999,2.0263824026945114
93,550.27,2.0239440881740083
94,560.5,1.9976132831145381
95,569.6,1.9717652071378833
96,580.19,1.9363721621936225
97,589.62,1.9065721679892433
98,600.58,1.8663630692745028
99,610.34,1.8280709468423988
100,620.26,1.808748492239276
101,630.34,1.7742791254651356
102,630.957344,1.7724964108904788
103,640.58,1.7507825687940535
104,649.4900000000001,1.7263932521681769
105,658.53,1.7007537088911933
106,664.6199999999999,1.6887741303893318
107,675.4200000000001,1.6627014562973592
108,684.81,1.6337180212673954
109,694.3399999999999,1.613862257536239
110,705.62,1.5792916750401793
111,715.4399999999999,1.5611788918565537
112,724.43596,1.5386920931258532
113,725.3900000000001,1.5369008862947766
114,735.48,1.51784105890234
115,745.71,1.4971957750247753
116,754.35,1.4802586847997352
117,764.8399999999999,1.4550839988783615
118,775.48,1.4402256060086362
119,784.46,1.420386670034
120,795.38,1.4019969041940188
121,804.59,1.3853716175652435
122,815.78,1.36461102921823
123,825.23,1.3470921814720924
124,831.763771,1.3305245206659522
125,834.78,1.3242412351630255
126,844.45,1.3160121927293045
127,854.23,1.3016036843009908
128,864.12,1.2884634698780848
129,874.12,1.2744274094605865
130,884.25,1.2601196328676603
131,894.48,1.2456905953705595
132,904.8399999999999,1.230495431698031
133,915.32,1.2160597669404924
134,925.92,1.236547731097944
135,934.49,1.2599194986101478
136,945.3100000000001,1.2752178107784145
137,954.0500000000001,1.2812439017535207
138,954.992586,1.2808233228734505
139,965.1,1.2766058797010735
140,974.0300000000001,1.1766893689447409
141,985.31,1.2186389679893734
142,994.4300000000001,1.2013696280680122
143,1005.94,1.212106514965505
144,1015.25,1.2017446658791158
145,1024.64,1.139384670828504
146,1034.1200000000001,1.1569178240681417
147,1046.1,1.1838632409258278
148,1055.78,1.1641415792549097
149,1065.55,1.1257854658742412
150,1075.41,1.1247625007838222
151,1085.36,1.0881491839836532
152,1095.4,1.0996923154737337
153,1096.4782,1.0974574508015764
154,1105.54,1.0808269264380912
155,1115.77,1.0652432795284819
156,1126.09,1.0373917594789053
157,1133.89,1.0496911873484114
158,1144.39,1.0300697210189003
159,1154.98,1.0183667815494222
160,1165.66,1.0042345689399768
161,1173.74,0.9549388470406958
162,1184.6,0.9761709881513159
163,1195.56,0.9446679257730835
164,1203.8500000000001,0.9191224465472124
165,1214.99,0.8859088778890454
166,1226.23,0.9075441457420261
167,1234.73,0.9180589491895649
168,1246.16,0.9088642604137256
169,1254.79,0.8953242693257564
170,1258.92541,0.8885887237031158
171,1266.41,0.8787041026512575
172,1275.1799999999998,0.8855589024636613
173,1284.02,0.8800711558663574
174,1295.9,0.8516560651903429
175,1304.8899999999999,0.844227776286524
176,1313.93,0.8524745399471998
177,1326.0900000000001,0.8371243636323566
178,1335.28,0.8207076849865172
179,1344.54,0.8236031599309708
180,1353.8600000000001,0.8126704379528178
181,1366.38,0.7934109801023381
182,1375.8500000000001,0.7861680158176699
183,1385.3899999999999,0.7775463051232948
184,1395.0000000000002,0.7469390480192122
185,1404.66,0.7374843534796248
186,1414.4,0.7470115430432291
187,1424.2099999999998,0.7370960961971265
188,1434.0800000000002,0.7317085524284174
189,1440.7,0.7281139919675406
190,1445.43977,0.7244878120967017
191,1447.3500000000001,0.7234676566409345
192,1454.03,0.7162705158551553
193,1464.1100000000001,0.7048844280826024
194,1474.26,0.6994655442838512
195,1484.47,0.6944609838912157
196,1494.76,0.688074048040068
197,1505.13,0.6777482367304077
198,1512.0700000000002,0.6667159507044634
199,1515.56,0.6676335888268633
200,1526.06,0.6606241548971208
201,1536.6399999999999,0.6440329455088658
202,1543.74,0.6363622285658969
203,1554.44,0.6293477159898735
204,1565.21,0.6289554473876517
205,1576.06,0.6268957633269177
206,1583.33,0.6246713360346101
207,1594.31,0.6189905993537935
208,1605.3600000000001,0.6108849066467785
209,1616.4899999999998,0.6036831384812514
210,1623.95,0.597413791974977
211,1635.21,0.5944029211893673
212,1646.54,0.5881762343775592
213,1654.14,0.5812939958188883
214,1659.58691,0.5797269056298802
215,1665.61,0.5789576071460614
216,1673.3,0.5695455923452634
217,1677.15,0.5762774751172955
218,1684.89,0.5735664920408097
219,1696.57,0.5652552848401178
220,1704.41,0.559912105212256
221,1716.22,0.5518650024947755
222,1724.14,0.5477899256258132
223,1736.0900000000001,0.5465597777364066
224,1744.1100000000001,0.5419191643160685
225,1756.2,0.5395390512547359
226,1764.3,0.5326098705932971
227,1776.53,0.5274068223600383
228,1784.73,0.5252877351472238
229,1792.97,0.5246268393138589
230,1805.4,0.5193271979778485
231,1813.73,0.5111935152482454
232,1826.3,0.5074013987403091
233,1834.73,0.5024363294593303
234,1843.2,0.494394671557801
235,1855.98,0.48988972229197547
236,1864.5400000000002,0.488093387494208
237,1873.15,0.48747664442075267
238,1886.13,0.47806658205217556
239,1894.8400000000001,0.47305024242734445
240,1903.59,0.47250474418196325
241,1905.46072,0.4714748220336854
242,1916.78,0.4663740006374529
243,1925.63,0.4615869537005163
244,1934.5200000000002,0.4600601648339213
245,1943.4499999999998,0.46097482403766793
246,1956.92,0.45327021422517805
247,1965.9499999999998,0.45550817860477844
248,1975.0300000000002,0.45357887057230567
249,1984.14,0.44941006109258913
250,1993.3000000000002,0.44567280920079944
251,2007.1200000000001,0.442837712503798
252,2016.38,0.43934787578786216
253,2025.69,0.43679646665985333
254,2035.04,0.43330339560218595
255,2044.43,0.43275320261486006
256,2053.87,0.4250447972154611
257,2063.35,0.4234579598864037
258,2072.87,0.4260674006276878
259,2077.65,0.4350428200335006
260,2087.24,0.4412634673978824
261,2096.88,0.4336344923501911
262,2106.56,0.43012657537284127
263,2116.28,0.43202473646583306
264,2126.0499999999997,0.4251245451467518
265,2135.86,0.4190901818980119
266,2145.7200000000003,0.4248714262371989
267,2155.62,0.4228906186467278
268,2165.57,0.4136169086441832
269,2175.57,0.4110423662295657
270,2185.61,0.41749020188528974
271,2187.7616199999998,0.416860345142862
272,2195.7,0.41524016337730557
273,2205.83,0.4116624509649378
274,2216.0099999999998,0.3978544582050263
275,2226.24,0.40159497509757097
276,2236.52,0.4146225116425719
277,2246.84,0.4090619919095378
278,2257.21,0.39331421182895987
279,2262.42,0.3892490716148991
280,2272.8599999999997,0.39158531304776
281,2283.35,0.405520454133077
282,2293.89,0.39113962487085036
283,2304.48,0.40037058526107994
284,2315.12,0.38790773530376566
285,2325.8,0.37242018906841645
286,2336.54,0.36896543841601476
287,2347.32,0.3559434314855779
288,2352.73,0.37641655988134204
289,2363.59,0.3551119503948352
290,2374.5,0.3606366005607846
291,2385.46,0.3446470903791903
292,2396.47,0.34839080985005216
293,2407.54,0.3458478149038615
294,2413.09,0.34937696632650306
295,2424.22,0.3709349369632599
296,2435.41,0.36923121318296426
297,2446.65,0.3791868790551247
298,2452.3,0.38298562978267875
299,2463.61,0.368021407168278
300,2474.99,0.35822385606731605
301,2486.41,0.333566848688319
302,2492.14,0.33823362685980296
303,2503.64,0.3625737969247359
304,2511.88643,0.3342857425528462
305,2515.2000000000003,0.32307568197170256
306,2526.81,0.3184711511931852
307,2532.64,0.3357450522062122
308,2544.3300000000004,0.336249539915009
309,2556.0699999999997,0.3803317204283774
310,2567.87,0.3518957223072313
311,2573.7900000000004,0.37256311036848677
312,2585.67,0.3596847807346551
313,2597.6,0.34937611390539475
314,2603.59,0.33868254189305025
315,2615.6099999999997,0.3308460621120185
316,2627.68,0.3497557051355581
317,2633.74,0.41241708304961366
318,2645.9,0.4602065531213818
319,2652.0,0.5452345752790944
320,2664.24,0.4332817938381769
321,2676.5299999999997,0.45595390520183077
322,2682.7000000000003,0.4898264572859433
323,2695.09,0.42087535425874
324,2707.53,0.46228974403610806
325,2713.77,0.4013129260466207
326,2726.29,0.36452596431130313
327,2732.58,0.39727763912638714
328,2745.19,0.33305931443929804
329,2757.8599999999997,0.36154146111769464
330,2764.22,0.39720536585917865
331,2776.98,0.4048136495858038
332,2783.3799999999997,0.3396453285709449
333,2796.23,0.2887451693457986
334,2802.67,0.29661362257459684
335,2815.61,0.37951445039767906
336,2822.1000000000004,0.4448922964310488
337,2835.13,0.42972378130235955
338,2848.21,0.3689965589782418
339,2854.78,0.3106094634989257
340,2867.96,0.42378501678395075
341,2874.57,0.5043909855482918
342,2884.0315,0.48337720818567487
343,2887.8399999999997,0.475073169088984
344,2894.5,0.5406752009379387
345,2907.8500000000004,0.658798437752285
346,2928.0099999999998,0.5966846719977699
347,2948.31,0.5621561474532926
348,2968.7400000000002,0.5764482397467079
349,2989.3199999999997,0.5794551976223069
350,3010.04,0.576560496707944
351,3030.91,0.6043425613757647
352,3051.92,0.6190275672536235
353,3073.07,0.6630833143415205
354,3087.26,0.6481305984160952
355,3108.66,0.7299997548076316
356,3130.2000000000003,0.6834990524092059
357,3151.9,0.6847051399651097
358,3166.4500000000003,0.7365794014369254
359,3188.4,0.6548225982964684
360,3210.5,0.7042601607381952
361,3232.75,0.6166118887621057
362,3247.68,0.8073011763754533
363,3270.19,0.9169443380751487
364,3292.86,0.8996694897291735
365,3308.05,0.845633611018306
366,3311.31121,0.837675066101726
367,3323.32,0.8087109660038222
368,3330.99,0.834804427556119
369,3338.66,0.7656896891084158
370,3346.3599999999997,0.8693560774985964
371,3354.07,0.8453177748347384
372,3361.81,0.7860345990087642
373,3369.56,0.7982504321287511
374,3377.3199999999997,0.7779738741946993
375,3385.11,0.7829748430985314
376,3392.9100000000003,0.8549526209483248
377,3400.73,0.9321431166900407
378,3408.57,0.8507504303236791
379,3416.43,0.7738171618492402
380,3424.31,0.9356750112667238
381,3432.2000000000003,0.9784357696301685
382,3440.11,0.8610494458855359
383,3448.04,0.7199916400328259
384,3455.99,0.8349901520720384
385,3463.96,0.7226557820031734
386,3471.94,0.8764411208802696
387,3479.95,0.6966528865952497
388,3487.9700000000003,0.7970062612561911
389,3496.0099999999998,0.753093053809055
390,3504.07,0.9531350642538414
391,3512.15,0.8784485925905505
392,3520.2400000000002,0.9555685298732208
393,3528.3599999999997,0.676482093993775
394,3536.49,0.9000594670602904
395,3538.4700000000003,1.1008421383606226
396,3541.17,0.9919930537701664
397,3543.87,0.9404342691797102
398,3546.58,1.1043162935352153
399,3549.28,1.111824008944759
400,3551.98,0.918517524354303
401,3554.6899999999996,0.9388230487098083
402,3557.3900000000003,0.963759864119352
403,3560.09,0.9219378795288958
404,3562.7999999999997,0.8024324038844011
405,3565.5,0.8927289192939448
406,3568.2000000000003,0.8908223347034887
407,3570.91,0.7840660590589938
408,3573.6099999999997,0.8651637744685376
409,3576.31,0.9316834898780816
410,3579.02,0.7862492142335866
411,3581.72,0.7799313296431306
412,3584.4199999999996,0.7122877450526744
413,3587.13,0.6864816694081795
414,3589.83,0.7551095848177234
415,3592.5299999999997,0.8900019002272672
416,3595.2400000000002,1.0052541245827724
417,3597.94,0.9650462399923162
418,3600.64,0.9179524554018601
419,3603.3500000000004,0.9469187797573653
420,3606.05,0.8616849951669091
421,3608.75,0.897864710576453
422,3611.46,0.910800534931958
423,3614.1600000000003,0.8642984503415019
424,3616.86,0.8608854657510459
425,3619.5699999999997,0.946873890106551
426,3622.2700000000004,0.9715418055160947
427,3624.9700000000003,1.0049781209256385
428,3627.68,1.0628317452811438
429,3630.38,0.9933060606906876
430,3633.0800000000004,0.9822006761002314
431,3635.79,0.9512402004557367
432,3638.49,1.0099060158652806
433,3641.19,0.9928833312748243
434,3643.9,0.9568123556303294
435,3646.6,0.9072439710398733
436,3649.2999999999997,0.9770453864494171
437,3652.0099999999998,0.9795986108049223
438,3654.71,1.100235526214466
439,3657.41,1.06589124162401
440,3660.12,1.0750069659795152
441,3662.82,1.217000081389059
442,3665.52,1.0986293967986027
443,3668.23,1.0782122211541079
444,3670.93,1.0581773365636518
445,3673.63,1.0299116519731957
446,3676.34,0.9930873763287008
447,3679.04,1.0305582917382448
448,3681.7400000000002,1.0318796071477885
449,3684.4500000000003,0.9911822315032937
450,3687.15,1.0140210469128375
451,3689.85,1.0697284623223813
452,3692.56,1.1738988866778866
453,3695.26,1.1830203020874304
454,3697.96,1.1984357174969742
455,3700.6699999999996,1.1529502418524793
456,3703.3700000000003,1.0500182572620231
457,3706.07,1.0450994726715672
458,3708.7799999999997,1.0023039970270722
459,3711.4799999999996,1.005400412436616
460,3714.1800000000003,1.0605160278461598
461,3716.89,1.084317752201665
462,3719.5899999999997,0.9914989676112089
463,3722.29,0.8536001830207527
464,3725.0,0.9352852073762579
465,3727.7,0.9732940227858017
466,3730.3999999999996,0.8937622381953456
467,3733.11,0.8269749625508507
468,3735.81,0.8407761779603946
469,3738.5099999999998,0.7856128933699384
470,3741.2200000000003,0.8865566177254435
471,3743.92,0.8459718331349875
472,3746.62,0.8623550485445313
473,3749.3300000000004,0.8457042729000364
474,3752.03,0.9179261883095803
475,3754.73,0.957979203719124
476,3757.44,0.9244904280746292
477,3760.1400000000003,0.9015502434841731
478,3762.84,0.9703293588937169
479,3765.5499999999997,0.986277483249222
480,3768.25,0.9880289986587659
481,3770.9500000000003,1.0364203140683097
482,3773.66,1.092068338423815
483,3776.36,1.1295393538333587
484,3779.0600000000004,1.1260193692429026
485,3781.77,1.1180821935984078
486,3784.47,1.1339282090079517
487,3787.18,1.0526160333634567
488,3789.88,0.9841660487730006
489,3792.58,0.9746744641825444
490,3795.29,0.9098236885380496
491,3797.99,0.8769853039475934
492,3800.69,0.9404388193571372
493,3801.8939600000003,0.9681487914689714
494,3803.4,1.0028415287086736
495,3806.1,1.0703836592076468
496,3808.8,1.0391060897066198
497,3811.51,0.9301443295778116
498,3814.21,0.9239883600767846
499,3816.91,0.9584469905757578
500,3819.6200000000003,0.8611588304469494
501,3822.32,0.7959366609459226
502,3825.02,0.8023144914448957
503,3827.7299999999996,0.7055648313160874
504,3830.4300000000003,0.6591111618150605
505,3833.13,0.7099820923140336
506,3835.8399999999997,0.7322793321852252
507,3838.5399999999995,0.7153102626841984
508,3841.2400000000002,0.6870980931831716
509,3843.95,0.8209646330543632
510,3846.6499999999996,0.8012522635533363
511,3849.3500000000004,0.8382926940523094
512,3852.06,0.8406857339235011
513,3854.7599999999998,0.8513132644224742
514,3857.4599999999996,0.7949669949214474
515,3860.17,0.835984334792639
516,3862.87,0.8544120652916122
517,3865.5699999999997,0.8236179957905854
518,3868.28,0.9091231356617768
519,3870.98,0.8860218661607501
520,3873.68,0.8799195966597233
521,3876.3900000000003,0.8786543365309147
522,3879.09,0.855768167029888
523,3881.79,0.8400903975288612
524,3884.5,0.8591057374000528
525,3887.2000000000003,0.9065287678990259
526,3889.9,1.000214998397999
527,3892.61,1.0462882382691907
528,3895.31,1.0861265687681638
529,3898.01,1.078518299267137
530,3900.72,1.0830621391383286
531,3903.42,1.0991772696373017
532,3906.1200000000003,1.1162605001362749
533,3908.83,1.1723397400074664
534,3911.5299999999997,1.1921122705064398
535,3914.23,1.2109178010054127
536,3916.94,1.1789888408766045
537,3919.64,1.1139819713755776
538,3922.34,1.0236916018745508
539,3925.0499999999997,0.8803555417457423
540,3927.75,0.8273445722447155
541,3930.45,0.6946101027436887
542,3933.16,0.5662998426148803
543,3935.86,0.6111023731138534
544,3938.56,0.6931363036128266
545,3941.27,0.7867110434840181
546,3943.97,0.9443584739829913
547,3946.67,1.0510631044819645
548,3949.38,1.1344156443531561
549,3952.08,1.1481637748521292
550,3954.7799999999997,1.1422773053511024
551,3957.4900000000002,1.068496345222294
552,3960.19,1.023070675721267
553,3962.89,0.8942635062202404
554,3965.6000000000004,0.7847104460914319
555,3968.3,0.7280950765904051
556,3971.0,0.7699233070893783
557,3973.7099999999996,0.8722662469605699
558,3976.4100000000003,1.0244268774595429
559,3979.11,1.2118226079585162
560,3981.8199999999997,1.3019536478297078
561,3984.5199999999995,1.384128178328681
562,3987.2200000000003,1.4544687088276542
563,3989.93,1.4182347486988456
564,3992.6299999999997,1.4795382791978189
565,3995.3300000000004,1.484087809696792
566,3998.04,1.4642618495679836
567,4000.74,1.5159353800669568
568,4003.4399999999996,1.58089691056593
569,4006.15,1.5644059504371215
570,4008.85,1.6352834809360948
571,4011.5499999999997,1.7250440114350678
572,4014.26,1.6824090513062593
573,4016.96,1.6635585818052325
574,4019.66,1.6624601123042058
575,4022.37,1.6708211521753973
576,4025.07,1.6468606826743704
577,4027.77,1.6146692131733436
578,4030.48,1.5618672530445352
579,4033.1800000000003,1.5777677835435084
580,4035.89,1.6074318234147
581,4038.59,1.6198363539136733
582,4041.29,1.5673098844126465
583,4044.0,1.524567924283838
584,4046.7,1.537079454782811
585,4049.4,1.5412529852817842
586,4052.1099999999997,1.6041620251529758
587,4054.81,1.592412555651949
588,4057.5099999999998,1.5365510861509222
589,4060.22,1.5162951260221138
590,4062.92,1.504490656521087
591,4065.62,1.4943011870200602
592,4068.33,1.5183712268912517
593,4071.0299999999997,1.5348637573902248
