,lambda (Angstroms),Total Flux (erg/s/cm^2/Angstrom)
0,100.00999999999999,15.16038542760578
1,102.10000000000001,15.112999822787424
2,104.0,15.069922002724498
3,104.712855,15.053759786382418
4,105.93,14.908802982833548
5,107.89999999999999,14.674184401153369
6,109.91000000000001,14.434802196946661
7,114.03,13.944128028152187
8,118.04,13.46655455296268
9,120.22644299999999,13.206164091564078
10,121.07,13.121937704920281
11,125.03,12.72653749720304
12,127.07,12.522846282581739
13,127.95,12.434979966149019
14,130.93,12.137431233927307
15,132.14,12.016617215472321
16,133.98,11.832896259496636
17,137.1,11.521373664626992
18,138.038426,11.427673711533492
19,139.97,11.289818579671703
20,142.9,11.080771907711087
21,146.9,10.795466138726967
22,151.02,10.501446878864325
23,154.89,10.22527620223194
24,158.489319,9.968425219413637
25,158.86,9.948427774445596
26,161.82,9.788742653919227
27,165.97,9.564866978092391
28,169.84,9.356092178095073
29,172.98999999999998,9.186161749187956
30,177.01999999999998,8.968757886659485
31,179.89999999999998,8.813394600698691
32,181.970086,8.70172381062751
33,181.98,8.701315830591069
34,185.79,8.544528404998355
35,191.0,8.330128272600968
36,194.1,8.202565267790623
37,198.17000000000002,8.035077496117038
38,201.85000000000002,7.883653578364758
39,205.13,7.748679659013813
40,208.929613,7.5922939178220235
41,209.91,7.56195887595566
42,215.79000000000002,7.380123653935589
43,219.79999999999998,7.256091915077005
44,222.86,7.161424642140029
45,227.00000000000003,7.033379045460592
46,230.16,6.9363000485845
47,233.9,6.822029087661531
48,239.88329199999998,6.637723195954312
49,239.9,6.637327145821642
50,246.04999999999998,6.4904887831281055
51,251.78,6.354146402930713
52,257.06,6.227569551979188
53,260.03,6.157331697756456
54,264.26,6.056703846045291
55,269.17,5.939627997340369
56,274.17,5.820405858386275
57,275.42287,5.7905317526387385
58,279.27,5.720134574848905
59,283.81,5.6370615147821725
60,289.75,5.528147481434949
61,295.82,5.4171556738545386
62,301.32,5.316457510681184
63,308.34,5.188046906089013
64,316.227766,5.043771068633909
65,317.71,5.023525738920937
66,328.12,4.881215953755953
67,338.09,4.744887624425993
68,348.36,4.60443673434488
69,357.29999999999995,4.482179052560541
70,363.078055,4.403182686256373
71,365.61999999999995,4.377155577546179
72,375.0,4.281060752240982
73,384.62,4.1823744963842655
74,395.39,4.072176113759855
75,404.6,3.9778555432203166
76,414.03000000000003,3.8812314659252194
77,416.86938299999997,3.85212936197251
78,421.72,3.8141496041796668
79,429.56,3.7527762988208107
80,440.58,3.6665522564107844
81,450.85,3.5861554313807513
82,460.29,3.512259165744577
83,469.92,3.4368890408254713
84,478.630092,3.36873694393559
85,479.76,3.361935782148354
86,489.80999999999995,3.301376075008454
87,500.07000000000005,3.2396415650148835
88,505.86,3.2047434816208518
89,511.71000000000004,3.169642951554342
90,520.03,3.119549080970863
91,529.7,3.0612988357566495
92,539.54,3.0019910224704196
93,549.5408739999999,2.9417737338492125
94,549.58,2.941593940520834
95,559.79,2.894746447806793
96,570.2,2.8469742998691654
97,579.47,2.804344222405976
98,590.24,2.754900393265895
99,599.83,2.710774011844969
100,609.5799999999999,2.6657036014451743
101,619.48,2.62058083737769
102,629.55,2.574299651020159
103,630.957344,2.56783989867924
104,639.78,2.5357311742509694
105,650.1700000000001,2.497875794932324
106,657.6999999999999,2.4704102096369063
107,665.3100000000001,2.442744409396782
108,674.57,2.4090314427971045
109,685.53,2.369046684372432
110,695.07,2.334373770966285
111,704.7399999999999,2.2990751251499915
112,716.19,2.2574773405639963
113,724.43596,2.2274490520578207
114,726.15,2.222813452863819
115,734.56,2.2000770676545853
116,744.78,2.172430496638133
117,755.14,2.144417526128305
118,765.64,2.1158709201251007
119,774.5100000000001,2.0920482460090604
120,785.29,2.062872726019104
121,794.38,2.0383238225563303
122,805.4300000000001,2.0084713201862914
123,814.7600000000001,1.983248577163444
124,824.19,1.9577696360738996
125,831.763771,1.9372264168945281
126,835.66,1.929313918119435
127,845.3299999999999,1.9098724365183426
128,855.12,1.8900801224444337
129,865.02,1.8700824824371105
130,875.04,1.8498469759569713
131,885.17,1.8293782825434175
132,895.42,1.8086717566570476
133,905.7900000000001,1.7877087822978612
134,914.17,1.7710507342795414
135,924.76,1.7513146200535261
136,935.46,1.7317461228940956
137,944.12,1.717057184772538
138,954.992586,1.697469808705542
139,955.0500000000001,1.697368877355639
140,963.89,1.6807322849062667
141,975.05,1.6510700168004977
142,984.0699999999999,1.6389057321881288
143,995.4699999999999,1.6168251965316984
144,1004.6800000000001,1.6024668610250554
145,1013.98,1.5838587509369146
146,1025.72,1.5539735754170467
147,1035.21,1.538493876434632
148,1044.79,1.5267992688707195
149,1054.45,1.5073392984565859
150,1064.21,1.484582860729677
151,1074.06,1.46739883542127
152,1084.0,1.4443728725313647
153,1094.03,1.428638122059961
154,1096.4782,1.4236458387296138
155,1104.15,1.4107465879799297
156,1114.37,1.3934931107091892
157,1124.68,1.3752453760260832
158,1135.08,1.3619113239306135
159,1145.59,1.3434515105533644
160,1156.18,1.3272041116984574
161,1164.2,1.314504320063297
162,1174.97,1.2920179163836611
163,1185.84,1.2789002733569537
164,1194.06,1.2609326830276495
165,1205.11,1.2402813271762123
166,1216.26,1.2199335149777035
167,1224.69,1.2115311470195484
168,1236.03,1.1982627830616033
169,1244.59,1.1857918469522548
170,1256.11,1.1662650181695804
171,1258.92541,1.1609855215372
172,1264.8200000000002,1.152667205293012
173,1273.58,1.1466540962777394
174,1285.3700000000001,1.1338985502743069
175,1294.28,1.1193362876457589
176,1306.25,1.1053384833063964
177,1315.3100000000002,1.0987028670645729
178,1324.42,1.087285212951658
179,1333.6100000000001,1.0745153562449963
180,1345.9499999999998,1.0634005236595554
181,1355.27,1.0519877464880547
182,1364.67,1.0391283967228075
183,1374.13,1.0289808275122503
184,1383.6499999999999,1.0180894488563834
185,1396.46,1.0008979722826794
186,1406.1399999999999,0.9901131184393188
187,1415.8799999999999,0.9795140251506479
188,1425.7,0.96859313926823
189,1435.58,0.9571016039405024
190,1442.2099999999998,0.9502748302337378
191,1445.43977,0.9468134870472978
192,1445.53,0.9467481820333798
193,1455.55,0.9381226128040173
194,1465.64,0.9286562182107768
195,1475.8,0.9204512182536588
196,1486.0300000000002,0.9125329829326626
197,1496.33,0.9044590722477891
198,1506.7,0.8951989461990376
199,1513.66,0.8879528985906181
200,1517.1499999999999,0.8860546025915688
201,1524.1499999999999,0.8799934562037905
202,1534.71,0.869721228453085
203,1545.3500000000001,0.8622641231436619
204,1556.06,0.8529518824703614
205,1563.25,0.8473888643806291
206,1574.08,0.8396279073692522
207,1584.99,0.8315593827991578
208,1595.9799999999998,0.8230716106703462
209,1603.3500000000001,0.8167937130734994
210,1614.46,0.8078589246066114
211,1625.6499999999999,0.7979764185810061
212,1633.1499999999999,0.7928596424512435
213,1644.48,0.7841640156978825
214,1655.8700000000001,0.7735850257754832
215,1659.58691,0.7713168900146207
216,1663.52,0.7698645410993192
217,1671.1999999999998,0.7635667128969447
218,1678.91,0.7634483468109671
219,1686.66,0.7598180602135189
220,1694.44,0.7537456557324677
221,1706.1899999999998,0.7468098179879494
222,1714.07,0.7428681272282214
223,1725.95,0.7363943653214232
224,1733.9099999999999,0.7338074235387541
225,1745.93,0.7263154448418084
226,1753.99,0.7241224767804623
227,1766.1499999999999,0.7142715012933694
228,1774.3,0.711429589581214
229,1786.6000000000001,0.7046272973039736
230,1794.8500000000001,0.7035251193131417
231,1803.13,0.6973116234387067
232,1815.63,0.6897184186041128
233,1824.01,0.684817486451001
234,1836.6499999999999,0.6764359448262597
235,1845.13,0.6695227663944712
236,1853.65,0.6665680074512119
237,1866.5,0.6615709306412494
238,1875.1100000000001,0.656861548047181
239,1883.77,0.6514286423137744
240,1896.83,0.6451978603185906
241,1905.46072,0.6401943415634206
242,1905.5800000000002,0.640143141895443
243,1914.3799999999999,0.6367516392830153
244,1923.2099999999998,0.631613133616227
245,1936.54,0.6223448897953561
246,1945.48,0.6256269695959124
247,1954.46,0.6216082186573212
248,1968.01,0.6192780457711397
249,1977.09,0.6147155879846803
250,1986.22,0.6115280417742863
251,1995.3899999999999,0.607449914824745
252,2004.6,0.6025166971360564
253,2013.8500000000001,0.5982054187082202
254,2023.1499999999999,0.5932550618564499
255,2037.17,0.5900330777852865
256,2046.5700000000002,0.5884376940856477
257,2056.02,0.5830099119620747
258,2065.51,0.5781040390993542
259,2075.04,0.5781705454974865
260,2079.83,0.5836402744845854
261,2084.62,0.5845222634716843
262,2094.24,0.5777759307067348
263,2103.91,0.5712829295178511
264,2113.62,0.5691950675898199
265,2123.38,0.5640347672378545
266,2133.1800000000003,0.5555965461467416
267,2143.0299999999997,0.5575532566316946
268,2152.92,0.5542284863775001
269,2162.85,0.5463372553841583
270,2172.84,0.5426758082820953
271,2182.87,0.5424665104408851
272,2187.7616199999998,0.5412645521736309
273,2192.94,0.5406835002076958
274,2203.07,0.5359152873612816
275,2213.23,0.5267292767769214
276,2223.45,0.5250377707166693
277,2233.71,0.530489274339156
278,2244.02,0.5249108250650661
279,2254.38,0.5154521628943995
280,2264.79,0.5122588478271566
281,2275.2400000000002,0.5127141724426522
282,2285.74,0.5158666941615714
283,2296.29,0.5077173429839139
284,2306.89,0.5090647089096798
285,2317.54,0.5017379119388692
286,2322.88,0.4898881845844908
287,2333.6,0.48801436955847305
288,2344.38,0.47895157905656327
289,2355.2000000000003,0.4882644482373923
290,2366.07,0.47413903452164474
291,2376.99,0.47619260790932066
292,2382.47,0.46591022444452795
293,2393.4700000000003,0.46671056719768117
294,2404.5099999999998,0.4632506996335734
295,2415.61,0.46304016659357344
296,2426.76,0.4715874206569971
297,2432.36,0.4697090362404206
298,2443.58,0.4718027722486371
299,2454.86,0.4700942227809616
300,2466.19,0.4634494404167095
301,2477.58,0.4565949525765656
302,2483.29,0.44917813978752064
303,2494.75,0.4470095038921695
304,2506.27,0.45662124252092645
305,2511.88643,0.43671245020308586
306,2512.04,0.4361790164558545
307,2517.84,0.43161573551656796
308,2523.64,0.4311840145772815
309,2535.29,0.43484317915612847
310,2546.9900000000002,0.4339120901923953
311,2552.86,0.44752102429349677
312,2564.65,0.43642450895311957
313,2576.48,0.4416605107786783
314,2582.42,0.4371272899201677
315,2594.34,0.4314453053690823
316,2606.3199999999997,0.425031096566901
317,2612.33,0.4208764407487783
318,2624.38,0.4282038469869847
319,2636.5,0.4437208882655792
320,2642.58,0.46158580748784434
321,2654.77,0.48068122380682665
322,2667.03,0.445199325166197
323,2673.17,0.45342052013736606
324,2685.5099999999998,0.4582884058286083
325,2697.91,0.4385716272687544
326,2704.13,0.4500703965717954
327,2716.6099999999997,0.4298468323438135
328,2722.87,0.4216571988127905
329,2735.44,0.4291068182081643
330,2748.07,0.40032085335244216
331,2754.4,0.40884065486180715
332,2767.1200000000003,0.41730252362944087
333,2773.5,0.42174248159622574
334,2786.2999999999997,0.3976477746957315
335,2792.7200000000003,0.3735326698284521
336,2805.61,0.3751026465513138
337,2812.08,0.4086122981414546
338,2825.06,0.42942285848767203
339,2838.1,0.42415102458279347
340,2844.64,0.4095613812133221
341,2857.77,0.3880017309317994
342,2864.36,0.42331842401974806
343,2877.58,0.43838289736158126
344,2884.0315,0.4298010986855535
345,2884.21,0.4295745680434755
346,2897.5299999999997,0.43997135060877346
347,2910.9,0.4724847557737909
348,2931.08,0.45338084502061615
349,2951.4,0.4434975615466562
350,2971.85,0.44879607483196715
351,2992.45,0.447955445916437
352,3013.2,0.4480384748000655
353,3027.11,0.45199302804205443
354,3048.09,0.453574958884393
355,3069.22,0.4622485475258905
356,3090.4900000000002,0.45999276344660256
357,3111.91,0.4735884371664736
358,3133.48,0.4609538686855033
359,3147.95,0.46082363104435176
360,3169.77,0.4695757255619794
361,3191.7400000000002,0.4437136778787658
362,3206.4700000000003,0.458480233756156
363,3228.7,0.4299201795914843
364,3251.08,0.47540758322597143
365,3273.61,0.5011375446596171
366,3288.72,0.49499426029487625
367,3311.31121,0.4840273033718444
368,3311.52,0.4839348949654126
369,3319.15,0.47368212025644496
370,3326.81,0.47109832297326126
371,3334.47,0.49746372569007746
372,3342.1600000000003,0.47717840583267757
373,3349.87,0.49237960425913363
374,3357.5899999999997,0.49741076182751764
375,3365.3300000000004,0.44152213767975756
376,3373.09,0.42984653181585336
377,3380.86,0.4910336850938772
378,3388.65,0.4882315566557569
379,3396.47,0.4567751056434205
380,3404.3,0.5067018137730119
381,3412.1400000000003,0.47153748104453147
382,3420.01,0.48426222574183486
383,3427.8900000000003,0.4779343295810662
384,3435.8,0.48693961084608145
385,3443.7200000000003,0.43159325125302456
386,3451.66,0.48129530994382375
387,3459.61,0.48106732777655076
388,3467.5899999999997,0.4747063230350617
389,3475.58,0.47905407743550055
390,3483.5899999999997,0.4772748501197954
391,3491.62,0.4770372410879461
392,3499.6699999999996,0.44429525033995276
393,3507.74,0.49881757787581527
394,3515.83,0.4583836236955337
395,3523.9300000000003,0.4829508286571801
396,3532.0499999999997,0.4763644519026825
397,3540.2,0.5021566525739687
398,3548.3599999999997,0.513386012387183
399,3556.5400000000004,0.4842421904842529
400,3564.7400000000002,0.4964107868651789
401,3572.95,0.43467814238803293
402,3581.19,0.4479383753366708
403,3589.4500000000003,0.39827082656916446
404,3597.72,0.4771434369435863
405,3606.01,0.4823962656018639
406,3614.33,0.4589015716859254
407,3622.66,0.43125723691191487
408,3630.4599999999996,0.5099158676157226
409,3633.2,0.4832110725039832
410,3635.95,0.4756673365341718
411,3638.69,0.4678210414224324
412,3641.44,0.493215705452621
413,3644.1800000000003,0.5108224103408816
414,3646.92,0.4517819152291423
415,3649.67,0.5037230792593309
416,3652.41,0.4938137841475916
417,3655.16,0.5007450481777802
418,3657.9,0.5228544530660407
419,3660.64,0.5664050579543014
420,3663.3900000000003,0.51951912198449
421,3666.13,0.5364827268727507
422,3668.8700000000003,0.49040943176101126
423,3671.62,0.47797239579119993
424,3674.3599999999997,0.5055373006794606
425,3677.11,0.5156609647096492
426,3679.85,0.5065617695979098
427,3682.59,0.48097657448617037
428,3685.3399999999997,0.506013738516359
429,3688.0800000000004,0.5071108434046196
430,3690.83,0.5255013074348083
431,3693.5699999999997,0.504585612323069
432,3696.31,0.5458253172113295
433,3699.06,0.5566396812415182
434,3701.8,0.5350093861297788
435,3704.54,0.4953684910180395
436,3707.29,0.510495055048228
437,3710.03,0.4948442599364886
438,3712.7799999999997,0.5049919239666774
439,3715.52,0.5239327288549379
440,3718.2599999999998,0.5521172337431985
441,3721.01,0.5190726977733872
442,3723.75,0.5154528026616478
443,3726.5,0.5112348666918364
444,3729.24,0.509854371580097
445,3731.9799999999996,0.5065679764683577
446,3734.73,0.45911284049854634
447,3737.47,0.45728204538680695
448,3740.21,0.4883918502750676
449,3742.96,0.48822391430525613
450,3745.7000000000003,0.48036341919351677
451,3748.45,0.4679501832237054
452,3751.1899999999996,0.46888048811196614
453,3753.93,0.4935865930002268
454,3756.68,0.4952292570304153
455,3759.42,0.5229371619186759
456,3762.17,0.5142641259488645
457,3764.9100000000003,0.5176006308371252
458,3767.65,0.5219378357253858
459,3770.3999999999996,0.49408689975557446
460,3773.14,0.532420104643835
461,3775.8799999999997,0.5498364095320958
462,3778.63,0.5580063735622842
463,3781.37,0.549764878450545
464,3784.1200000000003,0.5252729424807335
465,3786.86,0.5628199473689942
466,3789.6000000000004,0.5302785522572548
467,3792.35,0.5361615162874435
468,3795.0899999999997,0.48720572117570415
469,3797.84,0.49406558520589267
470,3800.58,0.5303022900941533
471,3801.8939600000003,0.5200551308091068
472,3803.32,0.5089769442561403
473,3806.0699999999997,0.5308571252443014
474,3808.8100000000004,0.5262002452106874
475,3811.55,0.5149442651770735
476,3814.2999999999997,0.4936325461652347
477,3817.04,0.5098688661316207
478,3819.79,0.5062579471197819
479,3822.53,0.482256467086168
480,3825.27,0.466068987052554
481,3828.02,0.42268976804071523
482,3830.76,0.43456858800710124
483,3833.5099999999998,0.4475580689952624
484,3836.25,0.41532778896164846
485,3838.99,0.4328599089280346
486,3841.7400000000002,0.46575628991619566
487,3844.48,0.4671742098825818
488,3847.2200000000003,0.5016354298489678
489,3849.97,0.5249212108371291
490,3852.7099999999996,0.4947017308035151
491,3855.46,0.5141043117916763
492,3858.2,0.5173092317580623
493,3860.94,0.4972623517244483
494,3863.69,0.4814301327126095
495,3866.4300000000003,0.5192265526789955
496,3869.18,0.5168067336671567
497,3871.9199999999996,0.5224654536335428
498,3874.66,0.4891966735999289
499,3877.41,0.49039805458809005
500,3880.15,0.4845738745544761
501,3882.89,0.4934247945208622
502,3885.6400000000003,0.4701834755090233
503,3888.38,0.5061693954754094
504,3891.1299999999997,0.4991755764635706
505,3893.87,0.5098131964299566
506,3896.6099999999997,0.5497539163963426
507,3899.36,0.5382096973845039
508,3902.1,0.5366499173508898
509,3904.8500000000004,0.5555043983390511
510,3907.59,0.5475599183054372
511,3910.3300000000004,0.5686325382718231
512,3913.08,0.5464630192599843
513,3915.8199999999997,0.5643908392263705
514,3918.56,0.5581139591927564
515,3921.31,0.5401612401809177
516,3924.05,0.5049627601473037
517,3926.7999999999997,0.46954764113546493
518,3929.5400000000004,0.44992966110185084
519,3932.28,0.4203603810682369
520,3935.0299999999997,0.4003163620563982
521,3937.77,0.40474318202278425
522,3940.52,0.4256802630109454
523,3943.26,0.4772178829773314
524,3946.0,0.5029597029437175
525,3948.7499999999995,0.5262691839318787
526,3951.49,0.5502482038982648
527,3954.23,0.5519522238646508
528,3956.98,0.5426474048528119
529,3959.72,0.533083024819198
530,3962.4700000000003,0.49769160580735916
531,3965.21,0.44603582577374523
532,3967.9500000000003,0.42134084574013125
533,3970.7,0.4091204267282925
534,3973.4399999999996,0.4282249466946786
535,3976.19,0.4674225276828397
536,3978.93,0.5136047476492258
537,3981.67,0.5697929676156118
538,3984.42,0.607444048603773
539,3987.1600000000003,0.6127216685701591
540,3989.9,0.621668188536545
541,3992.6499999999996,0.6405701695247062
542,3995.39,0.6464433894910924
543,3998.14,0.6598420704792535
544,4000.88,0.6648100904456395
545,4003.62,0.6534591104120256
546,4006.3700000000003,0.6601632914001867
547,4009.11,0.6626299113665728
548,4011.8599999999997,0.674051092354734
549,4014.6,0.6778995123211201
550,4017.3399999999997,0.6902290322875062
551,4020.09,0.6803759132756673
552,4022.83,0.6809366332420534
553,4025.57,0.6914318532084394
554,4028.32,0.6793154341966006
555,4031.0600000000004,0.6657727541629866
556,4033.81,0.6581590351511478
557,4036.5499999999997,0.666128855117534
558,4039.29,0.6826512750839199
559,4042.04,0.6775628560720811
560,4044.78,0.6501548760384671
561,4047.5299999999997,0.6555487570266283
562,4050.2700000000004,0.6637806769930144
563,4053.01,0.6578137969594005
564,4055.7599999999998,0.6652326779475617
565,4058.5,0.6687713979139477
566,4061.24,0.6568248178803338
567,4063.9900000000002,0.654690498868495
568,4066.73,0.6521780188348809
569,4069.4799999999996,0.6573574998230421
570,4072.22,0.6512715197894282
571,4074.96,0.6429698397558142
572,4077.71,0.6620861207439754
573,4080.45,0.6684836407103615
574,4083.2000000000003,0.6691366216985226
575,4085.94,0.6854208416649087
576,4088.6800000000003,0.7029439616312947
577,4091.43,0.696473642619456
578,4094.1699999999996,0.677070462585842
579,4096.91,0.6577861825522281
580,4099.66,0.6403572635403892
581,4102.4,0.6092089835067753
582,4105.150000000001,0.6005472644949363
583,4107.89,0.6306249844613225
584,4110.63,0.6496966044277085
585,4113.38,0.6557575854158697
586,4116.12,0.6661097053822558
587,4118.87,0.6791270863704171
588,4121.61,0.6734700063368031
589,4124.35,0.6775565263031891
590,4127.1,0.6791149072913503
591,4129.84,0.6620701272577363
592,4132.58,0.6658708472241224
593,4135.33,0.6750288282122835
