,lambda (Angstroms),Total Flux (erg/s/cm^2/Angstrom)
0,102.07000000000001,0.002435251536458343
1,103.97,0.002847913273391599
2,104.712855,0.0030092542922994553
3,105.9,0.0027941211031027144
4,108.12,0.002391815069773127
5,109.88,0.0020728709091621493
6,114.0,0.0013262499994127878
7,118.01,0.00059956367924055
8,120.22644299999999,0.00019791379619066982
9,121.04,0.0001910963470824761
10,125.0,0.0001579008938238741
11,127.03,0.00014088484536792397
12,127.91,0.00013350936359490134
13,130.89,0.00010853210277262003
14,132.1,9.839391827971378e-05
15,133.94,8.297428773702993e-05
16,137.06,5.683409153813127e-05
17,138.038426,4.863680969066054e-05
18,139.93,4.809037328219472e-05
19,142.86,4.729260024539927e-05
20,146.85999999999999,4.6207491581173384e-05
21,150.98,4.5062404826020725e-05
22,154.85,4.4007987743632167e-05
23,158.489319,4.303187582701357e-05
24,158.82,4.289064547061524e-05
25,162.15,4.1472571533215705e-05
26,165.92,3.990576448036398e-05
27,170.17999999999998,3.8137987626213224e-05
28,172.95000000000002,3.702535739029827e-05
29,176.97,3.541843700821235e-05
30,179.85000000000002,3.429723194343436e-05
31,181.93,3.348778545220583e-05
32,181.970086,3.347240437799547e-05
33,186.17000000000002,3.4386939932857606e-05
34,190.95000000000002,3.5514735942347704e-05
35,194.04999999999998,3.626245925812579e-05
36,198.10999999999999,3.728610868459645e-05
37,201.8,3.829829004757102e-05
38,205.07000000000002,3.917064798711759e-05
39,208.929613,4.023085542511572e-05
40,209.85,4.1167338404817136e-05
41,216.23,4.792770682070148e-05
42,220.25,5.224174344638411e-05
43,222.8,5.506558156715293e-05
44,226.94,5.961820692793054e-05
45,230.1,6.958172295209895e-05
46,233.83999999999997,8.241308619589321e-05
47,239.83,9.510486072271884e-05
48,239.88329199999998,9.517126819883943e-05
49,245.98999999999998,9.287744720725343e-05
50,251.72,9.283857620746994e-05
51,256.99,8.601725809772144e-05
52,259.96,9.011124443814781e-05
53,264.19,9.060146286239142e-05
54,269.1,8.97912770144094e-05
55,274.1,8.885278560098576e-05
56,275.42287,8.859787839784986e-05
57,279.2,9.359073895242364e-05
58,283.72999999999996,0.00010004087675138392
59,289.67,0.00010613021856723919
60,295.74,0.00011543538720734715
61,301.24,0.0001208948559257316
62,308.26,0.00013139613443537867
63,316.227766,0.0001431211559014235
64,318.35,0.00014336876222976352
65,328.03,0.0001435880287760903
66,337.99999999999994,0.00014308549405159425
67,348.27,0.00014232079973659173
68,357.20000000000005,0.0001419659502591845
69,363.078055,0.00014181081656095386
70,366.36,0.00014507146787861306
71,374.90000000000003,0.0001531703620303735
72,385.4,0.000160078217134997
73,395.29,0.0001714135583716376
74,405.43,0.00018079926758695969
75,413.90999999999997,0.00018822353742383656
76,416.86938299999997,0.00019076128665214518
77,421.60999999999996,0.00019397870800991174
78,430.44,0.00019928894943631287
79,441.48,0.00020772279681428215
80,450.72,0.00021429541581540856
81,460.16,0.000220395682413962
82,469.8,0.0002276416966099424
83,478.630092,0.00023464633022436028
84,479.64,0.00023482137792020454
85,489.67999999999995,0.0002359183084246668
86,499.93,0.0002393406818978479
87,505.71999999999997,0.00031415303803538144
88,511.58000000000004,0.0006292697751624878
89,519.89,0.0006380372469246473
90,529.5500000000001,0.0006533049234857137
91,539.4,0.0006338030770184779
92,549.43,0.0007669321245244298
93,549.5408739999999,0.000768218900818921
94,559.64,0.0008878226788689056
95,570.05,0.0009731048417365534
96,580.65,0.0009530522552233035
97,590.0799999999999,0.001092280199108214
98,599.67,0.001110498427725
99,609.41,0.0012578084857779194
100,619.31,0.0014322332285627143
101,629.38,0.0015231645113751267
102,630.957344,0.0015326218017859459
103,639.6,0.0015867635080335273
104,650.0,0.0017366242209060363
105,657.5200000000001,0.0018172085517523119
106,665.14,0.0019400773125300538
107,674.39,0.0020349615811906985
108,685.35,0.0020366637016794196
109,694.88,0.0024222711741481704
110,704.5500000000001,0.0023540282485209744
111,716.0,0.002788152975673881
112,724.43596,0.002892793454552546
113,725.9599999999999,0.0029115964362839255
114,734.36,0.003053483884916163
115,744.5799999999999,0.003320169114085385
116,754.94,0.0035060496340651444
117,765.44,0.003694041444855441
118,774.3,0.003972261277579444
119,785.0699999999999,0.004271747792075777
120,794.17,0.0044704936947607
121,805.2099999999999,0.00466847291296307
122,814.54,0.004863783007693876
123,825.8699999999999,0.005243148685432359
124,831.763771,0.004976667185093355
125,835.4300000000001,0.0048098784304728085
126,845.11,0.00562368177946931
127,854.89,0.0058702409895091635
128,864.79,0.00624049223280104
129,874.8000000000001,0.006619650423240604
130,884.9300000000001,0.007038080646932191
131,895.18,0.0073817219038758005
132,905.55,0.007584742194071433
133,916.0300000000001,0.010935410431414752
134,924.5100000000001,0.06441086744789103
135,935.21,0.13544450957952972
136,946.04,0.2610278368305248
137,954.8,0.33934586025792246
138,954.992586,0.34064107840628366
139,965.85,0.4136632949534984
140,974.79,0.11742752451133522
141,986.08,0.4262268829797891
142,995.1999999999999,0.4136626070924817
143,1004.4100000000001,0.4916187284826022
144,1016.04,0.4588091766657837
145,1025.44,0.20925799230825193
146,1034.93,0.3869464052281481
147,1044.51,0.5762648154254721
148,1054.17,0.565760323202732
149,1063.92,0.5007699282574198
150,1073.77,0.5554165302870275
151,1086.2,0.49502945426956796
152,1096.25,0.5723051502490154
153,1096.4782,0.5715697057905194
154,1103.85,0.5478113453872128
155,1114.0700000000002,0.5465372777624015
156,1124.37,0.4996044025632277
157,1134.78,0.5657498169493055
158,1145.28,0.5304217228142253
159,1155.8799999999999,0.5478050192111921
160,1163.89,0.5566985608281454
161,1174.66,0.4321353411295918
162,1185.53,0.5415228119630852
163,1193.74,0.47164803464413196
164,1204.79,0.38426998843530963
165,1215.9399999999998,0.2116751327585341
166,1224.3700000000001,0.4213373346100841
167,1235.69,0.5231381628377882
168,1244.26,0.5477959514342039
169,1255.77,0.539032061672797
170,1258.92541,0.53110335150892
171,1264.48,0.5171467003274054
172,1276.18,0.5618424791209761
173,1285.02,0.5657447386538962
174,1293.93,0.5077133986582306
175,1305.9,0.5135839792701145
176,1314.96,0.561836940284623
177,1324.07,0.5427633016358563
178,1336.32,0.5183377841333981
179,1345.5800000000002,0.5465305464948053
180,1354.91,0.544021409327627
181,1364.3,0.5183380725645185
182,1373.76,0.5207338362728242
183,1386.47,0.524348721868233
184,1396.0800000000002,0.46198548658671285
185,1405.76,0.47601325177660714
186,1415.5,0.5042223173705711
187,1425.32,0.4973022835032945
188,1435.2,0.5030546500400875
189,1441.82,0.5135849946224326
190,1445.43977,0.5116636603020013
191,1448.48,0.5100499361837099
192,1455.16,0.503059973940346
193,1465.2499999999998,0.4848600309709535
194,1475.4,0.48486498834069247
195,1485.63,0.48264014616260675
196,1495.93,0.48041490438017437
197,1506.3,0.46304446299339547
198,1513.2499999999998,0.4341346022761231
199,1516.74,0.44732852200226986
200,1523.74,0.4473285615676071
201,1534.3000000000002,0.40985352125474434
202,1544.9399999999998,0.416512281394057
203,1555.65,0.40236534192902296
204,1566.43,0.4165105028596423
205,1573.66,0.4341343437249835
206,1584.57,0.43714010539038767
207,1595.55,0.4422098674514452
208,1606.61,0.431144729964678
209,1614.03,0.42817527190393556
210,1625.22,0.4223005351519532
211,1636.4799999999998,0.43413559879562424
212,1644.04,0.43213044152618846
213,1655.43,0.42230280590464436
214,1659.58691,0.42767411475456196
215,1666.91,0.4371368316746953
216,1670.75,0.417461990177964
217,1678.46,0.441184008422808
218,1686.21,0.4422076283187279
219,1693.99,0.4281765494529546
220,1705.73,0.418433434043677
221,1713.6100000000001,0.4070351593055929
222,1725.48,0.40422904926231146
223,1733.45,0.4165131782391478
224,1745.46,0.40890647397463126
225,1753.52,0.41843480666638794
226,1765.68,0.39959840859340534
227,1773.8300000000002,0.4023721450000824
228,1786.12,0.40515835229309594
229,1794.3700000000001,0.41459599282746223
230,1806.8000000000002,0.4146016058992407
231,1815.14,0.3950354501485274
232,1823.5199999999998,0.3996039960488898
233,1836.16,0.3923126177888158
234,1844.6399999999999,0.36866276781686746
235,1853.15,0.3686667190832259
236,1865.9999999999998,0.37638574949129944
237,1874.61,0.3878299048853472
238,1883.26,0.36445616193047065
239,1896.32,0.3504669010066917
240,1905.0700000000002,0.3678259621795044
241,1905.46072,0.3673439880710347
242,1913.86,0.35698223141197755
243,1927.1299999999999,0.3488575253633922
244,1936.03,0.35615595182666204
245,1944.96,0.36951967669374075
246,1953.94,0.34804949890050063
247,1967.48,0.36698157848619434
248,1976.56,0.3755166953723168
249,1985.69,0.35944090959812053
250,1994.85,0.35207712222773313
251,2004.06,0.356975832197027
252,2013.3100000000002,0.35533664003806587
253,2027.27,0.3611008972770824
254,2036.6200000000001,0.3488510997974839
255,2046.02,0.3528820996575666
256,2055.4700000000003,0.34011559685733067
257,2064.96,0.34406099192883977
258,2074.49,0.36109938487209386
259,2079.27,0.3480412305456253
260,2084.06,0.35369787568709304
261,2093.68,0.34090986384177346
262,2103.35,0.34564544933613517
263,2113.06,0.347232932702242
264,2122.81,0.34965091394009373
265,2132.61,0.33932969251762685
266,2147.3900000000003,0.3385609061274165
267,2157.3,0.3440562788522485
268,2167.26,0.3377775489167617
269,2177.26,0.3354468168530199
270,2187.31,0.3346761821289595
271,2187.7616199999998,0.3349545304078174
272,2197.41,0.3409020673942502
273,2202.48,0.3346742824689438
274,2212.64,0.3263104134667518
275,2222.85,0.32182754658561213
276,2233.11,0.3308530818255246
277,2243.42,0.3248095191864892
278,2253.7799999999997,0.31668385866850607
279,2264.1800000000003,0.3174186998473647
280,2274.63,0.3203520431472755
281,2285.13,0.3240761885682385
282,2295.68,0.31169313611025373
283,2306.27,0.31609178534911075
284,2316.92,0.30966613713323043
285,2327.61,0.2741494906141918
286,2332.98,0.2978792184151986
287,2343.75,0.28914757528984353
288,2354.57,0.3021417342855407
289,2365.44,0.2885976954022901
290,2376.35,0.2933522582158812
291,2387.32,0.2789139235747349
292,2392.83,0.2867555573146879
293,2403.87,0.28157772564301475
294,2414.97,0.2829317965166042
295,2426.11,0.2929377690870355
296,2437.31,0.2863306442027294
297,2442.9300000000003,0.29236448260899717
298,2454.21,0.29108006111837464
299,2465.5299999999997,0.2878093413245938
300,2476.91,0.28131412407607564
301,2482.62,0.28070336630023746
302,2494.08,0.26812315244540286
303,2505.6,0.2880173411358308
304,2511.37,0.26820858590525526
305,2511.88643,0.2682663248858121
306,2517.16,0.26885562123096146
307,2522.96,0.26458042600620807
308,2534.61,0.2664726347357982
309,2546.31,0.26468854264448527
310,2552.18,0.2759268462704676
311,2563.96,0.2709425528657098
312,2575.79,0.27795425864004897
313,2587.68,0.27610876342930446
314,2593.65,0.2729691654134807
315,2605.6200000000003,0.2668141688892913
316,2617.65,0.2626112713800183
317,2623.68,0.2700018723791109
318,2635.79,0.27698877355639295
319,2647.9599999999996,0.2921078737485914
320,2654.06,0.2982649735984197
321,2666.31,0.2816400724771733
322,2672.46,0.2875650715060985
323,2684.7900000000004,0.2902889690714072
324,2697.19,0.27665626548745165
325,2703.4,0.2824833635312933
326,2715.88,0.2704526586338928
327,2722.1400000000003,0.2673859558568314
328,2734.71,0.27493394948180544
329,2747.33,0.25195944228587647
330,2753.66,0.2578596383595508
331,2766.3700000000003,0.26576162968599626
332,2772.75,0.27197732493876753
333,2785.55,0.25860261478758756
334,2791.97,0.2232076093836364
335,2804.86,0.23269719775483097
336,2817.81,0.26847078514094186
337,2824.3,0.2760195785877264
338,2837.3399999999997,0.27042486449621184
339,2843.8799999999997,0.26308485712209334
340,2857.0099999999998,0.2507235415529533
341,2863.5899999999997,0.2711700335221124
342,2876.8100000000004,0.2756392164753468
343,2883.44,0.27314800762360286
344,2884.0315,0.27323542525642197
345,2896.75,0.2751152936389125
346,2910.12,0.2901372891466016
347,2930.29,0.2816864823694954
348,2950.6,0.27602017554534924
349,2971.06,0.2786694686708033
350,2991.65,0.27813266175257734
351,3012.39,0.2782410547839515
352,3033.27,0.2789862477682858
353,3047.2700000000004,0.2803419430642953
354,3068.39,0.2804536359679897
355,3089.6600000000003,0.2792685288212843
356,3111.08,0.2813199216241789
357,3132.64,0.27628891438003367
358,3147.1,0.27509130952148353
359,3168.92,0.2783881021899784
360,3190.8799999999997,0.2678113948114334
361,3212.9999999999995,0.2747857873791285
362,3227.83,0.26430538239625867
363,3250.21,0.280733074876594
364,3272.7400000000002,0.29003986730652936
365,3287.84,0.2881226622329397
366,3310.63,0.2849465545755152
367,3311.31121,0.284485376069434
368,3318.26,0.27978100971446335
369,3325.9100000000003,0.2804658605784169
370,3333.58,0.2890269113139102
371,3341.27,0.27039996192094323
372,3348.97,0.2911137124637461
373,3356.69,0.27997546287808883
374,3364.43,0.24956211316397123
375,3372.1800000000003,0.2524940633856235
376,3379.96,0.27816671341458543
377,3387.75,0.28013376337931717
378,3395.5600000000004,0.2756869132155887
379,3403.39,0.28740056292339994
380,3411.23,0.2670285125669811
381,3419.09,0.27708106208210204
382,3426.98,0.28422511140453255
383,3434.88,0.2949354606627329
384,3442.79,0.2772032098567032
385,3450.73,0.28239305885798305
386,3458.6899999999996,0.27663910773080275
387,3466.66,0.27604105653939226
388,3474.65,0.28776680521952147
389,3482.6600000000003,0.2786801537711905
390,3490.69,0.2925294021943992
391,3498.73,0.2724151505533779
392,3506.7999999999997,0.2872658987196661
393,3514.88,0.27501574682172425
394,3522.99,0.290012994731092
395,3531.11,0.2802056425762296
396,3539.25,0.29277389029290696
397,3547.41,0.30241083788112405
398,3555.58,0.30038358540511106
399,3563.7799999999997,0.29290883273640766
400,3572.0,0.27465997993924407
401,3580.23,0.2728174270778503
402,3588.48,0.24942787408799624
403,3596.7599999999998,0.27797022090545187
404,3605.05,0.2917841676586773
405,3613.36,0.27359781428344254
406,3621.69,0.2711306607797475
407,3630.04,0.3113509071475922
408,3638.4,0.2919553534512068
409,3646.79,0.291320099562131
410,3648.0099999999998,0.28223319172605565
411,3650.7400000000002,0.16770397419123123
412,3653.47,0.23037335665640682
413,3656.2,0.2911373391215824
414,3658.9300000000003,0.360438821586758
415,3661.66,0.40626540405193357
416,3664.3900000000003,0.3818499865171091
417,3667.12,0.3084446689822847
418,3669.85,0.31252415144746026
419,3672.59,0.26920013384840574
420,3675.32,0.3330295163135813
421,3678.0499999999997,0.2496214987787569
422,3680.78,0.23563668124393247
423,3683.5099999999998,0.29494706370910806
424,3686.2400000000002,0.29327384617428365
425,3688.97,0.3139153286394592
426,3691.7,0.2767609111046348
427,3694.4300000000003,0.25829359356981035
428,3697.16,0.2898908760349859
429,3699.8900000000003,0.1846686585001615
430,3702.62,0.1593493409653371
431,3705.35,0.2666725234305127
432,3708.0800000000004,0.31064250589568826
433,3710.81,0.2641076883608638
434,3713.54,0.2699459708260394
435,3716.27,0.31139995329121495
436,3719.0,0.19535603575639057
437,3721.7299999999996,0.2713752182215662
438,3724.46,0.45160330068674176
439,3727.2,0.7603784830876872
440,3729.9300000000003,0.8936192655528628
441,3732.66,0.8649781480180383
442,3735.39,0.5473332304832139
443,3738.12,0.3589472129483895
444,3740.85,0.3236981954135651
445,3743.5800000000004,0.2705436778787406
446,3746.31,0.30381416034391623
447,3749.04,0.23916644280909183
448,3751.77,0.2318259252742674
449,3754.5,0.38782130773944296
450,3757.2299999999996,0.2763821902046185
451,3759.96,0.28990297266979415
452,3762.69,0.28741135513496974
453,3765.42,0.3648718376001453
454,3768.15,0.29960092006532085
455,3770.8799999999997,0.2571578025304964
456,3773.61,0.284370384995672
457,3776.34,0.2961445674608476
458,3779.0800000000004,0.305669849861793
459,3781.81,0.4095240323269686
460,3784.54,0.45767101479214417
461,3787.27,0.35061689725731976
462,3790.0,0.36184147972249536
463,3792.7300000000005,0.3460857621876709
464,3795.46,0.3252124446528465
465,3798.19,0.2818045271180221
466,3800.92,0.2694319095831977
467,3801.8939600000003,0.28098349704172904
468,3803.65,0.3018108943985012
469,3806.3799999999997,0.37985748051726625
470,3809.11,0.34479156663603133
471,3811.84,0.38256905275479636
472,3814.5699999999997,0.36268503887356135
473,3817.3,0.41116192499232646
474,3820.0299999999997,0.2912707111110915
475,3822.76,0.31048319722985657
476,3825.49,0.26173768334862163
477,3828.22,0.3720656694673867
478,3830.9500000000003,0.26723405558615176
479,3833.69,0.32985294165406975
480,3836.4199999999996,0.2597213277728348
481,3839.15,0.3037766138915999
482,3841.8799999999997,0.26227410001036494
483,3844.61,0.31432948612913
484,3847.34,0.36237877224789505
485,3850.0699999999997,0.2991722583666601
486,3852.8,0.31765184448542516
487,3855.5299999999997,0.4029412306041902
488,3858.26,0.43185141672295524
489,3860.9900000000002,0.3696342028417203
490,3863.72,0.3382568889604854
491,3866.4500000000003,0.4264288750792504
492,3869.18,0.3845720611980155
493,3871.91,0.45060024731678056
494,3874.64,0.4229970334355456
495,3877.37,0.37546071955431065
496,3880.1000000000004,0.3935984056730757
497,3882.83,0.3814334917918407
498,3885.56,0.3645906779106058
499,3888.3,0.24429496397852385
500,3891.0299999999997,0.26803865009728894
501,3893.76,0.390702136216054
502,3896.4900000000002,0.394574022334819
503,3899.22,0.29882990845358404
504,3901.9500000000003,0.37434809457234913
505,3904.68,0.37599708069111415
506,3907.41,0.37070856680987924
507,3910.14,0.3217189529286443
508,3912.87,0.37171023904740935
509,3915.6000000000004,0.39417162516617443
510,3918.33,0.33168561128493945
511,3921.06,0.4002664974037045
512,3923.79,0.3734082835224695
513,3926.52,0.3842298696412346
514,3929.2500000000005,0.37894135575999965
515,3931.98,0.2983543418787647
516,3934.71,0.27788392799752976
517,3937.44,0.2687724141162948
518,3940.18,0.30373930018421286
519,3942.91,0.3294372863029779
520,3945.6400000000003,0.36416117242174295
521,3948.37,0.34162675854050806
522,3951.1000000000004,0.3438252446592731
523,3953.83,0.38083323077803816
524,3956.56,0.3891266168968032
525,3959.29,0.3577860030155683
526,3962.02,0.37477548913433334
527,3964.75,0.32599347525309835
528,3967.48,0.2501455613718634
529,3970.21,0.25067084749062846
530,3972.9399999999996,0.2633244336093935
531,3975.67,0.2687840197281586
532,3978.4,0.27457350584692364
533,3981.13,0.3177617919656887
534,3983.86,0.3999122780844538
535,3986.5899999999997,0.39699326420321884
536,3989.32,0.40848665032198384
537,3992.0499999999997,0.4152654364407489
538,3994.7899999999995,0.393364022508667
539,3997.52,0.416888008627432
540,4000.25,0.3615227947461971
541,4002.98,0.4089491808649621
542,4005.71,0.40618886698372714
543,4008.4399999999996,0.4091691531024922
544,4011.17,0.42486403922125726
545,4013.9,0.41920912534002236
546,4016.63,0.4563149114587874
547,4019.36,0.4878632975775525
548,4022.0899999999997,0.45461738369631755
549,4024.82,0.4091452698150826
550,4027.5499999999997,0.4277226559338476
551,4030.28,0.4399000420526126
552,4033.01,0.4292007281713777
553,4035.74,0.4420864142901428
554,4038.4700000000003,0.43308490040890785
555,4041.2,0.4431492865276729
556,4043.93,0.40700847264643797
557,4046.6600000000003,0.422300358765203
558,4049.4,0.40416084483312104
559,4052.13,0.48403933095188606
560,4054.86,0.4744393170706511
561,4057.5899999999997,0.4242651031894162
562,4060.32,0.4343048893081813
563,4063.05,0.48548097542694635
564,4065.7799999999997,0.4062743615457114
565,4068.51,0.41545924766447645
566,4071.24,0.4356243337832415
567,4073.9700000000003,0.46615911990200654
568,4076.7,0.4336948060207716
569,4079.43,0.4444552921395366
570,4082.1600000000003,0.4260612782583017
571,4084.89,0.3924854643770668
572,4087.6200000000003,0.40832695049583184
573,4090.35,0.47944843661459685
574,4093.08,0.45687722273336195
575,4095.81,0.415838708852127
576,4098.54,0.423399194970892
577,4101.27,0.43683458108965706
578,4104.01,0.4441486671575751
579,4106.74,0.3835925532763402
580,4109.47,0.38455753939510523
