,lambda (Angstroms),Total Flux (erg/s/cm^2/Angstrom)
0,100.03,0.002003567261042933
1,101.89,0.0024098500334740367
2,104.02,0.002875109281041332
3,104.712855,0.003026450779511045
4,105.96,0.002799153110279792
5,107.93,0.002440112243005431
6,109.92999999999999,0.0020756047564515403
7,114.05999999999999,0.0013228963438307775
8,118.07,0.0005920599158961466
9,120.22644299999999,0.00019907089523165164
10,121.09,0.00019180155642024692
11,125.06,0.00015834636655170874
12,127.09,0.00014123968155774588
13,127.97,0.00013382722898484575
14,130.96,0.00010863364270408264
15,131.85999999999999,0.00010107170211020766
16,134.01,8.295944953039472e-05
17,137.13,5.6712642198294124e-05
18,138.038426,4.906504440329799e-05
19,140.0,4.850964484667948e-05
20,142.93,4.8223329701756296e-05
21,146.93,4.859655404315811e-05
22,151.05,4.7775611414801976e-05
23,154.93,4.710875772596174e-05
24,158.489319,4.6562700438803156e-05
25,158.9,4.643407484522527e-05
26,161.85000000000002,4.5540370351515996e-05
27,166.01000000000002,4.4386738482420904e-05
28,169.86999999999998,4.33508073923471e-05
29,173.03,4.252715045332293e-05
30,177.06,4.155533495513706e-05
31,179.94,4.092644127653278e-05
32,181.970086,4.0500013968091476e-05
33,182.01999999999998,4.051972181529857e-05
34,185.82999999999998,4.2122664452546506e-05
35,191.04,4.430906061529237e-05
36,194.14000000000001,4.577230885032351e-05
37,198.20999999999998,4.7619883113735344e-05
38,201.89,4.960918443790133e-05
39,205.17000000000002,5.121729018335363e-05
40,208.929613,5.2691547437968506e-05
41,209.95,5.3853942006625334e-05
42,215.84,6.241696371452258e-05
43,219.85000000000002,6.79613635360282e-05
44,222.91,7.180062437238903e-05
45,227.04999999999998,7.775655373923022e-05
46,230.21,9.500120499508001e-05
47,233.95,0.00012868495268396552
48,239.88329199999998,0.00015467745416768787
49,239.95,0.00015486088734983217
50,246.11,0.00015009898377107113
51,251.84,0.00015629434781225607
52,257.11,0.00014034240023756928
53,260.09000000000003,0.00015354243766212968
54,263.71,0.00015914561211746823
55,269.23,0.0001590507715079291
56,274.24,0.0001586366438894887
57,275.42287,0.00015881373414281533
58,278.69,0.00016427940077950955
59,283.87,0.00017213768204275674
60,289.82,0.00017504958484513522
61,295.89,0.00018638677022504073
62,300.69,0.0001923286733261192
63,307.7,0.00020420058889665256
64,316.227766,0.0002185813266115186
65,317.78000000000003,0.00021908380967279936
66,328.19,0.00021944775269612226
67,338.15999999999997,0.00021809988208541423
68,347.63,0.00021678966416330741
69,357.37,0.0002146409977893559
70,363.078055,0.00021458702974506264
71,365.7,0.00021725165302655553
72,375.08,0.00022388275125123454
73,384.7,0.00022579595987825077
74,394.57,0.00023799377517436825
75,404.69,0.000246342297139587
76,414.11999999999995,0.00025185587669808625
77,416.86938299999997,0.00025294024956690436
78,421.82,0.00025400240461963155
79,429.65999999999997,0.0002565502078064569
80,440.68,0.00026167858218385684
81,450.94,0.00026359003074212577
82,460.39,0.00026569686494053136
83,470.03000000000003,0.0002682978555937197
84,478.630092,0.0002717534012403797
85,479.87,0.00027147854166499684
86,489.92,0.0002649077570167635
87,500.18,0.00026342979328632826
88,505.97,0.0002596580128770476
89,511.83,0.0002759916727736996
90,520.14,0.00027400014337799626
91,529.8100000000001,0.0002696348684975568
92,539.66,0.0002610415258323729
93,549.5408739999999,0.00026916141201617006
94,549.6999999999999,0.000269330143416667
95,559.92,0.00027860967042219554
96,570.33,0.0002883832237614864
97,579.5899999999999,0.00028150707034379504
98,590.37,0.00029815632759620184
99,599.96,0.0002981836830739923
100,609.7099999999999,0.0002976240186223195
101,619.62,0.0003303758342411833
102,629.68,0.0003397412811761752
103,630.957344,0.000339760120068485
104,639.92,0.0003423149618575405
105,650.3100000000001,0.00036553929294081143
106,657.8399999999999,0.00038072620622830224
107,665.4599999999999,0.00039420858581006593
108,674.72,0.0003948538623096895
109,685.6800000000001,0.0003926824465900215
110,695.22,0.00046476307378293824
111,704.89,0.00045248987451202674
112,716.35,0.0005092386493160965
113,724.43596,0.0005232585375262118
114,726.3100000000001,0.0005263825020141793
115,734.7199999999999,0.000543391047677681
116,744.94,0.0005978176040012228
117,755.3100000000001,0.000631572004302116
118,765.81,0.0006550668827167137
119,774.68,0.000714081943244093
120,785.46,0.0007580639437497467
121,794.55,0.0007896655287772412
122,805.6099999999999,0.0008228837513739509
123,814.9399999999999,0.0008501370267652077
124,824.37,0.0009280678314746989
125,831.763771,0.0008275141721184956
126,835.84,0.0007709338452442994
127,845.52,0.0009705501073941833
128,855.31,0.0009938365963866797
129,865.21,0.0010650063122217882
130,875.23,0.0011419519300670193
131,885.37,0.001243928149922373
132,895.62,0.0013119541966203387
133,905.99,0.0012956311453284272
134,914.37,0.0021099181357019836
135,924.9599999999999,0.0159534737380953
136,935.67,0.035563842242498735
137,944.33,0.07009333533756258
138,954.992586,0.10329603907328158
139,955.26,0.10412879483265218
140,964.0999999999999,0.10903552588743264
141,975.27,0.0150231360550681
142,984.2900000000001,0.07954947163358841
143,995.69,0.09387939480378038
144,1004.9,0.1546997846018039
145,1014.1999999999999,0.15469980166169736
146,1025.94,0.06771194448784242
147,1035.44,0.0983032254630024
148,1045.02,0.213529164004269
149,1054.6899999999998,0.2106002698074055
150,1064.45,0.153990272872412
151,1074.29,0.19296107350352504
152,1084.23,0.14174357109227137
153,1094.27,0.20771096563865096
154,1096.4782,0.2057708682001916
155,1104.3899999999999,0.19881914509099427
156,1114.6100000000001,0.18597767193675763
157,1124.9199999999998,0.16348279021266957
158,1135.33,0.2261758989665244
159,1145.8400000000001,0.20158039819832216
160,1153.78,0.22102114214698762
161,1164.46,0.22773552519128828
162,1175.23,0.14604369966573752
163,1186.11,0.22203686366592396
164,1194.33,0.1369228809528295
165,1205.38,0.08902861876551885
166,1213.73,0.07088835367375017
167,1224.96,0.15081776434673672
168,1236.3,0.24627188454546042
169,1244.87,0.2712758685051661
170,1256.39,0.25259137156418704
171,1258.92541,0.24034950038019454
172,1265.0900000000001,0.21058527189362522
173,1273.86,0.2880115312926337
174,1285.65,0.30507231114603267
175,1294.56,0.21999847149325788
176,1303.54,0.21898663231459148
177,1315.6000000000001,0.29404141399669426
178,1324.72,0.27695237576624465
179,1333.9,0.23410933794217365
180,1346.24,0.29881962152071
181,1355.5700000000002,0.2880097847125856
182,1364.97,0.24854964837856952
183,1374.43,0.2657110124509321
184,1383.9599999999998,0.26941167699740304
185,1393.55,0.22983514195025262
186,1406.4499999999998,0.24011592932165612
187,1416.2,0.244013495358182
188,1426.01,0.2549226618010865
189,1435.8999999999999,0.25259122878582924
190,1442.52,0.27003307362293705
191,1445.43977,0.27498889880898275
192,1445.85,0.27568519573042055
193,1455.87,0.2651009526890112
194,1465.96,0.24011961004551624
195,1476.1299999999999,0.24122386785678046
196,1486.36,0.2479802260091141
197,1496.6599999999999,0.253759784559362
198,1503.57,0.23518812383918855
199,1510.51,0.20343416328954977
200,1517.48,0.2225514029104457
201,1524.49,0.21450034275872124
202,1535.05,0.1808972027869366
203,1545.69,0.20484606326991114
204,1556.41,0.19294232420764493
205,1563.59,0.1960812650222838
206,1574.43,0.21058562664215635
207,1585.3400000000001,0.22408948865994327
208,1596.33,0.22825885113248934
209,1603.7,0.22564179302718132
210,1614.82,0.2282567562387111
211,1626.01,0.21302331984815523
212,1633.52,0.23089636253867582
213,1644.84,0.23410862688710365
214,1656.24,0.21400909169029067
215,1659.58691,0.2242435584647201
216,1663.88,0.23737148893381163
217,1671.56,0.207699407751861
218,1675.42,0.23736816799114105
219,1683.1499999999999,0.25142798888482876
220,1694.82,0.23410987333881783
221,1706.57,0.2230638611138283
222,1714.44,0.20722058781930336
223,1726.3300000000002,0.20626898140610117
224,1734.3,0.22306341226285292
225,1746.3200000000002,0.21698741124631044
226,1754.38,0.2346517458392112
227,1766.54,0.21204675063445605
228,1774.6899999999998,0.21649048896350587
229,1786.99,0.2225586995705381
230,1795.2399999999998,0.24067534205086458
231,1803.5300000000002,0.2395661861917017
232,1816.03,0.2154938051012873
233,1824.4099999999999,0.22255875297827346
234,1837.0600000000002,0.21204907811477405
235,1845.54,0.19206463014303693
236,1854.06,0.19030628383181045
237,1866.9099999999999,0.19744691727086444
238,1875.53,0.22051857511091463
239,1884.18,0.19881743419634784
240,1892.88,0.18899949535741944
241,1905.46072,0.20330224421974488
242,1906.0,0.20391528876081716
243,1914.8000000000002,0.1929540178691358
244,1923.64,0.1898685448370377
245,1936.97,0.19835913154316123
246,1945.9099999999999,0.2057978531600213
247,1954.8899999999999,0.19074197263646464
248,1968.4399999999998,0.2130297475702962
249,1977.5300000000002,0.2205168611605935
250,1982.09,0.2057974171530859
251,1995.8300000000002,0.19927048191993793
252,2005.04,0.20770288908898504
253,2014.3,0.19789549358251127
254,2023.5900000000001,0.21107199647072492
255,2032.93,0.19563319668341764
256,2047.03,0.2053218421865191
257,2056.47,0.19563233704816999
258,2065.9700000000003,0.1956300286991958
259,2075.5,0.21155741874490905
260,2080.29,0.1969866624300052
261,2085.08,0.20674330611510136
262,2094.71,0.19383679080977279
263,2104.3700000000003,0.19563027389913165
264,2114.09,0.19788985377786542
265,2123.85,0.20110813151618245
266,2133.65,0.18596500711408273
267,2143.5,0.18985598003646215
268,2153.39,0.19880425081842476
269,2163.33,0.1929402189248665
270,2173.32,0.1907300843557873
271,2183.35,0.18510964764629143
272,2187.7616199999998,0.1895132849840165
273,2193.4300000000003,0.19517195341134172
274,2203.5499999999997,0.1894207851655188
275,2213.7200000000003,0.1796545190528687
276,2223.94,0.17275915507339143
277,2234.21,0.18468179322708694
278,2244.52,0.1763713330873207
279,2254.88,0.1680507750807273
280,2265.29,0.1735533192073067
281,2275.74,0.17800926504042436
282,2286.25,0.18215041343334937
283,2296.7999999999997,0.17159536353281266
284,2307.4,0.17060541576544871
285,2312.7200000000003,0.1615218427350359
286,2323.4,0.12154559838074847
287,2334.12,0.14969245573299927
288,2344.89,0.14678711521842294
289,2355.7200000000003,0.15745277726365395
290,2366.59,0.14509404101542323
291,2377.52,0.14898000732699984
292,2383.0,0.13943984112274
293,2394.0,0.1495777104207586
294,2405.04,0.1423539814253154
295,2416.15,0.14650545541631418
296,2427.3,0.1542944311138512
297,2432.89,0.14709846960257153
298,2444.12,0.15634904871318506
299,2455.4100000000003,0.15366973038360593
300,2466.7400000000002,0.15314211376056505
301,2472.43,0.14734835651563102
302,2483.84,0.15270274330566666
303,2495.3,0.14301283222887512
304,2506.82,0.15843992371189092
305,2511.88643,0.14427192972645406
306,2512.6,0.1422764280809227
307,2518.39,0.1483831324771328
308,2524.2,0.1408085365431053
309,2535.85,0.14260584417969382
310,2547.55,0.13888875099068834
311,2553.43,0.14822005390082915
312,2565.21,0.14501915939087318
313,2577.05,0.15379336389020434
314,2582.99,0.15177476580963234
315,2594.92,0.15021396882289423
316,2606.89,0.1449600711756809
317,2612.9,0.14338217193927724
318,2624.96,0.14894447280599465
319,2637.08,0.1522436726819992
320,2643.16,0.16322777228976387
321,2655.36,0.16532067084481794
322,2667.62,0.15061326840915917
323,2673.76,0.15780566702621102
324,2686.1099999999997,0.15655216310448297
325,2692.3,0.15028816089594074
326,2704.73,0.15397595565326225
327,2717.21,0.1472313495849897
328,2723.4700000000003,0.14698264622061583
329,2736.04,0.15410373866627403
330,2742.35,0.1355446344763061
331,2755.0099999999998,0.137603725435895
332,2767.73,0.14195841540477108
333,2774.11,0.1484013100589715
334,2786.9100000000003,0.14288619870689712
335,2793.34,0.11838249253550348
336,2806.23,0.12671667969735984
337,2812.7000000000003,0.14725847286549096
338,2825.68,0.15227525854127802
339,2832.2000000000003,0.14484555088381512
340,2845.2699999999995,0.1417313350735329
341,2851.8300000000004,0.13891812675559478
342,2864.9900000000002,0.14938070945924328
343,2878.21,0.14888789117217893
344,2884.0315,0.14867387245790337
345,2884.85,0.1486437947716778
346,2898.17,0.14747159027059192
347,2911.5400000000004,0.15821958575261003
348,2931.72,0.1527968789333973
349,2952.0499999999997,0.15030187206349668
350,2972.5099999999998,0.15199626514966655
351,2993.11,0.15194965818852768
352,3006.93,0.15285465351848213
353,3027.77,0.15316174647624262
354,3048.7599999999998,0.1520595393833152
355,3069.8900000000003,0.1523677322430791
356,3091.1699999999996,0.1526805250521551
357,3112.6,0.15228581781054315
358,3126.9700000000003,0.15005891295464194
359,3148.64,0.15071480563192935
360,3170.4700000000003,0.1503306982551497
361,3192.44,0.1432101908310613
362,3207.18,0.1474256858501299
363,3229.41,0.14206147833818253
364,3251.8,0.148724770772168
365,3266.81,0.15240746569999838
366,3289.45,0.15098115804950402
367,3311.31121,0.1502909884271779
368,3312.25,0.15026134459786067
369,3319.89,0.14933389524562682
370,3327.54,0.1515197458287958
371,3335.21,0.15516229628277048
372,3342.8999999999996,0.1476057466075508
373,3350.6000000000004,0.15431619686773396
374,3358.33,0.14849864693412562
375,3366.0699999999997,0.14489079693592014
376,3373.83,0.13720074680852032
377,3381.6099999999997,0.14476289655192617
378,3389.4,0.15239554623073487
379,3397.2200000000003,0.14665339571575206
380,3405.05,0.14743664513617205
381,3412.8999999999996,0.14451889442739776
382,3420.77,0.14901964358942912
383,3428.6499999999996,0.14947239268686333
384,3436.5499999999997,0.1492348416551032
385,3444.4799999999996,0.13714789042955156
386,3452.42,0.1536413391394028
387,3460.37,0.14283208778465684
388,3468.35,0.14392763623611937
389,3476.3500000000004,0.1420595845583876
390,3484.36,0.14447243281605868
391,3492.3900000000003,0.1442465809445354
392,3500.44,0.1404191289438178
393,3508.51,0.1447914768139059
394,3516.6,0.13870202455479963
395,3524.7099999999996,0.14400817216649903
396,3532.83,0.14747651971360126
397,3540.98,0.15067156706691204
398,3549.14,0.1535890143556256
399,3557.3199999999997,0.14814336151514487
400,3565.52,0.1520583085454698
401,3573.7400000000002,0.1394262554466004
402,3581.98,0.1379359022185367
403,3590.2400000000002,0.1285284488612786
404,3598.5099999999998,0.1443216954394234
405,3606.81,0.1408181418237767
406,3615.12,0.1412474881435328
407,3623.46,0.14102653426949743
408,3631.81,0.16092518033086486
409,3637.82,0.14458164150796887
410,3640.56,0.14223892380834577
411,3643.31,0.14632140604412544
412,3646.05,0.14345678834450232
413,3648.7999999999997,0.14102627058028203
414,3651.54,0.1426505528806589
415,3654.2799999999997,0.14955813518103572
416,3657.03,0.14583431741681543
417,3659.77,0.15754989971719233
418,3662.5200000000004,0.14613588195297203
419,3665.26,0.15126306425334887
420,3668.0099999999998,0.14280674648912858
421,3670.75,0.14049882878950545
422,3673.5,0.14525981102528518
423,3676.2400000000002,0.14614749332566201
424,3678.98,0.1452199756260389
425,3681.7299999999996,0.1503173578618186
426,3684.4700000000003,0.14990584016219546
427,3687.22,0.15975312239797515
428,3689.96,0.14647240469835202
429,3692.71,0.16698508693413172
430,3695.4500000000003,0.1589530692345086
431,3698.2,0.1463616514702883
432,3700.9399999999996,0.14251103377066515
433,3703.68,0.15703361607104202
434,3706.43,0.15109429830682175
435,3709.17,0.1530375806071986
436,3711.92,0.15466676284297828
437,3714.6600000000003,0.16605754514335516
438,3717.41,0.19332672737913487
439,3720.1499999999996,0.2906157096795117
440,3722.9,0.46013699191529145
441,3725.64,0.5713223742156683
442,3728.38,0.5243989565160452
443,3731.1299999999997,0.3629653387518249
444,3733.8700000000003,0.24401602105220174
445,3736.62,0.17672240328798144
446,3739.36,0.1787758855883583
447,3742.11,0.14938886782413802
448,3744.85,0.14685475012451488
449,3747.6,0.1377199323602946
450,3750.3399999999997,0.14854231466067144
451,3753.08,0.15871519696104833
452,3755.83,0.169142379196828
453,3758.57,0.17900206149720488
454,3761.32,0.1677851437329846
455,3764.0600000000004,0.16379532603336147
456,3766.81,0.16164320826914114
457,3769.5499999999997,0.164746390569518
458,3772.3,0.16542447280529773
459,3775.04,0.1780737551056746
460,3777.79,0.18893583734145428
461,3780.5299999999997,0.21484311964183114
462,3783.2700000000004,0.200970901942208
463,3786.02,0.19336118417798773
464,3788.7599999999998,0.19185956647836458
465,3791.51,0.1769482487141443
466,3794.25,0.16700813101452117
467,3797.0,0.15409191325030086
468,3799.74,0.16567979555067772
469,3801.8939600000003,0.172461544278162
470,3802.4900000000002,0.17433817858870276
471,3805.23,0.19572746457700688
472,3807.97,0.20831305056531096
473,3810.7200000000003,0.20915923650247753
474,3813.46,0.20676442249078164
475,3816.21,0.2153994084279482
476,3818.95,0.19833169441625229
477,3821.7000000000003,0.19922998035341885
478,3824.44,0.19015986634172297
479,3827.1899999999996,0.1671059522788895
480,3829.93,0.16531423826719363
481,3832.67,0.14631502425549772
482,3835.42,0.15286821019266428
483,3838.16,0.15772859618096838
484,3840.9100000000003,0.17292888211813492
485,3843.65,0.18724846810643905
486,3846.3999999999996,0.2049193540436056
487,3849.14,0.2059927400319097
488,3851.89,0.21149012596907624
489,3854.63,0.21327681195738038
490,3857.37,0.2143675979456845
491,3860.1200000000003,0.21983018388285103
492,3862.86,0.23322786987115515
493,3865.6099999999997,0.24349245580832166
494,3868.35,0.2353677417966258
495,3871.1,0.21882662773379233
496,3873.84,0.20722791372209645
497,3876.5899999999997,0.195378699659263
498,3879.33,0.18549658564756713
499,3882.07,0.18200567163587122
500,3884.82,0.17516735757303775
501,3887.56,0.16454284356134188
502,3890.31,0.17322442949850841
503,3893.05,0.17342771548681254
504,3895.7999999999997,0.18463790142397907
505,3898.54,0.1969102874122832
506,3901.29,0.20368937334944973
507,3904.03,0.20211235933775384
508,3906.77,0.21325384532605798
509,3909.5200000000004,0.2181481312632245
510,3912.26,0.22355381725152862
511,3915.0099999999998,0.22283990318869518
512,3917.75,0.21453528917699927
513,3920.5,0.20980797511416582
514,3923.2400000000002,0.20660706110246993
515,3925.99,0.19768674703963648
516,3928.7300000000005,0.1896952330279406
517,3931.4700000000003,0.17969141901624472
518,3934.22,0.18373900495341125
519,3936.96,0.19415549094171536
520,3939.71,0.1994673768788819
521,3942.4500000000003,0.20624176286718604
522,3945.2,0.21121724880435258
523,3947.9399999999996,0.2130213347926567
524,3950.69,0.21354852072982325
525,3953.43,0.20744200671812735
526,3956.17,0.19423089270643146
527,3958.92,0.18482337864359802
528,3961.6600000000003,0.17020296463190213
529,3964.41,0.15689815056906867
530,3967.1499999999996,0.1461750365573728
531,3969.9,0.15370252249453933
532,3972.64,0.15563410848284345
533,3975.39,0.16602649442001
534,3978.13,0.1866154804083141
535,3980.8700000000003,0.19463676639661823
536,3983.62,0.20603815233378475
537,3986.36,0.20717533832208887
538,3989.11,0.20926842425925543
539,3991.85,0.21103781024755955
540,3994.6,0.2119882961847261
541,3997.3399999999997,0.2190700821730302
542,4000.09,0.22058896811019674
543,4002.83,0.22125055409850086
544,4005.57,0.22115824008680496
545,4008.32,0.2223524260239715
546,4011.0600000000004,0.21869331201227563
547,4013.81,0.21706879794944217
548,4016.5499999999997,0.2303039839377463
549,4019.3,0.21858236987491284
550,4022.04,0.21132755586321694
551,4024.79,0.2215979418003835
552,4027.53,0.2224916277886876
553,4030.2700000000004,0.22010841377699172
554,4033.02,0.22043839971415827
555,4035.7599999999998,0.22488138570246238
556,4038.51,0.22746737163962893
557,4041.25,0.22506105762793305
558,4044.0,0.2263652435650996
559,4046.74,0.2260642295534037
560,4049.4900000000002,0.22225901549057026
561,4052.23,0.22241030147887436
562,4054.97,0.2223469874671785
563,4057.7200000000003,0.21596677340434503
564,4060.46,0.21538145939264913
565,4063.21,0.2235699453298157
566,4065.95,0.2255712313181198
567,4068.7000000000003,0.2244397172552863
