,lambda (Angstroms),Total Flux (erg/s/cm^2/Angstrom)
0,100.08,0.0007700016329487253
1,101.94,0.0009252966274642132
2,104.07,0.0011031342283450134
3,104.712855,0.0011568076459521062
4,106.00999999999999,0.0010664459551744585
5,107.98,0.0009292128827853832
6,109.98,0.0007898933778934293
7,114.11,0.0005021966164050452
8,118.11999999999999,0.0002228636758361787
9,120.22644299999999,7.623412506121228e-05
10,120.87,7.419391222866432e-05
11,125.12,6.056882397547873e-05
12,126.86,5.4998722047115706e-05
13,128.03,5.125323747976814e-05
14,131.02,4.1680135929879895e-05
15,131.92000000000002,3.8862215470381746e-05
16,134.07,3.198826868935852e-05
17,136.88,2.3120350611369926e-05
18,138.038426,1.9430594116164026e-05
19,140.06,1.9277839498239847e-05
20,143.0,2.0650350981037755e-05
21,147.0,2.4650657311375034e-05
22,151.12,2.5277130371622435e-05
23,155.0,2.6165686972049597e-05
24,158.489319,2.7108774000982927e-05
25,158.97000000000003,2.7209334300938396e-05
26,161.92999999999998,2.7887425987143637e-05
27,166.08,2.9158194837735434e-05
28,169.95,3.0393550826118633e-05
29,173.11,3.1471548842472864e-05
30,177.14000000000001,3.297275789497526e-05
31,180.02,3.42879530491209e-05
32,181.970086,3.514737241780377e-05
33,182.11,3.524138280159062e-05
34,185.92000000000002,3.81465627301602e-05
35,191.13000000000002,4.204501683195745e-05
36,193.79,4.472610476109001e-05
37,197.85,4.810500686345024e-05
38,201.99,5.198085206142349e-05
39,204.8,5.5000073294830446e-05
40,208.929613,5.740671393808513e-05
41,210.04999999999998,5.83795655679112e-05
42,215.94,6.873122351916264e-05
43,219.95000000000002,7.478082130940343e-05
44,223.01000000000002,7.866877072041013e-05
45,227.16,8.542603469285382e-05
46,229.79,0.00012318903725852296
47,234.06,0.00020386175081571202
48,239.88329199999998,0.00025509961525920334
49,240.06,0.0002565442675126603
50,246.22000000000003,0.0002537251988592755
51,251.96,0.00027675919625043974
52,257.23,0.00024432623897717063
53,260.21,0.0002810154132325137
54,263.83,0.0002993953725628298
55,268.74,0.00030656018618488835
56,273.73,0.00031331657294131853
57,275.42287,0.0003153817506767974
58,278.82,0.0003215038710383403
59,284.01,0.0003309195515744769
60,289.95,0.00032768920617652923
61,296.02,0.0003440761429500069
62,300.83,0.00035002978329274617
63,307.84,0.0003652302142288382
64,316.227766,0.00038454666387686607
65,317.93,0.0003875802058289638
66,328.34000000000003,0.00039799747442576796
67,338.32,0.000404501831063242
68,347.8,0.0004095414900735882
69,356.72,0.00041481716374155097
70,363.078055,0.00041855947084346116
71,365.87,0.00042129741574331055
72,375.26,0.0004275827886055529
73,384.88,0.00042177828945057645
74,394.75000000000006,0.00043856095549427523
75,404.88000000000005,0.0004451163053445963
76,414.31,0.00044770095263862666
77,416.86938299999997,0.00044782261577444436
78,422.01000000000005,0.0004477135823485029
79,429.86,0.00044851853111533055
80,440.89000000000004,0.00045158898396859286
81,451.16,0.0004487736698074871
82,459.54,0.00044868286925538723
83,470.25,0.0004478515254710209
84,478.630092,0.00044872261781545426
85,480.09000000000003,0.0004485264569852784
86,490.15000000000003,0.0004404933597415004
87,500.41,0.0004400574227910866
88,506.21,0.0004354924712986499
89,512.07,0.00044514840789422255
90,520.39,0.0004411451560981755
91,530.06,0.0004341501862823371
92,539.92,0.00042257702874519485
93,549.5408739999999,0.0004177893813340927
94,549.95,0.00041762309748837555
95,560.18,0.0004198994359778216
96,570.59,0.00042036785373687665
97,579.86,0.0004117667361217413
98,590.65,0.0004112829323388599
99,600.24,0.0004002181334252516
100,610.0,0.00036157625382182967
101,619.91,0.00039935197360974853
102,629.98,0.00039197855274843103
103,630.957344,0.0003918530440691352
104,640.2199999999999,0.00039162055868293544
105,650.62,0.0003871314331061594
106,658.15,0.000381700773914513
107,664.24,0.00038457160134118936
108,675.04,0.00038186760170376817
109,684.4300000000001,0.00037018726813012136
110,695.5500000000001,0.00037732754924418393
111,705.22,0.00036428382382808547
112,716.68,0.00037290557199059967
113,724.43596,0.000370880907834853
114,726.65,0.00037024633567079104
115,735.07,0.0003681461963665433
116,745.29,0.00036534290400438025
117,755.66,0.00036256427388739107
118,764.41,0.00033891187152252543
119,775.0500000000001,0.0003593597534468489
120,785.83,0.0003543956601333346
121,794.93,0.00035545836967387437
122,804.13,0.00035501455404452994
123,815.3199999999999,0.00035312659753449047
124,824.76,0.00035495588149742405
125,831.763771,0.0003355833015045324
126,834.3100000000001,0.00032826711350012616
127,845.92,0.00034743313250203356
128,855.7099999999999,0.00034377875412379703
129,865.62,0.0003437758470013941
130,875.64,0.00034524944686350546
131,885.7800000000001,0.00034673151798145045
132,893.98,0.0003468606204634178
133,904.33,0.0003416637412790716
134,914.8000000000001,0.00042724683335055924
135,925.39,0.0013300747966778804
136,933.96,0.0025846882771986684
137,944.7700000000001,0.004611252954495018
138,954.992586,0.006283635424720047
139,955.71,0.006401046506833102
140,964.55,0.007162967707907705
141,975.72,0.0014672438137904324
142,984.7499999999999,0.00607166380538587
143,993.86,0.00644477986667429
144,1005.37,0.009350325018752196
145,1014.6700000000001,0.009033374870561448
146,1024.06,0.003998785675775309
147,1035.92,0.0063856997577600135
148,1045.51,0.012122894237206331
149,1055.18,0.011902141786345629
150,1064.94,0.009392642288889537
151,1074.8,0.01118515362854967
152,1084.74,0.008786898037902786
153,1094.78,0.011765481284372131
154,1096.4782,0.011689775126013388
155,1104.91,0.011313674651164922
156,1115.13,0.010855062682442306
157,1125.45,0.00974285807410401
158,1135.87,0.01243143782615003
159,1143.74,0.011286761388395922
160,1154.3200000000002,0.012036796317056855
161,1165.0,0.012402087606102107
162,1175.78,0.008564245255531677
163,1183.93,0.012035798626853663
164,1194.8899999999999,0.008235462724975006
165,1205.94,0.005928443547442238
166,1214.3,0.003993684275571292
167,1225.54,0.008159056182768729
168,1234.03,0.012399635179397397
169,1245.45,0.013688269535286608
170,1254.08,0.013042035436453324
171,1258.92541,0.012253709950135614
172,1265.6899999999998,0.01115340659455753
173,1274.46,0.014565159298639222
174,1286.25,0.01528602982100218
175,1295.1699999999998,0.0120053029134091
176,1304.15,0.011813466161146112
177,1316.2099999999998,0.014938537382494484
178,1325.3400000000001,0.014266121018556724
179,1334.53,0.012570894809949055
180,1343.78,0.015076218756671478
181,1356.2099999999998,0.014598830935888747
182,1365.61,0.012982395270936397
183,1375.08,0.013688059787202488
184,1384.61,0.013814494458798673
185,1394.2099999999998,0.012033299311613295
186,1403.8700000000001,0.01248478431975801
187,1413.6000000000001,0.012746039509121164
188,1423.3999999999999,0.013132614879702758
189,1436.5700000000002,0.01301270897465782
190,1443.2,0.013782766138632918
191,1445.43977,0.013954958459550084
192,1446.53,0.014038774305860254
193,1456.5600000000002,0.013593706098868962
194,1466.6499999999999,0.012513368022244621
195,1473.42,0.012456012731982304
196,1483.6299999999999,0.012716844916091865
197,1493.92,0.012953167274024027
198,1504.27,0.012228979762323141
199,1511.22,0.010850394863161679
200,1518.19,0.011652460007455864
201,1525.1999999999998,0.011257295238661352
202,1535.77,0.009761175204972623
203,1546.42,0.010800721345106493
204,1553.56,0.010173786858773709
205,1564.32,0.010338990237913657
206,1575.1699999999998,0.011052183812604035
207,1586.09,0.011625877539389188
208,1593.41,0.011868643444157256
209,1604.45,0.011625937431676312
210,1615.5700000000002,0.01165265159301797
211,1626.77,0.010976525928182228
212,1634.28,0.011706592245778979
213,1645.6100000000001,0.011896556863404965
214,1653.21,0.01092603337655214
215,1659.58691,0.011527648820138332
216,1664.66,0.012006327729060582
217,1672.35,0.010604099749550873
218,1676.1999999999998,0.01206202083913314
219,1683.9399999999998,0.012629943652994626
220,1695.61,0.011788258825832296
221,1703.44,0.011309763067761942
222,1715.25,0.010727660462038966
223,1723.17,0.01067850613203677
224,1735.11,0.01141514558907891
225,1743.12,0.01113017268714487
226,1755.2,0.011925344365626365
227,1763.3,0.01082756289176048
228,1775.53,0.01115617695035557
229,1783.72,0.011363256904557842
230,1796.09,0.012203483184592289
231,1804.3799999999999,0.012036124725536959
232,1816.8799999999999,0.01110592306833652
233,1825.27,0.011337786196023585
234,1833.69,0.01085360979973337
235,1846.4,0.009922680474691964
236,1854.9299999999998,0.010014801823818385
237,1863.4899999999998,0.010366132648967522
238,1876.41,0.011209387656085151
239,1885.0700000000002,0.010342685067976686
240,1893.77,0.00996916811456518
241,1905.46072,0.010451624753601617
242,1906.9,0.010510969178170355
243,1915.6999999999998,0.010154519189253272
244,1924.54,0.009946389382204749
245,1933.42,0.010084066757024786
246,1946.82,0.010729842682991955
247,1955.81,0.010083558807950525
248,1964.84,0.011080624114777655
249,1973.91,0.011311578603473347
250,1983.02,0.010778392274037594
251,1996.77,0.010484801041354653
252,2005.98,0.010728612666590297
253,2015.24,0.010364603269161641
254,2024.54,0.010728243053601542
255,2033.8899999999999,0.010340371815377142
256,2043.2800000000002,0.0108269497590213
257,2052.71,0.010316246884534018
258,2066.94,0.010339685834273782
259,2071.7,0.011103868476632268
260,2076.48,0.011467090709925035
261,2086.06,0.012286254767444847
262,2095.69,0.01154607780230036
263,2105.36,0.01149263001902443
264,2115.08,0.011841181213084197
265,2124.84,0.011732681589012525
266,2134.65,0.01087489094227655
267,2144.5,0.011705629477409133
268,2154.4,0.012032736989877415
269,2164.35,0.011386423479681397
270,2174.3399999999997,0.011333539151353936
271,2184.37,0.011812564004895035
272,2187.7616199999998,0.011933033280512532
273,2194.46,0.012171203867291341
274,2204.5899999999997,0.011839979059753541
275,2214.76,0.010725394904505815
276,2224.98,0.010824681564620688
277,2235.25,0.012312739040098159
278,2245.57,0.011732267330938224
279,2255.94,0.010554516437140888
280,2266.35,0.01055463619563363
281,2276.81,0.011051976769488969
282,2287.3199999999997,0.012257378158706906
283,2292.5899999999997,0.011103274097924654
284,2303.17,0.011808636628650225
285,2313.81,0.010812050137810916
286,2324.49,0.008525312299261682
287,2335.21,0.009339672113002528
288,2345.9900000000002,0.008415041905178488
289,2356.82,0.010341811512717045
290,2367.7000000000003,0.008518506935618201
291,2373.16,0.009228392973213819
292,2384.11,0.007868698537622612
293,2395.12,0.008639453080466519
294,2406.17,0.008340165275600506
295,2417.28,0.00880614844916961
296,2422.85,0.01067776828056294
297,2434.04,0.010450760758712197
298,2445.27,0.011580823889151534
299,2456.56,0.011786147998025987
300,2462.22,0.010970430297071992
301,2473.59,0.0102543857105266
302,2485.0,0.009049485776271288
303,2496.4700000000003,0.00914645282045109
304,2502.2299999999996,0.011427062750222292
305,2511.88643,0.008791965424077286
306,2513.7799999999997,0.008275195269102975
307,2519.5699999999997,0.008083957726468449
308,2525.3799999999997,0.007933280057607206
309,2537.04,0.009097778467431285
310,2542.89,0.009178288546116608
311,2554.6200000000003,0.01233614051414718
312,2566.4199999999996,0.010565286040384243
313,2572.33,0.012178928740389415
314,2584.21,0.01143539376171961
315,2596.1299999999997,0.01081138853059637
316,2602.12,0.009971118725694677
317,2614.13,0.009514475926551212
318,2626.2000000000003,0.011063188748727597
319,2632.25,0.015015350565145752
320,2644.4,0.01862273388241527
321,2656.6,0.023635786884117996
322,2662.73,0.016537898195629282
323,2675.02,0.018367050629311783
324,2687.37,0.02030513268431413
325,2693.56,0.01619877361714527
326,2706.0,0.01888010510412739
327,2712.23,0.014992895784505095
328,2724.75,0.01304770676658035
329,2737.33,0.015347817369975454
330,2743.64,0.010495757545446292
331,2756.2999999999997,0.01243101764393453
332,2762.6600000000003,0.014866747503838573
333,2775.41,0.015731167034306586
334,2781.81,0.011500236641757195
335,2794.65,0.007354437604204982
336,2807.5499999999997,0.008223478187972618
337,2814.02,0.014471273353629719
338,2827.0099999999998,0.019009751369377128
339,2833.52,0.018145930282580797
340,2846.6000000000004,0.01456908773030798
341,2853.17,0.010674696264831498
342,2866.3300000000004,0.018564043207651815
343,2872.94,0.023194711489721898
344,2884.0315,0.02163402728731413
345,2886.2,0.021328911207450632
346,2892.8599999999997,0.024929240347225653
347,2912.9100000000003,0.032283937757509304
348,2933.1000000000004,0.02859764514971014
349,2946.64,0.026784643400844337
350,2967.0600000000004,0.028067040763337707
351,2987.63,0.02841175810645664
352,3008.3399999999997,0.028760525431492774
353,3029.19,0.030275072738446093
354,3050.19,0.03128726002602498
355,3071.33,0.03370068729552105
356,3092.62,0.03318319454564269
357,3106.9,0.037619752701196336
358,3128.43,0.03521241992031888
359,3150.1200000000003,0.03523318711877536
360,3171.9599999999996,0.03821106429785739
361,3186.6,0.033397442406912385
362,3208.68,0.03680801955499533
363,3230.9300000000003,0.03134806668112057
364,3253.32,0.04259815378916301
365,3268.34,0.0491877818491361
366,3290.99,0.04820349892359618
367,3311.31121,0.045821611728222675
368,3313.8,0.045529890153784926
369,3321.44,0.04365568128988166
370,3329.1,0.04805716237659645
371,3336.77,0.04813907343862026
372,3344.47,0.045106334426571165
373,3352.1800000000003,0.04207069538983109
374,3359.9,0.04684878632840004
375,3367.6499999999996,0.046927227192896076
376,3375.41,0.03501051803270114
377,3383.1899999999996,0.037924348823124246
378,3390.99,0.047601129564165415
379,3398.81,0.046595760255824646
380,3406.65,0.04787040089810192
381,3414.4999999999995,0.046967591515688224
382,3422.3700000000003,0.05242184208389259
383,3430.2599999999998,0.048555892602715
384,3438.1699999999996,0.049655543072155466
385,3446.09,0.03386425351690496
386,3454.04,0.04812975388758153
387,3462.0,0.03991730423356714
388,3469.9799999999996,0.044963944530170795
389,3477.98,0.039319194777392506
390,3486.0,0.044699564975232274
391,3494.03,0.03944963514838107
392,3502.09,0.05031825524745694
393,3510.16,0.04982450532184185
394,3518.25,0.0443787453468448
395,3526.36,0.04007763532246581
396,3534.4900000000002,0.049270585248704875
397,3542.6400000000003,0.05601315512556199
398,3550.81,0.05407606495303717
399,3558.9900000000002,0.05008697475582137
400,3567.2,0.04660633448453265
401,3575.42,0.04094187418855296
402,3583.6600000000003,0.03379953384319132
403,3591.92,0.03544906344844774
404,3600.2000000000003,0.05575202300432222
405,3608.5,0.045184492510814744
406,3610.04,0.04149874870840492
407,3612.79,0.03256868191838738
408,3615.53,0.04875307515306082
409,3618.2799999999997,0.041865428363043286
410,3621.02,0.050975171597716716
411,3623.77,0.05373828480769918
412,3626.5199999999995,0.06715509801768164
413,3629.26,0.05229557125235509
414,3632.0099999999998,0.043922874462337544
415,3634.75,0.05287443769701098
416,3637.5,0.05209210090699345
417,3640.2400000000002,0.05395334414166689
418,3642.99,0.05637922735164935
419,3645.7400000000002,0.05295127056163181
420,3648.48,0.04846963379630525
421,3651.2299999999996,0.04249862700628771
422,3653.9700000000003,0.04489117024096115
423,3656.72,0.05014811345094361
424,3659.46,0.05656415668561705
425,3662.21,0.06579934989559952
426,3664.96,0.058898353105581974
427,3667.7,0.04812599634025541
428,3670.4500000000003,0.062455999550237874
429,3673.19,0.05893332278491131
430,3675.9399999999996,0.05720536599489377
431,3678.68,0.06523742922956721
432,3681.43,0.053678482439549674
433,3684.1800000000003,0.047427035649532136
434,3686.92,0.060781598884205576
435,3689.67,0.05538476209418804
436,3692.41,0.04775225532886148
437,3695.1600000000003,0.06393350853884394
438,3697.9,0.055370481773517374
439,3700.6499999999996,0.05713872498349984
440,3703.4,0.0423733281934823
441,3706.14,0.055424841428155736
442,3708.8900000000003,0.0450560446381382
443,3711.63,0.05133533787281164
444,3714.38,0.059825401082794105
445,3717.12,0.04690859431746754
446,3719.8700000000003,0.04973082752745
447,3722.62,0.06728237073743246
448,3725.3599999999997,0.07265956397210589
449,3728.11,0.09393555718208836
450,3730.85,0.0877476604167618
451,3733.6000000000004,0.06352783362674426
452,3736.34,0.0706374868614177
453,3739.0899999999997,0.055176730071400164
454,3741.84,0.060265603281382626
455,3744.58,0.04314978651605606
456,3747.33,0.05631111972603853
457,3750.0699999999997,0.05456724296071196
458,3752.82,0.04368566617069443
459,3755.5699999999997,0.06509205938067689
460,3758.3100000000004,0.06335400261535033
461,3761.06,0.0627860258253328
462,3763.7999999999997,0.05625732906000623
463,3766.55,0.05235425226998869
464,3769.29,0.056876755504662126
465,3772.04,0.057231798714644594
466,3774.79,0.05640542192462705
467,3777.53,0.07426438515930049
468,3780.2799999999997,0.06323212836928295
469,3783.0200000000004,0.06278616160395639
470,3785.77,0.06519639481393885
471,3788.5099999999998,0.07258996804861229
472,3791.26,0.07162216125859476
473,3794.0099999999998,0.06400847446857723
474,3796.75,0.06177790770325065
475,3799.5,0.04717358091323312
476,3801.8939600000003,0.06131557043034293
477,3802.2400000000002,0.06335975432593231
478,3804.99,0.06867864895069578
479,3807.7299999999996,0.06591502359500556
480,3810.48,0.08082327821976905
481,3813.23,0.07238679284453252
482,3815.9700000000003,0.0642403974888423
483,3818.72,0.07460600211360578
484,3821.46,0.07652409675791558
485,3824.21,0.06815135138267904
486,3826.9500000000003,0.059124216026988835
487,3829.7,0.04845469065175231
488,3832.45,0.04909946527651578
489,3835.19,0.05036679992082557
490,3837.94,0.04289741454558904
491,3840.6800000000003,0.04702821918989883
492,3843.43,0.056808653814662304
493,3846.17,0.06527180845897208
494,3848.92,0.06488924308373557
495,3851.6699999999996,0.06637239770849905
496,3854.41,0.06666230235280883
497,3857.16,0.0660131969775723
498,3859.9,0.0760083616218821
499,3862.65,0.08583509624664558
500,3865.3900000000003,0.07776983089095536
501,3868.14,0.08297282551571883
502,3870.8900000000003,0.08208613014048231
503,3873.63,0.0757185747847921
504,3876.3799999999997,0.07517374940955557
505,3879.12,0.07621691405386535
506,3881.87,0.07064273867862883
507,3884.61,0.062015413322938626
508,3887.36,0.0693796579477021
509,3890.11,0.06702707257246557
510,3892.85,0.07585759721677536
511,3895.6000000000004,0.07289081184153882
512,3898.34,0.06722430648584861
513,3901.0899999999997,0.07198116111061209
514,3903.84,0.07780412573537557
515,3906.58,0.07871984037968535
516,3909.33,0.06969815500444883
517,3912.07,0.08180817964875862
518,3914.82,0.0929849442735221
519,3917.56,0.09064435891783187
520,3920.3100000000004,0.08581181354259536
521,3923.06,0.07779251816735884
522,3925.7999999999997,0.06651728281166862
523,3928.55,0.06046801743643209
524,3931.29,0.05341205208074188
525,3934.04,0.04289145670550536
526,3936.7799999999997,0.04925475134981514
527,3939.53,0.05819098597457861
528,3942.28,0.06943731059934209
529,3945.02,0.06549747524365189
530,3947.77,0.06839440986841536
531,3950.5099999999998,0.07821573451272514
532,3953.26,0.07687129913748862
533,3956.0,0.07987870378179841
534,3958.7499999999995,0.07473330840656188
535,3961.5,0.06788444303132536
536,3964.24,0.05701071767563515
537,3966.9900000000002,0.05155596230039862
538,3969.73,0.05557205694470841
539,3972.48,0.04659908156947188
540,3975.22,0.06177765621378167
541,3977.9700000000003,0.07474487083854514
542,3980.72,0.08389947546330861
543,3983.4599999999996,0.08487892010761841
544,3986.21,0.08723696473238189
545,3988.95,0.09274747937669166
546,3991.7000000000003,0.10164712400145515
547,3994.44,0.09827518864576493
548,3997.19,0.10367511327052842
549,3999.94,0.09821681789529188
550,4002.6800000000003,0.09943966253960167
551,4005.43,0.09606144716436515
552,4008.1699999999996,0.10113739180867494
553,4010.92,0.1035359864334384
554,4013.66,0.1020934810777482
555,4016.4100000000003,0.10126477570251168
556,4019.16,0.10238857032727514
557,4021.9,0.10649696497158492
558,4024.65,0.1080205595963484
