,lambda (Angstroms),Total Flux (erg/s/cm^2/Angstrom)
0,100.00999999999999,0.004423663107780545
1,102.11,0.005438650320187837
2,104.0,0.006352138820511396
3,104.712855,0.006696681073265816
4,105.94,0.006201799698623161
5,107.91,0.005407340794985059
6,109.91000000000001,0.0046007836230046294
7,114.03999999999999,0.002935243088273733
8,118.05,0.0013180962216135107
9,120.22644299999999,0.00044038694116469053
10,121.07,0.00042464734222094337
11,125.03999999999999,0.00035056958207085013
12,127.07,0.00031269124737914514
13,127.95,0.0002962716317942679
14,130.93,0.00024066794249866136
15,132.15,0.0002179067992628091
16,133.98,0.00018376229822403097
17,137.1,0.00012555446804037582
18,138.038426,0.00010804634470861812
19,139.98,0.0001067734457764784
20,142.91,0.00010495283368714052
21,146.91,0.00010263209274504098
22,151.03,0.00010003975426767845
23,154.9,9.764930225544718e-05
24,158.489319,9.546117784711881e-05
25,158.86999999999998,9.509451377429341e-05
26,161.82999999999998,9.226661643682566e-05
27,165.98000000000002,8.83455167778759e-05
28,169.84,8.474460546617814e-05
29,173.0,8.182111957888148e-05
30,177.03,7.814244764982912e-05
31,179.91,7.556775513229293e-05
32,181.970086,7.373598280019882e-05
33,181.99,7.37449297379066e-05
34,185.79999999999998,7.553347765556035e-05
35,191.01,7.803513687103966e-05
36,194.11,7.963184360193905e-05
37,198.17999999999998,8.173976550347468e-05
38,201.85999999999999,8.38758334291875e-05
39,205.14000000000001,8.57043808412359e-05
40,208.929613,8.77317001884863e-05
41,209.92000000000002,8.989862514266448e-05
42,215.79999999999998,0.0001038335140040339
43,219.81,0.00011326955922241684
44,222.87,0.00012034876245639486
45,227.01,0.00013036199742001212
46,230.17,0.00014586238507340114
47,233.91,0.00017328151235937426
48,239.88329199999998,0.00020216332013679397
49,239.91,0.00020219607003080182
50,246.07,0.00019519621746105732
51,251.8,0.0001971326148596553
52,257.07,0.00018156214501508492
53,260.05,0.00019156947802517602
54,264.27,0.00019426254577772125
55,269.19,0.00019313357846552264
56,274.19,0.00019165071371735342
57,275.42287,0.0001914240894774403
58,279.28999999999996,0.00020374718572310654
59,283.83,0.000218966880599043
60,289.77,0.00023241836728694215
61,295.84,0.000254696199643095
62,301.34000000000003,0.0002703587317615203
63,307.65000000000003,0.0002947201484282953
64,316.227766,0.000327201834525251
65,317.73,0.00032836098750444625
66,328.13,0.0003325787885585239
67,338.11,0.0003361182886084945
68,348.38,0.00033909280839939624
69,357.32,0.00034275755834395913
70,363.078055,0.0003477771710567656
71,365.64,0.00035582529599955564
72,375.02,0.00037862273591712754
73,384.64,0.0003951816512696906
74,395.41,0.0004328901989149198
75,404.62,0.0004617061062327062
76,414.04999999999995,0.00048411239103256785
77,416.86938299999997,0.0004898061210405941
78,421.75,0.0004977201610978706
79,429.59,0.0005129542695682688
80,440.61,0.0005389823062192622
81,450.87,0.0005556881782736354
82,460.31,0.0005694403701053392
83,469.95000000000005,0.0005872034473572065
84,478.630092,0.0006067616729461688
85,479.79,0.0006077750150180617
86,489.84,0.0006018761742525929
87,500.09,0.0006149554013325875
88,505.89000000000004,0.0006063160688510234
89,511.73999999999995,0.0006345331033308253
90,520.06,0.0006357416657020989
91,529.73,0.0006315365360302497
92,539.58,0.0006182461274193177
93,549.5408739999999,0.0006160033045051733
94,549.61,0.0006160242330354304
95,559.8199999999999,0.0006387097545908308
96,570.23,0.0006589796284783643
97,579.5,0.0006578324040727385
98,590.27,0.0006675769721581118
99,599.86,0.0006477299314838992
100,609.61,0.0005962649326753932
101,619.52,0.0006794226757325936
102,629.58,0.000674246408038894
103,630.957344,0.0006762113416363462
104,639.81,0.0006941355008503454
105,650.2099999999999,0.0006963528707530853
106,657.74,0.0006896349627115115
107,665.35,0.0007137397244384203
108,674.6099999999999,0.000729351450140283
109,685.57,0.0007071515084224013
110,695.11,0.0007434016783139532
111,704.78,0.0007111004865792893
112,716.23,0.0007635109971933636
113,724.43596,0.0007687162503304632
114,726.19,0.000769569278304793
115,734.6,0.0007755620234604339
116,744.82,0.0007731971847553984
117,755.1800000000001,0.0007766598975749514
118,765.6899999999999,0.0007259095155994207
119,774.55,0.0007862751763698106
120,785.33,0.0007710461437631293
121,794.42,0.0007901505391810575
122,805.4699999999999,0.0008011840559432255
123,814.8,0.0008044754396890198
124,824.24,0.0008137950139184196
125,831.763771,0.00077301658060447
126,835.7,0.0007492369334182687
127,845.38,0.0008064664109793043
128,855.17,0.0007978104382853517
129,865.07,0.0008041026153364108
130,875.09,0.000807447783018392
131,885.22,0.0008077316004453848
132,895.47,0.0008080014085032996
133,905.84,0.0007958909071921364
134,914.22,0.000919680169584851
135,924.81,0.0021332104677637114
136,935.52,0.0037189789565734935
137,944.17,0.006146503822885782
138,954.992586,0.008545893426476074
139,955.11,0.008571966455836216
140,963.9399999999999,0.008808542028735999
141,975.11,0.00219928907508827
142,984.13,0.006497041857370946
143,995.52,0.00761405709353499
144,1004.7399999999999,0.012170253412010187
145,1014.03,0.012450938018152767
146,1025.77,0.006206945692653722
147,1035.27,0.008508219161798447
148,1044.85,0.017183763245420182
149,1054.51,0.017066012943518925
150,1064.27,0.012619105909713926
151,1074.12,0.015751142817195564
152,1084.06,0.011702103665963833
153,1094.0900000000001,0.017180798456018737
154,1096.4782,0.01705277458943671
155,1104.21,0.016637188622268855
156,1114.43,0.015638155305061845
157,1124.74,0.013818613025178846
158,1135.15,0.019168769675655853
159,1145.65,0.017328397363456875
160,1156.25,0.0190330239816179
161,1164.27,0.01956211419649068
162,1175.04,0.012600214996263723
163,1185.91,0.01924606472639678
164,1194.13,0.012199572801989574
165,1205.18,0.008289862606770646
166,1216.3300000000002,0.007048951341911728
167,1224.76,0.013956489171260545
168,1236.1,0.022278279874085646
169,1244.6599999999999,0.024645176312902476
170,1256.18,0.02310769909037559
171,1258.92541,0.021969225421878628
172,1264.8899999999999,0.019497160031877053
173,1273.66,0.02695080146521218
174,1285.4399999999998,0.028874458008506118
175,1294.35,0.020935711539978863
176,1306.33,0.020791851080612257
177,1315.3799999999999,0.02834879671022262
178,1324.5000000000002,0.027014163388901797
179,1333.6799999999998,0.02284471096678281
180,1346.02,0.02961393590262722
181,1355.35,0.02874294572851283
182,1364.7500000000002,0.02492810660346724
183,1374.2099999999998,0.026890628377623488
184,1383.73,0.027264091050981577
185,1396.54,0.023322253030573708
186,1406.22,0.024250888101803363
187,1415.96,0.025274644072234852
188,1425.7800000000002,0.02664560124160212
189,1435.66,0.026584849310171226
190,1442.29,0.028546898671974182
191,1445.43977,0.0293040765840032
192,1445.61,0.029344998017807454
193,1455.6299999999999,0.02828610405118309
194,1465.72,0.02574436096503141
195,1475.8799999999999,0.026101608759352413
196,1486.11,0.027203197434146096
197,1496.4099999999999,0.02802769698941247
198,1503.32,0.02628201390464457
199,1510.26,0.022847351197222105
200,1517.23,0.025102158867145077
201,1524.23,0.024141576914413487
202,1534.8,0.02037042986578878
203,1545.4399999999998,0.02305811369763676
204,1556.15,0.021922738409957426
205,1563.33,0.02263908872129845
206,1574.17,0.02458973506878267
207,1585.0800000000002,0.026464652296739572
208,1596.07,0.027204350530950973
209,1603.4399999999998,0.027017713232146426
210,1614.55,0.02745605297573957
211,1625.74,0.02592411372558721
212,1633.25,0.02828798818772803
213,1644.57,0.02901202057273923
214,1655.97,0.02683273396400492
215,1659.58691,0.02824843992582441
216,1663.6100000000001,0.02982344900352108
217,1671.29,0.02586620445838711
218,1675.1399999999999,0.030517378104381147
219,1686.76,0.032471315472290416
220,1694.54,0.03051925011276668
221,1706.29,0.029419159421969262
222,1714.16,0.027714782329494734
223,1726.04,0.02784369357999062
224,1734.01,0.030382805673126328
225,1746.03,0.03003723978347654
226,1754.0900000000001,0.03262738014366146
227,1766.25,0.029970167113866002
228,1774.3999999999999,0.03073779574110013
229,1786.7,0.031889185571159
230,1794.9499999999998,0.03471863338400337
231,1803.23,0.034959813952530804
232,1815.73,0.032038892153810145
233,1824.11,0.033238811907947814
234,1836.76,0.0321882638876425
235,1845.24,0.029703242827390407
236,1853.7500000000002,0.030047274522821382
237,1866.6,0.03153260487373655
238,1875.22,0.03488585667333877
239,1883.87,0.03211888122862409
240,1896.93,0.031246890869320736
241,1905.46072,0.03371835990234811
242,1905.6899999999998,0.03378473732044698
243,1914.49,0.03256523536931329
244,1923.32,0.03219233986607347
245,1936.65,0.034015031546913016
246,1945.5900000000001,0.03585892301928403
247,1954.57,0.03354727975551351
248,1968.12,0.03780157538757471
249,1977.21,0.03939643909941503
250,1981.76,0.037540410363317504
251,1995.5,0.0370247234987065
252,2004.71,0.03885415300212227
253,2013.97,0.037970066585361145
254,2023.26,0.04021481661649388
255,2037.29,0.03831802541485688
256,2046.6899999999998,0.040398212421600445
257,2056.14,0.037359383508167116
258,2065.63,0.03849102985859226
259,2075.16,0.043177601472875894
260,2079.9500000000003,0.04142882431992926
261,2084.74,0.043877937166982635
262,2094.36,0.04190280812494786
263,2104.03,0.042777493162736185
264,2113.7400000000002,0.044175743464382994
265,2123.5,0.04489181784585291
266,2133.2999999999997,0.042873367491181306
267,2143.15,0.0442750912163328
268,2153.04,0.04646595020534278
269,2162.98,0.045509663274175875
270,2172.96,0.04603574160686745
271,2182.99,0.04593115401938212
272,2187.7616199999998,0.04711078392394247
273,2193.07,0.04842424016573501
274,2203.19,0.0479812955165558
275,2213.36,0.046143115587489326
276,2223.58,0.04582696037853561
277,2233.84,0.0489868589456721
278,2244.15,0.04809636223292133
279,2254.51,0.04636115024028332
280,2264.92,0.04787608296775806
281,2275.37,0.049593559471323
282,2285.8700000000003,0.051508770695000684
283,2296.42,0.048576896638791126
284,2307.02,0.050452847302694316
285,2312.34,0.04877261952269101
286,2323.01,0.040810806794752054
287,2333.74,0.0471176497309484
288,2344.5099999999998,0.04674218644323494
289,2355.33,0.050251027875634235
290,2366.2,0.04750132402814628
291,2377.12,0.048886024900771076
292,2382.6,0.04650417222512857
293,2393.6,0.049537320649933776
294,2404.65,0.049030933794851725
295,2415.75,0.050692611659882425
296,2426.9,0.05425326424502587
297,2432.49,0.05341758195363143
298,2443.7200000000003,0.05651401209095528
299,2455.0,0.057105876948391886
300,2466.33,0.05665128652594124
301,2477.72,0.05581175176762589
302,2483.4300000000003,0.05520987080450204
303,2494.89,0.04815578265434455
304,2506.41,0.05888601016832236
305,2511.88643,0.053666494512463137
306,2512.19,0.05337712606438228
307,2517.98,0.05540627452002672
308,2523.7799999999997,0.05518850261030958
309,2535.4300000000003,0.05772080696406739
310,2547.13,0.05739133949101729
311,2553.01,0.06339548465840748
312,2564.79,0.061461174262464745
313,2576.6299999999997,0.06547573167435251
314,2582.57,0.06491654464957322
315,2594.49,0.06440112913856834
316,2606.4700000000003,0.06359581143539396
317,2612.4700000000003,0.06304896221844519
318,2624.5299999999997,0.06671060159237817
319,2636.6499999999996,0.07339693877414166
320,2642.73,0.07996419663430024
321,2654.92,0.09003212125853266
322,2667.1800000000003,0.07603156332523402
323,2673.33,0.08003033862786152
324,2685.67,0.08428679777167022
325,2698.06,0.07733073508867101
326,2704.28,0.08290698783376746
327,2716.7599999999998,0.07694570186251402
328,2723.03,0.07438065278080255
329,2735.6000000000004,0.07888266352129489
330,2741.9,0.07101088334349868
331,2754.56,0.07461706079573678
332,2767.27,0.07931769642116697
333,2773.6499999999996,0.08272233332047811
334,2786.45,0.07659824565765407
335,2792.8799999999997,0.0664626007301573
336,2805.77,0.07032279977907903
337,2812.24,0.08361657339013595
338,2825.22,0.09095677915080345
339,2838.26,0.08818970271930146
340,2844.8,0.08312394377282731
341,2857.9300000000003,0.07768137405307107
342,2864.52,0.09152202327978902
343,2877.74,0.10140730027177856
344,2884.0315,0.09928443769143731
345,2884.38,0.09916686014395903
346,2897.69,0.10663866019179638
347,2911.07,0.12343615018729329
348,2931.24,0.11785233510576658
349,2951.56,0.11487161991208177
350,2972.0200000000004,0.11887470461371605
351,2992.62,0.12049158921066944
352,3013.3700000000003,0.1204593736954647
353,3027.2799999999997,0.12688816329466962
354,3048.2599999999998,0.12951294760748916
355,3069.3900000000003,0.13841913180815058
356,3090.6699999999996,0.13870811589665386
357,3112.09,0.15205009988047627
358,3126.4500000000003,0.1467587891432069
359,3148.12,0.1501477729400991
360,3169.9500000000003,0.157915456617356
361,3191.9199999999996,0.14633834018993203
362,3206.6499999999996,0.15522842917600596
363,3228.88,0.1435202125541746
364,3251.26,0.17330699582018513
365,3266.27,0.19073028459689728
366,3288.91,0.19026626766850038
367,3311.31121,0.18473698383457288
368,3311.71,0.1846385452185311
369,3319.34,0.18734213615882386
370,3326.9900000000002,0.1936158268132458
371,3334.66,0.20241941718179696
372,3342.35,0.19124120726447735
373,3350.05,0.20459099720422233
374,3357.78,0.20333368671516108
375,3365.52,0.1696510760831645
376,3373.28,0.1628883651652971
377,3381.0499999999997,0.1888790541044943
378,3388.85,0.20393194261488531
379,3396.6600000000003,0.18699153098234092
380,3404.4900000000002,0.21336561906392573
381,3412.3399999999997,0.19519130685963978
382,3420.2,0.20313179451241845
383,3428.0899999999997,0.20563558173639085
384,3435.99,0.20250036881742792
385,3443.91,0.17131065561259418
386,3451.8500000000004,0.20374084212188964
387,3459.81,0.2057781283453143
388,3467.7799999999997,0.2026428144258036
389,3475.78,0.2046680000774867
390,3483.79,0.2048224855862344
391,3491.8199999999997,0.20878587080911132
392,3499.87,0.1918887557461174
393,3507.94,0.2276918403972527
394,3516.03,0.19756012476251728
395,3524.1299999999997,0.20512750898484636
396,3532.25,0.22199629292130474
397,3540.4,0.23209517642895688
398,3548.56,0.2415400597936736
399,3556.74,0.22097364287251958
400,3564.9399999999996,0.23102492566549473
401,3573.1600000000003,0.18579160817259913
402,3581.39,0.1960420905367681
403,3589.6499999999996,0.16700017247213092
404,3597.92,0.2192848542645583
405,3606.22,0.2159428356281795
406,3614.53,0.21265631684886532
407,3619.51,0.14536214566703803
408,3622.22,0.1904525069315457
409,3624.9300000000003,0.18334596819605334
410,3627.64,0.21152752946056097
411,3630.36,0.22916079058213323
412,3633.0699999999997,0.22206225184664088
413,3635.78,0.19426161311114853
414,3638.5,0.23923987423272078
415,3641.2099999999996,0.23432523549722842
416,3643.92,0.23444049676173606
417,3646.63,0.24007705802624374
418,3649.35,0.20945321914781598
419,3652.06,0.2219427804123236
420,3654.77,0.22291024167683127
421,3657.48,0.26509140294133887
422,3660.2000000000003,0.16654306406291117
423,3662.91,0.1903329253274188
424,3665.62,0.22127708659192646
425,3668.3300000000004,0.21864154785643408
426,3671.05,0.22501410897800636
427,3673.7599999999998,0.24889517024251398
428,3676.47,0.21719443150702164
429,3679.1800000000003,0.24370739277152928
430,3681.9,0.19422465389310156
431,3684.6099999999997,0.17966261515760917
432,3687.32,0.21409077642211685
433,3690.03,0.22028623768662448
434,3692.75,0.21104609880819675
435,3695.46,0.20317856007270438
436,3698.17,0.26052452133721204
437,3700.8799999999997,0.20499048260171968
438,3703.6000000000004,0.23325014372329195
439,3706.31,0.21391590498779958
440,3709.02,0.23483616625230724
441,3711.7400000000002,0.2378119273738795
442,3714.4500000000003,0.27136818863838713
443,3717.16,0.24294144990289476
444,3719.8700000000003,0.29493261116740244
445,3722.59,0.3278926722889747
446,3725.2999999999997,0.3825395335534823
447,3728.0099999999998,0.42929089481799
448,3730.7200000000003,0.3867419560824976
449,3733.44,0.29228361720406987
450,3736.1499999999996,0.23942517846857753
451,3738.86,0.20125973973308514
452,3741.57,0.25732950099759283
453,3744.29,0.24607576211916504
454,3747.0,0.2365831233836727
455,3749.71,0.23066178464818035
456,3752.42,0.247333145912688
457,3755.1400000000003,0.24212390703426026
458,3757.85,0.2329642682987679
459,3760.56,0.28216102956327554
460,3763.2700000000004,0.2545982908277832
461,3765.9900000000002,0.2583468519493554
462,3768.7,0.2456160132138631
463,3771.41,0.26446337447837076
464,3774.1200000000003,0.3106478357428784
465,3776.84,0.30130039686445065
466,3779.5499999999997,0.28399165812895827
467,3782.26,0.3350276193934659
468,3784.98,0.2707087805150382
469,3787.69,0.30368644177954585
470,3790.4,0.3263944030440535
471,3793.11,0.24841836430856112
472,3795.83,0.23176232543013336
473,3798.5400000000004,0.24209178669464101
474,3801.25,0.28392414795914866
475,3801.8939600000003,0.2880193916816203
476,3803.96,0.30115831537679694
477,3806.6800000000003,0.3307414845991526
478,3809.3900000000003,0.32673465393466133
479,3812.1,0.34390552327017004
480,3814.81,0.30639419260567885
481,3817.53,0.30836286182803446
482,3820.24,0.29884263116354326
483,3822.95,0.276115600499052
484,3825.6600000000003,0.27211666983456073
485,3828.38,0.26125533905691634
486,3831.0899999999997,0.2601260083924251
487,3833.8,0.23684797772793387
488,3836.51,0.21436654706344263
489,3839.23,0.25628481628579824
490,3841.9399999999996,0.28073668562130705
491,3844.65,0.28337285495681575
492,3847.36,0.3107539242923245
493,3850.0800000000004,0.35510559351468013
494,3852.79,0.3363224628501889
495,3855.5,0.34256953218569763
496,3858.22,0.3342644014080533
497,3860.9300000000003,0.330967170743562
498,3863.64,0.38083384007907084
499,3866.35,0.37579650941457954
500,3869.07,0.3394764786369352
501,3871.78,0.3314149479724439
502,3874.49,0.3309437173079527
503,3877.2000000000003,0.32306438664346143
504,3879.92,0.30840575586581703
505,3882.63,0.2675848252013258
506,3885.3399999999997,0.25271359453683456
507,3888.05,0.24597186387234332
508,3890.77,0.27194043309469895
509,3893.4800000000005,0.26196440243020774
510,3896.19,0.29475967176571644
511,3898.9,0.31927904110122524
512,3901.62,0.33460901032358087
513,3904.33,0.3317357796590896
514,3907.04,0.34697634899459834
515,3909.75,0.3524704183301071
516,3912.4700000000003,0.34173948755246275
517,3915.18,0.3582246568879715
518,3917.89,0.3614752262234802
519,3920.6000000000004,0.359414595558989
520,3923.32,0.35646816478134463
521,3926.0299999999997,0.3223974341168534
522,3928.7400000000002,0.2666058034523621
523,3931.46,0.2539608726747178
524,3934.17,0.25003324201022653
525,3936.8799999999997,0.2603588113457353
526,3939.59,0.28129888068124403
527,3942.31,0.33987994990359965
528,3945.02,0.3446011192391084
529,3947.73,0.3281761885746172
530,3950.44,0.3474953579101259
531,3953.16,0.34001472713248154
532,3955.8700000000003,0.35357059646799033
533,3958.58,0.34101436580349903
534,3961.29,0.28361753513900784
535,3964.01,0.24639020436136347
536,3966.7200000000003,0.21442787369687222
537,3969.43,0.19458624303238095
538,3972.1400000000003,0.2345834123678897
539,3974.86,0.26695728159024534
540,3977.57,0.3197133509257541
541,3980.2799999999997,0.3383903202612628
542,3982.9900000000002,0.3602738895967716
543,3985.71,0.36097015881912725
544,3988.4199999999996,0.396286428154636
545,3991.13,0.40665579749014474
546,3993.84,0.3627392668256535
547,3996.56,0.40713033604800913
548,3999.27,0.3896948053835179
549,4001.98,0.4125614747190266
550,4004.7,0.4168009439413823
551,4007.4100000000003,0.429524713276891
552,4010.12,0.4078838826123998
553,4012.83,0.4176348519479085
554,4015.5499999999997,0.43677752117026414
555,4018.26,0.4144232905057729
556,4020.97,0.4537032598412817
557,4023.68,0.4483133291767904
558,4026.4,0.438085498399146
559,4029.11,0.4439521677346548
560,4031.8199999999997,0.4224698370701635
561,4034.53,0.4283762064056723
562,4037.25,0.4392745756280279
563,4039.96,0.4358663449635367
564,4042.67,0.43705601429904545
565,4045.38,0.4266718836345542
566,4048.1,0.43523155285690984
567,4050.8100000000004,0.4325765221924186
568,4053.52,0.4256010915279273
