,lambda (Angstroms),Total Flux (erg/s/cm^2/Angstrom)
0,100.00999999999999,77.39837012302436
1,102.11,77.15529408663927
2,104.01,76.9353681489603
3,104.712855,76.85401233584257
4,105.94,76.10788312234038
5,107.91,74.91008290265226
6,109.92,73.68796186634552
7,114.03999999999999,71.18291775214135
8,118.05,68.74475588378674
9,120.22644299999999,67.42143410644893
10,121.08000000000001,66.98632379189327
11,125.03999999999999,64.96766909595391
12,127.08000000000001,63.927756070877
13,127.96,63.47916613868736
14,130.94,61.96007750445357
15,132.15,61.34326634856054
16,133.98999999999998,60.405305581672856
17,137.10999999999999,58.81485037039764
18,138.038426,58.34157473890171
19,139.98,57.63412529887601
20,142.91,56.56652407146062
21,146.91,55.10904806643811
22,151.03,53.60784770407325
23,154.9,52.197739618391495
24,158.489319,50.88990300915643
25,158.88,50.78228225212782
26,161.82999999999998,49.96964680858298
27,165.98000000000002,48.82644781939209
28,169.85,47.760380356868055
29,173.01,46.889896345202416
30,177.04000000000002,45.77975379480132
31,179.91,44.98915603330325
32,181.970086,44.421664965061765
33,182.0,44.41537832887525
34,185.81,43.614680256096
35,191.01,42.52186402815882
36,194.11999999999998,41.8682759225696
37,198.17999999999998,41.01503875572485
38,201.87,40.239559792865805
39,205.14999999999998,39.55024512250889
40,208.929613,38.755933305519285
41,209.93,38.59787321332545
42,215.81,37.668840086674436
43,219.82000000000002,37.035264773342405
44,222.88,36.55178827664527
45,227.02,35.89767331826583
46,230.18,35.39840221401806
47,233.92,34.807498353344116
48,239.88329199999998,33.865314789792606
49,239.92,33.86084545767331
50,246.07,33.11205191546852
51,251.80999999999997,32.413183587964724
52,257.08000000000004,31.77152859286838
53,260.05,31.409924725407333
54,264.28,30.8949061281301
55,269.19,30.29709223957268
56,274.2,29.687102941051112
57,275.42287,29.538213240346565
58,279.3,29.175931370036047
59,283.83,28.752646016616985
60,289.78000000000003,28.196670198616637
61,295.85,27.629487592016194
62,301.34999999999997,27.115562899261267
63,307.66,26.525955900590592
64,316.227766,25.725382597980037
65,317.73,25.62054141373306
66,328.14000000000004,24.894023395346814
67,338.12,24.19751511514713
68,348.39000000000004,23.480767033863476
69,357.33,22.856842295954547
70,363.078055,22.455686166318273
71,365.65,22.321264197529082
72,375.03000000000003,21.831016657665327
73,384.65,21.328218836695257
74,395.43,20.764807643227954
75,404.64,20.28345004751035
76,414.06,19.791110937812206
77,416.86938299999997,19.644277364673034
78,421.76,19.449079124650375
79,429.59999999999997,19.13616363307965
80,440.61999999999995,18.69632971436085
81,450.88000000000005,18.28682289040196
82,460.33,17.909645382234572
83,469.96000000000004,17.52528631161351
84,478.630092,17.17924147035156
85,479.81,17.143023049323315
86,489.85,16.834825653983
87,500.11,16.519886259039207
88,505.90000000000003,16.342155873056896
89,511.76,16.162346187982568
90,520.0699999999999,15.907265168887747
91,529.74,15.610436902962359
92,539.59,15.308064669743224
93,549.5408739999999,15.00266535278348
94,549.62,15.000812955638207
95,559.84,14.761547257397282
96,570.25,14.517828468239745
97,579.52,14.300744517381885
98,590.29,14.048632039119187
99,599.88,13.824085004012295
100,609.63,13.595816841080882
101,619.53,13.36413514458899
102,629.6,13.128394162208549
103,630.957344,13.096612773674181
104,639.8299999999999,12.931928509243757
105,650.23,12.738993859958546
106,657.76,12.59929250239724
107,665.37,12.4580981962722
108,674.63,12.286230926020178
109,685.5899999999999,12.082776501788844
110,695.1300000000001,11.906056574563756
111,704.8,11.726496629922613
112,716.2499999999999,11.514283328738419
113,724.43596,11.36241031485245
114,726.21,11.337984013540844
115,734.62,11.222213132719219
116,744.8399999999999,11.081706636661307
117,755.21,10.93902223936282
118,765.71,10.794511948522501
119,774.58,10.672633244629775
120,785.3499999999999,10.524529401356421
121,794.45,10.399344755428146
122,805.5,10.247308566372382
123,814.83,10.118948514408558
124,824.26,9.989497872951013
125,831.763771,9.885546281400918
126,835.7299999999999,9.844402852955337
127,845.4000000000001,9.746006747467046
128,855.1899999999999,9.645388097907547
129,865.1,9.543814246276838
130,875.11,9.44124058708679
131,885.2500000000001,9.337473618569593
132,895.5,9.232371509237126
133,905.87,9.125621284833448
134,914.2500000000001,9.044058788360658
135,924.8399999999999,9.015549679326432
136,935.55,9.022255903220994
137,944.2,9.135373051837982
138,954.992586,9.210077015776713
139,955.14,9.211130182470827
140,963.9699999999999,9.191936706166624
141,975.13,8.507730793578297
142,984.1600000000001,8.866840590811936
143,995.5500000000001,8.809673819792131
144,1004.77,9.044602627886725
145,1014.06,8.935300494719561
146,1025.8,8.294072417390984
147,1035.3,8.432144360438556
148,1044.8799999999999,8.984407684901267
149,1054.54,8.868318790779114
150,1064.3,8.487124623425885
151,1074.1499999999999,8.606008460164684
152,1084.0900000000001,8.23531770099551
153,1094.12,8.490369145918372
154,1096.4782,8.456136645310357
155,1104.24,8.35764099550449
156,1114.46,8.221701155590647
157,1124.77,8.01143571141142
158,1135.1799999999998,8.267161151381766
159,1145.68,8.046842987086722
160,1156.28,8.063802706941251
161,1164.3,8.048396415736846
162,1175.07,7.495328438645647
163,1185.95,7.842906834118974
164,1194.1699999999998,7.307553711213715
165,1205.22,6.930987309741311
166,1216.37,6.648601792418481
167,1224.8,7.083729726227319
168,1236.13,7.5366957003737145
169,1244.7,7.628863271991953
170,1256.22,7.452327926022535
171,1258.92541,7.356408378394476
172,1264.9299999999998,7.157742479107412
173,1273.69,7.554153164431529
174,1285.48,7.587485045706798
175,1294.3899999999999,7.092231413998798
176,1306.3700000000001,7.008876693700045
177,1315.4199999999998,7.378074566095396
178,1324.54,7.242939690542423
179,1333.7199999999998,6.960792888176603
180,1346.06,7.237775607000761
181,1355.3899999999999,7.12460148760282
182,1364.79,6.855378620256553
183,1374.25,6.902360826097438
184,1383.77,6.868566105125476
185,1396.5800000000002,6.5591772305823195
186,1406.26,6.571993371442762
187,1416.01,6.545872764354881
188,1425.82,6.550835230454151
189,1435.7,6.478652948605095
190,1442.33,6.546794535785337
191,1445.43977,6.561128018457723
192,1445.66,6.562534298572942
193,1455.68,6.465254335816041
194,1465.7700000000002,6.2778569681297
195,1475.93,6.237394195513922
196,1486.16,6.234221017968702
197,1496.46,6.2277544354940435
198,1503.37,6.1007084631736666
199,1510.31,5.8826053173121
200,1517.28,5.967487997909345
201,1524.28,5.886822504965402
202,1534.8500000000001,5.637995360620049
203,1545.48,5.74519486919232
204,1556.2,5.6200168571410245
205,1563.38,5.61456732294995
206,1574.22,5.667220616733902
207,1585.1299999999999,5.701731505588416
208,1596.1200000000001,5.692665931666425
209,1603.48,5.636589356228223
210,1614.6,5.601995030294416
211,1625.79,5.46304229943117
212,1633.3,5.538826856287026
213,1644.62,5.517944373411965
214,1656.02,5.338307427760401
215,1659.58691,5.393788660830591
216,1663.66,5.4621537732581915
217,1671.3400000000001,5.2513829533764405
218,1675.19,5.432705787159678
219,1686.8,5.475112750854064
220,1694.59,5.34622961193755
221,1706.3400000000001,5.241248987769507
222,1714.2099999999998,5.13313179864589
223,1726.1000000000001,5.08885258661542
224,1734.06,5.168952591008814
225,1746.0800000000002,5.096106547391804
226,1754.1399999999999,5.1805519890263225
227,1766.3000000000002,5.002432357546883
228,1774.4499999999998,5.017802992698413
229,1786.75,5.009224773356547
230,1795.0,5.095117845749198
231,1803.29,5.062035893038298
232,1815.79,4.88391754817868
233,1824.1699999999998,4.899046788984791
234,1836.8100000000002,4.794082856262742
235,1845.29,4.644866534309977
236,1853.81,4.621697187253661
237,1866.66,4.626581372737972
238,1875.27,4.726955219198666
239,1883.93,4.573257284279921
240,1896.99,4.476706587970591
241,1905.46072,4.5335015107459595
242,1905.75,4.535663349656024
243,1914.5400000000002,4.459446108459249
244,1923.38,4.4148415018404235
245,1936.71,4.424442080321311
246,1945.6499999999999,4.462821742858381
247,1954.6299999999999,4.3493681130578095
248,1968.1799999999998,4.450042083681668
249,1977.2600000000002,4.4716247230369905
250,1981.82,4.377544396545831
251,1995.5600000000002,4.303009978565892
252,2004.77,4.324776667823879
253,2014.02,4.250272064744225
254,2023.3200000000002,4.2997510962425185
255,2032.66,4.1971138354031705
256,2046.75,4.217134859468866
257,2056.2,4.136802794701003
258,2065.69,4.1172294375954985
259,2075.2200000000003,4.190009788152351
260,2080.0099999999998,4.105601780719753
261,2084.8,4.148030773287154
262,2094.42,4.048798466084313
263,2104.09,4.034598793459421
264,2113.8,4.026291828496886
265,2123.56,4.024005498112301
266,2133.36,3.901163875390073
267,2143.21,3.9117348872457924
268,2153.1,3.9378216067638703
269,2163.04,3.872808960859896
270,2173.0299999999997,3.83732394953387
271,2183.06,3.790650645870202
272,2187.7616199999998,3.8060013670031028
273,2193.13,3.827188201508178
274,2203.25,3.775147152413969
275,2213.4300000000003,3.6969365615267114
276,2223.64,3.6399071997429293
277,2233.91,3.6997502961660986
278,2244.2200000000003,3.628415364727234
279,2254.58,3.5637551484608307
280,2264.98,3.5810169043323947
281,2275.44,3.5991421184109096
282,2285.94,3.6181853046273917
283,2296.49,3.5406662060163345
284,2307.09,3.529688822577735
285,2312.41,3.46939211692742
286,2323.08,3.2215002347302644
287,2333.81,3.3695692107400603
288,2344.58,3.3257873588878235
289,2355.4,3.394258422208046
290,2366.27,3.295324300700729
291,2377.19,3.31336249436587
292,2382.67,3.236223277267425
293,2393.67,3.2873340152085024
294,2404.72,3.231810668322039
295,2415.8199999999997,3.2423838366080346
296,2426.97,3.28970932006649
297,2432.57,3.239273419381947
298,2443.7999999999997,3.2878158471163372
299,2455.07,3.2583882469886953
300,2466.41,3.2363868481024967
301,2477.79,3.183084421354265
302,2483.5,3.206989694049133
303,2494.97,3.130429954611329
304,2506.48,3.2275041873114922
305,2511.88643,3.1113916314603696
306,2512.26,3.1035043284139583
307,2518.05,3.128470914710559
308,2523.86,3.0789411557093938
309,2535.51,3.0817647697604125
310,2547.2099999999996,3.0547991705670166
311,2553.08,3.1199467756725516
312,2564.8700000000003,3.0848766726392043
313,2576.71,3.1353304563614426
314,2582.65,3.1172656029247943
315,2594.5699999999997,3.0937874054559664
316,2606.54,3.0461170947427214
317,2612.55,3.0285818827638913
318,2624.61,3.063501968210697
319,2636.73,3.087635317764204
320,2642.8,3.172927369892074
321,2655.0,3.1871447382545153
322,2667.26,3.0621093707236557
323,2673.4,3.1093850643093437
324,2685.74,3.098119715587419
325,2691.94,3.0393886732798068
326,2704.36,3.059552343366816
327,2716.8399999999997,2.9933352775605266
328,2723.11,2.985014876710731
329,2735.68,3.028201207064492
330,2741.98,2.877216938268048
331,2754.64,2.889088664781859
332,2767.35,2.9164312780512542
333,2773.73,2.9589740280637438
334,2786.54,2.8911904148443064
335,2792.96,2.689432274261263
336,2805.85,2.74041067985076
337,2812.3199999999997,2.9156582260233
338,2825.3,2.9570340277728473
339,2831.81,2.9055756833498547
340,2844.89,2.8649742586105704
341,2858.02,2.8150097206268687
342,2864.61,2.91292039501281
343,2877.83,2.9035822531891604
344,2884.0315,2.892815386413325
345,2884.4599999999996,2.8922051507009785
346,2897.7799999999997,2.8814502976024476
347,2911.15,2.969814933794088
348,2931.33,2.911481611306975
349,2951.65,2.8823712588323396
350,2972.11,2.8900738763701828
351,2992.71,2.880719463920504
352,3013.46,2.8829325193413364
353,3027.37,2.87763303986682
354,3048.3500000000004,2.8652265460224378
355,3069.48,2.858666520048568
356,3090.76,2.85504596194521
357,3112.18,2.84244737385433
358,3126.55,2.819039795849384
359,3148.22,2.8122266542093572
360,3170.04,2.802383980439842
361,3192.01,2.72760577454084
362,3206.75,2.762784617283157
363,3228.97,2.6940978578350077
364,3251.3599999999997,2.7576345619734393
365,3266.37,2.7922488468826776
366,3289.0099999999998,2.769649997471962
367,3311.31121,2.7535795463196977
368,3311.81,2.7533292612821283
369,3319.44,2.756864758202817
370,3327.0899999999997,2.7636116273303752
371,3334.7599999999998,2.802897868664803
372,3342.4500000000003,2.7234224822060993
373,3350.15,2.7843207818508313
374,3357.8799999999997,2.736603139805868
375,3365.62,2.651022183864338
376,3373.38,2.624561600129678
377,3381.15,2.6968477024984527
378,3388.95,2.7639258631775316
379,3396.7599999999998,2.7036027099600455
380,3404.59,2.745332928949428
381,3412.44,2.682288520145681
382,3420.3,2.7299987974453677
383,3428.19,2.7207211330553593
384,3436.09,2.7243241547687855
385,3444.01,2.60100854868908
386,3451.95,2.7381353148162457
387,3459.91,2.68059445315028
388,3467.8900000000003,2.6710039636911835
389,3475.88,2.6925821603355224
390,3483.89,2.66967472918673
391,3491.92,2.6945936702448074
392,3499.97,2.5972069835097544
393,3508.04,2.6581556689815704
394,3516.13,2.5985227266602564
395,3524.23,2.6441194704423765
396,3532.36,2.678564272534801
397,3540.4999999999995,2.7041667607306605
398,3548.6600000000003,2.733765621133389
399,3556.84,2.686510853742987
400,3565.04,2.6991554585594546
401,3573.2599999999998,2.5803024355827917
402,3581.5000000000005,2.567196784812998
403,3589.54,2.3781574119745104
404,3592.22,2.5776472876950143
405,3594.8999999999996,2.5284751634155187
406,3597.5699999999997,2.4762013530325877
407,3600.25,2.519439228753092
408,3602.92,2.546492418370161
409,3605.6,2.6751842940906654
410,3608.27,2.6022924837077346
411,3610.95,2.5197993594282386
412,3613.6200000000003,2.4335255490453074
413,3616.3,2.4912544247658115
414,3618.9700000000003,2.5242526143828807
415,3621.65,2.6894784901033852
416,3624.33,2.711484365823889
417,3627.0,2.7328415554409586
418,3629.6800000000003,2.766489431161462
419,3632.35,2.729535620778532
420,3635.03,2.6646954964990357
421,3637.7,2.732539686116105
422,3640.3799999999997,2.7559205618366094
423,3643.0499999999997,2.240501751453679
424,3645.73,2.356624627174182
425,3648.4,2.5438228167912516
426,3651.08,2.4503496925117556
427,3653.7599999999998,2.64285056823226
428,3656.43,2.7508877578493296
429,3659.1099999999997,2.5817966335698332
430,3661.78,2.7707008231869024
431,3664.46,2.6479646989074066
432,3667.13,2.6418298885244758
433,3669.81,2.79320976424498
434,3672.48,2.651175953862049
435,3675.1600000000003,2.4670818295825527
436,3677.8300000000004,2.510050019199622
437,3680.51,2.6460448949201263
438,3683.19,2.4278847706406306
439,3685.86,2.5437209602576996
440,3688.54,2.634570835978204
441,3691.2099999999996,2.700676025595273
442,3693.8900000000003,2.531054901315777
443,3696.56,2.5733940909328465
444,3699.24,2.5667339666533504
445,3701.91,2.7259271562704197
446,3704.5899999999997,2.593122031990924
447,3707.26,2.4916782216079927
448,3709.94,2.543296097328497
449,3712.62,2.8363549730490014
450,3715.29,3.2789401626660704
451,3717.97,4.186209038386575
452,3720.64,6.021743228003644
453,3723.32,8.672873103724147
454,3725.9900000000002,11.316437293341217
455,3728.67,12.107423169061722
456,3731.34,10.24209835867879
457,3734.02,7.1454092343992945
458,3736.6899999999996,4.508489424016364
459,3739.3700000000003,3.3439802997368675
460,3742.05,2.779247175457372
461,3744.7200000000003,2.567111365074441
462,3747.4,2.540064240794945
463,3750.0699999999997,2.451273430412015
464,3752.7500000000005,2.5041333061325184
465,3755.42,2.608741495749588
466,3758.1,2.708004371470092
467,3760.77,2.7549645610871614
468,3763.45,2.6400614368076654
469,3766.12,2.7592106264247347
470,3768.7999999999997,2.7444675021452385
471,3771.48,2.701935377865743
472,3774.15,2.807637567482812
473,3776.83,2.752900443203316
474,3779.5,2.8036366328203854
475,3782.18,2.8966055085408895
476,3784.8500000000004,2.9052936981579585
477,3787.53,2.8309975738784625
478,3790.2000000000003,2.927624763495532
479,3792.88,2.7299826392160362
480,3795.5499999999997,2.5771998288331055
481,3798.23,2.571151704553609
482,3800.9100000000003,2.664916580274113
483,3801.8939600000003,2.70584164714139
484,3803.58,2.7762276204033856
485,3806.26,2.8748765345884
486,3808.93,2.85648522148168
487,3811.61,2.8054561356666943
488,3814.2799999999997,2.803625822559974
489,3816.9599999999996,2.773893736744989
490,3819.63,2.8330734236382686
491,3822.31,2.6899983378232837
492,3824.98,2.7354000247165633
493,3827.66,2.516094938901578
494,3830.3399999999997,2.443470853086593
495,3833.01,2.4422185399798724
496,3835.69,2.513592454164887
497,3838.36,2.355243141058167
498,3841.04,2.3714860552431816
499,3843.71,2.669324742136461
500,3846.39,2.783889656321476
501,3849.0600000000004,2.7855363432147557
502,3851.7400000000002,2.8951482573997707
503,3854.41,2.88404394429305
504,3857.09,2.984381858478065
505,3859.77,3.07312677266308
506,3862.4399999999996,3.338590459556359
507,3865.1200000000003,3.761037373741374
508,3867.79,4.022860060634654
509,3870.47,3.9764659748196687
510,3873.14,3.674884661712949
511,3875.8199999999997,3.382559575897963
512,3878.49,3.077830262791243
513,3881.17,2.9719841769762576
514,3883.84,2.8777438638695374
515,3886.52,2.9479407780545523
516,3889.2,2.930860692239567
517,3891.87,2.9296933791328468
518,3894.55,2.7953622933178615
519,3897.2200000000003,2.787569980211141
520,3899.9,2.900990894396156
521,3902.57,2.8966765812894355
522,3905.25,2.8428314954744502
523,3907.9199999999996,2.87991918236773
524,3910.6000000000004,2.9718110965527442
525,3913.27,3.153145783446025
526,3915.9500000000003,3.106090697631039
527,3918.63,3.064500611816054
528,3921.2999999999997,2.935316298709334
529,3923.9800000000005,2.9280082128943485
530,3926.6499999999996,2.8743418997876287
531,3929.33,2.652618813972643
532,3932.0,2.531548500865923
533,3934.68,2.5348074150509374
534,3937.35,2.540428101944217
535,3940.0299999999997,2.5995800161292317
536,3942.7000000000003,2.6971807030225117
537,3945.38,2.835973617207526
538,3948.06,2.8747045313925415
539,3950.73,2.841077218285821
540,3953.41,2.879974132470836
541,3956.08,2.9753568193641153
542,3958.76,2.92979273354913
543,3961.4300000000003,2.9849324204424095
544,3964.11,2.9779543346274244
545,3966.7799999999997,3.015871021520704
546,3969.46,2.928903935705719
547,3972.1299999999997,2.9226026225989985
548,3974.81,2.7970485367840134
549,3977.4900000000002,2.785765450969028
550,3980.16,2.862268137862308
551,3982.84,2.9534970520473225
552,3985.5099999999998,3.0069807389406025
553,3988.1899999999996,3.1777026531256176
554,3990.86,3.1356293400188964
555,3993.54,3.1712132542039115
556,3996.21,3.1553069410971917
557,3998.89,3.129118855282206
558,4001.56,3.2726945421754854
559,4004.2400000000002,3.2359064563605004
560,4006.92,3.1443023705455158
561,4009.59,3.182219057438795
562,4012.27,3.1961079716238094
563,4014.94,3.4029466585170893
564,4017.62,3.216447572702104
565,4020.2900000000004,3.261486259595384
566,4022.9700000000003,3.1895891737803987
567,4025.64,3.3174318606736786
568,4028.32,3.2018137748586932
569,4030.99,3.3556574617519725
570,4033.6699999999996,3.210561375936988
571,4036.3500000000004,3.1943092901220025
572,4039.02,3.2580609770152824
573,4041.7,3.335543891200297
574,4044.37,3.3640205780935766
575,4047.0499999999997,3.1359544922785916
576,4049.72,3.2167641791718715
577,4052.4,3.2791760933568854
578,4055.07,3.1900707802501653
579,4057.75,3.07561269443518
580,4060.42,3.18225738132846
581,4063.1,3.263217295513475
582,4065.7799999999997,3.4029692096984894
583,4068.4500000000003,3.3001188965917687
584,4071.13,3.407245810776784
585,4073.8,3.3744474976700634
586,4076.48,3.223057411855078
587,4079.15,3.1647550987483584
588,4081.8300000000004,3.2298180129333725
589,4084.5,3.1945346998266526
590,4087.1800000000003,3.2246536140116673
591,4089.85,3.1547583009049474
592,4092.5299999999997,3.199285215089962
593,4095.21,3.0165961292749763
594,4097.88,3.1944528161682557
595,4100.5599999999995,3.3510967303532713
596,4103.23,3.345789417246551
597,4105.91,3.1672403314315654
598,4108.58,3.040706018324845
599,4111.26,2.97195693250986
600,4113.93,3.0797596194031396
601,4116.61,3.1161725335881547
