,lambda (Angstroms),Total Flux (erg/s/cm^2/Angstrom)
0,100.04,0.022650137207064918
1,101.89999999999999,0.02723812029600152
2,104.04,0.03251676750463278
3,104.712855,0.03417647039032636
4,105.97,0.03158910222149605
5,107.94,0.0275345856169763
6,109.94999999999999,0.023397743845759808
7,114.07000000000001,0.0149182472731589
8,118.08000000000001,0.006665145108822292
9,120.22644299999999,0.002247487313052119
10,121.11,0.002163344212739572
11,125.08,0.0017852708579082542
12,127.11,0.0015919487722767384
13,127.99,0.0015081443177885497
14,130.98,0.0012233993052181015
15,131.88,0.0011376912700099759
16,134.03,0.0009329417692538433
17,137.15,0.0006358194188688092
18,138.038426,0.0005512130716570764
19,140.02,0.0005445506284707616
20,142.95000000000002,0.0005347289180288545
21,146.96,0.0005213191476889407
22,151.07,0.0005075284241512486
23,154.95,0.0004945229801054467
24,158.489319,0.00048266847616442804
25,158.92,0.00048044885101875787
26,161.88000000000002,0.00046520074821781006
27,166.03,0.0004438365317377654
28,169.9,0.00042393188336456694
29,173.05999999999997,0.0004076725150730149
30,177.09,0.0003870038137673326
31,179.97,0.0003722436872826268
32,181.970086,0.0003619977826677804
33,182.04999999999998,0.0003621342795539859
34,185.85999999999999,0.00036869019664204214
35,191.07,0.000377700075157468
36,194.17000000000002,0.00038311731285378675
37,197.78,0.0003895159768807901
38,201.92000000000002,0.00039689701609458335
39,205.21,0.00040280302642390226
40,208.929613,0.00040955511820543966
41,209.99,0.000420425456867299
42,215.86999999999998,0.0004812829813932241
43,219.88,0.0005229236138148161
44,222.94000000000003,0.0005547117538946348
45,227.07999999999998,0.0005981241358261533
46,230.23999999999998,0.0006343111718366846
47,233.99,0.000682180394238423
48,239.88329199999998,0.0007520739885699517
49,239.99,0.000751374161995048
50,246.14000000000001,0.000706667919862582
51,251.88,0.0006723272972056141
52,257.15,0.0006342080541912901
53,260.13,0.000621416579223038
54,263.75,0.0006264576758052288
55,269.27,0.0006059765604277962
56,274.28000000000003,0.0005931781214711042
57,275.42287,0.0005846355652558558
58,278.72999999999996,0.0006168019984316997
59,283.92,0.0007323882153755467
60,289.86,0.0008478095365020298
61,295.93,0.00093336960102017
62,300.74,0.0009899748065114804
63,307.74,0.0011652808122160903
64,316.227766,0.0013614036346511144
65,317.83,0.0013737711677852954
66,328.24,0.0015132207452872549
67,338.21,0.0016114164428563753
68,347.69,0.0017350101468639235
69,356.60999999999996,0.002412082058229676
70,363.078055,0.0034663153326582622
71,365.75000000000006,0.0039327673334779035
72,375.14,0.0045816536273196986
73,384.76000000000005,0.004448650735600643
74,394.63,0.0074072632074024015
75,404.74999999999994,0.010518043042724974
76,414.18,0.0119700914347301
77,416.86938299999997,0.012075063430743074
78,421.88000000000005,0.012260461066339736
79,429.72,0.01310625495075005
80,440.75000000000006,0.017474226895271193
81,451.01000000000005,0.020149753101144894
82,460.46,0.019913591711818036
83,470.1,0.022711709141118475
84,478.630092,0.02746625300730348
85,479.94,0.02818715315993106
86,489.99,0.026741830399782604
87,500.25,0.03588054883569074
88,506.04,0.03292253181267983
89,511.9,0.05285497518835447
90,520.22,0.054033872574977826
91,529.89,0.05461127765053647
92,539.74,0.04893537375128649
93,549.5408739999999,0.05122743814702185
94,549.78,0.05128400519915192
95,560.0,0.07182562863127566
96,570.41,0.08582006505284202
97,579.68,0.09002649353775269
98,590.46,0.09773717893875992
99,600.0500000000001,0.08836846140588975
100,609.8,0.08998849586412913
101,619.71,0.1203454823134781
102,629.7800000000001,0.1195032907539366
103,630.957344,0.12171277304360457
104,640.01,0.13872922399264695
105,650.41,0.1406682489261724
106,657.94,0.1346831444790038
107,665.5600000000001,0.1563468977476061
108,674.82,0.17178002494803357
109,685.79,0.15495064874810802
110,695.3299999999999,0.1861782666198227
111,704.9999999999999,0.15894321230320646
112,716.45,0.208856577254059
113,724.43596,0.21752881028820828
114,726.42,0.21968185003609667
115,734.83,0.22791013530705367
116,745.0500000000001,0.2289701252558266
117,755.42,0.2353693647635346
118,764.17,0.21871688903474434
119,774.8,0.2515971877779397
120,785.58,0.23866323608007006
121,794.67,0.26404539935153254
122,805.73,0.2790057268303416
123,815.06,0.2887911293961001
124,824.5,0.3009888416384109
125,831.763771,0.2612392725312496
126,834.0400000000001,0.24877583635683057
127,845.65,0.31151090043956303
128,855.4399999999999,0.313646920540334
129,865.34,0.3329345015411136
130,875.36,0.3422208217055391
131,885.5,0.35095698103361034
132,895.75,0.3599166012616902
133,904.04,0.3607291818168885
134,914.51,0.3565876238449857
135,925.0999999999999,0.8446975050367288
136,935.81,1.3821833253921176
137,944.47,1.9656425017018904
138,954.992586,2.3848167561214826
139,955.41,2.401445486019437
140,964.25,2.6574384489287244
141,975.4100000000001,0.9786368147734801
142,984.44,2.2206745124059304
143,995.84,2.220669595795735
144,1005.05,2.900401431586972
145,1014.35,2.967965236457602
146,1026.1000000000001,1.920849199600602
147,1035.59,2.5554089391943955
148,1045.17,3.779559647867582
149,1054.84,3.7020563256201617
150,1064.6,3.122132972452135
151,1074.46,3.535358584927878
152,1084.3999999999999,3.051037169918638
153,1094.43,3.7190907239887903
154,1096.4782,3.69524112727389
155,1104.56,3.6011293300435883
156,1114.78,3.543489340602321
157,1125.09,3.1801352543851524
158,1135.5,3.8585990606392047
159,1146.01,3.6511707593644767
160,1153.95,3.7534972215793823
161,1164.6299999999999,3.7881287375057293
162,1175.41,2.6512001459032972
163,1186.28,3.684922457524963
164,1194.51,3.0090686079064084
165,1205.56,2.520238725976271
166,1213.92,1.9881937365703035
167,1225.15,3.0090146610883632
168,1233.64,3.8584845318949816
169,1245.05,4.096575262861238
170,1253.68,3.9940449831275657
171,1258.92541,3.877409912404797
172,1265.28,3.7361188288299676
173,1274.06,4.3995555003640385
174,1285.8400000000001,4.5436904013516655
175,1294.76,3.8584240835935697
176,1303.7299999999998,3.8673647696596998
177,1315.8,4.554174692827837
178,1324.92,4.389430390366644
179,1334.1,4.068284092494523
180,1346.44,4.564665036313481
181,1355.78,4.4607497506788825
182,1365.18,4.115389469633355
183,1374.64,4.211233193176899
184,1384.17,4.230686922074359
185,1393.76,3.4230856555608904
186,1403.4199999999998,3.431030394401338
187,1416.4099999999999,4.021749387935232
188,1426.23,4.012426139013203
189,1436.11,4.105920894680245
190,1442.7400000000002,4.240473401772602
191,1445.43977,4.272244144896841
192,1446.0700000000002,4.279660648719357
193,1456.09,4.163045291929922
194,1466.18,3.930201939633976
195,1476.35,3.966571592473442
196,1486.5800000000002,4.0402912491644685
197,1493.44,4.0589486895261935
198,1503.7900000000002,3.876307353920341
199,1510.7400000000002,3.551557800059406
200,1517.7099999999998,3.727475247482325
201,1524.71,3.6679376968310238
202,1535.28,3.202042375347559
203,1545.93,3.1580730589995074
204,1556.6399999999999,3.0933377465030163
205,1563.83,3.3298062080483226
206,1574.6699999999998,3.5515589038968787
207,1585.5800000000002,3.6848466042389223
208,1596.57,3.736099309716379
209,1603.94,3.6595007828163664
210,1615.0600000000002,3.651045496638871
211,1626.25,3.551583214954862
212,1633.76,3.7447126970418227
213,1645.09,3.770653424344788
214,1656.49,3.6259131561412405
215,1659.58691,3.70943182909985
216,1664.13,3.8319534846819683
217,1671.82,3.5028200896544566
218,1675.6699999999998,3.9302128944846353
219,1683.3999999999999,3.9849285182086063
220,1695.07,3.8055869889535914
221,1706.82,3.693331497201541
222,1714.7,3.5190561912435703
223,1726.5900000000001,3.478729765121708
224,1734.56,3.6848625013545733
225,1746.5800000000002,3.6259791361750286
226,1754.64,3.770734914598729
227,1766.8,3.576222615049373
228,1774.9599999999998,3.5762304403517793
229,1783.15,3.651118279717797
230,1795.51,3.788149073925853
231,1803.8000000000002,3.796824960170577
232,1816.3000000000002,3.5353408200088214
233,1824.6899999999998,3.609312753132251
234,1833.1100000000001,3.5191027003192925
235,1845.82,3.2842046586028197
236,1854.34,3.2994116526685673
237,1862.89,3.3684826607979264
238,1875.81,3.559864717526736
239,1884.47,3.307001777222671
240,1893.16,3.180112850982219
241,1905.46072,3.356584765257396
242,1906.29,3.368481116290113
243,1915.0900000000001,3.239211798698841
244,1923.93,3.1509304569366994
245,1932.8100000000002,3.306980091003688
246,1946.1999999999998,3.3918139998051493
247,1955.19,3.150930567402247
248,1968.74,3.407482379520231
249,1977.83,3.510981886690155
250,1982.3899999999999,3.337538131211041
251,1996.13,3.2616188285173955
252,2005.34,3.360700263174712
253,2014.6,3.284207667618441
254,2023.8999999999999,3.4152940478913005
255,2033.24,3.216862403993291
256,2047.33,3.2993798898045372
257,2056.78,3.022939179436637
258,2066.28,3.1219764388551496
259,2075.81,3.39173768014551
260,2085.4,3.2993198851795666
261,2095.02,3.143569072085471
262,2104.69,3.194650228777789
263,2114.41,3.2316423552565197
264,2124.17,3.254024457564381
265,2133.9700000000003,3.121936535701373
266,2143.8199999999997,3.1147255836247782
267,2153.7200000000003,3.216776601334597
268,2163.66,3.143513594873546
269,2173.64,3.129108564241626
270,2183.6800000000003,3.057890497353401
271,2187.7616199999998,3.1013953466719872
272,2193.7599999999998,3.1653369208533197
273,2203.88,3.107549796480422
274,2214.0499999999997,3.008999696196591
275,2224.27,2.940552620001827
276,2234.54,3.0298405678961293
277,2244.86,2.9540895398794986
278,2255.22,2.873628531134121
279,2265.6299999999997,2.9269685464778106
280,2276.08,2.960728581092753
281,2286.59,2.9810406446145756
282,2297.14,2.827074727407652
283,2302.44,2.846582280848723
284,2313.07,2.7624484021843063
285,2323.74,2.3565445427911427
286,2334.47,2.649938712304859
287,2345.25,2.6194589059076416
288,2356.07,2.698869118781678
289,2366.95,2.5890943605625942
290,2372.4,2.601019986270866
291,2383.35,2.4952472617764756
292,2394.35,2.588659561371152
293,2405.41,2.517929889872709
294,2416.51,2.541096237645519
295,2427.6600000000003,2.594110609507395
296,2433.2599999999998,2.5117073074828666
297,2444.49,2.5878707178872498
298,2455.77,2.5521621523807005
299,2467.11,2.54025461578103
300,2472.8,2.482349357116822
301,2484.21,2.5167068542418454
302,2495.6800000000003,2.248069380273749
303,2507.2,2.5221389303947195
304,2511.88643,2.398836998763819
305,2512.98,2.370063984319902
306,2518.77,2.45321690470457
307,2524.5800000000004,2.391763821359997
308,2536.23,2.3915996490769893
309,2542.07,2.3479075601385544
310,2553.8100000000004,2.4134813710739613
311,2565.6,2.391124172686265
312,2577.4399999999996,2.452268964975466
313,2583.38,2.435304857390825
314,2595.2999999999997,2.4127886347630603
315,2607.28,2.3631354009475727
316,2613.29,2.3413772803105877
317,2625.36,2.3737450297135143
318,2637.48,2.3790517697933375
319,2643.55,2.451226637968629
320,2655.7599999999998,2.4453873612668673
321,2668.02,2.3297930752420024
322,2674.17,2.372982928500329
323,2686.5099999999998,2.3619036275584993
324,2692.7000000000003,2.297474473358343
325,2705.13,2.3131651556349277
326,2717.62,2.2603388267237894
327,2723.88,2.265478659471289
328,2736.46,2.3020653137785643
329,2742.76,2.1682521390675817
330,2755.42,2.168075778457893
331,2768.14,2.19295540666048
332,2774.52,2.2439322170325324
333,2787.33,2.202818828453534
334,2793.76,1.9768416295024835
335,2806.65,2.06027522600652
336,2813.12,2.2126330195969874
337,2826.11,2.217529597454818
338,2832.6200000000003,2.1372293835868024
339,2845.69,2.1223369465276685
340,2852.25,2.1076657233365497
341,2865.42,2.15656726763121
342,2872.0299999999997,2.1268840351169884
343,2884.0315,2.1266734693680376
344,2885.28,2.1266517925283046
345,2891.93,2.102236767151984
346,2911.98,2.1508966906414226
347,2932.16,2.106572613634783
348,2952.49,2.0726085360557454
349,2972.96,2.0675224579424687
350,2986.68,2.0484164055871124
351,3007.38,2.0387213265961592
352,3028.23,2.024403247032807
353,3049.2200000000003,2.0009601669352173
354,3070.35,1.9823770863033887
355,3091.64,1.963894005061002
356,3113.07,1.9456509232843773
357,3127.44,1.9187378684486285
358,3149.11,1.9096937857561664
359,3170.94,1.8832457024531464
360,3192.92,1.835905618577728
361,3207.66,1.8399435623300635
362,3229.8900000000003,1.8102664775006483
363,3252.28,1.814140392060675
364,3267.29,1.8056453347826937
365,3289.94,1.7888472483505633
366,3311.31121,1.7770541190003848
367,3312.75,1.7762600618428772
368,3320.39,1.8175285045278549
369,3328.04,1.8132649464833623
370,3335.71,1.8173623869799302
371,3343.4,1.735491826017558
372,3351.11,1.800498263596246
373,3358.83,1.7075527004454643
374,3366.5699999999997,1.7352051358357425
375,3374.34,1.699521569037611
376,3382.1200000000003,1.6994610015100096
377,3389.91,1.7510244332529383
378,3397.73,1.7630288628074573
379,3405.5600000000004,1.699169291632506
380,3413.41,1.7069697189986153
381,3421.2799999999997,1.7425861449057847
382,3429.17,1.7305145693540138
383,3437.0699999999997,1.7424129930727734
384,3444.99,1.6793124153325931
385,3452.94,1.746220835404003
386,3460.89,1.6599112554754127
387,3468.87,1.659856673358413
388,3476.8700000000003,1.6445500897824732
389,3484.88,1.6406845054770636
390,3492.92,1.674913918983244
391,3500.97,1.6480693317599548
392,3509.04,1.6067907430777253
393,3517.13,1.5956491529365564
394,3525.2400000000002,1.6289535613364474
395,3533.3599999999997,1.6477279690068687
396,3541.5099999999998,1.6552243744888802
397,3549.6699999999996,1.6704757792414213
398,3557.86,1.643678181805553
399,3566.06,1.6626145836402149
400,3574.28,1.5913689840159366
401,3582.52,1.544372382932719
402,3590.78,1.5160807803905612
403,3599.0499999999997,1.5656821771189333
404,3607.35,1.5655575716588959
405,3615.67,1.5836259647399187
406,3624.0,1.6018773570914713
407,3629.87,1.5702349288926254
408,3632.5800000000004,1.6542367312062758
409,3635.28,1.527803534249396
410,3637.99,1.7297003365630466
411,3640.7000000000003,1.7734021388766972
412,3643.4100000000003,1.8330399411903473
413,3646.11,1.7832787442334677
414,3648.8199999999997,1.5705235465471181
415,3651.53,1.6492133488607688
416,3654.23,1.649104151903889
417,3656.94,1.5990449542175393
418,3659.6499999999996,1.6093767565311898
419,3662.36,1.6341995588448401
420,3665.06,1.7910143618879606
421,3667.77,1.5774501642016108
422,3670.48,1.4741599665152614
423,3673.18,1.4909667695583815
424,3675.89,1.516194571872032
425,3678.6000000000004,1.5213303741856825
426,3681.31,1.4541821764993328
427,3684.0099999999998,1.5899799795424532
428,3686.72,1.5138827818561036
429,3689.4300000000003,1.4547605841697542
430,3692.13,1.4607123872128744
431,3694.8399999999997,1.5853021895265247
432,3697.55,1.4765849918401752
433,3700.26,1.4887647941538256
434,3702.96,1.333404597196946
435,3705.6699999999996,1.3261863995105962
436,3708.38,1.5092612018242466
437,3711.09,1.6306170041378971
438,3713.79,1.6057968071810176
439,3716.5,1.897990609494668
440,3719.21,2.948356411808318
441,3721.91,5.3858822148514385
442,3724.6200000000003,8.79165701716509
443,3727.33,10.90531981947874
444,3730.04,9.60395762179239
445,3732.74,6.3419694248355105
446,3735.4500000000003,3.392053227149161
447,3738.16,2.2516700294628107
448,3740.8599999999997,1.9703358325059315
449,3743.57,1.7437226348195816
450,3746.28,1.5446504371332321
451,3748.99,1.5842542394468826
452,3751.6899999999996,1.683275042490003
453,3754.4,1.7883498448036534
454,3757.11,1.7615576471173038
455,3759.81,1.882346450160424
456,3762.5199999999995,1.8774362524740744
457,3765.23,1.522652054787725
458,3767.94,1.5555588571013752
459,3770.6400000000003,1.5226556601444956
460,3773.35,1.5814844624581461
461,3776.06,1.7692932647717965
462,3778.77,1.7874770670854467
463,3781.4700000000003,1.863058870128567
464,3784.18,1.9056646724422175
465,3786.89,1.892209474755868
466,3789.5899999999997,1.8623672777989884
467,3792.3,1.716410080112639
468,3795.0099999999998,1.6064228824262892
469,3797.72,1.6109816847399396
470,3800.42,1.6768054877830598
471,3801.8939600000003,1.7576947821514228
472,3803.13,1.8255273088837451
473,3805.8399999999997,1.9064111523877005
474,3808.5400000000004,2.106411996469132
475,3811.25,1.9660558399730879
476,3813.96,2.079327683477043
477,3816.6699999999996,2.0096965269809983
478,3819.3700000000003,2.02904537106243
479,3822.08,2.0274252145663856
480,3824.79,1.915648058070341
481,3827.4900000000002,1.8276089021517727
482,3830.2000000000003,1.7128867456557282
483,3832.91,1.5480515891596835
484,3835.6200000000003,1.666405432663639
485,3838.32,1.7341342767450705
486,3841.03,1.667679120249026
487,3843.74,1.8292179637529815
488,3846.4500000000003,1.937583807256937
489,3849.15,1.9205586513383686
490,3851.8599999999997,2.066163494842324
491,3854.57,1.9988413383462795
492,3857.27,1.9445781824277109
493,3859.98,2.0279440259316663
494,3862.6899999999996,2.3275848694356216
495,3865.4,2.4492287129395773
496,3868.1,2.380013557021009
497,3870.81,2.3218704005249644
498,3873.5199999999995,2.08988824402892
499,3876.2200000000003,2.0097020881103513
500,3878.93,1.9259259316143067
501,3881.64,1.9553097751182622
502,3884.35,1.9785736186222176
503,3887.05,1.9370694627036493
504,3889.7599999999998,2.1318063062076047
505,3892.4700000000003,2.02181914971156
506,3895.18,1.8086589932155157
507,3897.88,1.834415837296947
508,3900.5899999999997,1.9095256808009025
509,3903.3,1.9243605243048583
510,3906.0,1.9549093683862897
511,3908.71,2.035966211890245
512,3911.42,2.1588810553942004
513,3914.13,2.106742898898156
514,3916.83,2.0469367429795877
515,3919.5400000000004,2.0311725864835433
516,3922.25,1.9908704299874986
517,3924.95,2.1047882740689303
518,3927.66,1.9560601175728856
519,3930.3700000000003,1.921993961076841
520,3933.08,1.8508618045807963
521,3935.7799999999997,1.734012648662228
522,3938.4900000000002,1.9216484921661836
523,3941.2000000000003,1.831521335670139
524,3943.9,1.9882791797515704
525,3946.6099999999997,1.925748023255526
526,3949.32,1.9362538667594813
527,3952.03,2.059456710263437
528,3954.73,1.9655295543448685
529,3957.44,1.868993397848824
530,3960.15,1.8997062413527794
531,3962.86,1.749650084856735
532,3965.5600000000004,1.8330259289381663
533,3968.27,1.8677797724421217
534,3970.98,1.956976615946077
535,3973.68,1.799194460027509
536,3976.3900000000003,1.9128133035314643
537,3979.1,1.8807101470354197
538,3981.81,1.8898869905393751
539,3984.51,1.9032308346208067
540,3987.2200000000003,2.014713678124762
541,3989.93,1.9805895216287175
542,3992.6299999999997,2.186826365710149
543,3995.34,2.1955412092141047
544,3998.05,2.10887805271806
545,4000.7599999999998,2.1883758962220154
546,4003.4599999999996,2.0497037403034475
547,4006.17,2.034862583807403
548,4008.88,2.111416427311358
549,4011.58,2.1737192713927893
550,4014.29,2.1827811148967453
551,4017.0,2.1256779584007006
552,4019.71,2.056508801904656
553,4022.4100000000003,2.1348046459860877
554,4025.12,2.160839489490043
555,4027.83,2.0843953329939984
556,4030.5400000000004,2.0603751764979537
557,4033.2400000000002,2.1185210205793856
558,4035.95,2.278616864083341
559,4038.66,2.2500927075872963
560,4041.36,2.089712551668728
561,4044.07,2.1522363951726833
562,4046.7799999999997,2.008531238676639
563,4049.4900000000002,2.1693200821805942
564,4052.19,2.116903926262026
565,4054.9,2.2352577697659815
566,4057.6099999999997,2.234099613269937
567,4060.31,2.2794294573513683
568,4063.02,2.0891893008553235
569,4065.73,2.085029144359279
570,4068.44,2.1360639878632344
571,4071.14,2.1276998319446663
572,4073.85,1.9783936754486215
573,4076.5600000000004,2.077695518952577
574,4079.26,1.9915613630340088
575,4081.97,1.9623452065379643
576,4084.68,2.0005630500419196
577,4087.3900000000003,1.825218893545875
578,4090.09,1.8282277376273066
579,4092.7999999999997,1.9088805811312621
580,4095.5099999999998,1.8705994246352176
581,4098.22,1.9592772681391728
582,4100.92,2.3248621122206043
583,4103.63,2.29102595572456
584,4106.34,2.0483057992285154
585,4109.04,1.8897726433099469
586,4111.75,1.8565144868139025
587,4114.46,1.8721003303178578
588,4117.17,1.8820851738218132
589,4119.87,1.910671017903245
