,lambda (Angstroms),Total Flux (erg/s/cm^2/Angstrom)
0,100.09,0.00037667953397180285
1,101.94999999999999,0.000452437622343571
2,104.08000000000001,0.0005389066507693072
3,104.712855,0.0005646488824837868
4,106.02000000000001,0.0005206841740596576
5,107.99,0.00045451589293923943
6,110.0,0.00038808769155749217
7,114.12,0.0002497358926406772
8,118.13000000000001,0.00011491238119251505
9,120.22644299999999,5.302517568333442e-05
10,120.89000000000001,5.4827743956434043e-05
11,125.13,5.046183744055337e-05
12,126.87,4.8742942455262684e-05
13,128.05,4.756846229282418e-05
14,131.03,4.421046662836087e-05
15,131.94,4.542869879122611e-05
16,134.07999999999998,4.296363036104105e-05
17,136.89,4.260061616065785e-05
18,138.038426,4.142528766130197e-05
19,140.07999999999998,4.2416157351889204e-05
20,143.01,6.73597426100572e-05
21,147.02,0.00010577607178591169
22,151.14000000000001,0.00011060101487930832
23,155.02,0.00011693979487988574
24,158.489319,0.00012285389898820736
25,158.99,0.00012369256669086002
26,161.95000000000002,0.000128615850154517
27,166.1,0.00013602893778092792
28,169.97000000000003,0.00014208688913374968
29,173.13,0.0001475317985071132
30,177.16,0.0001541729705877002
31,180.04,0.00015911674368747453
32,181.970086,0.00016257281732771458
33,182.13,0.0001628771038760175
34,185.94,0.00017000815991723248
35,191.15,0.000178673551774117
36,193.81,0.00018521409982388912
37,197.87,0.00019203238368933082
38,202.01,0.00019956365245852505
39,204.82,0.0002055202972028332
40,208.929613,0.00020705738420587265
41,210.07999999999998,0.0002076470346361231
42,215.96,0.00022648326784560115
43,219.98,0.00023482100891738717
44,223.04000000000002,0.00023901672824068695
45,227.17999999999998,0.0002483447720310337
46,229.81,0.00036474067327949076
47,234.09,0.0005912433369081585
48,239.88329199999998,0.000718126894324028
49,240.09,0.0007225916474824057
50,246.25,0.0006835003340934119
51,251.98999999999998,0.0007047855034354858
52,257.26,0.0005832259867861356
53,260.24,0.0006724252426466548
54,263.86,0.0006952056581550708
55,268.77000000000004,0.0006866205267037787
56,273.76,0.0006751632652084736
57,275.42287,0.0006714302612134721
58,278.85,0.0006647047791888385
59,284.03999999999996,0.0006579769279151812
60,289.99,0.0006210388354145529
61,296.06,0.0006219301469307188
62,300.87,0.000596430766270547
63,307.88,0.0005961162925849329
64,316.227766,0.0005940292992515175
65,317.96,0.0005931584767337741
66,327.62,0.0005750048692120029
67,338.35999999999996,0.0005534647707871765
68,347.84000000000003,0.0005316059950825812
69,356.76,0.0005152697516980886
70,363.078055,0.0005074202295998655
71,365.90999999999997,0.0005044405562235852
72,375.3,0.0004883585594474747
73,384.91999999999996,0.0004582193416640687
74,394.8,0.0004569705044811112
75,404.93,0.0004456387140293541
76,414.36,0.0004316780527302357
77,416.86938299999997,0.00042694776126789877
78,422.06,0.00041699009521816344
79,429.91,0.0004036523400763951
80,440.94,0.00039267208412560465
81,451.21000000000004,0.0003778052044687944
82,459.6,0.00036506696617077705
83,470.3,0.0003529268999265833
84,478.630092,0.00034555312552701436
85,480.15000000000003,0.00034403196085557573
86,490.2,0.0003278660971247867
87,500.47,0.0003214708017501395
88,506.26,0.00032179968712314755
89,512.13,0.0003871579246256618
90,520.45,0.0003780961460943021
91,530.12,0.0003666983097483588
92,539.98,0.0003454381097099926
93,549.5408739999999,0.0003644424344199452
94,550.02,0.000365416002136291
95,560.24,0.00038535019710317695
96,569.35,0.00039563799144254406
97,579.9300000000001,0.0003772361001264632
98,589.35,0.0003987929757221644
99,600.3100000000001,0.0003862179711073963
100,610.06,0.00039301730094371126
101,619.98,0.00043662880114640296
102,630.0500000000001,0.00044236619873119174
103,630.957344,0.0004425235279232896
104,640.2900000000001,0.0004446096162148191
105,650.69,0.00046542892392622046
106,658.23,0.00046984702201698645
107,664.32,0.0004905748897056821
108,675.11,0.000496478621456261
109,684.5,0.0004780925617841513
110,695.63,0.000555132478594526
111,705.3,0.0005202763772069541
112,716.76,0.0006013880912812482
113,724.43596,0.000612203751809042
114,726.73,0.0006154076664361205
115,735.15,0.0006310127413168317
116,745.3799999999999,0.0006708993543844891
117,755.75,0.0006957942599085954
118,764.5,0.0007038772384366505
119,775.13,0.0007620756013798762
120,784.1099999999999,0.000793922446086383
121,795.02,0.0008252695939425064
122,804.2199999999999,0.0008539882410805756
123,815.41,0.0008757413738495969
124,824.85,0.0009354528509130071
125,831.763771,0.0008440926724929443
126,834.4,0.0008091196547552995
127,844.0699999999999,0.0009741205591146081
128,855.8100000000001,0.0009983946694743066
129,865.7199999999999,0.0010564279064133708
130,875.74,0.0011103262166181557
131,885.88,0.0011750602431128186
132,894.08,0.0012211965229211258
133,904.43,0.0012320140529230748
134,914.9,0.0016615892992149013
135,925.4999999999999,0.008897207904820762
136,934.0600000000001,0.018663292333498702
137,944.88,0.03482337608563601
138,954.992586,0.04635348917716097
139,955.82,0.0472969104222125
140,964.66,0.05544122054413368
141,975.83,0.011352897519457186
142,984.86,0.05197937656933823
143,993.98,0.05185962511141077
144,1005.49,0.06836075016834663
145,1014.79,0.06307099769480216
146,1024.18,0.026846874713449233
147,1036.04,0.04664800779557428
148,1045.6200000000001,0.08162222374218119
149,1055.3,0.08013175912455643
150,1065.06,0.06619444405554634
151,1074.92,0.07599681842230459
152,1084.87,0.06277924228125435
153,1094.9,0.07759170568881878
154,1096.4782,0.07707383841925787
155,1105.03,0.07426756576420535
156,1115.26,0.07224221510824137
157,1125.5800000000002,0.06528565286292874
158,1135.99,0.07794922902826744
159,1143.8700000000001,0.07108605987196283
160,1154.45,0.07409466303519852
161,1165.13,0.07582359443249126
162,1175.92,0.05543865388724674
163,1184.07,0.07191169996289616
164,1195.02,0.05282189659214292
165,1206.0800000000002,0.040162551278852446
166,1214.44,0.02370660364602166
167,1225.68,0.04784080515403386
168,1234.17,0.06851674522547725
169,1245.59,0.07460861355479215
170,1254.23,0.0722398409773211
171,1258.92541,0.06876286362280046
172,1265.83,0.06365010673194008
173,1274.61,0.07758771776053043
174,1286.4,0.07994213256999287
175,1295.3200000000002,0.06695413377443774
176,1304.3,0.06573146505424884
177,1316.3600000000001,0.07758896020285927
178,1325.49,0.07443602167108591
179,1334.68,0.06773282321467879
180,1343.93,0.07634638483363787
181,1356.3600000000001,0.07392579044700667
182,1365.76,0.0675758122543813
183,1375.23,0.0696286741496832
184,1384.76,0.06994924612035132
185,1394.3600000000001,0.06120596817894669
186,1404.03,0.06277658032546932
187,1413.76,0.06498223254735819
188,1423.5600000000002,0.0652836048571743
189,1433.43,0.06498240725491766
190,1443.36,0.06742292972802726
191,1445.43977,0.06771193293265625
192,1446.6899999999998,0.06788566365847015
193,1453.37,0.06619061070075948
194,1463.44,0.061912781316905224
195,1473.59,0.06134896201738976
196,1483.8000000000002,0.0616311227811284
197,1494.09,0.06205571362920583
198,1504.44,0.05912910454053735
199,1511.3899999999999,0.053923711867470116
200,1518.36,0.056598389215487585
201,1525.3700000000001,0.05518500660567444
202,1535.95,0.04906734775948
203,1546.59,0.05173747897653966
204,1553.73,0.049182876503777055
205,1564.5,0.05009454785788725
206,1575.3500000000001,0.05282065929633624
207,1586.27,0.05430117080858168
208,1593.59,0.05518449852558137
209,1604.6299999999999,0.05343239016433499
210,1615.76,0.05318849189796976
211,1623.21,0.05079209975201999
212,1634.47,0.053064571622705295
213,1645.8,0.05330769356718706
214,1653.39,0.049980171568830174
215,1659.58691,0.05184708646185533
216,1664.85,0.05343270862172915
217,1672.5400000000002,0.048728807826118756
218,1676.39,0.05343237746680796
219,1684.13,0.05467861705614159
220,1695.8100000000002,0.05173694697906365
221,1703.6299999999999,0.049865787184307696
222,1715.44,0.0478414981080842
223,1723.36,0.04729473908321628
224,1735.31,0.049521921084836024
225,1743.32,0.04828520275286733
226,1755.4,0.05044369575534152
227,1763.5,0.04686160811627206
228,1775.73,0.047732242273578286
229,1783.9199999999998,0.04806173532740805
230,1796.2900000000002,0.05009551056255753
231,1804.5800000000002,0.04963708438627533
232,1817.0900000000001,0.046539340699268045
233,1825.4799999999998,0.046969525292873876
234,1833.8999999999999,0.04548022011744612
235,1846.61,0.0421532279702149
236,1855.14,0.04224967364166397
237,1863.7,0.043134879544079456
238,1876.62,0.04537589901361311
239,1885.28,0.042250205685916614
240,1893.98,0.04062904266617535
241,1905.46072,0.04221742265053858
242,1907.11,0.042445574687504845
243,1915.91,0.04109976735681188
244,1924.76,0.0400715195299218
245,1933.64,0.04081620140531345
246,1947.04,0.042445288424485535
247,1956.03,0.03988716920824353
248,1965.06,0.04254316959504382
249,1974.13,0.04333367958488641
250,1983.24,0.04128877917777131
251,1996.9899999999998,0.04016327272356356
252,2006.21,0.040815301224814804
253,2015.47,0.03979508932910835
254,2024.77,0.040815257036444196
255,2034.1200000000001,0.03915814424758293
256,2043.51,0.03997815106176396
257,2052.94,0.037741837478987295
258,2067.17,0.03817905626128721
259,2071.93,0.04053410902332147
260,2076.71,0.03915805158687689
261,2086.3,0.04016245641626944
262,2095.93,0.03817873084870431
263,2105.6,0.038443374884181473
264,2115.32,0.03862028842346152
265,2125.08,0.038798981565783874
266,2134.8900000000003,0.03671306421190911
267,2144.75,0.037223266361837225
268,2154.65,0.038090138114807645
269,2164.59,0.03679718947082036
270,2174.58,0.03654373033063598
271,2184.62,0.03612520069425446
272,2187.7616199999998,0.036494154032673184
273,2194.7,0.03730912441543874
274,2204.83,0.036292794566886
275,2215.01,0.03473943511394752
276,2225.24,0.03387033605662328
277,2235.51,0.035630297315790455
278,2245.83,0.03434148897057187
279,2256.19,0.033023680941844685
280,2266.61,0.0333289133878546
281,2277.0699999999997,0.033948926150355926
282,2287.58,0.03450064930847149
283,2292.85,0.03272163100621356
284,2303.43,0.03296155471818908
285,2314.07,0.0318629789049017
286,2324.75,0.026827603408105728
287,2335.48,0.029981618306924
288,2346.26,0.02891580360135653
289,2357.09,0.030790149291403307
290,2362.52,0.02867878225511097
291,2373.43,0.029298038578140555
292,2384.38,0.02736105521766153
293,2395.39,0.028669322331919617
294,2406.44,0.027778739762669098
295,2417.55,0.028118657668155682
296,2423.13,0.029520911818706096
297,2434.31,0.028472520278052634
298,2445.5499999999997,0.02962845921213627
299,2456.83,0.029242118462711308
300,2462.5,0.028917273325367376
301,2473.86,0.027954823208925218
302,2485.28,0.028103023567220158
303,2496.76,0.0264274544002522
304,2502.51,0.02912010989589107
305,2511.88643,0.02690685139948385
306,2514.0600000000004,0.02639376742883555
307,2519.8599999999997,0.02676983966771236
308,2525.67,0.025989641875966543
309,2537.32,0.026247986200607035
310,2543.17,0.025956738286370712
311,2554.9100000000003,0.027513392335407567
312,2566.71,0.026782166200708665
313,2572.62,0.027924808102736582
314,2584.5,0.027560781723056673
315,2596.4300000000003,0.02713965519026363
316,2602.41,0.026227666877933167
317,2614.42,0.025826590100159114
318,2626.4900000000002,0.026752943138649305
319,2632.55,0.02770246458133783
320,2644.7,0.029704597374847014
321,2656.8999999999996,0.03055837001524306
322,2663.03,0.027944591243573208
323,2675.3199999999997,0.02881411360836562
324,2687.6699999999996,0.029034725789422275
325,2693.87,0.02742059680339404
326,2706.2999999999997,0.028144478739469687
327,2712.54,0.026641339630950944
328,2725.0600000000004,0.026235001291422956
329,2737.64,0.027301522768159208
330,2743.95,0.024230793445282086
331,2756.6099999999997,0.024870324677037328
332,2762.9700000000003,0.025753485201047074
333,2775.72,0.026616786157198685
334,2782.1200000000003,0.024964666558717923
335,2794.96,0.020877337239265895
336,2807.8599999999997,0.02197840773607811
337,2814.34,0.026009667892616342
338,2827.33,0.02719286811382492
339,2833.84,0.02634073817849527
340,2846.92,0.025348968124100216
341,2853.4900000000002,0.024050488005034808
342,2866.66,0.026573517675036115
343,2873.27,0.027015657433480205
344,2884.0315,0.026781192586784165
345,2886.5299999999997,0.0267267643223603
346,2893.1800000000003,0.0269225439056055
347,2913.2400000000002,0.029013972648447416
348,2926.68,0.027730011806164034
349,2946.97,0.027130770534591873
350,2967.4,0.027350909254245926
351,2987.97,0.027257807965126193
352,3008.6800000000003,0.02735282666723268
353,3029.54,0.027385585359938677
354,3050.53,0.02741871404449759
355,3071.68,0.027515162719029318
356,3092.97,0.027422511384787265
357,3107.2499999999995,0.027698490489861168
358,3128.79,0.02703905913995164
359,3150.4700000000003,0.026948487781268324
360,3172.31,0.027231436412557826
361,3186.9500000000003,0.025789565495070572
362,3209.05,0.0266058741100659
363,3231.29,0.025266162716287448
364,3253.69,0.027231971312481805
365,3268.71,0.02834305037117999
366,3291.3599999999997,0.02799031895170688
367,3306.56,0.027566097999124482
368,3311.31121,0.0274362053488175
369,3321.8199999999997,0.027148895111762997
370,3329.48,0.028374895935029617
371,3337.1499999999996,0.027613916746316164
372,3344.85,0.026934897521662504
373,3352.56,0.026577228285028776
374,3360.2799999999997,0.027396749036414977
375,3368.03,0.027219879751860968
376,3375.79,0.024271020455326888
377,3383.58,0.025076851122852604
378,3391.38,0.027444221778398246
379,3399.19,0.02822552242196382
380,3407.0299999999997,0.026536133029589185
381,3414.88,0.02710384362523448
382,3422.76,0.028458444184939563
383,3430.65,0.02775937473266458
384,3438.55,0.02796434526840953
385,3446.48,0.024480055768214264
386,3454.43,0.027351976244058863
387,3462.3900000000003,0.02512986670792339
388,3470.37,0.02644722714782778
389,3478.37,0.02429848756377203
390,3486.39,0.02604797795575614
391,3494.43,0.02540763832378011
392,3502.48,0.027111908679824014
393,3510.56,0.026567868999927705
394,3518.6499999999996,0.025559519308051327
395,3526.7599999999998,0.025220469592214807
396,3534.89,0.026911709852418156
397,3543.04,0.02838806008866136
398,3551.21,0.028011290300944423
399,3559.39,0.02738638050124742
400,3567.6000000000004,0.026837220665610204
401,3575.82,0.02448746081799292
402,3584.0699999999997,0.023558230934435428
403,3592.3300000000004,0.023732481038897867
404,3600.61,0.027512391119400164
405,3606.07,0.025997334578282114
406,3608.8199999999997,0.02454093128376295
407,3611.57,0.027134117989243787
408,3614.31,0.02460637470670469
409,3617.0600000000004,0.026101811412185528
410,3619.8,0.02511157812964643
411,3622.5499999999997,0.02979092483512727
412,3625.3,0.029953681540608103
413,3628.04,0.028567148258069008
414,3630.79,0.025355484963549845
415,3633.5299999999997,0.025866481681010748
416,3636.28,0.022613278386491586
417,3639.0299999999997,0.029296645091972426
418,3641.7699999999995,0.02481453180943333
419,3644.52,0.024956768514914164
420,3647.2700000000004,0.025684875220395
421,3650.01,0.027995061937855906
422,3652.7599999999998,0.028132988643336743
423,3655.5,0.026439425360797648
424,3658.25,0.025324422066278482
425,3661.0,0.026149938771759317
426,3663.74,0.026965575489220222
427,3666.4900000000002,0.02407479219470106
428,3669.23,0.027676108912161965
429,3671.98,0.0282900956176428
430,3674.73,0.025541612323123634
431,3677.47,0.02491139904058454
432,3680.2200000000003,0.024774785746065377
433,3682.96,0.026197782463526283
434,3685.71,0.02771136916900712
435,3688.46,0.023640235874487957
436,3691.2,0.027215762591948862
437,3693.95,0.0268485092974297
438,3696.69,0.028407596014890603
439,3699.44,0.02699607272037144
440,3702.19,0.025744039425852273
441,3704.9300000000003,0.02445536614331318
442,3707.68,0.026175712848794015
443,3710.4199999999996,0.02921358956625492
444,3713.17,0.031017006271735755
445,3715.9199999999996,0.030017552977216592
446,3718.66,0.03658696969467749
447,3721.41,0.06025079640015833
448,3724.15,0.09824021311761924
449,3726.9,0.13110090982310008
450,3729.65,0.11351470652858092
451,3732.39,0.07366364324604181
452,3735.1400000000003,0.04277800995152265
453,3737.88,0.028838736668983556
454,3740.6299999999997,0.029362003374464395
455,3743.38,0.02790464007994523
456,3746.12,0.025750286797406135
457,3748.8700000000003,0.02567717350288697
458,3751.62,0.026520360208367805
459,3754.36,0.02941546692582871
460,3757.11,0.030082933631309546
461,3759.8500000000004,0.030168490348770453
462,3762.6,0.03006003705425129
463,3765.35,0.030031323759732123
464,3768.09,0.028310540477193027
465,3770.8399999999997,0.030497377182673865
466,3773.5800000000004,0.03227660390013477
467,3776.33,0.03359488060561561
468,3779.0800000000004,0.03504446731109644
469,3781.82,0.03518639402855735
470,3784.5699999999997,0.03469402073403818
471,3787.31,0.03399937745149909
472,3790.06,0.031007354156979926
473,3792.81,0.02935040086246076
474,3795.5499999999997,0.029019587579921666
475,3798.3,0.0290238242854025
476,3801.04,0.028548331002863407
477,3801.8939600000003,0.02925692114534084
478,3803.7900000000004,0.030830198181631883
479,3806.54,0.03452828557356502
480,3809.2799999999997,0.037402402974982034
481,3812.03,0.035375860366915174
482,3814.77,0.03497200776833219
483,3817.52,0.03372664516026532
484,3820.27,0.03396102255219846
485,3823.01,0.032953619953615475
486,3825.76,0.03176554734554861
487,3828.5000000000005,0.02975254474696562
488,3831.25,0.02728290213889876
489,3834.0,0.027757949530831896
490,3836.7400000000002,0.027836816932248907
491,3839.49,0.028221614324182045
492,3842.23,0.02939681172559906
493,3844.98,0.0320320091175322
494,3847.7299999999996,0.03576399650946533
495,3850.47,0.03557980391088234
496,3853.22,0.03607917130281548
497,3855.9700000000003,0.037597518694748616
498,3858.71,0.03627116609616563
499,3861.46,0.03845751348809877
500,3864.2,0.04118505088951578
501,3866.9500000000003,0.040168398281448914
502,3869.7,0.03843072567338206
503,3872.4399999999996,0.038511543074799065
504,3875.19,0.0359468604667322
505,3877.93,0.03376054786814922
506,3880.6800000000003,0.033399965260082355
507,3883.43,0.03175112265201548
508,3886.17,0.033367520053432506
509,3888.92,0.03236425744536564
510,3891.6600000000003,0.030865504846782656
511,3894.41,0.03339040223871579
512,3897.16,0.033866389630648926
513,3899.9,0.03450824703206594
514,3902.6499999999996,0.035548144423999076
515,3905.3900000000003,0.03695637182541609
516,3908.14,0.03758419921734922
517,3910.8900000000003,0.03793029660928236
518,3913.63,0.03749302401069938
519,3916.3799999999997,0.03750823140263251
520,3919.12,0.035919728804049526
521,3921.87,0.03544789619598266
522,3924.62,0.0335808335879158
523,3927.3599999999997,0.030117690989332813
524,3930.11,0.02893250838126595
525,3932.85,0.028457005782682964
526,3935.6000000000004,0.030609473174616098
527,3938.35,0.03226582056654923
528,3941.0899999999997,0.03473119796796625
529,3943.84,0.034667145359899385
530,3946.58,0.0359937227613164
531,3949.33,0.035748220153249535
532,3952.08,0.036814847545182675
533,3954.82,0.03521107494659968
534,3957.57,0.03263064233853282
535,3960.32,0.029218919730465955
536,3963.06,0.02658373713188297
537,3965.81,0.026078014523816105
538,3968.55,0.02714385192523312
539,3971.2999999999997,0.027342909317166257
540,3974.05,0.02909237670909939
541,3976.79,0.03137343411051641
542,3979.54,0.03428271150244954
543,3982.28,0.03724564890386656
544,3985.0299999999997,0.0372011662957997
545,3987.78,0.03830169368773283
546,3990.52,0.03937616108914984
547,3993.27,0.038506098481082975
548,3996.0099999999998,0.039377155882499994
549,3998.76,0.04013485327443313
550,4001.5099999999998,0.04009323066636626
551,4004.2499999999995,0.03925439806778328
552,4007.0,0.04037928545971641
553,4009.74,0.04218240286113343
554,4012.4900000000002,0.04225633025306656
555,4015.24,0.0415739176449997
556,4017.98,0.04213891504641672
557,4020.73,0.04108835243834985
558,4023.4700000000003,0.040042759839766864
559,4026.22,0.0412488172317
560,4028.9700000000003,0.03955174462363314
561,4031.71,0.03976816202505015
562,4034.4600000000005,0.041344269416983284
