,lambda (Angstroms),Total Flux (erg/s/cm^2/Angstrom)
0,101.98,0.0010580525622554205
1,104.11,0.001260519455855675
2,104.712855,0.0013185415257264766
3,106.05,0.0012199958903082926
4,108.02000000000001,0.0010772020754842835
5,110.03,0.0009416581532526824
6,113.9,0.0006676770665679556
7,117.9,0.0003853715358085486
8,120.22644299999999,0.00046134325810693385
9,120.92,0.0005351232452380629
10,124.88000000000001,0.0006114216106190829
11,126.91,0.0006376670032260199
12,128.09,0.0006619243772536976
13,131.07,0.0006976491082727479
14,131.98,0.0008084122187517198
15,134.12,0.0008351070631747961
16,136.93,0.0010184462504779944
17,138.038426,0.001037452630084367
18,140.12,0.0010803281772553287
19,143.06,0.0029390787839902615
20,147.06,0.006958309487030986
21,150.84,0.0072843039814044705
22,155.06,0.007714802893112435
23,158.489319,0.008123141926882842
24,159.04000000000002,0.008188675803088692
25,162.0,0.00851386528468767
26,166.15,0.009100483794361909
27,170.02,0.00952834665037138
28,173.18,0.009906926313159476
29,176.80999999999997,0.010324352751742002
30,180.10000000000002,0.010636724182303027
31,181.970086,0.010859530799594595
32,182.18,0.010884594320838803
33,185.99999999999997,0.011318382915876035
34,191.20999999999998,0.01185183832952629
35,193.87,0.01229609447162028
36,197.93,0.01266874805692163
37,202.07,0.01317495663897769
38,204.88,0.013513552149986752
39,208.929613,0.013441604952084702
40,210.14000000000001,0.013420484190574096
41,216.03,0.014647748288318916
42,220.04,0.0151641392954423
43,223.1,0.015306319964219743
44,227.25,0.01588068407383621
45,229.88000000000002,0.02375089164209918
46,234.16,0.03904062506117351
47,239.88329199999998,0.04804146116584676
48,240.16,0.048476439467155866
49,245.76000000000002,0.04492709971849259
50,252.06,0.0473689312512464
51,256.75,0.03894779583674091
52,259.71999999999997,0.04523583784503914
53,263.94,0.047363899284439306
54,268.84999999999997,0.04670920512980775
55,273.85,0.04596417285421554
56,275.42287,0.045736029328729076
57,278.94,0.04522814468009202
58,284.12,0.044818822672995785
59,290.07,0.04221628752970958
60,296.15,0.04202124575304065
61,300.96000000000004,0.04069130031787986
62,307.97,0.04050920877931914
63,316.227766,0.040434934648139124
64,318.06,0.04041739578492539
65,327.72,0.039317475411791813
66,337.68,0.037802151735144784
67,347.94,0.03635201475498427
68,356.87000000000006,0.03552170275373347
69,363.078055,0.03529968794522307
70,366.02000000000004,0.035195756879022815
71,375.40999999999997,0.03400387756432855
72,385.03999999999996,0.031590644017948796
73,394.92,0.031959748146896685
74,405.05,0.031449579951172195
75,413.53000000000003,0.030384457098285356
76,416.86938299999997,0.02991022286331848
77,422.19,0.029154222700465856
78,430.04,0.028230370886354595
79,441.07,0.027590212923342215
80,451.34000000000003,0.026533178002205574
81,459.74,0.02540036911831582
82,470.44,0.024540113397170535
83,478.630092,0.024123122989106568
84,480.29,0.024038171476689543
85,490.35,0.022745962276599627
86,499.46999999999997,0.022587304095205984
87,506.42,0.021670701456972894
88,512.28,0.022637822340419524
89,519.41,0.021970242698606295
90,530.28,0.020932791982405764
91,540.14,0.01949095278629378
92,549.5408739999999,0.01870997218273756
93,550.18,0.018656941260922495
94,560.41,0.0189155517497329
95,569.52,0.01887108692598537
96,580.11,0.018105219836689397
97,589.53,0.017693569876239153
98,600.49,0.01647559472055607
99,610.25,0.014155498158560915
100,620.1700000000001,0.016174243784074036
101,630.24,0.015411712085376164
102,630.957344,0.01540918596972577
103,640.4799999999999,0.015376743814680956
104,649.39,0.014753970247126586
105,658.43,0.01409098523582563
106,664.52,0.014287396063389479
107,675.3199999999999,0.014059956890596302
108,684.71,0.013033694915362236
109,694.24,0.01324549215455492
110,705.52,0.01213892457408205
111,715.33,0.012623000242128247
112,724.43596,0.012335622443173815
113,725.28,0.012308961179759454
114,735.37,0.012057159030209708
115,745.6,0.011595802123381765
116,754.24,0.011280605674213299
117,764.73,0.009988406503868714
118,775.37,0.010725626950726064
119,784.35,0.010081323233881986
120,795.26,0.010128041791702824
121,804.47,0.009989766687901715
122,815.66,0.009785887731166168
123,825.1,0.009608323240408027
124,831.763771,0.008868693454803844
125,834.66,0.008546888341854252
126,844.3199999999999,0.00909260571479481
127,854.1,0.008824451291125933
128,865.9799999999999,0.008722813426791959
129,876.01,0.008582854593520093
130,884.11,0.008387793322383295
131,894.35,0.00823419734504492
132,904.7099999999999,0.00799107757109711
133,915.1800000000001,0.008659076816923987
134,925.78,0.015700003449757312
135,934.35,0.023750423808566894
136,945.1700000000001,0.03307683048094959
137,953.9100000000001,0.04022434696122914
138,954.992586,0.04048639232971867
139,964.96,0.04289973996442884
140,973.89,0.016741204734675944
141,985.1600000000001,0.03544013931034054
142,994.28,0.03585049162889078
143,1005.79,0.04682208310767512
144,1015.1,0.04617829297452848
145,1024.49,0.025797681809088424
146,1033.97,0.03609795948231827
147,1045.94,0.056418085025415454
148,1055.6200000000001,0.05462887011791175
149,1065.3899999999999,0.044611924049077954
150,1075.25,0.050632356818914065
151,1085.2,0.040595178427420074
152,1095.24,0.051929218874595985
153,1096.4782,0.05162968317289157
154,1105.37,0.04947840379175943
155,1115.6000000000001,0.047362030641506375
156,1125.92,0.04230959385650036
157,1133.73,0.051570088440715776
158,1144.22,0.04757859479006528
159,1154.8,0.04913720750466183
160,1165.49,0.049476155776782535
161,1176.27,0.034789480414150274
162,1184.43,0.04725046086321529
163,1195.39,0.03551778823107712
164,1203.67,0.02770080383380485
165,1214.81,0.02039687393216076
166,1226.05,0.03494925999190227
167,1234.55,0.047030776709678326
168,1245.97,0.050162035499913916
169,1254.61,0.04790397656362981
170,1258.92541,0.045968205226208946
171,1266.22,0.04269637323559145
172,1274.99,0.05180411842864459
173,1283.83,0.05337774382278253
174,1295.7099999999998,0.04299083794974618
175,1304.69,0.04259809374605372
176,1313.7299999999998,0.051330069714719664
177,1325.89,0.04890737464602253
178,1335.08,0.043589311045584486
179,1344.34,0.05050880764623124
180,1353.65,0.04879403439051
181,1366.1799999999998,0.043791760384689675
182,1375.6499999999999,0.04512206758859083
183,1385.18,0.0451226949648504
184,1394.79,0.037880022570921164
185,1404.4499999999998,0.03840761032062393
186,1414.1899999999998,0.041341328300137904
187,1423.99,0.041724486452010275
188,1433.8600000000001,0.04172444480496745
189,1440.48,0.04338943382184451
190,1445.43977,0.043689599924937025
191,1447.13,0.04379189214458455
192,1453.8100000000002,0.04230461824991291
193,1463.8899999999999,0.03911940255256409
194,1474.03,0.03903117699987389
195,1484.25,0.039482171640061896
196,1494.54,0.0396645464490183
197,1504.9,0.03744727142674312
198,1511.8500000000001,0.03352944818303535
199,1515.33,0.035516346573236345
200,1525.84,0.03454830191260776
201,1536.41,0.029954217396637815
202,1543.4999999999998,0.031147794490466865
203,1554.2,0.029815270287923964
204,1564.98,0.03086387627825925
205,1575.82,0.032691182413253174
206,1586.75,0.03391753876523505
207,1594.07,0.03431039641358888
208,1605.12,0.033453833054888034
209,1616.25,0.03329918988906537
210,1623.7099999999998,0.03165474787495602
211,1634.96,0.03345416499845064
212,1646.3,0.03368425233893321
213,1653.89,0.03151060063825091
214,1659.58691,0.032629413988855466
215,1665.36,0.03376327601968123
216,1673.0500000000002,0.03023077141686387
217,1676.9,0.03399647920348976
218,1684.64,0.03494943548101819
219,1696.3200000000002,0.03284381112979493
220,1704.15,0.03158207899194579
221,1715.96,0.02981637692962159
222,1723.88,0.029476996376394858
223,1735.83,0.031222976779038875
224,1743.8400000000001,0.030442687810434573
225,1755.93,0.0320239506780468
226,1764.04,0.029611813470134085
227,1776.27,0.02988809880271453
228,1784.46,0.030372593003355073
229,1796.8300000000002,0.03202480080090373
230,1805.13,0.031730676938305016
231,1813.46,0.02914149360391377
232,1826.03,0.029681304922845597
233,1834.46,0.028543733349145936
234,1842.93,0.02621520247972291
235,1855.7,0.026215307320037896
236,1864.27,0.026886948211306452
237,1872.8700000000001,0.028741949630782478
238,1885.8500000000001,0.026456718168549786
239,1894.5600000000002,0.025385011524786553
240,1903.3,0.0268244554092308
241,1905.46072,0.02663698879030048
242,1916.4999999999998,0.02567876291075208
243,1925.3400000000001,0.024978192282440286
244,1934.23,0.02561755051935298
245,1943.1599999999999,0.026762677848445254
246,1956.63,0.02491981213992039
247,1965.6599999999999,0.02713477719946163
248,1974.73,0.02770217135118245
249,1983.8500000000001,0.026333624368127754
250,1993.0,0.025616296704207744
251,2006.82,0.026272133052254246
252,2016.0800000000002,0.025441032891828093
253,2025.3899999999999,0.026213401596626426
254,2034.7299999999998,0.025033119620559444
255,2044.13,0.02591165628276184
256,2053.56,0.024239022264098922
257,2063.04,0.02446304711066049
258,2072.56,0.026392411049401637
259,2077.34,0.027132332564862003
260,2086.93,0.02920486491491743
261,2096.56,0.027446056357152436
262,2106.2400000000002,0.02750915666461192
263,2115.96,0.028408466064250997
264,2125.73,0.02795463432911455
265,2135.54,0.02639094168615769
266,2145.4,0.02808336790842531
267,2155.3,0.028605093222872514
268,2165.25,0.027130087402544197
269,2175.24,0.026881750674395466
270,2185.28,0.028277692811471217
271,2187.7616199999998,0.028406633999630594
272,2195.37,0.02880226416317542
273,2205.5,0.02821225746512676
274,2215.68,0.02549599167182614
275,2225.9100000000003,0.026149906783273547
276,2236.1800000000003,0.029745732618519382
277,2246.5099999999998,0.028539459539462853
278,2256.88,0.025554867184204754
279,2267.29,0.025146545552745078
280,2272.52,0.026150680189389257
281,2283.01,0.029609660005526433
282,2293.55,0.026452510726411638
283,2304.13,0.028535802171095276
284,2314.77,0.026019494701476544
285,2325.45,0.021294817955656246
286,2336.19,0.022916692295533583
287,2346.97,0.020515687359209347
288,2352.38,0.02517553525294644
289,2363.2400000000002,0.020889761764219056
290,2374.15,0.022480729180239703
291,2385.11,0.019264297501008384
292,2396.12,0.020971316726525094
293,2407.18,0.02053681685678984
294,2412.72,0.02135342710287182
295,2423.86,0.026381428680733413
296,2435.05,0.026074971163343043
297,2446.29,0.029110764550700705
298,2457.58,0.029919478842806397
299,2463.25,0.027035801441233256
300,2474.62,0.025167677180935804
301,2486.04,0.02069206382538638
302,2497.51,0.02121743137458499
303,2503.2700000000004,0.02732549560155831
304,2511.88643,0.021476824794447427
305,2514.83,0.01947871090103359
306,2520.62,0.018815590352354028
307,2526.4300000000003,0.018726659663609944
308,2532.26,0.022611808834801333
309,2543.94,0.022815077037119588
310,2555.69,0.03396176474921202
311,2567.4799999999996,0.02766496218117539
312,2573.4,0.03317612072207642
313,2585.2799999999997,0.030601457523749445
314,2597.2099999999996,0.028683323975261157
315,2603.2,0.026278422025936356
316,2615.22,0.024802507847157713
317,2627.29,0.02967126331821776
318,2633.35,0.04520406087866713
319,2645.5,0.05675896578946908
320,2657.7099999999996,0.07977953028007746
321,2663.84,0.050801507350301
322,2676.13,0.05659174128065129
323,2682.3,0.06586561807074577
324,2694.68,0.04837143137080571
325,2707.12,0.05949012425067207
326,2713.36,0.04440308055054073
327,2725.8900000000003,0.034700402800116735
328,2732.17,0.04337413881985634
329,2744.78,0.029052080509174256
330,2757.4500000000003,0.036225731778298596
331,2763.81,0.045281767237780116
332,2776.56,0.047511737946646364
333,2782.96,0.03227008312599883
334,2795.8100000000004,0.01971521313454246
335,2802.2599999999998,0.02221782796373362
336,2815.19,0.042603097412019154
337,2828.1800000000003,0.05784486644011112
338,2834.7,0.053359830779076446
339,2847.79,0.037943039106845794
340,2854.35,0.025536853165682077
341,2867.5299999999997,0.05139299086316106
342,2874.14,0.07358531457183604
343,2884.0315,0.06920870006430757
344,2887.4100000000003,0.0677138648152089
345,2894.06,0.0864144538621136
346,2907.42,0.11897091194732363
347,2927.5699999999997,0.10262420905937322
348,2947.8700000000003,0.0929088661499244
349,2968.2999999999997,0.09612993322184363
350,2988.8799999999997,0.09742205027226448
351,3009.5899999999997,0.0953800773040534
352,3030.46,0.1047724943129107
353,3051.4599999999996,0.10865489130313606
354,3072.61,0.12326358827186303
355,3086.79,0.11876868623954853
356,3108.19,0.14437138317244486
357,3129.74,0.1307002800838428
358,3151.4300000000003,0.13306497697517555
359,3173.28,0.1481988738435767
360,3187.92,0.12551877174533382
361,3210.02,0.1385123685779043
362,3232.27,0.11542086538897642
363,3247.1899999999996,0.1694794632506032
364,3269.7,0.2008603600244114
365,3292.3599999999997,0.19754895677672127
366,3307.56,0.18093555459821772
367,3311.31121,0.17872580394977908
368,3322.83,0.17194032250167962
369,3330.49,0.18590900151499512
370,3338.16,0.15893888050091287
371,3345.86,0.18799575940463734
372,3353.57,0.17301263828096403
373,3361.2999999999997,0.16293261710249524
374,3369.05,0.1674649958692309
375,3376.8199999999997,0.145498274581171
376,3384.6,0.1551577532657134
377,3392.3999999999996,0.18823093189546028
378,3400.23,0.20540501044301385
379,3408.06,0.1838828889905674
380,3415.92,0.1739666674559277
381,3423.8,0.21349104586649248
382,3431.69,0.2043158242496595
383,3439.6,0.19508730257803097
384,3447.5299999999997,0.13619598085160695
385,3455.48,0.18241925907038742
386,3463.44,0.14655743726177012
387,3471.42,0.19227241539835727
388,3479.43,0.14120499345275114
389,3487.4500000000003,0.16895167147974727
390,3495.49,0.15620094945194787
391,3503.55,0.21018402736935296
392,3511.62,0.2020781052593603
393,3519.7200000000003,0.19698748306717434
394,3527.83,0.13847626084759063
395,3535.96,0.19332353857321138
396,3544.1099999999997,0.21340251624403664
397,3552.29,0.2193383938326686
398,3560.47,0.20046687142130054
399,3568.6800000000003,0.15134634892773924
400,3576.91,0.16591312637938238
401,3585.1499999999996,0.11663130380362777
402,3593.42,0.1712851811456799
403,3601.7,0.23261025846033426
404,3610.01,0.17440453569279532
405,3618.3300000000004,0.21402771289785863
406,3626.67,0.22201479004812644
407,3630.14,0.23260488054110356
408,3632.89,0.21790507300671944
409,3635.64,0.1949142654723353
410,3638.38,0.20843355796534893
411,3641.13,0.20280025043096483
412,3643.88,0.2152542428965807
413,3646.62,0.21351923538959433
414,3649.37,0.19129872785521024
415,3652.12,0.2053110203208261
416,3654.87,0.235061612786442
417,3657.61,0.2624545052794556
418,3660.3599999999997,0.2680540977450715
419,3663.11,0.27302009021068735
420,3665.85,0.278241082703701
421,3668.6000000000004,0.2802169751693169
422,3671.35,0.2452177676349328
423,3674.0899999999997,0.2722103601279464
424,3676.84,0.2372135525935623
425,3679.5899999999997,0.24776444505917816
426,3682.33,0.23429493755219183
427,3685.08,0.21304743001780768
428,3687.8300000000004,0.23325772248342358
429,3690.57,0.2381238149764372
430,3693.3199999999997,0.2570063074420531
431,3696.07,0.257664699907669
432,3698.8199999999997,0.2653673923732848
433,3701.56,0.2631638848662985
434,3704.31,0.24038077733191437
435,3707.06,0.23071336979753027
436,3709.7999999999997,0.2321028622905439
437,3712.55,0.24066965475615978
438,3715.3,0.23048544722177566
439,3718.0400000000004,0.2458673397147893
440,3720.79,0.22564093218040518
441,3723.54,0.22246802464602106
442,3726.28,0.2261304171390347
443,3729.0299999999997,0.21794790960465057
444,3731.78,0.20335460207026643
445,3734.5299999999997,0.18837369453588232
446,3737.27,0.18672468702889594
447,3740.02,0.18296147949451183
448,3742.7700000000004,0.2015678719601277
449,3745.51,0.17912296445314135
450,3748.2599999999998,0.17908205691875723
451,3751.01,0.2041981493843731
452,3753.75,0.19940974187738675
453,3756.5,0.21903483434300264
454,3759.25,0.21931562680861852
455,3761.9900000000002,0.22054801930163215
456,3764.74,0.22531141176724803
457,3767.49,0.22615230423286392
458,3770.23,0.23806269672587754
459,3772.98,0.23883518919149344
460,3775.73,0.2598689816571093
461,3778.48,0.2691174741227252
462,3781.2200000000003,0.2653934666157388
463,3783.97,0.2677749590813547
464,3786.7200000000003,0.27142335154697056
465,3789.46,0.24497504403998424
466,3792.2099999999996,0.2292565365056001
467,3794.96,0.22007322897121598
468,3797.7,0.21586512146422962
469,3800.4500000000003,0.2224885139298455
470,3801.8939600000003,0.2247102655911735
471,3803.2,0.22671980714103387
472,3805.94,0.22601360119821748
473,3808.69,0.237058695233712
474,3811.44,0.22348398926920657
475,3814.18,0.22120678332639018
476,3816.93,0.21956187736188476
477,3819.68,0.19851457139737927
478,3822.43,0.1830065654328738
479,3825.17,0.17970045949005745
480,3827.92,0.166825153525552
481,3830.67,0.1535090475610465
482,3833.41,0.14742814161823015
483,3836.1600000000003,0.1495589356537247
484,3838.91,0.1598110296892192
485,3841.6499999999996,0.17303622374640287
486,3844.4,0.1919265177818974
487,3847.1499999999996,0.19938861181739193
488,3849.8900000000003,0.19710880587457558
489,3852.64,0.1928159999100701
490,3855.3900000000003,0.19155379394556463
491,3858.13,0.18967168800274828
492,3860.8799999999997,0.1854954820382428
493,3863.63,0.19701447607373732
494,3866.3799999999997,0.21282077010923187
495,3869.12,0.2027465641664155
496,3871.87,0.20347855820191002
497,3874.62,0.20102535223740456
498,3877.36,0.2048447462945882
499,3880.11,0.20242444033008272
500,3882.86,0.20918973436557725
501,3885.6000000000004,0.21255812842276092
502,3888.35,0.21659692245825543
503,3891.1,0.23630551649374998
504,3893.84,0.2572089105509336
505,3896.5899999999997,0.26113610458642816
506,3899.34,0.27484429862192267
507,3902.0899999999997,0.28039319265741725
508,3904.8300000000004,0.27512348671460085
509,3907.58,0.28122988075009536
510,3910.3300000000004,0.2925560747855899
511,3913.07,0.3025662688427736
512,3915.8199999999997,0.2973711628782681
513,3918.57,0.27456525691376266
514,3921.31,0.2620231509709463
515,3924.06,0.23651094500644082
516,3926.81,0.21266373904193533
517,3929.55,0.18232803309911896
518,3932.3,0.1517202271346135
519,3935.0499999999997,0.14373302117010803
520,3937.79,0.16313851522729167
521,3940.54,0.18534060926278623
522,3943.29,0.20702580329828074
523,3946.04,0.22546239733377527
524,3948.78,0.2628844913909589
525,3951.5299999999997,0.2803682854264534
526,3954.28,0.286626679461948
527,3957.02,0.2891869735191316
528,3959.7700000000004,0.2606542675546262
529,3962.52,0.22743896159012067
530,3965.2599999999998,0.19672585564730433
531,3968.01,0.17719634968279885
532,3970.7599999999998,0.17884314371829338
533,3973.5,0.20404133777547703
534,3976.25,0.24312963181097155
535,3978.9999999999995,0.2886793258464661
536,3981.74,0.3241557199036497
537,3984.49,0.34237421393914425
538,3987.2400000000002,0.3567664079746388
539,3989.99,0.3702971020101333
540,3992.73,0.380814296067317
541,3995.48,0.3858308901028115
542,3998.23,0.391075484138306
543,4000.97,0.39573927819548965
544,4003.7200000000003,0.40078127223098425
545,4006.47,0.4107389662664787
546,4009.2100000000005,0.40154216032366236
547,4011.96,0.4050130543591569
548,4014.71,0.41542684839465144
549,4017.4500000000003,0.4271098424518351
550,4020.2,0.43719423648732963
551,4022.9500000000003,0.43189763052282415
552,4025.69,0.4275660245800078
553,4028.4399999999996,0.41748031861550233
554,4031.19,0.39715741265099685
555,4033.9399999999996,0.3935333066864914
556,4036.6800000000003,0.40934650074367507
557,4039.43,0.4136788947791695
558,4042.1800000000003,0.4175804888146641
559,4044.92,0.39302798287184776
560,4047.67,0.41552867690734224
561,4050.42,0.4088638709428368
562,4053.1600000000003,0.39533386500002043
563,4055.91,0.41035965903551497
564,4058.66,0.4008567530710095
565,4061.4,0.38694664712819316
566,4064.15,0.39368634116368767
567,4066.9,0.39680253519918224
568,4069.65,0.3920634292346767
569,4072.3900000000003,0.39074712329186034
570,4075.14,0.3946994173273549
571,4077.8900000000003,0.4024780113628495
572,4080.63,0.41342600542003305
