,lambda (Angstroms),Total Flux (erg/s/cm^2/Angstrom)
0,100.02000000000001,0.004970223572667818
1,102.12,0.0061093716804291555
2,104.01,0.007134604977828847
3,104.712855,0.007515869713241731
4,105.95,0.0069559245483335995
5,107.92,0.006064281310534405
6,109.92,0.005159059755273287
7,114.05,0.00328977724134687
8,118.06,0.001474808030097105
9,120.22644299999999,0.0004942526549555039
10,121.09,0.0004761672018285804
11,125.05000000000001,0.0003932329690212639
12,127.08000000000001,0.00035071871804896737
13,127.96,0.000332288906598553
14,130.95000000000002,0.00026966943007664
15,131.85,0.00025082080390965034
16,134.0,0.00020579345162880173
17,137.12,0.00014045153287774937
18,138.038426,0.00012121702476403437
19,139.98999999999998,0.00011977374424171229
20,142.92,0.00011760742289469191
21,146.92000000000002,0.00011465019408864358
22,151.04,0.00011160411931685387
23,154.91,0.00010874336915619215
24,158.489319,0.00010609789178103396
25,158.89000000000001,0.00010564275463729902
26,161.84,0.00010229221236792311
27,165.98999999999998,9.757920338491973e-05
28,169.86,9.318515639939602e-05
29,173.02,8.959758685641029e-05
30,177.04999999999998,8.502340020946965e-05
31,179.92000000000002,8.176691009780219e-05
32,181.970086,7.94408361919658e-05
33,182.01,7.945550692091778e-05
34,185.82000000000002,8.085756885917194e-05
35,191.02999999999997,8.277606272318873e-05
36,194.13,8.391924974166324e-05
37,198.19,8.541820972237502e-05
38,201.88000000000002,8.67841012578495e-05
39,205.16,8.799774627049349e-05
40,208.929613,8.939532320635969e-05
41,209.94,9.164438894704209e-05
42,215.82,0.00010474442849986084
43,219.82999999999998,0.00011367997009625588
44,222.89,0.00012050021084313099
45,227.03,0.00012973161392419727
46,230.19000000000003,0.00013713752141312712
47,233.93,0.00014579701272597435
48,239.88329199999998,0.00015933764195011515
49,239.93,0.0001592546917129919
50,246.09,0.0001481371473116704
51,251.82,0.00013789351617050615
52,257.09,0.00012820911923788208
53,260.07,0.00012305093136516482
54,264.3,0.00011552245264315344
55,269.21,0.00010673939709112614
56,274.21000000000004,9.780400469394951e-05
57,275.42287,9.563532958310029e-05
58,279.31,0.00010338894947929545
59,283.85,0.00011248510342337542
60,289.79,0.00012427479233259012
61,295.86,0.0001364746779957102
62,300.67,0.00014602058789020897
63,307.67,0.00016010863771588287
64,316.227766,0.00017737199081726613
65,317.75,0.0001752916012611618
66,328.15999999999997,0.0001609806625413692
67,338.14,0.00014732858685995414
68,347.61,0.0001344491720380102
69,357.35,0.00012122371481987563
70,363.078055,0.00011362134700960859
71,365.67,0.00011678373390069183
72,375.04999999999995,0.0001280508619340605
73,384.67,0.00013973209922414664
74,395.45,0.00015332303675503312
75,404.66,0.00016516189260656043
76,414.09000000000003,0.00017742120069341198
77,416.86938299999997,0.00018109528920978984
78,421.78000000000003,0.00018539332953443585
79,429.63,0.00019260771937190354
80,440.65,0.0002035977735768582
81,450.90999999999997,0.000214248877491816
82,460.35,0.00022431590425177719
83,469.99,0.00023657134056173754
84,478.630092,0.0002485364155506267
85,479.83,0.00024834020944233706
86,489.88,0.0002474829516243485
87,500.14000000000004,0.00024961522943404366
88,505.93,0.0004176716931687547
89,511.79,0.0010738399587793604
90,520.1,0.0011001679400462771
91,529.77,0.0011467579949020039
92,539.62,0.001115668237438602
93,549.5408739999999,0.0014037209584936608
94,549.66,0.0014072503660206798
95,559.87,0.0016844123284035402
96,570.28,0.0018897241108134888
97,579.55,0.0018709948190690337
98,590.32,0.002199715677527741
99,599.92,0.0022695290388279822
100,609.66,0.002634978374147185
101,619.5699999999999,0.0030503781064894126
102,629.6400000000001,0.003293127094853311
103,630.957344,0.0033159558093123387
104,639.87,0.0034763891899730393
105,650.27,0.0038634501002239694
106,657.8000000000001,0.004078594981396037
107,665.4100000000001,0.004403091692646958
108,674.67,0.004690814274274228
109,685.63,0.004747697995077131
110,695.17,0.0056953974819803875
111,704.84,0.005623056067761781
112,716.29,0.0067195186227976605
113,724.43596,0.007027222006693455
114,726.26,0.007095819831816368
115,734.6700000000001,0.007525789866713859
116,744.89,0.008238904774758134
117,755.25,0.00877909738017288
118,765.7600000000001,0.009354760875627416
119,774.62,0.010105150580644274
120,785.4,0.010966229278170429
121,794.49,0.011581862414581628
122,805.5500000000001,0.012204377506848722
123,814.87,0.012831781074654266
124,824.3100000000001,0.013895660954491641
125,831.763771,0.01330233882795608
126,835.78,0.012979845513843317
127,845.4599999999999,0.01517950835650226
128,855.25,0.015990758617827783
129,865.15,0.017078526297819883
130,875.17,0.018200346616357343
131,885.3,0.01944101435356138
132,895.55,0.02053205472931078
133,905.9200000000001,0.021243367743605537
134,914.3,0.030567392002023096
135,924.89,0.17643157985365102
136,935.6,0.3710160603438243
137,944.26,0.7367223207588477
138,954.992586,0.9824291910855374
139,955.19,0.9869487755372194
140,964.03,1.2254045076397488
141,975.1899999999999,0.36760516445696934
142,984.2199999999999,1.3282329822042367
143,995.61,1.3070021216440342
144,1004.83,1.5390854250360388
145,1014.12,1.4199547231392629
146,1025.87,0.6128036353796159
147,1035.3600000000001,1.2085931183720373
148,1044.94,1.8166133945645975
149,1054.61,1.8041146639572967
150,1064.3700000000001,1.6153549265501346
151,1074.21,1.7958451830986517
152,1084.1499999999999,1.6079334320917673
153,1094.18,1.858925674285022
154,1096.4782,1.841802435987363
155,1104.31,1.7834486486580594
156,1114.53,1.7875682319307642
157,1124.84,1.6567877939211344
158,1135.25,1.8588943322644667
159,1145.75,1.7589828493254647
160,1153.69,1.8249979717506384
161,1164.37,1.8631964462469677
162,1175.1399999999999,1.4902488994609628
163,1186.02,1.837611326663216
164,1194.24,1.6078773828766828
165,1205.29,1.313001769878971
166,1213.64,0.6780838953512887
167,1224.87,1.4264821397889083
168,1236.21,1.8040644582147862
169,1244.77,1.8847684340283235
170,1256.29,1.8674637098895328
171,1258.92541,1.8457722403004728
172,1265.0,1.7957751888676303
173,1273.77,1.9375443363788876
174,1285.56,1.9554615346864956
175,1294.47,1.7711316845525509
176,1306.44,1.795800885887756
177,1315.5,1.9554610382768085
178,1324.62,1.8934501916750601
179,1333.8,1.8123793460825108
180,1346.14,1.91535255364111
181,1355.47,1.9109617105715582
182,1364.87,1.8375888686794053
183,1374.33,1.8460830277964513
184,1383.8600000000001,1.8631601880908961
185,1393.45,1.66822034939454
186,1406.3400000000001,1.7189095662041303
187,1416.0900000000001,1.8123927301989715
188,1425.9099999999999,1.7957798953712116
189,1435.7900000000002,1.820748061552651
190,1442.42,1.850330173069143
191,1445.43977,1.842616166822469
192,1445.74,1.8418492280999241
193,1455.7600000000002,1.8207553695506578
194,1465.85,1.7670795119895706
195,1476.0200000000002,1.7670426555578302
196,1486.25,1.7629917999731004
197,1496.5500000000002,1.7589379453765492
198,1503.46,1.7031490429239116
199,1510.4,1.611599140894779
200,1517.3700000000001,1.6529382392891518
201,1524.37,1.6605703381070298
202,1534.9399999999998,1.5390544873220253
203,1545.58,1.5604796375252
204,1556.29,1.5179407887165528
205,1563.47,1.567683890075462
206,1574.31,1.6265030431020044
207,1585.22,1.6377911971167254
208,1596.21,1.6567623522607937
209,1603.58,1.6190384563019022
210,1614.7,1.6115896132811598
211,1625.89,1.5968217712485961
212,1633.39,1.637776877124894
213,1644.72,1.6264840370686877
214,1656.1200000000001,1.6004841980006603
215,1659.58691,1.624283858038022
216,1663.76,1.6529316771573266
217,1671.4399999999998,1.593134468908781
218,1675.2900000000002,1.6605818658154345
219,1686.91,1.66055906375188
220,1694.69,1.619050865812598
221,1706.4399999999998,1.585828077151086
222,1714.32,1.542591889521068
223,1726.2,1.5355331142615989
224,1734.1699999999998,1.578532935909918
225,1746.19,1.549751175083418
226,1754.25,1.5821820060100746
227,1766.4099999999999,1.5214532596165442
228,1774.56,1.528470099821538
229,1786.8600000000001,1.5426093678609765
230,1795.1100000000001,1.5676922183752342
231,1803.39,1.5677030719822709
232,1815.89,1.504056360640237
233,1824.28,1.5249852255874639
234,1836.9199999999998,1.500594528678399
235,1845.4,1.4231864029039634
236,1853.92,1.413393281253233
237,1866.7700000000002,1.4363676059936221
238,1875.39,1.4834324946521555
239,1884.04,1.394010386403468
240,1897.1,1.3405217327933112
241,1905.46072,1.410090275178606
242,1905.8600000000001,1.413412541662642
243,1914.66,1.3654073722521451
244,1923.49,1.3374131988550213
245,1936.83,1.381226426135018
246,1945.77,1.4101482381202632
247,1954.75,1.3312620447900059
248,1968.3,1.3972222441636157
249,1977.3799999999999,1.4330640375446029
250,1981.94,1.3748714315773454
251,1995.68,1.3497786057023196
252,2004.89,1.3748673818079244
253,2014.15,1.3685481512691513
254,2023.44,1.3972329167437518
255,2032.78,1.3435836755739743
256,2046.8700000000001,1.3497698031883036
257,2056.32,1.300949547400895
258,2065.81,1.322109286297984
259,2075.35,1.3780360185506952
260,2080.13,1.3190463833481754
261,2084.9300000000003,1.343572745487904
262,2094.55,1.3009394671096108
263,2104.22,1.32512818208694
264,2113.93,1.3251268917487666
265,2123.69,1.3404855947662155
266,2133.4900000000002,1.3129892924681619
267,2143.34,1.2949589835257307
268,2153.23,1.3160016692677972
269,2163.17,1.3009303483654857
270,2173.1600000000003,1.2919730208187965
271,2183.19,1.2830996879566052
272,2187.7616199999998,1.2898421064491663
273,2193.2599999999998,1.2979526629999554
274,2203.39,1.2801407362760353
275,2213.56,1.262573813790125
276,2223.77,1.242399895542225
277,2234.04,1.2567869836513406
278,2244.35,1.248121075998466
279,2254.71,1.2253531736431043
280,2265.12,1.2310062765852552
281,2275.57,1.2337963837654162
282,2286.08,1.2361714973025928
283,2296.63,1.1992876150777794
284,2307.23,1.207163738150479
285,2312.5499999999997,1.1903843018058338
286,2323.22,1.065444432295051
287,2333.95,1.1597605691412833
288,2344.7200000000003,1.143395710225526
289,2355.54,1.1588868566072814
290,2366.41,1.1347030082865495
291,2377.34,1.136867166322833
292,2382.82,1.1107767469302285
293,2393.82,1.1257919123830296
294,2404.87,1.1099380831333436
295,2415.9700000000003,1.1069582591811704
296,2427.12,1.11677044052651
297,2432.71,1.0936630327884334
298,2443.94,1.105887222609793
299,2455.22,1.100362417728666
300,2466.56,1.0873516192045536
301,2472.24,1.077157221002
302,2483.65,1.0817084298944055
303,2495.12,1.0349826451438267
304,2506.63,1.0758878646312577
305,2511.88643,1.0446535868143298
306,2512.41,1.0415424000820854
307,2518.2,1.05825216266002
308,2524.0099999999998,1.0411249244178442
309,2535.6600000000003,1.033515446703326
310,2547.36,1.0236389669385313
311,2553.23,1.040053726236023
312,2565.02,1.0300952427807295
313,2576.86,1.0391897572751594
314,2582.8,1.0342015137022635
315,2594.72,1.0266470249162503
316,2606.7000000000003,1.0144605336699046
317,2612.7099999999996,1.0072702872266213
318,2624.77,1.0091797926998325
319,2636.8799999999997,1.006417296122767
320,2642.9599999999996,1.024909046809096
321,2655.16,1.022113546541532
322,2667.4199999999996,1.0007360438136357
323,2673.56,1.0051217920396323
324,2685.9100000000003,1.0046972856212377
325,2692.1,0.9861322317969573
326,2704.5200000000004,0.9879726225081751
327,2717.01,0.9739971103490052
328,2723.27,0.964855153654337
329,2735.84,0.9733401382147241
330,2742.15,0.9400982794697791
331,2754.8,0.939686060749723
332,2767.52,0.9435958391592794
333,2773.9,0.9543072775439467
334,2786.7,0.9429604526730601
335,2793.1299999999997,0.8941123890074506
336,2806.02,0.9103306604460654
337,2812.4900000000002,0.9377718951402344
338,2825.47,0.9308753628883508
339,2831.98,0.9136836959422981
340,2845.06,0.9132618595898608
341,2858.19,0.9065598211871465
342,2864.78,0.9147261509606509
343,2878.0,0.9080051088674382
344,2884.0315,0.9059159429452506
345,2884.63,0.9057086610402819
346,2897.9500000000003,0.9011275498623034
347,2911.33,0.9048440386339736
348,2931.5099999999998,0.8897530216991684
349,2951.83,0.8769110046468768
350,2972.2900000000004,0.8742493874770989
351,2992.8900000000003,0.8656127701898348
352,3006.71,0.8592302585922625
353,3027.55,0.8526713411035934
354,3048.5299999999997,0.8442391234974381
355,3069.6600000000003,0.8339415057654046
356,3090.9399999999996,0.825673087907493
357,3112.37,0.8174770699237033
358,3126.7299999999996,0.8077212578729696
359,3148.41,0.801529639679383
360,3170.23,0.7935567213683101
361,3192.2099999999996,0.7766748029229672
362,3206.9399999999996,0.7762648905617341
363,3229.17,0.7650122719065944
364,3251.55,0.7644033531255764
365,3266.56,0.7622260405293709
366,3289.2,0.7546203215301641
367,3311.31121,0.747314487649536
368,3312.0,0.7470868919251189
369,3319.64,0.757283569363981
370,3327.29,0.7605623466424227
371,3334.96,0.7586023236000239
372,3342.6499999999996,0.7159701002367842
373,3350.3500000000004,0.7581882767131243
374,3358.08,0.7090210527082033
375,3365.8199999999997,0.723648528542862
376,3373.58,0.71352290405668
377,3381.3500000000004,0.7051582794100777
378,3389.15,0.7348038542822143
379,3396.96,0.7362963289939307
380,3404.79,0.7143806033848064
381,3412.6400000000003,0.7108830774548414
382,3420.5099999999998,0.7289057512040357
383,3428.39,0.7270267247928096
384,3436.2999999999997,0.7335530979003225
385,3444.2200000000003,0.7068187708474152
386,3452.1600000000003,0.7381999434736671
387,3460.12,0.7031736157790784
388,3468.0899999999997,0.7029570879240693
389,3476.09,0.7011425595877993
390,3484.1,0.6897232310911089
391,3492.13,0.7121279022735778
392,3500.18,0.703761873135206
393,3508.25,0.6843889436759936
394,3516.34,0.6794717138959404
395,3524.4500000000003,0.6934861837950467
396,3532.5699999999997,0.6981118535337325
397,3540.71,0.7043479229515778
398,3548.8799999999997,0.7155736918881618
399,3557.0600000000004,0.7153765606643256
400,3565.26,0.7135202291196489
401,3573.48,0.6890836972541313
402,3581.71,0.6685642652281936
403,3589.9700000000003,0.6546696327209947
404,3598.25,0.6727925998929551
405,3606.54,0.6772461669044952
406,3614.85,0.6849039335951946
407,3623.19,0.6910132998046331
408,3631.54,0.7216872658536513
409,3633.6099999999997,0.6824075326466413
410,3636.33,0.6612984890123096
411,3639.0499999999997,0.7222515453779778
412,3641.7699999999995,0.693633401743646
413,3644.4900000000002,0.6277388581093141
414,3647.21,0.6452026144749822
415,3649.9300000000003,0.6921891708406503
416,3652.65,0.6961512272063186
417,3655.37,0.6894977835719868
418,3658.0800000000004,0.7375154400980752
419,3660.8,0.6083924964637435
420,3663.52,0.6589258528294116
421,3666.2400000000002,0.6559169091950798
422,3668.96,0.6734296655607479
423,3671.68,0.6184195219264161
424,3674.4,0.6935102782920843
425,3677.12,0.7041497346577524
426,3679.8399999999997,0.6296453910234207
427,3682.56,0.6211820473890889
428,3685.28,0.6311124037547571
429,3687.99,0.6623259602808456
430,3690.71,0.6484325166465136
431,3693.43,0.6631568730121818
432,3696.15,0.65249202937785
433,3698.8700000000003,0.7208318857435182
434,3701.59,0.6688547421091864
435,3704.31,0.6976188984748546
436,3707.03,0.6579450548405228
437,3709.75,0.652539211206191
438,3712.47,0.6532970675718591
439,3715.19,0.7696263239375272
440,3717.9,0.9978880804636158
441,3720.62,1.8794392368292838
442,3723.34,3.353744193194952
443,3726.06,4.44170814956062
444,3728.7799999999997,4.259971105926288
445,3731.5,2.8721290622919566
446,3734.22,1.6137780186576247
447,3736.94,1.011434975023293
448,3739.6600000000003,0.880135331388961
449,3742.38,0.7811957877546293
450,3745.1,0.6830390441202975
451,3747.81,0.713152200646386
452,3750.53,0.6581664570120542
453,3753.25,0.7812716133777223
454,3755.9700000000003,0.7865300697433906
455,3758.69,0.7789960261090586
456,3761.41,0.7957993824747268
457,3764.13,0.752334238840395
458,3766.85,0.7109235952060632
459,3769.5699999999997,0.7284118515717314
460,3772.29,0.7606247079373996
461,3775.0099999999998,0.7612602643030677
462,3777.72,0.7912514208291562
463,3780.44,0.8542102771948243
464,3783.16,0.8791097335604925
465,3785.8799999999997,0.8898470899261607
466,3788.6,0.8143152462918289
467,3791.32,0.7478824026574971
468,3794.04,0.7414002590231653
469,3796.76,0.7281182153888335
470,3799.48,0.7226633717545017
471,3801.8939600000003,0.7681620416032124
472,3802.2,0.7739303291431234
473,3804.92,0.8055316946005242
474,3807.63,0.8643366601849198
475,3810.35,0.9114210256423207
476,3813.07,0.8882816910997215
477,3815.79,0.8927572565571222
478,3818.5099999999998,0.8747545220145232
479,3821.23,0.9070652874719239
480,3823.95,0.8384311529293247
481,3826.6699999999996,0.8039916183867256
482,3829.39,0.7350639838441264
483,3832.11,0.6836495493015272
484,3834.8300000000004,0.694582614758928
485,3837.54,0.7074271803433236
486,3840.2599999999998,0.7798519458007246
487,3842.9799999999996,0.8547471112581253
488,3845.7000000000003,0.8613507767155261
489,3848.42,0.934264542172927
490,3851.1400000000003,0.9103425076303278
491,3853.86,0.9083851730877285
492,3856.58,0.9511401385451295
493,3859.2999999999997,0.9857500040025302
494,3862.02,1.017082169459931
495,3864.74,1.0974801349173318
496,3867.4500000000003,1.0972161005017276
497,3870.17,1.0830050659591282
498,3872.89,0.9435353314165291
499,3875.6099999999997,0.90053469687393
500,3878.33,0.8541587623313308
501,3881.0499999999997,0.8048722277887316
502,3883.7699999999995,0.8469667932461323
503,3886.4900000000002,0.8308964587035332
504,3889.21,0.842367524160934
505,3891.9300000000003,0.8129911896183348
506,3894.65,0.7940834550757356
507,3897.36,0.8110132206601313
508,3900.0800000000004,0.857901886117532
509,3902.8,0.886959551574933
510,3905.52,0.8843909170323337
511,3908.2400000000002,0.9245531824897346
512,3910.96,0.9345323479471354
513,3913.68,0.9310340134045362
514,3916.4,0.8948579788619371
515,3919.12,0.9007765443193378
516,3921.8399999999997,0.8881550097767387
517,3924.5600000000004,0.8826755752341395
518,3927.27,0.8619134408185352
519,3929.99,0.822826406275936
520,3932.71,0.8310200717333368
521,3935.43,0.8319490371907375
522,3938.15,0.8681245026481383
523,3940.8700000000003,0.8892081681055393
524,3943.59,0.93736873356294
525,3946.31,0.9014859990203409
526,3949.03,0.8886932644777417
527,3951.75,0.8961040299351425
528,3954.47,0.8876649953925433
529,3957.1800000000003,0.879597360976939
530,3959.9,0.8020843264343397
531,3962.62,0.7937919918917407
532,3965.34,0.8302608573491413
533,3968.06,0.8147286228065421
534,3970.7799999999997,0.7779898882639431
535,3973.5,0.7997829537213438
536,3976.22,0.7971165191787446
537,3978.94,0.8134796846361455
538,3981.6600000000003,0.8632054500935462
539,3984.38,0.8835554155509472
540,3987.0899999999997,0.9262414811353428
541,3989.81,0.9270972465927435
542,3992.53,0.9093635120501444
543,3995.25,0.9388369775075452
544,3997.9700000000003,0.969337642964946
545,4000.69,0.9494025084223469
546,4003.41,1.0047543738797478
547,4006.13,1.0216553393371484
548,4008.85,0.9923278047945493
549,4011.5699999999997,0.9548306702519501
550,4014.29,0.9839616357093509
551,4017.0,0.9784381012937466
552,4019.72,0.9792937667511474
553,4022.44,0.9710749322085481
554,4025.16,0.9684571976659491
555,4027.8799999999997,0.9408173631233498
556,4030.6,0.9842326285807507
557,4033.32,0.9827401940381515
558,4036.04,0.9736896594955523
559,4038.76,0.9807825249529531
560,4041.48,1.002575890410354
561,4044.2,0.9834231558677546
562,4046.9100000000003,1.0028238214521503
563,4049.63,0.9803207869095512
564,4052.35,0.978877052366952
565,4055.07,0.9821296178243528
566,4057.79,1.0047296832817538
567,4060.5099999999998,0.9957528487391545
568,4063.23,0.9477380141965553
569,4065.95,0.990346279653956
570,4068.6699999999996,0.994993145111357
571,4071.39,0.9739819105687577
572,4074.11,0.9513073760261586
573,4076.8199999999997,0.9089473416105542
574,4079.54,0.938787707067955
575,4082.2599999999998,0.8794725725253558
576,4084.9800000000005,0.8899898379827567
577,4087.7000000000003,0.8665082034401574
578,4090.42,0.8413142688975582
579,4093.1400000000003,0.8463526343549591
580,4095.86,0.8509260998123599
581,4098.58,0.9500603652697608
582,4101.3,0.9637818307271615
