,lambda (Angstroms),Total Flux (erg/s/cm^2/Angstrom)
0,102.03,0.01951922169930709
1,103.92999999999999,0.02284005175716445
2,104.712855,0.024208981416224334
3,106.1,0.02219982213433918
4,108.07000000000001,0.01935236759182522
5,110.08,0.01646537436296583
6,113.95,0.010884967949042491
7,117.96,0.0051055759129100655
8,120.22644299999999,0.002263074938735202
9,120.97999999999999,0.002363104895074336
10,124.94999999999999,0.002278904085695795
11,126.97999999999999,0.0022120821647793115
12,127.86,0.0022114776030027075
13,131.14000000000001,0.0020948135091080934
14,132.05,0.002253967303180015
15,133.88,0.0022068030099400334
16,137.0,0.0023815510181866206
17,138.038426,0.0023666244740348672
18,139.87,0.002459187605073938
19,143.13,0.0060763393483633165
20,147.14,0.014134896747317428
21,150.91,0.014941447496458826
22,155.14,0.015974435074407926
23,158.489319,0.01693960420098442
24,159.12,0.01712054270483837
25,162.08,0.01794038464858524
26,165.85,0.01931872898234393
27,170.10999999999999,0.020380214144628275
28,172.87,0.021318756362446303
29,176.9,0.022395371339912488
30,180.19,0.02321386833144195
31,181.85,0.023852837056651345
32,181.970086,0.023883891698134197
33,186.09,0.024969199519831443
34,190.85999999999999,0.026437364319258295
35,193.96,0.02755042685138057
36,198.03,0.02864213914355401
37,202.17,0.029915933686452786
38,204.99,0.03088968721567369
39,208.929613,0.030895398249995373
40,209.76000000000002,0.03090155161168313
41,216.13,0.03413234538701911
42,220.15,0.03550864050112439
43,223.21,0.036023155438726924
44,226.84,0.03755434766862797
45,230.0,0.05677957616628286
46,233.73000000000002,0.09440099195623627
47,239.73000000000002,0.11876857555937849
48,239.88329199999998,0.1185665562435776
49,245.88,0.11058562060103687
50,252.19,0.11733693027457177
51,256.88,0.09674792234570943
52,259.85,0.11307010461677103
53,264.07,0.11889919935881815
54,268.97999999999996,0.11805563826484927
55,273.97999999999996,0.11667684814879135
56,275.42287,0.11629078765053809
57,279.08,0.11535671764185305
58,284.26,0.11486332529430714
59,290.21999999999997,0.10873892792145508
60,296.28999999999996,0.10878442086554702
61,301.11,0.10561486929891163
62,308.12,0.10614846131507054
63,316.227766,0.10658731112529655
64,318.22,0.10667348475723745
65,327.89,0.10468963456293491
66,337.85,0.10134295132247438
67,348.11,0.09809559906874694
68,357.04,0.09627406044050271
69,363.078055,0.09595570077928628
70,366.2,0.09581664536482563
71,374.73,0.09324391712181353
72,385.23,0.08708465634202135
73,395.10999999999996,0.08852810128446455
74,405.25,0.08735284898855097
75,413.74,0.0850153772437476
76,416.86938299999997,0.08392228959341651
77,422.4,0.08198251861801438
78,430.25,0.07959892562878718
79,441.29,0.07818065906814153
80,450.53000000000003,0.07539268803368813
81,459.96000000000004,0.07254295597146997
82,469.59000000000003,0.07044387440634158
83,478.630092,0.06940887327406656
84,480.53,0.0691819010943494
85,489.46999999999997,0.06577150035286584
86,499.71000000000004,0.06529596071161402
87,505.5,0.06308303999649212
88,512.53,0.06570979971543739
89,519.66,0.06391254721132357
90,530.55,0.061167303120187574
91,540.41,0.05722391592656031
92,549.5408739999999,0.05521875472037027
93,550.4599999999999,0.055018662211153264
94,559.4,0.05577072017675726
95,569.8000000000001,0.05576047702712431
96,580.39,0.053505509348796165
97,589.82,0.05252813721408091
98,599.41,0.04915330810783285
99,610.55,0.042272045214860644
100,620.47,0.04835597297982615
101,630.55,0.046187693773258834
102,630.957344,0.04618731310319882
103,639.33,0.04619754645734328
104,649.71,0.04445295877033501
105,658.75,0.042578431921533974
106,664.85,0.04317204482223239
107,675.65,0.04250361717100991
108,685.05,0.03961637606716813
109,694.58,0.04026500592678385
110,704.24,0.03711125674985708
111,715.6899999999999,0.03858696391592213
112,724.43596,0.03783605943113679
113,725.64,0.03773204122199265
114,735.74,0.03697535653164435
115,744.2600000000001,0.035743258753251524
116,754.61,0.03471227018442925
117,765.1099999999999,0.030932357288522606
118,775.75,0.03318925302067054
119,784.73,0.03136978930588562
120,795.65,0.0314472522941427
121,804.86,0.031101340611161727
122,814.1800000000001,0.030481026421652204
123,825.51,0.030011128249211982
124,831.763771,0.027961209420088656
125,835.0699999999999,0.02687005619611351
126,844.7399999999999,0.0284765248891206
127,854.52,0.027701024642751346
128,864.4100000000001,0.027375135457005755
129,874.4200000000001,0.026931041973758695
130,884.5500000000001,0.026373264193010174
131,894.7900000000001,0.02588477747288531
132,905.15,0.025120326455258985
133,915.6300000000001,0.026806281140131196
134,924.1099999999999,0.048616127450027795
135,934.81,0.07367740425614733
136,945.63,0.10316946676476539
137,954.38,0.1256604284052837
138,954.992586,0.12615589845486358
139,965.4300000000001,0.13461135391987247
140,974.37,0.051771773746933224
141,985.65,0.11177214554215081
142,994.77,0.11305933167445438
143,1003.97,0.1475634983868659
144,1015.6,0.14486277522005567
145,1025.0,0.08014402338273699
146,1034.48,0.11331139212552623
147,1044.05,0.1773143690209369
148,1056.14,0.17169833418974723
149,1065.91,0.1402674625354277
150,1075.78,0.15916156660624312
151,1085.73,0.12766225125716643
152,1095.78,0.16322161163322466
153,1096.4782,0.16266796372008105
154,1105.9199999999998,0.15517606865046313
155,1116.15,0.14887759631250483
156,1123.89,0.13301971577528127
157,1134.29,0.16207161427823663
158,1144.78,0.14919624440285223
159,1155.3700000000001,0.1544244985515347
160,1166.06,0.15548407672428405
161,1174.15,0.10965323027129453
162,1185.01,0.14848867928495757
163,1195.98,0.11141244472509418
164,1204.27,0.08674012632023843
165,1215.4099999999999,0.06290511260128873
166,1223.8300000000002,0.10886318542771992
167,1235.16,0.14709377735449727
168,1243.72,0.1568570738146221
169,1255.23,0.14980122898471984
170,1258.92541,0.14276129882306438
171,1263.93,0.13323139181646315
172,1275.6200000000001,0.16197842355791442
173,1284.46,0.1669041012819888
174,1296.35,0.13476944383167702
175,1305.3400000000001,0.1332337296619291
176,1314.3799999999999,0.16049571819424044
177,1323.49,0.1529418105094347
178,1335.74,0.1363353725139495
179,1345.0,0.1575784729353215
180,1354.32,0.1522398765991646
181,1363.7099999999998,0.13665028404589064
182,1376.3300000000002,0.14111806604564386
183,1385.87,0.14079278159854763
184,1395.48,0.11877300093433435
185,1405.15,0.12097832351259215
186,1414.89,0.12901794987373288
187,1424.7,0.13021058001775657
188,1434.57,0.12991291340425135
189,1441.19,0.13509177115689527
190,1445.43977,0.1358892474618439
191,1447.85,0.1363415101384039
192,1454.53,0.13201651311789864
193,1464.6100000000001,0.12181817030851348
194,1474.76,0.12126033067406314
195,1484.99,0.12266079466810974
196,1495.28,0.12322796138352905
197,1505.64,0.1163483312738832
198,1512.5900000000001,0.10420134649955513
199,1516.08,0.11036070479273427
200,1526.59,0.10711328148652019
201,1533.64,0.0931099412478133
202,1544.27,0.09771080338434462
203,1554.97,0.09311194869581076
204,1565.75,0.09593317763577384
205,1576.6,0.10137084975067176
206,1583.88,0.10516507994389358
207,1594.86,0.10638097795509903
208,1605.91,0.1037268791412393
209,1613.3300000000002,0.10348821568433078
210,1624.5100000000002,0.09816489276677857
211,1635.77,0.10348923347772332
212,1643.3200000000002,0.10420607591712233
213,1654.71,0.09704430252437463
214,1659.58691,0.10009031346315649
215,1666.1799999999998,0.10421009753804317
216,1673.8700000000001,0.0933352346807697
217,1677.73,0.10469272322055181
218,1685.47,0.1078701869246745
219,1693.25,0.1011526638779141
220,1704.99,0.09728440249372809
221,1716.81,0.09186072760777592
222,1724.7299999999998,0.0908150209329247
223,1736.6899999999998,0.09618344241888171
224,1744.7099999999998,0.09357320886682279
225,1756.8,0.09887722341240979
226,1764.91,0.09103729967086391
227,1773.06,0.09208935917843496
228,1785.35,0.09337083996960649
229,1793.59,0.0988885692876906
230,1806.0200000000002,0.09776506645077135
231,1814.3500000000001,0.08980940557936849
232,1826.9299999999998,0.09147579242663766
233,1835.3600000000001,0.08777770467802709
234,1843.84,0.08045159349081267
235,1856.62,0.0804561465836664
236,1865.1899999999998,0.08270484520696503
237,1873.8,0.08859952707938057
238,1886.7800000000002,0.08158161641781887
239,1895.49,0.07864615141302671
240,1904.24,0.08271799965735144
241,1905.46072,0.08225387906548272
242,1913.03,0.07937028224077332
243,1926.29,0.07703456079787802
244,1935.18,0.07845747515479062
245,1944.1200000000001,0.08270113816387932
246,1953.0900000000001,0.07737700836427369
247,1966.63,0.08461072737356462
248,1975.71,0.08577965060874644
249,1984.83,0.08211711676566913
250,1993.99,0.07988406584433273
251,2003.19,0.0817334078447372
252,2017.08,0.07932528741926093
253,2026.39,0.08116341245445285
254,2035.74,0.07823435041138566
255,2045.14,0.08152766702049459
256,2054.58,0.0769793965513444
257,2064.06,0.0771525490039351
258,2073.5899999999997,0.08302650010870193
259,2078.37,0.09059139925673816
260,2083.16,0.09976176413520962
261,2092.77,0.09333185108345822
262,2107.28,0.09289697594496571
263,2117.01,0.09681407165843697
264,2126.78,0.09396164029364912
265,2136.6,0.08830871758103738
266,2146.46,0.09702338779016653
267,2156.37,0.09859160665147178
268,2166.3199999999997,0.09202228843451794
269,2176.3199999999997,0.0913860588697402
270,2186.36,0.09949020222670335
271,2187.7616199999998,0.09964924400769931
272,2196.4500000000003,0.10064178140049969
273,2206.59,0.09813342314984562
274,2216.7799999999997,0.08609430191965182
275,2227.01,0.09014467430582625
276,2237.29,0.10611788371246098
277,2242.45,0.10135854022396246
278,2252.8,0.08774136345924158
279,2263.2,0.08539364371498097
280,2273.6400000000003,0.09006442758708862
281,2284.14,0.1063055318837486
282,2294.68,0.0933014697967768
283,2305.27,0.10326662473026528
284,2315.91,0.09231632668421406
285,2326.6,0.07443411565862312
286,2337.34,0.07742941165349247
287,2342.73,0.06626107645911126
288,2353.54,0.08810774628262501
289,2364.4100000000003,0.0684852565306911
290,2375.3199999999997,0.07614122039512543
291,2386.28,0.06182944128002003
292,2397.3,0.06889658258946697
293,2402.83,0.06735080505237456
294,2413.92,0.07201475019046592
295,2425.06,0.09532040234901755
296,2436.25,0.09492869152802948
297,2447.5,0.10824864113159373
298,2453.14,0.11258276103951395
299,2464.46,0.09972998447172261
300,2475.84,0.09165251832848362
301,2487.27,0.0707620192057049
302,2493.0,0.07599266975045364
303,2504.5099999999998,0.10268174786041138
304,2510.2799999999997,0.06537131202152835
305,2511.88643,0.06424868129705748
306,2516.07,0.06132307769093242
307,2527.68,0.061771118104489715
308,2533.5099999999998,0.07949957001758524
309,2545.2000000000003,0.08137766989135653
310,2556.9500000000003,0.12913702186028833
311,2562.85,0.10172634455107112
312,2574.67,0.12484468729769017
313,2586.56,0.11341352082199649
314,2592.52,0.10491863560793976
315,2604.49,0.09444681859246007
316,2616.51,0.08820072498961413
317,2622.54,0.10971648055324466
318,2634.65,0.1761967850931395
319,2646.81,0.22803388304566807
320,2652.91,0.3213166793869858
321,2665.15,0.20155316679972843
322,2677.46,0.22776834499015827
323,2683.63,0.26516303210916325
324,2696.0099999999998,0.19359060107728035
325,2702.23,0.23980138160891917
326,2714.7,0.175900238719777
327,2727.23,0.13761848792579534
328,2733.52,0.17400845923512137
329,2746.1400000000003,0.10869249658388047
330,2752.4700000000003,0.14029786262331354
331,2765.17,0.17907188943228664
332,2777.94,0.18932000701894697
333,2784.34,0.12236776383606728
334,2797.19,0.06897091088294163
335,2803.64,0.07916332111269568
336,2816.5800000000004,0.1686188163023108
337,2823.0699999999997,0.23810546126217183
338,2836.1,0.22234474459452772
339,2842.6400000000003,0.15861278296702253
340,2855.7599999999998,0.10046115444211912
341,2862.3500000000004,0.2195001862272477
342,2875.56,0.30937024584508505
343,2882.19,0.28159957236032057
344,2884.0315,0.2918213162513813
345,2895.49,0.35542629885277066
346,2908.8599999999997,0.4873904628040593
347,2929.02,0.4209538084478872
348,2949.32,0.38510815371424173
349,2969.77,0.4026243985761604
350,2990.35,0.4085269430875681
351,3011.08,0.4050894871945399
352,3031.95,0.4414291309240384
353,3052.97,0.45938947424910104
354,3067.06,0.5133121362590979
355,3088.32,0.4985681789370632
356,3109.73,0.5956932212105926
357,3131.28,0.5449884631066488
358,3152.99,0.5517350045713068
359,3167.54,0.6136670653410338
360,3189.5,0.5227805061316321
361,3211.6099999999997,0.5802844465177945
362,3226.4300000000003,0.48296300655953706
363,3248.7899999999995,0.7033827462716399
364,3271.31,0.8308474855523444
365,3286.42,0.8161340448121778
366,3309.19,0.7553261834188226
367,3311.31121,0.7499739539545084
368,3324.47,0.7167710994731612
369,3332.1299999999997,0.7302899046637588
370,3339.81,0.6348073088235223
371,3347.51,0.827404711952452
372,3355.23,0.8050912140505477
373,3362.9700000000003,0.4921029151178094
374,3370.72,0.6443481156696542
375,3378.4900000000002,0.765975615190665
376,3386.27,0.7401883141962589
377,3394.08,0.7252201116556019
378,3401.9100000000003,0.9027319080841107
379,3409.7499999999995,0.7545893039972028
380,3417.6099999999997,0.6380570988794608
381,3425.49,0.7997306927308849
382,3433.3799999999997,0.922677686066892
383,3441.2999999999997,0.7214525778566483
384,3449.23,0.6735083691309875
385,3457.1800000000003,0.7969706593744927
386,3465.15,0.6848396485871641
387,3473.1400000000003,0.8544354367690015
388,3481.15,0.739308223920005
389,3489.1699999999996,0.8145908105555913
390,3497.22,0.7245751956449269
391,3505.28,0.9229413802188454
392,3513.3599999999997,0.7840087637619301
393,3521.46,0.9341702462741807
394,3529.57,0.6303942282710143
395,3537.71,0.8824360087215971
396,3545.87,0.8949761881413459
397,3554.04,0.9331019670456777
398,3562.23,0.8280843449191757
399,3570.4399999999996,0.6489899217618396
400,3578.6800000000003,0.7591766970582526
401,3586.92,0.5303216723546657
402,3595.1899999999996,0.8120633461048278
403,3603.48,1.0085386188241559
404,3611.7899999999995,0.6666241905126501
405,3620.11,0.8729116616857273
406,3628.46,1.0643243313125537
407,3636.82,0.769558800423963
408,3645.21,1.0100484679891213
409,3653.61,0.8881483350388628
410,3662.03,1.24330860105777
411,3670.4700000000003,1.1033741660458436
412,3678.94,1.1451107294876663
413,3687.42,1.0185772924140721
414,3695.9199999999996,1.1644268543096437
415,3704.44,1.1974034151743815
416,3712.98,0.8249218750082852
417,3721.54,0.868044233811355
418,3730.1099999999997,0.9719889920990078
419,3738.72,0.49305924832499287
420,3747.33,0.7014080045509777
421,3755.9700000000003,0.9058686592307119
422,3764.63,0.8653879128796119
423,3773.3100000000004,0.8797154654976781
424,3782.01,1.10776241708491
425,3790.7200000000003,0.8924929681567255
426,3799.46,0.7564217176822898
427,3800.75,1.2231784511935
428,3801.8939600000003,1.2003911057809804
429,3802.4799999999996,1.1887173683200383
430,3804.21,1.0784062977319364
431,3805.94,1.0018352271438347
432,3807.67,1.1152061565557327
433,3809.4,1.0637030859676309
434,3811.1299999999997,0.9553514153795291
435,3812.87,1.0847059443834035
436,3814.6000000000004,0.9979367737953017
437,3816.33,1.0189868032071998
438,3818.06,0.9728374326190979
439,3819.79,0.6497586620309961
440,3821.52,0.6419321914428942
441,3823.2500000000005,0.8103413208547924
442,3824.98,0.8703095502666904
443,3826.71,0.7510647796785886
444,3828.44,0.7003216090904867
445,3830.17,0.8120896385023849
446,3831.8999999999996,0.570645867914283
447,3833.63,0.6461782973261812
448,3835.3599999999997,0.6956838267380794
449,3837.09,0.5557331561499774
450,3838.82,0.6265897855618756
451,3840.56,0.74636061456575
452,3842.29,0.9286055439776482
453,3844.0200000000004,0.9927937733895462
454,3845.75,0.7783245028014445
455,3847.4799999999996,0.9928454322133425
456,3849.21,1.1486584616252407
457,3850.94,0.7895792910371389
458,3852.67,0.821374620449037
459,3854.4,0.7952575498609352
460,3856.1299999999997,0.7748623792728333
461,3857.86,0.7855534086847314
462,3859.59,0.8084266380966295
463,3861.3199999999997,0.6947213675085278
464,3863.05,0.8323397969204258
465,3864.7799999999997,1.016890826332324
466,3866.51,1.0592317557442221
467,3868.2499999999995,0.9417581847480966
468,3869.98,0.7669019141599948
469,3871.71,0.7327878435718929
470,3873.44,0.740903872983791
471,3875.17,0.8307378023956891
472,3876.8999999999996,0.7729573318075873
473,3878.63,0.7627215612194854
474,3880.36,0.8856733906313836
475,3882.09,0.9148380200432816
476,3883.82,0.9024923494551799
477,3885.5499999999997,0.8166170788670779
478,3887.28,0.8684839082789761
479,3889.0099999999998,0.8710733376908741
480,3890.74,1.0526547671027724
481,3892.4700000000003,1.0915496965146705
482,3894.2,1.1253846259265687
483,3895.9300000000003,0.9854609553384669
484,3897.6699999999996,1.0310454843423413
485,3899.4,1.1130334137542393
486,3901.1299999999997,0.9932202431661374
487,3902.86,0.9782127725780356
488,3904.59,0.9808719019899338
489,3906.3199999999997,1.2171971314018317
490,3908.05,1.23161206081373
491,3909.7799999999997,1.1646409902256283
492,3911.51,1.0567009196375263
493,3913.2400000000002,1.0862308490494246
494,3914.97,1.1653587784613226
495,3916.7000000000003,1.2035187078732208
496,3918.43,1.074054637285119
497,3920.16,1.036362566697017
498,3921.89,0.9930650961089152
499,3923.62,0.9924029255208133
500,3925.36,0.8673310545246877
501,3927.0899999999997,0.697463283936586
502,3928.82,0.635987513348484
503,3930.5499999999997,0.46777034276038215
504,3932.28,0.5127851721722804
505,3934.01,0.42809650158417845
506,3935.74,0.47007643099607666
507,3937.4700000000003,0.4717966604079748
508,3939.2,0.4491842898198729
509,3940.9300000000003,0.6655149192317711
510,3942.66,0.6580138486436692
511,3944.39,0.7360308780555673
512,3946.1200000000003,0.8774043074674654
513,3947.85,0.8858810368793636
514,3949.58,1.1145993662912617
515,3951.31,1.15884729570316
516,3953.05,1.0338262247070342
517,3954.7799999999997,1.1068461541189325
518,3956.5099999999998,1.1425180835308306
519,3958.2400000000002,1.1262130129427288
520,3959.97,0.9736554423546269
521,3961.7000000000003,0.878024671766525
522,3963.43,0.6748652011784232
523,3965.16,0.6723788305903213
524,3966.8900000000003,0.7024903600022194
525,3968.62,0.5700159894141176
526,3970.3500000000004,0.5640490188260157
527,3972.08,0.6615412482379139
528,3973.81,0.8032401776498119
529,3975.54,0.9860936070617101
530,3977.27,1.0034192364736083
531,3978.9999999999995,1.1365821658855064
532,3980.74,1.2759700948893808
533,3982.4700000000003,1.308457024301279
534,3984.2,1.3371079537131771
535,3985.93,1.4629308831250754
536,3987.6600000000003,1.4954888125369734
537,3989.39,1.5098187419488716
538,3991.1200000000003,1.3804856713607698
539,3992.85,1.378137600772668
540,3994.58,1.4079665301845659
541,3996.31,1.440792459596464
542,3998.04,1.4710063890083622
543,3999.7700000000004,1.4092713184202605
544,4001.5,1.5401672478321584
545,4003.23,1.6801881772440566
546,4004.96,1.5741691066559549
547,4006.69,1.589534036067853
548,4008.43,1.6396749650717273
549,4010.16,1.5936928944836255
550,4011.8900000000003,1.5193248238955237
551,4013.62,1.6484037533074216
552,4015.35,1.7617156827193199
553,4017.08,1.625609612131218
554,4018.81,1.6273065415431163
555,4020.5400000000004,1.6301674709550145
556,4022.27,1.6973794003669125
557,4024.0,1.7206893297788106
558,4025.73,1.6446272591907087
559,4027.46,1.582763188602607
560,4029.19,1.584843118014505
561,4030.92,1.550591047426403
562,4032.6499999999996,1.4764749768383014
563,4034.38,1.5589259062501997
564,4036.11,1.6603928356620976
565,4037.85,1.701147764665972
566,4039.58,1.7463476940778704
567,4041.3100000000004,1.7192596234897684
568,4043.04,1.6295135529016664
569,4044.7699999999995,1.5703844823135646
570,4046.5,1.5068194117254627
571,4048.23,1.6116723411373608
572,4049.96,1.617797270549259
573,4051.69,1.6774461999611572
574,4053.4199999999996,1.6937311293730555
575,4055.15,1.6361570587849534
576,4056.88,1.5236259881968515
577,4058.61,1.5150329176087498
578,4060.34,1.5431618470206478
579,4062.0699999999997,1.5063047764325461
580,4063.8,1.494585705844444
