,lambda (Angstroms),Total Flux (erg/s/cm^2/Angstrom)
0,100.03,0.1305795786034814
1,101.89,0.13021634003345742
2,104.03,0.12979842030738056
3,104.712855,0.12966506586756732
4,105.96,0.12838570963356863
5,107.93,0.12636482858610798
6,109.94,0.1243029150480365
7,114.05999999999999,0.1200765043215783
8,118.07,0.11596293479862353
9,120.22644299999999,0.1137508012388769
10,121.1,0.11299950180835153
11,125.07000000000001,0.10958511101583898
12,127.10000000000001,0.10783921372018435
13,127.98,0.10708237189042209
14,130.96,0.10451942956380332
15,131.87,0.10373678826784882
16,134.01,0.10189628654424267
17,137.13,0.09921294161192014
18,138.038426,0.09843165290898237
19,140.0,0.09722578210976987
20,142.94,0.09541844853727638
21,146.94,0.09295949073239165
22,151.06,0.09042674939694675
23,154.93,0.08804770026790217
24,158.489319,0.08585964273515725
25,158.91,0.08566412998193232
26,161.85999999999999,0.08429311272121137
27,166.01000000000002,0.08236439648764121
28,169.88,0.08056581804586256
29,173.04,0.07909721319147303
30,177.07,0.07722428377712778
31,179.95000000000002,0.07588582063502972
32,181.970086,0.0749469979536394
33,182.03,0.07492575538199807
34,185.84,0.07357492653196364
35,191.05,0.07172772917577615
36,194.15,0.07062863908815864
37,198.22,0.06918564675627437
38,201.9,0.06788094533701487
39,205.18,0.06671805019087053
40,208.929613,0.06538866009552446
41,209.96,0.06511401895298136
42,215.85,0.06354416756629801
43,219.85999999999999,0.06247538150186334
44,222.92,0.0616597934639905
45,227.06,0.06055637892786841
46,230.22,0.05971540897662062
47,233.96,0.058720581418998254
48,239.88329199999998,0.05714316200439065
49,239.96,0.05712742465804568
50,246.11999999999998,0.05586234410817845
51,251.85,0.054686026723738616
52,257.12,0.05360264547905837
53,260.09999999999997,0.05299178192739858
54,263.71999999999997,0.05224879045298633
55,269.24,0.051115299069871535
56,274.25,0.05008657024040321
57,275.42287,0.049845737388084226
58,278.7,0.04932937052138471
59,283.89,0.048511601238186645
60,289.83,0.0475752266786883
61,295.90000000000003,0.04661898370223121
62,300.71,0.04586070734475864
63,307.71,0.04475786800928921
64,316.227766,0.04341588263428295
65,317.79,0.04323208573574797
66,328.20000000000005,0.04200700203916376
67,338.18,0.0408324849603347
68,347.65,0.03971794486744781
69,357.39,0.038571595233179774
70,363.078055,0.037902204357933754
71,365.72,0.03766940719135404
72,375.1,0.03684267642828021
73,384.71999999999997,0.035994400189967815
74,394.59000000000003,0.035124834022031905
75,404.71,0.03423288024447252
76,414.14,0.03340161286947398
77,416.86938299999997,0.033161004711430075
78,421.84,0.03282641290230318
79,429.68,0.032298584598997745
80,440.7,0.031556872076086276
81,450.96999999999997,0.030865494891195108
82,460.40999999999997,0.030229924472113052
83,470.04999999999995,0.02958097733355892
84,478.630092,0.029003378778201423
85,479.89,0.02893815493966637
86,489.94000000000005,0.02841773922208333
87,500.20000000000005,0.02788667956150602
88,505.99,0.027589711236092503
89,511.85,0.027298888939680903
90,520.17,0.026868145949622113
91,529.84,0.026367736213171556
92,539.69,0.02585650948986878
93,549.5408739999999,0.02535101491540075
94,549.72,0.025344023232933235
95,559.94,0.02494483408020363
96,570.35,0.0245364169049184
97,579.62,0.024169077214966993
98,590.4,0.0237477804483892
99,599.99,0.02336888567623882
100,609.74,0.02298796843298896
101,619.65,0.022603205548639618
102,629.71,0.022208378837009504
103,630.957344,0.02215929965715659
104,639.9499999999999,0.02187910395042114
105,650.3399999999999,0.021558283280995925
106,657.87,0.02132443141662905
107,665.49,0.021089749517907187
108,674.7499999999999,0.020802429876494537
109,685.7099999999999,0.020458060969487765
110,695.25,0.020171981677859607
111,704.93,0.019865282546123703
112,716.3799999999999,0.019520866298739812
113,724.43596,0.01927124997096566
114,726.35,0.019227392201430486
115,734.76,0.019035835596746847
116,744.9799999999999,0.018805786662161022
117,755.34,0.018570158849019223
118,765.85,0.018330694065996033
119,774.72,0.018132948760342778
120,785.4899999999999,0.0178912591028585
121,794.59,0.01768511139672043
122,805.64,0.017433473382124212
123,814.97,0.017221637975501337
124,824.41,0.01701321926429878
125,831.763771,0.016832595742076868
126,835.88,0.016755659183602726
127,845.5600000000001,0.0166126426349781
128,855.35,0.016449312491482748
129,865.25,0.01628796275311666
130,875.27,0.016124159038527954
131,885.41,0.015959828547716628
132,895.6600000000001,0.01579159316203456
133,906.0300000000001,0.015616218300129879
134,914.41,0.015574816427250301
135,925.0,0.01698036927560415
136,935.71,0.01891472944773538
137,944.3699999999999,0.022665929797003027
138,954.992586,0.025320445293607406
139,955.3100000000001,0.025399884149514093
140,964.15,0.027785089810521385
141,975.3100000000001,0.017777166083919726
142,984.3399999999999,0.028906014221803868
143,995.7299999999999,0.028643622861947878
144,1004.95,0.03144052747670887
145,1014.25,0.029098421871207487
146,1025.99,0.019509233547703595
147,1035.48,0.025706263419079063
148,1045.06,0.033769587042659366
149,1054.73,0.033894270418444485
150,1064.49,0.031265593546434434
151,1074.34,0.033367236426629206
152,1084.28,0.030759089059028806
153,1094.32,0.03356277141610044
154,1096.4782,0.033401776976146054
155,1104.44,0.03283238961851116
156,1114.6599999999999,0.032593756693442555
157,1124.98,0.031067101665388924
158,1135.38,0.03333250295494729
159,1145.8899999999999,0.031687562931222144
160,1153.83,0.03224032995421189
161,1164.51,0.032678253355412204
162,1175.29,0.028224274653627507
163,1186.16,0.031220503059156295
164,1194.38,0.026737142193788005
165,1205.43,0.023065364813943764
166,1213.79,0.01655065900439645
167,1225.02,0.023714661839179182
168,1236.35,0.0290768165709769
169,1244.92,0.03087685334516105
170,1256.44,0.030716723081287235
171,1258.92541,0.030171778485118803
172,1265.1499999999999,0.02883187034481576
173,1273.92,0.031970936246984424
174,1285.7099999999998,0.032636001456399326
175,1294.62,0.030279527988705236
176,1303.6000000000001,0.02985764983607976
177,1315.6599999999999,0.03244460554647363
178,1324.7800000000002,0.0318267080239854
179,1333.9599999999998,0.030569345057270284
180,1346.3,0.03230110202793863
181,1355.6399999999999,0.03178304120995178
182,1365.0300000000002,0.030459334188442523
183,1374.4899999999998,0.03092095248200189
184,1384.02,0.031084316090629872
185,1393.6200000000001,0.02934505501432648
186,1406.51,0.029701873746248275
187,1416.26,0.03000095405937764
188,1426.0800000000002,0.02990320968757563
189,1435.96,0.029706289871546717
190,1442.59,0.030398963284474684
191,1445.43977,0.030503089297884967
192,1445.92,0.03052207535618981
193,1455.94,0.03019572563035853
194,1466.0300000000002,0.029172971006242998
195,1476.19,0.028956171483843218
196,1486.43,0.028933117791975722
197,1493.29,0.02903314776011918
198,1503.6399999999999,0.02847494208523358
199,1510.58,0.02721477788390932
200,1517.55,0.027857205869034667
201,1524.5600000000002,0.027390996769426156
202,1535.1200000000001,0.0258602263996878
203,1545.76,0.026836251860481733
204,1556.48,0.02592570315180795
205,1563.66,0.02587610644208054
206,1574.5,0.02672674647920519
207,1585.4199999999998,0.02710828234686212
208,1596.41,0.027498763316234794
209,1603.77,0.026750759725205034
210,1614.8899999999999,0.026582990169192675
211,1626.08,0.02583495571489607
212,1633.5900000000001,0.026453533056114337
213,1644.91,0.026557378076432693
214,1656.32,0.025148199656099872
215,1659.58691,0.025773140218078132
216,1663.9599999999998,0.02661876270070187
217,1671.64,0.024939562061889835
218,1675.49,0.026517413226027027
219,1683.23,0.026993621488474277
220,1694.9,0.026011172783404424
221,1706.64,0.02550683446313707
222,1714.52,0.0252049134951893
223,1726.4099999999999,0.024973327428070152
224,1734.38,0.025728999812011304
225,1746.3999999999999,0.025225883030953924
226,1754.4599999999998,0.025995278766784004
227,1766.6200000000001,0.024478802755331614
228,1774.77,0.025176181843050614
229,1782.97,0.025225058348485683
230,1795.33,0.025935842007897558
231,1803.61,0.025711540381678336
232,1816.11,0.024975574810695206
233,1824.5,0.02489032950345133
234,1832.92,0.02445657864683709
235,1845.6200000000001,0.02322368274671823
236,1854.1399999999999,0.023386256725536132
237,1867.0,0.023695954562108684
238,1875.6100000000001,0.024249571892815503
239,1884.2700000000002,0.02340445664123839
240,1892.97,0.02299388732383413
241,1905.46072,0.02332349801136681
242,1906.09,0.023340919454239214
243,1914.8899999999999,0.02310374221711671
244,1923.7299999999998,0.022827692765280013
245,1937.06,0.02265944971177513
246,1946.0,0.023618474723152955
247,1954.98,0.022838417519816582
248,1968.54,0.02366577673170509
249,1977.62,0.02380565399158323
250,1982.18,0.023153691514165207
251,1995.9199999999998,0.022692850759839844
252,2005.1299999999999,0.022700755821896863
253,2014.39,0.022464763115561136
254,2023.6899999999998,0.022553408194511224
255,2033.0300000000002,0.022398371058747108
256,2047.1200000000001,0.022715785925672558
257,2056.57,0.022074787699444414
258,2066.06,0.02208074725850208
259,2075.6,0.022863039049167005
260,2080.38,0.022638234390820917
261,2085.1800000000003,0.022787438625117735
262,2094.8,0.02209859598635427
263,2104.47,0.022064225579198064
264,2114.19,0.02215043740364912
265,2123.94,0.02223781256706453
266,2133.75,0.02121372440840865
267,2143.6,0.021725664035038575
268,2153.4900000000002,0.021850161446954303
269,2163.4300000000003,0.021262201090477294
270,2173.42,0.021149222965607548
271,2183.4500000000003,0.021191032626023603
272,2187.7616199999998,0.021429053679881283
273,2193.5299999999997,0.021754128090163655
274,2203.65,0.021254775653642092
275,2213.82,0.02054165294816538
276,2224.04,0.020294119973733527
277,2234.31,0.021298006730346528
278,2244.62,0.02057981727179541
279,2254.98,0.020035477544289148
280,2265.39,0.020010287547827736
281,2275.85,0.020392267282411183
282,2286.35,0.02078468080183051
283,2296.91,0.019971279998503663
284,2307.51,0.0201650729800127
285,2312.83,0.019784656363185153
286,2323.5,0.017661970968156984
287,2334.23,0.018952051250382643
288,2345.0,0.018055155317444182
289,2355.83,0.019316655061759544
290,2366.7,0.01809833859091079
291,2377.62,0.018637081851106893
292,2383.1,0.017355200373622884
293,2394.11,0.01809375714969972
294,2405.16,0.01770924771061244
295,2416.26,0.017842178002570014
296,2427.4100000000003,0.018750548025572446
297,2433.0099999999998,0.018294017902596087
298,2444.2400000000002,0.01891689549527028
299,2455.52,0.018714152818989332
300,2466.85,0.018513059873753235
301,2472.54,0.017994913266657614
302,2483.9500000000003,0.01799872789109328
303,2495.42,0.017513888192782774
304,2506.9399999999996,0.018792608225517125
305,2511.88643,0.01754986351971391
306,2512.71,0.017343454174530072
307,2518.5099999999998,0.0171742293477883
308,2524.31,0.016730324521046523
309,2535.96,0.016922905256987614
310,2547.67,0.016931168460238274
311,2553.5400000000004,0.017948538178690993
312,2565.33,0.01753154800502108
313,2577.1699999999996,0.0182055682207758
314,2583.11,0.01805887248442302
315,2595.0299999999997,0.017835419323257162
316,2607.01,0.017290568629400878
317,2613.02,0.01702471743824259
318,2625.0800000000004,0.017744733367465727
319,2637.2000000000003,0.018330381763998434
320,2643.28,0.01976573511803464
321,2655.48,0.020359740137646774
322,2667.7400000000002,0.018870777624568468
323,2673.89,0.019443525523799174
324,2686.23,0.019683159633800292
325,2692.4199999999996,0.018609295844570713
326,2704.85,0.019125418655536183
327,2717.33,0.018073431855926296
328,2723.6,0.017857174689776135
329,2736.17,0.0185959965911306
330,2742.48,0.01659048773652015
331,2755.14,0.01707134833883897
332,2767.85,0.017805289330582424
333,2774.2299999999996,0.018345515021166475
334,2787.04,0.01720402679175921
335,2793.46,0.01400153079388297
336,2806.36,0.014815331265440056
337,2812.83,0.01816573565698846
338,2825.8100000000004,0.018965322751624967
339,2832.33,0.01858896753259801
340,2845.4,0.017826863328198873
341,2851.96,0.01682129642071162
342,2865.12,0.01863417091727684
343,2871.73,0.01902471439921423
344,2884.0315,0.01886325669879233
345,2884.9799999999996,0.018851306962686422
346,2898.2999999999997,0.018980807414272636
347,2911.68,0.02047536192194708
348,2931.86,0.01973187945295382
349,2952.18,0.019394419781499764
350,2972.65,0.019596170250266262
351,2993.25,0.019683446173890593
352,3007.07,0.01982091375954536
353,3027.91,0.019909765907522595
354,3048.9,0.020079668195720393
355,3070.03,0.020129543281457385
356,3091.31,0.02009974850741494
357,3112.74,0.020312533873593063
358,3127.11,0.019928785306723238
359,3148.7900000000004,0.019897534239935635
360,3170.6099999999997,0.02022979597068723
361,3192.59,0.019324455184340762
362,3207.33,0.019975468296681665
363,3229.5600000000004,0.01911798107736947
364,3251.94,0.02056906399827784
365,3266.96,0.021446422705697132
366,3289.6,0.02128273653632115
367,3311.31121,0.02104560947509474
368,3312.3999999999996,0.021034119822568885
369,3320.0400000000004,0.02035000025916782
370,3327.6899999999996,0.020425271730369635
371,3335.36,0.021533145270777206
372,3343.05,0.020160320880390537
373,3350.7599999999998,0.02061057855920962
374,3358.48,0.02056024727263158
375,3366.23,0.01929390908986218
376,3373.9900000000002,0.018114681941695653
377,3381.7599999999998,0.01959370582813201
378,3389.56,0.020654122818376995
379,3397.37,0.01977808084322486
380,3405.2,0.02042671093727848
381,3413.05,0.020087093100537863
382,3420.92,0.020493837333002998
383,3428.81,0.020782383634673888
384,3436.71,0.02094539097094766
385,3444.64,0.018373481411030065
386,3452.58,0.021810512885715345
387,3460.53,0.020327045395003508
388,3468.51,0.0205701610081003
389,3476.5099999999998,0.020435398690402857
390,3484.52,0.020766447407308285
391,3492.5499999999997,0.020502348193419468
392,3500.61,0.019669422083339293
393,3508.6699999999996,0.02069759597325911
394,3516.7599999999998,0.01941319296698757
395,3524.87,0.02021732202992178
396,3533.0,0.021016713162061745
397,3541.14,0.02167071532880459
398,3549.3,0.022163169564753196
399,3557.49,0.021341466904510432
400,3565.69,0.02228448527887055
401,3573.9100000000003,0.018999085722436422
402,3582.15,0.01934408823520805
403,3590.4,0.017782771782582557
404,3598.6800000000003,0.020817188433765697
405,3606.98,0.020297667154154594
406,3615.29,0.020457456909146368
407,3621.47,0.02097618629372509
408,3624.21,0.019947869774913713
409,3626.96,0.01788317429070522
410,3629.7000000000003,0.013294427771893842
411,3632.45,0.023170212287685343
412,3635.1899999999996,0.020531255768873966
413,3637.94,0.01683513028466547
414,3640.68,0.012832083765854093
415,3643.42,0.012454627247042719
416,3646.17,0.01241056176283422
417,3648.9100000000003,0.013217705244022843
418,3651.66,0.016761449759814345
419,3654.4,0.02222673324100297
420,3657.15,0.019354337756794474
421,3659.89,0.023075771237983097
422,3662.64,0.0235210057537746
423,3665.3799999999997,0.023519549234963223
424,3668.13,0.021898823750754724
425,3670.87,0.020471867231943348
426,3673.61,0.02452678071313197
427,3676.36,0.023430335228923474
428,3679.1000000000004,0.021997718710112097
429,3681.85,0.0199471732259036
430,3684.5899999999997,0.021652706707092226
431,3687.34,0.023831391222883726
432,3690.08,0.02368257470407235
433,3692.83,0.024966669219863853
434,3695.57,0.02437858270105248
435,3698.32,0.023557977216843978
436,3701.06,0.024371760698032603
437,3703.81,0.019902895213824105
438,3706.55,0.019672818695012726
439,3709.29,0.021494542176201354
440,3712.04,0.021053696691992856
441,3714.7799999999997,0.02260242017318148
442,3717.53,0.023721204688972982
443,3720.27,0.0317569181701616
444,3723.0200000000004,0.03627833268595311
445,3725.76,0.055307076167141735
446,3728.5099999999998,0.07886136068293323
447,3731.25,0.08294003416412185
448,3734.0,0.07126325867991336
449,3736.7400000000002,0.04367598216110199
450,3739.48,0.03220072564229061
451,3742.2299999999996,0.02238033015808211
452,3744.9700000000003,0.02282664363927073
453,3747.72,0.020214968155062237
454,3750.46,0.018969381636250858
455,3753.21,0.02316681615204236
456,3755.9500000000003,0.024194089633230983
457,3758.7,0.024386164149022487
458,3761.4399999999996,0.02648090763021111
459,3764.19,0.022927402146002616
460,3766.93,0.025893115627191238
461,3769.6800000000003,0.02347982014298274
462,3772.42,0.023237473624171365
463,3775.1600000000003,0.027044887105359988
464,3777.91,0.02389852162115149
465,3780.6499999999996,0.028717665102340115
466,3783.4,0.029799589618131617
467,3786.14,0.03126804309932024
468,3788.89,0.027944077615111744
469,3791.6299999999997,0.028417791096300368
470,3794.38,0.023717465612091867
471,3797.12,0.023820869093280492
472,3799.8700000000003,0.024118733609071994
473,3801.8939600000003,0.02237457018373848
474,3802.61,0.02175770327728971
475,3805.35,0.02602020922211125
476,3808.1,0.028353588801767905
477,3810.8399999999997,0.028550284746589442
478,3813.59,0.0290274043262461
479,3816.33,0.030701550271067638
480,3819.0800000000004,0.028119859850724294
481,3821.82,0.03253162579554583
482,3824.5699999999997,0.029257495375202485
483,3827.31,0.029645021320024022
484,3830.06,0.023591720899680677
485,3832.8,0.024319306844502217
486,3835.54,0.021640442789323755
487,3838.29,0.021958872368980413
488,3841.03,0.02247201831380195
489,3843.78,0.023964657893458606
490,3846.52,0.026671313838280145
491,3849.27,0.0318868334179368
492,3852.01,0.030457779362758335
493,3854.7599999999998,0.031068088942414994
494,3857.5,0.03220661488723653
495,3860.25,0.030251234466893186
496,3862.9900000000002,0.024477690411714725
497,3865.74,0.03270193999137138
498,3868.4800000000005,0.03118220593619292
499,3871.2200000000003,0.03550991188101446
500,3873.97,0.03140919146067111
501,3876.71,0.03206216740549265
502,3879.46,0.028433796985149307
503,3882.2000000000003,0.030305372929970844
504,3884.95,0.0236985025096275
505,3887.6899999999996,0.025433088454449037
506,3890.44,0.02532358803410569
507,3893.18,0.028056683978927233
508,3895.9300000000003,0.027785633558583888
509,3898.67,0.023974139503405427
510,3901.4100000000003,0.031667655448226965
511,3904.16,0.03207580502788362
512,3906.8999999999996,0.03404186097270516
513,3909.65,0.031324130552361815
514,3912.39,0.03286130649718335
515,3915.14,0.033946776076840005
516,3917.88,0.031440812021661546
517,3920.63,0.0283716816013182
518,3923.37,0.02881586754613974
519,3926.1200000000003,0.030346287125796394
520,3928.86,0.028569583070617934
521,3931.6099999999997,0.026246742650274588
522,3934.35,0.022995428595096127
523,3937.0899999999997,0.020724654539917668
524,3939.84,0.025405524119574318
525,3942.58,0.02672069006439586
526,3945.3300000000004,0.029180659644052514
527,3948.07,0.028524325588874053
528,3950.8199999999997,0.030007505168530707
529,3953.56,0.03130379111335225
530,3956.31,0.030626530693008903
531,3959.05,0.027938236637830443
532,3961.7999999999997,0.024707576217487096
533,3964.5399999999995,0.025263232162308635
534,3967.28,0.023027418107130174
535,3970.0299999999997,0.022072457686786826
536,3972.77,0.022411783631608367
537,3975.52,0.02371171321126502
538,3978.26,0.02542929915608656
539,3981.0099999999998,0.027374418735743217
540,3983.75,0.03158686468056476
541,3986.5,0.032076254260221405
542,3989.24,0.03285487020504295
543,3991.9900000000002,0.0309788397846996
544,3994.73,0.03453569572952114
545,3997.48,0.0332415653091778
546,4000.22,0.03281952125399934
547,4002.96,0.03463442719882087
548,4005.71,0.03541759677847753
549,4008.4500000000003,0.033440642723299066
550,4011.2,0.033327342302955726
551,4013.9399999999996,0.03471998824777726
552,4016.69,0.03426943782743391
553,4019.43,0.03600688377225546
554,4022.1800000000003,0.03457483335191211
555,4024.92,0.037710369296733645
556,4027.67,0.035015318876390304
557,4030.41,0.03519218482121184
558,4033.1499999999996,0.034506580766033385
559,4035.9,0.033620540345690036
560,4038.64,0.03516244629051157
561,4041.3900000000003,0.036825095870168224
562,4044.13,0.03857294181498977
563,4046.88,0.03469988139464643
564,4049.62,0.03753880733946796
