,lambda (Angstroms),Total Flux (erg/s/cm^2/Angstrom)
0,101.98,0.020952337720107555
1,104.11,0.02496478021560804
2,104.712855,0.026100423896205302
3,106.05,0.02399871915003289
4,108.02000000000001,0.020902302303585953
5,110.03,0.01774301417292846
6,113.9,0.011660205700476376
7,117.9,0.005373065377588207
8,120.22644299999999,0.0017164007438843787
9,120.92,0.0016659602913325139
10,124.89,0.001377230024264332
11,126.91,0.0012303197047980887
12,128.09,0.00114450094779751
13,131.07,0.0009277727667262208
14,131.98,0.0008615936368142499
15,134.13,0.0007052302368120099
16,136.93,0.0005016006962797902
17,138.038426,0.0004209893243702186
18,140.12,0.00041564880735978755
19,143.06,0.0004081851619124813
20,147.07,0.0003981165378233321
21,150.84,0.00038852922793926916
22,155.06,0.0003778125497581696
23,158.489319,0.00036913642406245854
24,159.04000000000002,0.00036698437138947364
25,162.0,0.0003554339609462277
26,166.15,0.00033927396456769017
27,170.02,0.00032423939736216247
28,173.19,0.00031194319658915925
29,176.80999999999997,0.000297968841466676
30,180.10000000000002,0.0002852546057338111
31,181.970086,0.00027805403561634583
32,182.18,0.0002783408288599899
33,185.99999999999997,0.00028362440504476136
34,191.20999999999998,0.00029086850467896546
35,193.87,0.0002946953281217645
36,197.93,0.0003004810682186683
37,202.07,0.00030647166695294947
38,204.89000000000001,0.0003106466026705034
39,208.929613,0.0003164024675313594
40,210.14000000000001,0.0003259250816401569
41,216.03,0.0003731385922709905
42,220.05,0.00040531915960986185
43,223.11,0.000429746846360346
44,227.25,0.0004631080680227656
45,229.89,0.0004906437431408301
46,234.16,0.0005390722799037606
47,239.88329199999998,0.0005955016839461333
48,240.17,0.0005942957081811362
49,245.76000000000002,0.0005613590229101812
50,252.06,0.0005296726646978352
51,256.75,0.0004948648920286442
52,259.71999999999997,0.00048692494944282407
53,263.94,0.00046729415435455403
54,268.84999999999997,0.0004413769626049319
55,273.85,0.0004149053125951331
56,275.42287,0.0004066008283699868
57,278.94,0.00043423327618676564
58,284.13,0.0004752570437922545
59,290.08,0.0005182316776559653
60,296.15,0.0005681737172446584
61,300.96000000000004,0.0006049801767210366
62,307.97,0.0006627554411554252
63,316.227766,0.0007311666141723638
64,318.06,0.0007248142976185659
65,327.72999999999996,0.000689710807236496
66,337.69,0.0006522017819825748
67,347.95,0.0006130044378957043
68,356.87000000000006,0.0005804896445960074
69,363.078055,0.0005581908611089515
70,366.03,0.0005737007184474484
71,375.42,0.0006207355631063552
72,385.04999999999995,0.0006633605389386523
73,394.92,0.0007199004459443404
74,405.05,0.0007727740367212013
75,413.53000000000003,0.0008147829381810021
76,416.86938299999997,0.0008304564344164062
77,422.19,0.0008471761214166136
78,430.04,0.0008733158067541985
79,441.07,0.0009122254675533782
80,451.35,0.0009446404284795403
81,459.74,0.0009715783417256977
82,470.45,0.0010062056119123901
83,478.630092,0.0010347692073370421
84,480.3,0.0010316212244379482
85,490.36,0.0010060936664877571
86,499.46999999999997,0.0009919599200736181
87,506.42,0.001008342409362502
88,512.29,0.0012814341665028978
89,519.41,0.001297502182148488
90,530.29,0.001312826168977705
91,540.15,0.0012792900976666827
92,549.5408739999999,0.0014990861700404081
93,550.1899999999999,0.001515614781171605
94,560.42,0.0017020409578466823
95,569.52,0.0018722880514677191
96,580.11,0.0018395068032750574
97,589.54,0.002176187257434
98,600.5,0.0022794436559050507
99,610.26,0.0026290764706018988
100,620.1700000000001,0.002990008358270522
101,630.25,0.0032656494619738245
102,630.957344,0.0032713857350222036
103,640.4899999999999,0.003370913716113986
104,649.4,0.003880384954982575
105,658.43,0.004206611789660842
106,664.53,0.004491929409986138
107,675.3199999999999,0.004638239649873015
108,684.72,0.004708719654964455
109,694.24,0.006062717255865574
110,705.52,0.005951416261975302
111,715.34,0.007183994352400615
112,724.43596,0.007571242799967899
113,725.29,0.007607109770095448
114,735.3800000000001,0.008016022801719945
115,745.61,0.009188423436360045
116,754.24,0.00996196975082183
117,764.74,0.010734675976992021
118,775.38,0.011851807806177814
119,784.35,0.01297466801367749
120,795.26,0.013716195434393374
121,804.47,0.0145323683899198
122,815.66,0.015230869016666888
123,825.11,0.01694492472022006
124,831.763771,0.015102778993898964
125,834.66,0.014293923504304962
126,844.3299999999999,0.018299321336208804
127,854.11,0.019073926568475567
128,865.99,0.020744835807670774
129,874.0,0.022524839234097843
130,884.12,0.024795130067486355
131,894.36,0.026452771701270774
132,904.7099999999999,0.026796040735418115
133,915.19,0.042250323969994355
134,925.79,0.3107585080049665
135,934.35,0.7015307984332082
136,945.1700000000001,1.3517496372689062
137,953.9200000000001,1.8572381122977746
138,954.992586,1.8801537575642073
139,964.97,2.0933337139640797
140,973.89,0.33520007356077436
141,985.17,1.705527413947626
142,994.2900000000001,1.8233070210689102
143,1005.8000000000001,2.65356400110904
144,1015.11,2.629186558378684
145,1024.5,1.238564094658164
146,1033.98,1.9492016073237093
147,1045.95,3.5141094666703947
148,1055.63,3.3791569268605297
149,1065.3999999999999,2.6966293634367298
150,1075.26,3.2122427763989956
151,1085.2,2.599196168371097
152,1095.25,3.4340525314817225
153,1096.4782,3.4044799903358536
154,1105.3799999999999,3.190137899137284
155,1115.61,3.074780498336233
156,1125.93,2.6719300236278403
157,1133.74,3.473799610113059
158,1144.23,3.1827739958019117
159,1154.81,3.363575307583424
160,1165.5,3.4261225290337425
161,1176.28,2.21219767657672
162,1184.4399999999998,3.410310975644503
163,1195.3999999999999,2.7089979753727995
164,1203.68,1.9046861758974611
165,1214.8200000000002,1.3959090278110762
166,1226.0600000000002,2.690305797605424
167,1234.56,3.6040998174676977
168,1245.98,3.7826754394473645
169,1254.62,3.6207513443426635
170,1258.92541,3.5311092467387835
171,1266.2300000000002,3.3790282354391787
172,1275.0,3.9335797477027574
173,1283.84,4.015998264055099
174,1295.72,3.1681099579765726
175,1304.7,3.30973648250644
176,1313.75,3.9975470111250706
177,1325.9,3.765201720817486
178,1335.09,3.4418532576136425
179,1344.35,3.9155497984985614
180,1353.6699999999998,3.8352183428881346
181,1366.1899999999998,3.4737460741925825
182,1375.6599999999999,3.5383036273437902
183,1385.2,3.5628481845837614
184,1394.8,2.8562907453283857
185,1404.4699999999998,3.039441310161773
186,1414.1999999999998,3.3097098784998145
187,1424.01,3.3480034515107278
188,1433.8799999999999,3.426054028026295
189,1440.49,3.5546674141223336
190,1445.43977,3.5485381760323205
191,1447.14,3.5464327865943566
192,1453.8200000000002,3.457739114072455
193,1463.8999999999999,3.2048306082310236
194,1474.0500000000002,3.2643591058212484
195,1484.27,3.2793636068431304
196,1494.55,3.286957110806432
197,1504.91,3.053578618691627
198,1511.86,2.7089759594061165
199,1515.3500000000001,2.862867130498716
200,1525.85,2.9094416452472247
201,1536.43,2.5108041639176264
202,1543.52,2.581168511495429
203,1554.22,2.5050430360486713
204,1564.99,2.6656435640335703
205,1575.84,2.8497620959403624
206,1586.7600000000002,2.9363406312788114
207,1594.09,2.963422990622294
208,1605.1399999999999,2.98398153233382
209,1616.26,2.9840110774770023
210,1623.7199999999998,2.889323443193562
211,1634.98,3.088886995200058
212,1646.31,3.1102345506382107
213,1653.91,2.990900923218083
214,1659.58691,3.085914643548955
215,1665.37,3.1827072719289298
216,1673.0600000000002,2.990913025030945
217,1676.92,3.234487406952112
218,1684.66,3.279387177954661
219,1696.3400000000001,3.10312735951923
220,1704.17,3.0116681627427386
221,1715.98,2.8497683908486944
222,1723.8999999999999,2.843235226293163
223,1735.85,3.0116995045206116
224,1743.8600000000001,2.93637337218604
225,1755.95,3.067598700534982
226,1764.05,2.9161436004213694
227,1776.28,2.8761459788918047
228,1784.48,2.9499349145792597
229,1796.8500000000001,3.096062343171188
230,1805.14,3.124760311079602
231,1813.48,2.8106782968885495
232,1826.05,2.943151797082611
233,1834.47,2.836739811532412
234,1842.94,2.605023843882746
235,1855.7199999999998,2.5931314192590467
236,1864.2800000000002,2.671924483830341
237,1872.89,2.896067566302168
238,1885.8700000000001,2.605041213280602
239,1894.58,2.448126331553496
240,1903.32,2.6842624605667096
241,1905.46072,2.658006703777004
242,1916.51,2.5224791279485426
243,1925.3600000000001,2.4536720438529263
244,1934.2500000000002,2.5991379412981206
245,1943.1699999999998,2.684261824898923
246,1956.64,2.459337608766951
247,1965.6699999999998,2.7090314416049837
248,1974.7500000000002,2.817148251369029
249,1983.8600000000001,2.635250047288683
250,1993.02,2.58122882013435
251,2006.84,2.6903274424844725
252,2016.1000000000001,2.6291021691821665
253,2025.4,2.7657898774206715
254,2034.75,2.55164956258519
255,2044.15,2.6351872246757218
256,2053.58,2.5398598729218618
257,2063.06,2.569300498094015
258,2072.58,2.7466461048069792
259,2077.36,2.5108418989338666
260,2086.95,2.64729047334325
261,2096.58,2.5050560292934434
262,2106.26,2.581156562169651
263,2115.98,2.6049380765866688
264,2125.75,2.6411635679297003
265,2135.56,2.5515930408135423
266,2145.42,2.499245490623398
267,2155.32,2.6109409219740645
268,2165.27,2.5811473302507446
269,2175.2599999999998,2.563375720068236
270,2185.3,2.49346008681174
271,2187.7616199999998,2.514846012833912
272,2195.3900000000003,2.5811257575669426
273,2205.52,2.545707484741776
274,2215.7,2.4763492303133265
275,2225.9300000000003,2.408788994281594
276,2236.21,2.4763537766465777
277,2246.5299999999997,2.447793573728935
278,2256.9,2.3689123892080093
279,2267.31,2.4172662194044574
280,2272.54,2.4333661437010394
281,2283.03,2.4601590033322345
282,2293.57,2.3266838813601463
283,2304.1600000000003,2.363251777784775
284,2314.79,2.281800688926777
285,2325.48,1.879527622144839
286,2336.21,2.1666935700802745
287,2346.99,2.155578536412427
288,2352.4,2.22049252693719
289,2363.26,2.1389195227040894
290,2374.17,2.147579536867706
291,2385.13,2.083134569428039
292,2396.14,2.1451486203850894
293,2407.2,2.0759206897388562
294,2412.75,2.0993607317744263
295,2423.88,2.142161826883597
296,2435.07,2.0682779440688273
297,2446.31,2.1298380796507748
298,2457.6,2.1188472336294395
299,2463.27,2.0939423198171303
300,2474.64,2.0498335032305413
301,2486.06,2.07239770504067
302,2497.54,1.906378928926858
303,2503.2900000000004,2.0800690445492958
304,2511.88643,1.9826402995965045
305,2514.8500000000004,1.9490507854578836
306,2520.6499999999996,2.016944959536286
307,2526.46,1.9613781321906858
308,2532.28,1.9608333034210828
309,2543.97,1.9193736387618627
310,2555.71,1.9856069669826293
311,2567.51,1.9617162866593791
312,2573.43,2.0113814436497486
313,2585.31,1.9963767519344764
314,2597.2400000000002,1.9813710530991906
315,2603.2300000000005,1.9401482001215404
316,2615.24,1.9211524898942327
317,2627.31,1.942160771122908
318,2633.37,1.959483908177239
319,2645.52,2.0223841780138923
320,2657.7400000000002,2.0398164378825268
321,2663.86,1.929593566392841
322,2676.1600000000003,1.973249814869453
323,2682.33,1.9680239362597536
324,2694.71,1.900024173344344
325,2707.1499999999996,1.9075734018849173
326,2713.39,1.8677865133071987
327,2725.9100000000003,1.8580107304557503
328,2732.2000000000003,1.8963428347580178
329,2744.81,1.7726610390905446
330,2757.48,1.7837712348790549
331,2763.83,1.8080023306373056
332,2776.5899999999997,1.8488925136097913
333,2782.9900000000002,1.8020016022480283
334,2795.84,1.642416772404489
335,2802.2799999999997,1.6995378553467153
336,2815.22,1.8114320126871513
337,2828.21,1.8268801629075733
338,2834.7299999999996,1.7562042344577773
339,2847.81,1.7469903718621747
340,2854.38,1.7184184362923651
341,2867.5499999999997,1.7898795608807374
342,2874.1699999999996,1.7810856181909143
343,2884.0315,1.7740644025606735
344,2887.4300000000003,1.7716452040065067
345,2894.09,1.7628631845975768
346,2907.45,1.806762145663147
347,2927.6000000000004,1.7678650869409345
348,2947.8900000000003,1.7297530278107265
349,2968.33,1.7318649682433802
350,2988.9,1.7180819082971812
351,3009.62,1.700416847913844
352,3030.48,1.702528787122511
353,3051.4900000000002,1.6888557258940404
354,3072.64,1.679191664257574
355,3086.82,1.6587476229334561
356,3108.22,1.6568555605684263
357,3129.77,1.6285104977662586
358,3151.46,1.6191764345560953
359,3173.31,1.6061703708796513
360,3187.95,1.5539533282149767
361,3210.0499999999997,1.5700662638099694
362,3232.3,1.525501198967824
363,3247.2200000000003,1.5597321554871584
364,3269.73,1.5759570898873068
365,3292.39,1.5559500238503174
366,3307.59,1.5405019795536607
367,3311.31121,1.5542582610005307
368,3322.86,1.596950325334046
369,3330.52,1.6036198986007693
370,3338.1899999999996,1.5379464713103996
371,3345.8900000000003,1.569508042348751
372,3353.6,1.5543956128300092
373,3361.33,1.532504182197081
374,3369.08,1.5073897504499674
375,3376.85,1.4622633175886672
376,3384.63,1.509499884170274
377,3392.44,1.5547184490806016
378,3400.2599999999998,1.5976110134338362
379,3408.1,1.5041525766728847
380,3415.95,1.5139381393548403
381,3423.83,1.5737217003655166
382,3431.72,1.5658282608190999
383,3439.63,1.561499820158497
384,3447.56,1.473484378383708
385,3455.5099999999998,1.4797039354947332
386,3463.4700000000003,1.4321454920486651
387,3471.46,1.4852590469313178
388,3479.4599999999996,1.4342556012568775
389,3487.48,1.456817154468251
390,3495.5199999999995,1.4764807065654388
391,3503.58,1.47248225754844
392,3511.65,1.4549258079743486
393,3519.75,1.4610393567289777
394,3527.8599999999997,1.427146904926514
395,3536.0000000000005,1.476589451452771
396,3544.1499999999996,1.496481997421935
397,3552.3199999999997,1.5097055422769128
398,3560.51,1.4951470860177047
399,3568.71,1.4272566292014033
400,3576.94,1.381352170713823
401,3585.1899999999996,1.3400117111120562
402,3593.4500000000003,1.3801342509531969
403,3601.73,1.451148789680151
404,3610.04,1.4076883267358264
405,3618.36,1.4332518632344085
406,3626.7,1.4863663986188045
407,3635.06,1.4319179328890144
408,3643.44,1.498700466045038
409,3651.84,1.4174709980868758
410,3659.1800000000003,1.315227589180577
411,3661.86,1.0799774398796393
412,3664.54,1.269116290578702
413,3667.23,1.5221461407206713
414,3669.9100000000003,1.0755889914197339
415,3672.6,1.2835578415617033
416,3675.28,1.298118692260766
417,3677.97,1.4013495424027353
418,3680.6499999999996,1.5055893931017978
419,3683.3300000000004,1.4293602438008604
420,3686.02,1.3285640939428298
421,3688.7,1.332011944641892
422,3691.39,1.1903227947838617
423,3694.0699999999997,1.2674466454829243
424,3696.76,1.4931394956248938
425,3699.44,1.5413713463239564
426,3702.13,1.2562181964659256
427,3704.81,1.3793480471649884
428,3707.49,1.0987018978640506
429,3710.1800000000003,1.2955577480060203
430,3712.86,1.3136745987050826
431,3715.55,1.5783724488470523
432,3718.23,1.3591242995461146
433,3720.9199999999996,1.8425161496880842
434,3723.6000000000004,2.4434900003871465
435,3726.28,4.044378851086209
436,3728.97,5.739924701228179
437,3731.65,5.786722551927241
438,3734.3399999999997,4.585990402069211
439,3737.02,2.543060252768273
440,3739.71,2.0586551029102425
441,3742.39,1.7013899536093051
442,3745.08,1.3955668037512745
443,3747.7599999999998,1.864632654450337
444,3750.44,1.5389265051493997
445,3753.13,1.3605643552913689
446,3755.81,1.2677772059904315
447,3758.5,1.790176056132401
448,3761.1800000000003,1.8464089068314635
449,3763.8700000000003,1.6233737569734328
450,3766.55,1.6487146076724954
451,3769.23,1.3401204583715578
452,3771.92,1.5768153085135275
453,3774.6000000000004,1.6067111592125898
454,3777.29,1.3883440093545594
455,3779.9700000000003,1.4963618600536217
456,3782.66,1.6287077101955914
457,3785.3399999999997,1.7316145608946538
458,3788.03,1.5598084110366233
459,3790.71,1.5375872617356858
460,3793.39,1.6330481124347482
461,3796.08,1.435238962576718
462,3798.7599999999998,1.5848178132757802
463,3801.4500000000003,1.5915916634177498
464,3801.8939600000003,1.6095776510134083
465,3804.13,1.7001655400720872
466,3806.82,1.682490421438762
467,3809.5,1.6363773032464526
468,3812.1899999999996,1.8778481846131274
469,3814.8700000000003,1.8430700664208182
470,3817.55,1.9018599482285088
471,3820.24,2.0971028295951837
472,3822.92,1.6230437114028742
473,3825.6099999999997,1.7337195927695488
474,3828.29,1.5818144745772396
475,3830.98,1.7380523559439143
476,3833.66,1.501358237751605
477,3836.3399999999997,1.431574119559296
478,3839.0299999999997,1.3507810009259704
479,3841.71,1.3427828827336612
480,3844.4,1.1165267641003358
481,3847.08,1.7468356459080265
482,3849.77,1.8163955272747012
483,3852.45,1.8110654090823919
484,3855.1400000000003,2.0007512904490667
485,3857.82,1.9418591722567575
486,3860.5,1.7528380540644481
487,3863.19,1.845511935431123
488,3865.8700000000003,2.0142048172388134
489,3868.56,2.242895698605488
490,3871.2400000000002,2.111994580413179
491,3873.93,2.1979994617798533
492,3876.6099999999997,1.9739743435875445
493,3879.2900000000004,1.7448372253952351
494,3881.98,1.6533751067619098
495,3884.66,1.9589749885696004
496,3887.35,1.836397869936275
497,3890.0299999999997,1.4452387517439658
498,3892.7200000000003,1.5984766331106404
499,3895.4,1.7530565149183313
500,3898.09,1.702710396285006
501,3900.77,1.7018252780926968
502,3903.45,1.5518091599003874
503,3906.1400000000003,1.7886140412670621
504,3908.82,2.1178839230747526
505,3911.51,1.8745128044414274
506,3914.19,1.988420686249118
507,3916.8799999999997,2.0568685676157927
508,3919.5600000000004,1.8805154494234837
509,3922.2400000000002,1.9386393312311745
510,3924.93,1.9787502125978491
511,3927.61,1.7512790944055399
512,3930.2999999999997,1.7481619757722144
513,3932.98,1.921300857579905
514,3935.67,1.7801657389465797
515,3938.35,1.6190366207542706
516,3941.04,1.8056115021209453
517,3943.72,1.9888623839286361
518,3946.4,2.096881265736327
519,3949.09,1.8252831471030013
520,3951.77,1.857847028910692
521,3954.46,2.118986910277367
522,3957.1400000000003,1.8930727920850574
523,3959.83,1.7579386734517324
524,3962.51,1.877847555259423
525,3965.19,1.6094814370671138
526,3967.8799999999997,1.7986133184337882
527,3970.5600000000004,1.725718200241479
528,3973.25,1.6602600816081536
529,3975.93,1.6355939634158445
530,3978.62,1.399668844782519
531,3981.2999999999997,1.64659372659021
532,3983.9900000000002,1.7362676079568846
533,3986.67,1.7985014897645752
534,3989.35,1.971862371572266
535,3992.04,2.1529912529389406
536,3994.72,2.1338831347466316
537,3997.4100000000003,2.056978016113306
538,4000.09,1.9651918979209968
539,4002.78,2.2009947792876714
540,4005.46,2.0803166610953623
541,4008.1499999999996,1.9645185424620368
542,4010.8300000000004,2.0702024242697274
543,4013.51,2.3385773060774184
544,4016.2,2.1983291874440933
545,4018.88,2.2834570692517837
546,4021.5699999999997,2.1340969506184586
547,4024.2499999999995,2.0243088324261493
548,4026.94,2.010523713792824
549,4029.62,2.1027625956005145
550,4032.2999999999997,2.1158794774082055
551,4034.99,2.04453135877488
552,4037.67,1.8615112405825707
553,4040.36,2.0033021219492455
554,4043.04,2.042756003756936
555,4045.73,1.9772968851236108
556,4048.41,1.9086257669313016
557,4051.1000000000004,1.9560706482979762
558,4053.78,2.117985530105667
559,4056.46,2.256452411913358
560,4059.15,2.0330832932800327
561,4061.8300000000004,2.076760175087723
562,4064.52,2.1334290564543976
563,4067.2000000000003,2.1127639382620886
564,4069.89,2.072974819628763
565,4072.5699999999997,2.057643701436454
566,4075.2500000000005,2.0977645832441447
567,4077.94,2.0879794646108194
568,4080.62,2.18399634641851
569,4083.31,2.1464302277851846
570,4085.99,2.0889831095928755
571,4088.6800000000003,2.19821399095955
572,4091.36,2.0972038727672406
573,4094.05,1.9888507541339155
574,4096.7300000000005,1.9862996359416063
575,4099.41,2.152770517749297
576,4102.1,2.127205399115972
577,4104.78,1.9567422809236623
578,4107.469999999999,1.9747391622903372
579,4110.150000000001,2.001636044098028
580,4112.84,2.1532059254647025
581,4115.5199999999995,1.9971898072723933
582,4118.2,2.078315689080084
583,4120.889999999999,2.0361935704467586
584,4123.57,2.0579784522544493
