,lambda (Angstroms),Total Flux (erg/s/cm^2/Angstrom)
0,101.99,0.007774003658473309
1,103.89,0.009100801600128066
2,104.712855,0.009675413352493233
3,106.06,0.008890485945967934
4,108.03,0.007742645925814704
5,110.03999999999999,0.006571499613992242
6,113.91,0.004316605924622239
7,117.91,0.001985966557199325
8,120.22644299999999,0.0006362713972110379
9,120.94000000000001,0.0006170345275015829
10,124.89999999999999,0.0005102728553283212
11,126.92999999999999,0.0004555440258328636
12,128.1,0.00042400093248142243
13,131.09,0.0003433907343172949
14,132.0,0.000318859170369952
15,134.14000000000001,0.00026116521101037557
16,136.95000000000002,0.00018541200835462388
17,138.038426,0.00015606871351243385
18,140.14000000000001,0.00015407017386967736
19,143.07999999999998,0.00015131999924905123
20,147.08,0.00014761367905901567
21,150.86,0.0001440479671967821
22,155.07999999999998,0.00014006964373894465
23,158.489319,0.00013686333952576507
24,159.06,0.00013603512356817762
25,162.02,0.00013174172760575597
26,166.17,0.00012572981364695544
27,170.04999999999998,0.000120113899801619
28,172.81,0.00011612923745287447
29,176.83,0.00011032200590796402
30,180.12,0.00010556783891797514
31,181.970086,0.00010289894052126599
32,182.21,0.00010301679197755711
33,186.02,0.00010490123789276127
34,190.79,0.00010727004738108774
35,193.89,0.00010881842430054518
36,197.95,0.00011084268559312495
37,202.1,0.00011292496761755993
38,204.91,0.00011434796312326171
39,208.929613,0.00011632804243316853
40,210.17000000000002,0.00011990141999443572
41,216.04999999999998,0.00013700475380099076
42,220.07,0.00014867430351567647
43,223.13,0.0001575315797313327
44,226.76000000000002,0.00016811503155578778
45,229.91,0.00017817958813072795
46,234.19,0.00019243361243890075
47,239.88329199999998,0.00021034315538947986
48,240.19,0.0002097087325157747
49,245.79,0.00019660062689788886
50,252.08999999999997,0.00018270391620276737
51,256.78,0.00017076672638528806
52,259.75,0.0001651402861575878
53,263.98,0.00015595582359086333
54,268.88,0.00014487655105021333
55,273.88,0.00013349017149852957
56,275.42287,0.00012997930992878333
57,278.97,0.0001391809298443121
58,284.16,0.00015272790038546304
59,290.11,0.00016771465977271694
60,296.19,0.0001836590605415411
61,301.0,0.00019588983165964052
62,308.01,0.000214306261542775
63,316.227766,0.00023586039821911478
64,318.09999999999997,0.00023261509893416276
65,327.77,0.00021561992905648011
66,337.72999999999996,0.00019792704246064573
67,347.98999999999995,0.00017960192132879225
68,356.91,0.00016395669779115725
69,363.078055,0.00015331143538416182
70,366.07,0.0001579589638832932
71,374.6,0.00017071460725466567
72,385.09000000000003,0.00018566893387432534
73,394.96999999999997,0.00020142661494222197
74,405.09999999999997,0.00021709900484280848
75,413.58,0.000229770196447643
76,416.86938299999997,0.00023457282855684076
77,422.23999999999995,0.00023932609143167868
78,430.09,0.000246443601560856
79,441.13,0.0002571970599718263
80,451.4,0.00026669758603891557
81,459.78999999999996,0.0002742615262534119
82,470.5,0.00028462431794557615
83,478.630092,0.00029300977710834084
84,480.36,0.0002913459023941163
85,490.42,0.0002808445651770511
86,499.53,0.0002731340822200467
87,506.47999999999996,0.0002887459742122333
88,512.35,0.00047758463367901527
89,519.47,0.0004898260806983489
90,530.35,0.0005028367424357574
91,540.21,0.00048431461401028403
92,549.5408739999999,0.0006366574455128072
93,550.26,0.000648946945326895
94,560.48,0.0007623694968181182
95,569.59,0.0008635814813665568
96,580.18,0.0008318939551720415
97,589.61,0.0010394181644247063
98,600.5699999999999,0.0010953031605444525
99,610.3299999999999,0.0013238918140233507
100,620.25,0.0015105657798543618
101,630.32,0.0016681495385154788
102,630.957344,0.0016694412333441544
103,640.57,0.0016972298666590223
104,649.48,0.001982808175644719
105,658.5100000000001,0.0021580230174113677
106,664.61,0.0023032332671097688
107,675.4,0.0023481852563303823
108,684.8,0.002357843657504967
109,694.3299999999999,0.0031146855525255833
110,705.61,0.003007969633935085
111,715.42,0.003660904438777923
112,724.43596,0.0038358079261489584
113,725.3800000000001,0.003853919788577563
114,735.47,0.004046419884301024
115,745.6999999999999,0.004648856497705485
116,754.33,0.0050238544804699515
117,764.8299999999999,0.005394824306544911
118,775.47,0.0059371876503008705
119,784.45,0.006477394427267837
120,795.3599999999999,0.006790284983694294
121,804.57,0.007150132682565759
122,815.76,0.007462673274354216
123,825.2099999999999,0.008273845717821679
124,831.763771,0.007273803172823152
125,834.76,0.006813917886039746
126,844.4300000000001,0.008803659355892092
127,854.2099999999999,0.009140040136156411
128,864.1,0.009904605226832699
129,874.11,0.010711781474322045
130,884.23,0.011746064032223363
131,894.47,0.012479862746937742
132,904.82,0.01253059377206409
133,915.3,0.020014714800404586
134,925.9000000000001,0.14788000198555815
135,934.47,0.33236042835129076
136,945.29,0.6464192701572683
137,954.03,0.9278157919118194
138,954.992586,0.9383063503439263
139,965.0799999999999,1.0482473184425203
140,974.01,0.1595207498836333
141,985.2900000000001,0.8860777527566185
142,994.41,0.9494411657177553
143,1005.92,1.410728346220243
144,1015.23,1.3628154407014035
145,1024.62,0.5774373274015213
146,1034.1,0.9450606053479662
147,1046.0800000000002,1.8553254401368282
148,1055.76,1.8214794986306664
149,1065.53,1.4303065483708317
150,1075.3799999999999,1.7235915903299543
151,1085.3400000000001,1.3503186215901433
152,1095.3799999999999,1.8215056450692897
153,1096.4782,1.812618899518599
154,1105.51,1.7395307888334344
155,1115.74,1.6650866746609672
156,1126.07,1.4908385300469313
157,1133.8700000000001,1.924969155604581
158,1144.36,1.7435179622840358
159,1154.95,1.8639157385219216
160,1165.64,1.9293744843182388
161,1173.72,1.3165540246394964
162,1184.58,1.885476718685147
163,1195.54,1.289537382289229
164,1203.83,0.9087238586831928
165,1214.97,0.6059745674924514
166,1226.21,1.2776900458601417
167,1234.71,1.965229458326811
168,1246.13,2.1548399818996775
169,1254.77,2.048406351748151
170,1258.92541,1.9450431106280168
171,1266.38,1.7596172481895744
172,1275.1599999999999,2.2667814383019387
173,1283.9999999999998,2.3626856297134764
174,1295.88,1.834051886949796
175,1304.86,1.838283081392738
176,1313.9,2.3089582771348534
177,1326.06,2.189838540433982
178,1335.25,1.9338457394240307
179,1344.5099999999998,2.3089189399297814
180,1353.83,2.235669141734706
181,1366.3600000000001,1.9879824130454034
182,1375.8300000000002,2.0864416180982612
183,1385.36,2.1106248244502916
184,1394.97,1.8130730325345537
185,1404.64,1.8941652419179893
186,1414.3700000000001,1.947221452600598
187,1424.1799999999998,1.9971306650154377
188,1434.05,1.9971508787294507
189,1440.67,2.1009370220715753
190,1445.43977,2.1183779866020025
191,1447.32,2.1252531595203834
192,1454.0,2.0625732809163404
193,1464.0800000000002,1.902919464100658
194,1474.23,1.9029096485570887
195,1484.4399999999998,1.9293628341039024
196,1494.73,1.95622002110456
197,1505.0900000000001,1.8340742093773308
198,1512.04,1.62713433568001
199,1515.53,1.7434893991039455
200,1526.03,1.7038065899209431
201,1536.61,1.4771377821917844
202,1543.7,1.60481691103869
203,1554.3999999999999,1.5220411054902971
204,1565.1799999999998,1.5646523013957478
205,1576.03,1.661172498573312
206,1583.3,1.7354906306913664
207,1594.28,1.7636618302314266
208,1605.3300000000002,1.7394710310436003
209,1616.46,1.7515352333096175
210,1623.92,1.6650403688805508
211,1635.1699999999998,1.771806573327334
212,1646.51,1.7881807794096913
213,1654.1100000000001,1.6727269175248514
214,1659.58691,1.7378243458536786
215,1665.5700000000002,1.8089388110989717
216,1673.26,1.6535668316724195
217,1677.12,1.8047333439498592
218,1684.86,1.872501371159025
219,1696.54,1.7636709212627797
220,1704.3700000000001,1.6920999604162383
221,1716.1799999999998,1.5864395277728602
222,1724.1100000000001,1.579148580197755
223,1736.0600000000002,1.6765581661343876
224,1744.0700000000002,1.6346342291764313
225,1756.1599999999999,1.7315128336930747
226,1764.27,1.608512910006555
227,1776.49,1.6234175317760653
228,1784.6999999999998,1.6611886213609817
229,1797.0700000000002,1.7515592630376464
230,1805.3600000000001,1.751564363239712
231,1813.69,1.5937674687503518
232,1826.2700000000002,1.6459701382970326
233,1834.7,1.5791532570791091
234,1843.16,1.4535423798426161
235,1855.94,1.4369060759321695
236,1864.51,1.4771582132942565
237,1873.1100000000001,1.6196883546377745
238,1886.1,1.4669910785973437
239,1894.8000000000002,1.3881482332122979
240,1903.55,1.5011593944629702
241,1905.46072,1.4899494146904166
242,1916.74,1.4237717184932577
243,1925.5900000000001,1.3913562045211918
244,1934.48,1.4636276837063147
245,1943.41,1.5011501560486258
246,1956.88,1.3881328517318208
247,1965.9099999999999,1.525557306967103
248,1974.99,1.5755407536488706
249,1984.1000000000001,1.4771561951985297
250,1993.26,1.436890628194674
251,2007.08,1.4942652640032676
252,2016.3400000000001,1.440226679892383
253,2025.6499999999999,1.522053087227984
254,2034.9999999999998,1.4139474877207734
255,2044.39,1.4602268813707513
256,2053.83,1.4009662664672147
257,2063.31,1.4139366447208663
258,2072.83,1.5011450161317064
259,2077.61,1.3945381984157208
260,2087.2,1.4568825578516404
261,2096.83,1.3753879104447486
262,2106.51,1.4041782544843424
263,2116.23,1.4139345916811246
264,2126.0,1.433573920324392
265,2135.82,1.3564982404141455
266,2145.6800000000003,1.359624553661087
267,2155.58,1.4139268600652168
268,2165.5299999999997,1.3817111579158323
269,2175.52,1.3690694489236361
270,2185.57,1.3286777296672228
271,2187.7616199999998,1.3409086816032947
272,2195.65,1.3849344306664593
273,2205.79,1.3533988136921118
274,2215.97,1.3044402021734869
275,2226.2000000000003,1.257259597474515
276,2236.48,1.3165129995951963
277,2246.7999999999997,1.2747524071716
278,2257.17,1.231475821567657
279,2267.5899999999997,1.260156242783367
280,2272.81,1.2806579547551526
281,2283.3,1.298478385518377
282,2293.84,1.2344178231012546
283,2304.4300000000003,1.2293412675037851
284,2315.0699999999997,1.179962718725969
285,2325.76,0.9508204767678058
286,2336.49,1.120219640265365
287,2347.27,1.1053801105825776
288,2352.69,1.1497858498329758
289,2363.55,1.093493331061633
290,2374.46,1.1067168191099437
291,2385.41,1.0598773126139767
292,2396.43,1.1128988156655242
293,2407.49,1.0658073241727941
294,2413.04,1.0834190811542903
295,2424.17,1.1117305992090747
296,2435.36,1.0671591254474428
297,2446.6099999999997,1.1154306598693946
298,2452.25,1.0953414291262662
299,2463.56,1.090870971731802
300,2474.94,1.0592245238848519
301,2486.36,1.0944980814936243
302,2497.84,1.0243356472859804
303,2503.6000000000004,1.1054754329100196
304,2511.88643,1.0529269655648745
305,2515.15,1.0322303908452095
306,2526.76,1.0280007779799414
307,2532.58,1.030644470755492
308,2544.2799999999997,1.0053808531393302
309,2556.02,1.0460922334116605
310,2567.82,1.0346236105167284
311,2573.74,1.073748298013508
312,2585.6200000000003,1.0644746708955595
313,2597.55,1.0601230411382254
314,2603.54,1.029131724939866
315,2615.56,1.0226240904316384
316,2627.63,1.0373874532840255
317,2633.69,1.0424701333905264
318,2645.8399999999997,1.082172492019897
319,2658.06,1.077770846954128
320,2664.18,1.0248245238933669
321,2676.48,1.0516588746045814
322,2682.6499999999996,1.0423115489044348
323,2695.0299999999997,1.014450895392633
324,2707.4700000000003,1.022054238713569
325,2713.7099999999996,0.9967564093182828
326,2726.24,0.9973240478883251
327,2732.52,1.0255489163815308
328,2745.14,0.9488418502006795
329,2757.81,0.951564581380443
330,2764.17,0.965066245650632
331,2776.92,0.992686572607379
332,2783.33,0.9815750342381828
333,2796.17,0.8713215564440363
334,2802.62,0.9147563159633318
335,2815.55,0.9852428334182917
336,2822.04,0.983248690826079
337,2835.07,0.9438766030022683
338,2848.1600000000003,0.9336249120111952
339,2854.7200000000003,0.9338737657238432
340,2867.9,0.9583952699818764
341,2874.51,0.943345521055139
342,2884.0315,0.9452983251024061
343,2887.7799999999997,0.9460673143874446
344,2894.4399999999996,0.9354917071925647
345,2907.7999999999997,0.9600602927595923
346,2927.9500000000003,0.9390357709912994
347,2948.25,0.9248371490609597
348,2968.6800000000003,0.9235433269901794
349,2989.26,0.9158920047573522
350,3009.98,0.9146320823732813
351,3030.85,0.9091419598271636
352,3051.86,0.8995381371298021
353,3073.0099999999998,0.8900676142811971
354,3087.19,0.8824639989623686
355,3108.59,0.8711568758436853
356,3130.1400000000003,0.8620052525629551
357,3151.84,0.8568796291201782
358,3166.39,0.8456503134016343
359,3188.34,0.8233664896887793
360,3210.44,0.8279606658138774
361,3232.6899999999996,0.8155185417769287
362,3247.61,0.8141767256586692
363,3270.1200000000003,0.8130763013408392
364,3292.79,0.8045784768501594
365,3307.9900000000002,0.7995303604294124
366,3311.31121,0.8028828432002106
367,3323.26,0.8149439100821113
368,3330.92,0.8040463518923134
369,3338.6,0.7896101932894873
370,3346.29,0.789896834480147
371,3354.01,0.7721616750512645
372,3361.74,0.783140015415868
373,3369.49,0.7620743553674432
374,3377.26,0.7553203949059902
375,3385.0400000000004,0.7821241342380232
376,3392.85,0.7841954729505138
377,3400.67,0.8008721114564903
378,3408.5,0.7633347497559528
379,3416.36,0.774236087435873
380,3424.2400000000002,0.7834655247027649
381,3432.13,0.7873308617631427
382,3440.04,0.7785880984104925
383,3447.9700000000003,0.7576397346448139
384,3455.92,0.7457653704661072
385,3463.89,0.7357982058743724
386,3471.8700000000003,0.7411273410761233
387,3479.88,0.7379927756583321
388,3487.9,0.7416544100340267
389,3495.94,0.7487730439966931
390,3504.0,0.7336405775463313
391,3512.0800000000004,0.7305507106829413
392,3520.17,0.7358392436130373
393,3528.29,0.7361207759235909
394,3536.42,0.7449067080276305
395,3544.57,0.7434437397186419
396,3552.75,0.748849770790111
397,3560.93,0.74739090186158
398,3569.14,0.7255882323135068
399,3577.3700000000003,0.6996005623524053
400,3585.62,0.6918294919782757
401,3593.8799999999997,0.695291221397632
402,3602.17,0.7117191501974461
403,3610.4700000000003,0.708710278790746
404,3618.79,0.7138762069710177
405,3627.14,0.7409190345317471
406,3635.5,0.7259936618859625
407,3643.88,0.7312815888271496
408,3652.2799999999997,0.7181824153553086
409,3660.7000000000003,0.7300995414704393
410,3669.1400000000003,0.7220066671725418
411,3677.59,0.7156665926681304
412,3678.15,0.6859317811033409
413,3680.89,0.6640512245184785
414,3683.63,0.6745852679336161
415,3686.37,0.6995165113487536
416,3689.1099999999997,0.6830452547638911
417,3691.85,0.6833301981790288
418,3694.5899999999997,0.7042352415941663
419,3697.33,0.7053336850093038
420,3700.08,0.6870283282179274
421,3702.82,0.663765071633065
422,3705.56,0.6818231150482025
423,3708.2999999999997,0.69719695846334
424,3711.04,0.6977259018784775
425,3713.7799999999997,0.7680458452936152
426,3716.52,0.9803064887087527
427,3719.2599999999998,1.5702360321238902
428,3721.9999999999995,2.7922289755390275
429,3724.7400000000002,4.084665918954165
430,3727.48,4.312423862369303
431,3730.23,3.2619638055779263
432,3732.97,1.9452137489930639
433,3735.71,1.1213096924082016
434,3738.45,0.845278235823339
435,3741.1899999999996,0.7890717792384766
436,3743.93,0.7638155226536142
437,3746.6699999999996,0.7203795660687519
438,3749.4100000000003,0.7157841094838894
439,3752.15,0.729287052899027
440,3754.8900000000003,0.7821186963141644
441,3757.63,0.8270195397293021
442,3760.3799999999997,0.8334007829379255
443,3763.12,0.816400726353063
444,3765.8599999999997,0.7556797697682007
445,3768.6,0.7043131131833382
446,3771.34,0.7401035565984757
447,3774.0800000000004,0.8039162000136133
448,3776.82,0.8399101434287508
449,3779.56,0.8905048868438885
450,3782.3,0.893026830259026
451,3785.04,0.8770436736741636
452,3787.78,0.872570217089301
453,3790.5299999999997,0.8302685602979246
454,3793.2700000000004,0.7797967037130621
455,3796.01,0.7520189471281997
456,3798.75,0.7249732905433374
457,3801.4900000000002,0.7767066339584748
458,3801.8939600000003,0.7876136045883977
459,3804.23,0.8506869874255157
460,3806.9700000000003,0.8842813426307833
461,3809.71,0.9129546978360507
462,3812.45,0.9319482530413181
463,3815.19,0.9368698082465856
464,3817.94,0.8971708632883686
465,3820.6800000000003,0.8659769184936361
466,3823.42,0.8621135736989036
467,3826.1600000000003,0.845967728904171
468,3828.9,0.7759738841094385
469,3831.64,0.7403467393147061
470,3834.38,0.7369306945199735
471,3837.12,0.755964749725241
472,3839.86,0.7941142049305084
473,3842.6,0.8221774601357759
474,3845.3399999999997,0.8763919153410434
475,3848.09,0.8902563703828265
476,3850.83,0.9297072255880939
477,3853.57,0.9435354807933615
478,3856.31,0.9653356359986288
479,3859.05,0.9687522912038964
480,3861.79,1.018859346409164
481,3864.5299999999997,1.1083353016144313
482,3867.27,1.1548622568196987
483,3870.0099999999998,1.0868212120249663
484,3872.75,0.9883983672302338
485,3875.49,0.9236915224355011
486,3878.2400000000002,0.8947703774772842
487,3880.98,0.8639832326825517
488,3883.72,0.8547919878878192
489,3886.46,0.9085589430930867
490,3889.2,0.8825707982983542
491,3891.94,0.8286825535036216
492,3894.68,0.8549968087088892
493,3897.4199999999996,0.8598369639141565
494,3900.16,0.876471719119424
495,3902.9,0.8965633743246915
496,3905.6400000000003,0.9132795295299589
497,3908.39,0.925760984571742
498,3911.13,0.9408909397770094
499,3913.87,0.957200194982277
500,3916.6099999999997,0.9104700501875445
501,3919.35,0.9015227053928119
502,3922.0899999999997,0.9086812605980794
503,3924.8300000000004,0.8756570158033469
504,3927.57,0.8423887710086144
505,3930.3100000000004,0.8375086262138818
506,3933.05,0.8562988814191493
507,3935.79,0.8722828366244169
508,3938.54,0.8986739916661998
509,3941.2799999999997,0.9072558468714673
510,3944.0199999999995,0.9062394020767348
511,3946.76,0.8954620572820022
512,3949.5000000000005,0.8979434124872697
513,3952.2400000000002,0.9138053676925372
514,3954.98,0.8831400228978047
515,3957.7200000000003,0.8469841781030722
516,3960.46,0.8102995333083396
517,3963.2000000000003,0.8230704885136071
518,3965.94,0.8395424437188745
519,3968.69,0.8810224987606576
520,3971.4300000000003,0.7964687539659251
521,3974.17,0.7928493091711926
522,3976.9100000000003,0.7802417643764601
523,3979.65,0.8332360195817274
524,3982.39,0.866545674786995
525,3985.13,0.8780151299922625
526,3987.87,0.9036379851975299
527,3990.61,0.8927792404027974
528,3993.35,0.9375174956080649
529,3996.1000000000004,0.9362116506498479
530,3998.84,0.9238075058551155
531,4001.58,0.9155111610603829
532,4004.32,0.9029849162656504
533,4007.06,0.9146984714709178
534,4009.8,0.9225889266761853
535,4012.54,0.9136418818814529
536,4015.2799999999997,0.9325947370867202
537,4018.02,0.9050202922919878
538,4020.7599999999998,0.9169779474972551
539,4023.5,0.9138874027025227
540,4026.25,0.9377568577443058
541,4028.9900000000002,0.9036752129495732
542,4031.73,0.9006252681548407
543,4034.47,0.9190087233601081
544,4037.21,0.9022528785653756
545,4039.95,0.9218157337706432
546,4042.69,0.9203520889759106
547,4045.43,0.9237280441811782
548,4048.1699999999996,0.9131947993864455
549,4050.91,0.909128054591713
550,4053.6499999999996,0.9038820097969804
551,4056.4,0.9356009648387635
552,4059.14,0.902170020044031
553,4061.88,0.9368624752492984
554,4064.62,0.9364153304545659
555,4067.3599999999997,0.9508130856598335
556,4070.1,0.9144539408651009
557,4072.8399999999997,0.8877336960703684
558,4075.58,0.9148613512756358
559,4078.3199999999997,0.9049381064809033
560,4081.0600000000004,0.8918018616861707
561,4083.8,0.8929003168914382
562,4086.5499999999997,0.8559267719332213
563,4089.29,0.8503959271384888
564,4092.0299999999997,0.8191611823437562
565,4094.77,0.8384394375490238
566,4097.51,0.9104675927542912
567,4100.25,0.9757442479595587
568,4102.990000000001,0.9538230031648262
569,4105.7300000000005,0.8513333583700937
570,4108.47,0.7913442135753611
571,4111.21,0.8280703687806286
572,4113.95,0.8246136239858961
573,4116.7,0.8536080790276791
574,4119.44,0.8662163342329466
575,4122.179999999999,0.8484842894382141
