,lambda (Angstroms),Total Flux (erg/s/cm^2/Angstrom)
0,102.07000000000001,0.017456121703517614
1,103.97,0.020414122551673883
2,104.712855,0.021570631364343933
3,105.9,0.020028536464371752
4,108.12,0.017144769896542636
5,109.88,0.01485854874371461
6,114.0,0.009506705997991468
7,118.01,0.004297762052074454
8,120.22644299999999,0.0014188321944732611
9,121.02999999999999,0.0013706139928025838
10,125.0,0.0011321518784959614
11,127.03,0.001010217701178721
12,127.91,0.0009573797791618884
13,130.89,0.0007784042814617042
14,132.1,0.0007058556579760584
15,133.94,0.0005953794174954071
16,137.06,0.00040826438346299864
17,138.038426,0.00034954631085678693
18,139.93,0.0003457083712396805
19,142.86,0.000343243035843895
20,146.85999999999999,0.0003450580739144949
21,150.98,0.00033883573189721276
22,154.85,0.0003337916363130181
23,158.489319,0.0003294205683727515
24,158.82,0.0003286468043349172
25,162.15,0.0003207334566647962
26,165.92,0.00031322033464787263
27,170.17999999999998,0.0003039505648356459
28,172.94,0.00029895955847842855
29,176.97,0.0002912173625293033
30,179.85000000000002,0.0002861186958956852
31,181.93,0.0002825012744380722
32,181.970086,0.00028243206570916976
33,186.17000000000002,0.00029328786590251764
34,190.94,0.00030717400947287345
35,194.04999999999998,0.0003168199095365644
36,198.10999999999999,0.0003288239538962383
37,201.79,0.0003416436285375191
38,205.07000000000002,0.00035196396136996503
39,208.929613,0.0003615781520740078
40,209.85,0.00036877134868002837
41,216.22,0.0004297897592445973
42,220.23999999999998,0.0004673567847500237
43,222.79,0.0004905071770482421
44,226.94,0.000530291527259068
45,230.09,0.0006429708412745141
46,233.83,0.0008516536366452344
47,239.83,0.0010184161538175128
48,239.88329199999998,0.0010187218117958027
49,245.98,0.000982817195203445
50,251.70999999999998,0.0010169466166704427
51,256.97999999999996,0.0009135635495030916
52,259.96,0.0009926170323951776
53,264.18,0.0010197509759537692
54,269.09,0.0010183484524638844
55,274.1,0.001012124361285814
56,275.42287,0.0010105649222803387
57,279.19,0.0010470219849074583
58,283.72999999999996,0.0010937427485042685
59,289.67,0.0011162962726815931
60,295.74,0.0011884375546271082
61,301.23,0.001230531155760696
62,308.25,0.0013064485752429884
63,316.227766,0.0013928524197854095
64,318.35,0.0013952264287089033
65,328.02,0.0013896364895500466
66,337.99,0.001375069515670646
67,348.26000000000005,0.0013532158070707016
68,357.19,0.0013372768935558524
69,363.078055,0.0013312186299165338
70,366.36,0.001351835360826393
71,374.89000000000004,0.001391237070839183
72,385.39,0.0014057529518631331
73,395.28000000000003,0.001486005993132359
74,405.42,0.0015385271982354877
75,413.90999999999997,0.001570810722034853
76,416.86938299999997,0.001578359957801573
77,421.6,0.0015843633477309795
78,430.43,0.0016038892849927979
79,441.46999999999997,0.001635332513460576
80,450.72,0.0016479790083271466
81,460.16,0.001661027826872058
82,469.79,0.0016770099690953098
83,478.630092,0.0017008538901960501
84,479.63,0.0016991075215825743
85,489.66999999999996,0.0016536034690951152
86,499.93,0.001640281791951556
87,505.71,0.0016131632896231182
88,511.57,0.0016734341056015532
89,519.88,0.001652479419727969
90,529.5500000000001,0.0016174441450712226
91,539.39,0.0015586932968165814
92,549.42,0.0015620734545407633
93,549.5408739999999,0.001562245199270845
94,559.64,0.001593768039854781
95,570.04,0.001618467473361259
96,580.64,0.0015820017998197844
97,590.0699999999999,0.0016247261525088312
98,599.66,0.0015997782195595162
99,609.4,0.0015339632063242367
100,619.31,0.001683426702098198
101,629.3700000000001,0.0016905591175861946
102,630.957344,0.0016902127762707638
103,639.6,0.0017049777053723975
104,649.99,0.0017670003843138994
105,657.51,0.0017980187496305592
106,665.13,0.0018462477182094087
107,674.38,0.0018531145199619488
108,685.34,0.0018320686374979315
109,694.8699999999999,0.0020385131283846025
110,704.5400000000001,0.0019834624638383393
111,715.99,0.0021656385373590515
112,724.43596,0.00220216569038927
113,725.95,0.0022079918271535057
114,734.35,0.0022500839312817175
115,744.5699999999999,0.0023890413579710423
116,754.9300000000001,0.002472326886395837
117,765.43,0.002492822516556102
118,774.29,0.0026826930978151448
119,785.0600000000001,0.0027878396384652454
120,794.15,0.002874281958289703
121,805.1999999999999,0.002964824702410744
122,814.53,0.0030337370537817225
123,825.86,0.003233953001373704
124,831.763771,0.00296821913679001
125,835.4200000000001,0.002796332255724032
126,845.09,0.0033214769906063204
127,854.88,0.003373702097586424
128,864.78,0.0035451652956561917
129,874.79,0.003728445584815624
130,884.92,0.003972521246072871
131,895.17,0.004133090279427934
132,905.53,0.00410192540387266
133,916.02,0.006082602181423354
134,924.5,0.039228950476335636
135,935.2,0.08593116115505751
136,946.0300000000001,0.16565058348688536
137,954.78,0.2398154793690177
138,954.992586,0.24020147532119177
139,965.84,0.2599098355614988
140,974.78,0.038562087005546995
141,986.06,0.20136655104233261
142,995.1899999999999,0.2269323712866458
143,1004.4,0.35534827418370213
144,1016.03,0.35047605232623913
145,1025.43,0.15317911402356046
146,1034.92,0.23273565620521786
147,1044.49,0.47814448103961843
148,1054.1599999999999,0.46939068418994795
149,1063.91,0.3553421699930206
150,1076.23,0.43609329851546735
151,1086.1899999999998,0.33011493878199083
152,1096.24,0.46508985953285037
153,1096.4782,0.46453011937086675
154,1103.84,0.4472274116326272
155,1114.05,0.4241726823897926
156,1124.36,0.3763481852797413
157,1134.76,0.5029333270891948
158,1145.26,0.45240500103143144
159,1155.86,0.4892036071064514
160,1163.8700000000001,0.5052353709423862
161,1174.64,0.3338816616431376
162,1185.51,0.4903220844766722
163,1193.73,0.31520260579145176
164,1204.77,0.21515031325071776
165,1215.92,0.1588156460560453
166,1224.35,0.33154762484966965
167,1235.68,0.526542335494007
168,1244.24,0.5839858260602494
169,1255.76,0.5500522077568748
170,1258.92541,0.5183224637547705
171,1264.46,0.462848326655282
172,1276.16,0.6257438914553248
173,1285.01,0.66278151867587
174,1293.91,0.4993813483100906
175,1305.89,0.49027182662671565
176,1314.94,0.6432432635019625
177,1324.05,0.6143184032736196
178,1336.3,0.5289779946240918
179,1345.5700000000002,0.6567137421195104
180,1354.8899999999999,0.6344179920286043
181,1364.29,0.5564352457995788
182,1373.74,0.5921012019842288
183,1386.4499999999998,0.5989563155405145
184,1396.0600000000002,0.5181043794489258
185,1405.74,0.5387886467364826
186,1415.48,0.5488019169204499
187,1425.3,0.5719994909662977
188,1435.18,0.565463067908556
189,1441.8,0.6030964874791785
190,1445.43977,0.6107814418405514
191,1448.46,0.6171582855496516
192,1455.14,0.5961984561929224
193,1465.2299999999998,0.5425346649939111
194,1475.38,0.5437597762258273
195,1485.61,0.5590050906989803
196,1495.91,0.5720117080082154
197,1506.2800000000002,0.5375687281535327
198,1513.23,0.4692841097359779
199,1516.72,0.5098315511349323
200,1523.72,0.4902889347431504
201,1534.2800000000002,0.4182947625864051
202,1544.9199999999998,0.47255579367089656
203,1555.63,0.4440633275914702
204,1566.41,0.45127626434812607
205,1573.64,0.4846523572748998
206,1584.5500000000002,0.5145617992985654
207,1595.53,0.5265425441583133
208,1606.59,0.5169297922592978
209,1614.01,0.520510092884009
210,1625.19,0.48804924584684867
211,1636.46,0.5253205024560798
212,1644.01,0.5350936083478006
213,1655.4099999999999,0.48914987022404155
214,1659.58691,0.5076751997507678
215,1666.88,0.5400231973097244
216,1670.73,0.4703923364354691
217,1678.4399999999998,0.5450250176457269
218,1686.1799999999998,0.5746658077322888
219,1693.97,0.536322012612692
220,1705.71,0.5122168862065213
221,1713.5800000000002,0.48246921475706966
222,1725.46,0.4802660297736534
223,1733.43,0.5181295879118835
224,1745.44,0.5052144413924534
225,1753.5,0.545047726159597
226,1765.65,0.4937138210629212
227,1773.8000000000002,0.5086894324589784
228,1786.1,0.5193708717438251
229,1794.3400000000001,0.5616137097687958
230,1806.78,0.5564939904763969
231,1815.1200000000001,0.5086991580890491
232,1823.5000000000002,0.521743637536774
233,1836.14,0.4983011774197386
234,1844.6100000000001,0.454491183496377
235,1853.13,0.4565765043668563
236,1865.97,0.4736852034251842
237,1874.59,0.5181736538833451
238,1883.24,0.4747918132178106
239,1896.29,0.45659457441027007
240,1905.04,0.4847304633324172
241,1905.46072,0.4838413578464387
242,1913.84,0.4661277920526075
243,1927.1,0.4576540348409807
244,1936.0,0.4693524404832523
245,1944.94,0.49487633086998356
246,1953.91,0.4629202098150596
247,1967.46,0.5122463420007652
248,1976.54,0.5265894789931053
249,1985.6599999999999,0.4971499007299049
250,1994.83,0.48248670339727917
251,2004.03,0.4971446946229981
252,2013.2900000000002,0.47806806296540655
253,2027.2399999999998,0.5017073425957087
254,2036.6000000000001,0.47585317279926626
255,2046.0,0.4982684877472835
256,2055.44,0.4714732874397603
257,2064.9300000000003,0.4736350680628117
258,2074.46,0.5133926334303228
259,2079.24,0.49254521039325067
260,2084.04,0.5145690797284085
261,2093.66,0.48465601077095366
262,2103.3199999999997,0.4857975265579586
263,2113.0299999999997,0.4925299232755381
264,2122.7799999999997,0.4982421047375772
265,2132.58,0.45965996713019086
266,2147.36,0.47691443020803065
267,2157.27,0.4959448506479084
268,2167.23,0.47801015201836067
269,2177.23,0.47469843813327256
270,2187.28,0.46925890517875907
271,2187.7616199999998,0.4703672056882858
272,2197.38,0.49250754623415033
273,2207.52,0.4780076295871485
274,2212.61,0.45023237734521165
275,2222.82,0.43695798198368413
276,2233.08,0.4725405018260668
277,2243.3900000000003,0.4502387368723599
278,2253.75,0.42703448712256303
279,2264.15,0.4369651495358945
280,2274.6,0.45127312715313617
281,2285.1,0.4671575199742881
282,2295.65,0.43799932799935026
283,2306.24,0.44115984818754067
284,2316.89,0.4185032866204233
285,2327.58,0.3242534372164341
286,2332.95,0.38272937011639474
287,2343.72,0.3681351450386619
288,2354.5299999999997,0.4065376321240574
289,2365.4,0.36663433745414514
290,2376.32,0.38048095798814313
291,2387.29,0.3487175937260514
292,2392.79,0.3745472661561786
293,2403.8399999999997,0.3594438262203432
294,2414.9300000000003,0.3704533984476361
295,2426.08,0.40068468891962117
296,2437.28,0.38543159459551657
297,2442.9,0.41018530351502835
298,2454.17,0.4056218304763981
299,2465.5,0.4001451756824601
300,2476.88,0.3840172360924324
301,2482.59,0.3885126723789826
302,2494.0499999999997,0.36353445711521126
303,2505.56,0.4155277570553502
304,2511.34,0.3603469146273748
305,2511.88643,0.3611431415262789
306,2517.13,0.36878156368862763
307,2522.93,0.3538680811082551
308,2534.5800000000004,0.3638646100631964
309,2546.27,0.35814483431068694
310,2552.14,0.39272664349227543
311,2563.92,0.3768887571480015
312,2575.76,0.40298946374255135
313,2587.65,0.3957377644527877
314,2593.61,0.38769616304261173
315,2605.5899999999997,0.3729193531610836
316,2617.61,0.36621803857210466
317,2623.65,0.387951027747027
318,2635.7599999999998,0.41102030256628364
319,2647.92,0.4549571715012267
320,2654.03,0.47642605243811015
321,2666.2799999999997,0.41606131078128883
322,2672.4199999999996,0.43974368818758414
323,2684.7599999999998,0.4429336359389984
324,2697.1499999999996,0.4153884778060991
325,2703.37,0.4330387457974927
326,2715.8500000000004,0.40332647707282904
327,2722.1099999999997,0.39875614035677176
328,2734.67,0.4224752622172064
329,2747.29,0.35562757701646475
330,2753.63,0.3690107308855058
331,2766.3399999999997,0.3882810350929997
332,2772.7200000000003,0.40757438425458997
333,2785.5099999999998,0.37440517904718223
334,2791.9300000000003,0.2961297235013216
335,2804.82,0.31884380652528677
336,2817.77,0.4005176824880757
337,2824.26,0.434168718704176
338,2837.2999999999997,0.4186018840752005
339,2843.84,0.4026042144069873
340,2856.97,0.3758584691862474
341,2863.55,0.4355435948105834
342,2876.77,0.4448008389980791
343,2883.3999999999996,0.4367626587381015
344,2884.0315,0.4369120995168923
345,2896.71,0.4399138538833576
346,2910.08,0.4903132216820326
347,2930.25,0.46631597310307055
348,2950.56,0.45591282418692175
349,2971.02,0.4688761749095016
350,2991.61,0.4701757253189795
351,3012.35,0.47915897536718605
352,3033.23,0.47935822507820597
353,3047.23,0.4817208913595411
354,3068.3500000000004,0.4875152404925267
355,3089.6200000000003,0.49228178926424093
356,3111.04,0.49704833767468376
357,3132.6,0.4882235857479399
358,3147.06,0.4895250509213761
359,3168.88,0.4953914983684285
360,3190.8399999999997,0.46363634547829424
361,3212.96,0.48684349220280376
362,3227.79,0.4545329564851038
363,3250.1600000000003,0.49973030260749435
364,3272.6899999999996,0.5271925483445288
365,3287.8,0.5213219119524555
366,3310.59,0.5179701570632861
367,3311.31121,0.5180933943299387
368,3318.2200000000003,0.5192736372401584
369,3325.8700000000003,0.5169848850281579
370,3333.54,0.5364501318953417
371,3341.22,0.5077277783021177
372,3348.92,0.555485123788078
373,3356.6400000000003,0.5318032683532226
374,3364.38,0.45799671199755154
375,3372.1400000000003,0.4655224547210648
376,3379.91,0.5308535969841701
377,3387.7000000000003,0.5309321383264598
378,3395.5099999999998,0.5094962787479339
379,3403.34,0.5548890182485922
380,3411.18,0.5026788572888428
381,3419.05,0.5144601949478697
382,3426.9300000000003,0.5253353321464888
383,3434.83,0.5591039684242922
384,3442.75,0.5030321037812798
385,3450.68,0.5208028386778598
386,3458.64,0.5208812721932162
387,3466.61,0.5090991052481646
388,3474.6,0.5344352373822975
389,3482.6099999999997,0.5152058685956147
390,3490.64,0.535852998888116
391,3498.69,0.49105052825980183
392,3506.75,0.5409745571710798
393,3514.84,0.5049983847011341
394,3522.94,0.5424315117707806
395,3531.06,0.5028302379196116
396,3539.2000000000003,0.5463707631476268
397,3547.36,0.5643775874548262
398,3555.54,0.5529106108412101
399,3563.73,0.542904533767186
400,3571.95,0.4986900553119384
401,3580.18,0.4999137763962829
402,3588.44,0.44257819609940396
403,3596.71,0.5129157153421172
404,3605.0,0.5421527336640146
405,3613.31,0.4922668510650965
406,3621.64,0.49238446754536264
407,3629.9900000000002,0.6016501831048131
408,3633.22,0.4700027343930796
409,3635.9599999999996,0.4231917082413304
410,3638.71,0.44458618162917335
411,3641.45,0.5935328554774242
412,3644.19,0.6560675293256749
413,3646.94,0.6743088027135179
414,3649.6800000000003,0.5084202765617688
415,3652.42,0.5447906504100195
416,3655.16,0.5516476242582704
417,3657.91,0.6263942976461133
418,3660.6499999999996,0.6801419714943641
419,3663.3900000000003,0.614259745342615
420,3666.14,0.7501211187304578
421,3668.88,0.6350634925787086
422,3671.62,0.4679921664269595
423,3674.3700000000003,0.5772566398148025
424,3677.11,0.6327773136630533
425,3679.85,0.550030287511304
426,3682.6,0.604050460899147
427,3685.3399999999997,0.6594135347473978
428,3688.0800000000004,0.5585803085956487
429,3690.82,0.5572413824438994
430,3693.5699999999997,0.6210730558317423
431,3696.31,0.6709591296799932
432,3699.0499999999997,0.621074903528244
433,3701.8,0.563740076916087
434,3704.54,0.5767048507643378
435,3707.28,0.5660666246125886
436,3710.03,0.5083379980004316
437,3712.7700000000004,0.6267074718486824
438,3715.51,0.5945154456969333
439,3718.2599999999998,0.8014217190847761
440,3721.0,1.095413392933027
441,3723.74,1.3156042667812777
442,3726.48,1.2397931406295286
443,3729.23,0.9706216140173716
444,3731.97,0.8779454878656223
445,3734.71,0.6843558617138732
446,3737.46,0.632813235101716
447,3740.2000000000003,0.5698075089499669
448,3742.94,0.5475845827982178
449,3745.69,0.5748497561860606
450,3748.43,0.5697281300343114
451,3751.1699999999996,0.6458964038825623
452,3753.92,0.6613795772704052
453,3756.66,0.5663387511186561
454,3759.4,0.6043642249669069
455,3762.14,0.6967670988151576
456,3764.8900000000003,0.6061752722030007
457,3767.63,0.5895083460512514
458,3770.37,0.6529099198995022
459,3773.12,0.7126432932873452
460,3775.8599999999997,0.768361267135596
461,3778.6,0.7485422409838468
462,3781.35,0.7103178143716897
463,3784.09,0.6645316882199406
464,3786.83,0.6534208620681914
465,3789.5800000000004,0.6820647354560343
466,3792.32,0.6421498093042852
467,3795.06,0.632851383152536
468,3797.8,0.6572827570007868
469,3800.5499999999997,0.7017275303886298
470,3801.8939600000003,0.6937651431569084
471,3803.2899999999995,0.6854942176292956
472,3806.03,0.8033520177627657
473,3808.7799999999997,0.7707622175317592
474,3811.52,0.7802990176652292
475,3814.2599999999998,0.7509838177986993
476,3817.01,0.7161482175676929
477,3819.75,0.6337166177011628
478,3822.4900000000002,0.6396675178346328
479,3825.23,0.6304479179681028
480,3827.9800000000005,0.6229588177370964
481,3830.7200000000003,0.6535371178705665
482,3833.46,0.6324569180040364
483,3836.21,0.58918931777303
484,3838.95,0.6178367179065
485,3841.6899999999996,0.7522046180399701
486,3844.44,0.8387716178089636
487,3847.18,0.8447229179424336
488,3849.92,0.8155259180759036
489,3852.67,0.8410564178448972
490,3855.4100000000003,0.8500023179783671
491,3858.15,0.8062260181118371
492,3860.8900000000003,0.8057150182453071
493,3863.64,0.8573702180143008
494,3866.3799999999997,0.9127338181477707
495,3869.12,0.8239189182812408
496,3871.87,0.7910136180502344
497,3874.61,0.7827400181837043
498,3877.35,0.7602810183171743
499,3880.1000000000004,0.717879818086168
500,3882.84,0.6639371182196379
501,3885.58,0.6064086183531079
502,3888.33,0.6247290181221016
503,3891.0699999999997,0.6140121182555716
504,3893.81,0.6601154183890414
505,3896.5499999999997,0.7418794185225115
506,3899.3,0.825451918291505
507,3902.04,0.8758899184249751
508,3904.7799999999997,0.804412618558445
509,3907.53,0.7897514183274387
510,3910.27,0.8114247184609086
511,3913.01,0.8542972185943787
512,3915.7599999999998,0.8061428183633723
513,3918.4999999999995,0.8154039184968422
514,3921.24,0.7911324186303123
515,3923.99,0.6661016183993058
516,3926.73,0.6703976185327758
517,3929.47,0.6520757186662458
518,3932.21,0.7061782187997158
519,3934.96,0.7153172185687094
520,3937.7000000000003,0.7664644187021794
521,3940.44,0.7389616188356495
522,3943.1899999999996,0.772136818604643
523,3945.9300000000003,0.796647018738113
524,3948.67,0.793614118871583
525,3951.42,0.7748944186405766
526,3954.16,0.7663844187740465
527,3956.8999999999996,0.7410882189075166
528,3959.65,0.6646819186765103
529,3962.39,0.5752757188099802
530,3965.13,0.5359121189434501
531,3967.87,0.5949003190769202
532,3970.6200000000003,0.6846992188459138
533,3973.36,0.6738641189793838
534,3976.1000000000004,0.6651174191128537
535,3978.85,0.7654368188818473
536,3981.5899999999997,0.8054327190153173
537,3984.33,0.8584319191487874
538,3987.08,0.823674918917781
539,3989.82,0.8619371190512509
540,3992.56,0.9261271191847209
541,3995.3100000000004,0.8702888189537145
542,3998.05,0.8498789190871845
543,4000.79,0.8572880192206546
544,4003.53,0.9487061193541245
545,4006.2799999999997,0.9196623191231181
546,4009.02,0.948546619256588
547,4011.7599999999998,0.9610388193900581
548,4014.51,0.9483869191590517
549,4017.25,0.9680900192925217
550,4019.99,0.9187579194259916
551,4022.7400000000002,0.9368804191949852
552,4025.48,0.9347539193284552
553,4028.2200000000003,0.9256530194619252
554,4030.97,0.9229702192309189
555,4033.7099999999996,0.9418460193643888
556,4036.45,0.8379394194978588
557,4039.1899999999996,0.9316430196313289
558,4041.94,0.9012988194003225
559,4044.68,0.9101266195337925
560,4047.42,0.8679658196672624
561,4050.17,0.901849919436256
562,4052.9100000000003,0.9837716195697259
563,4055.65,0.969824019703196
564,4058.3999999999996,1.0004763194721895
565,4061.14,0.9665120196056596
566,4063.88,0.9189137197391295
567,4066.63,0.9358934195081232
568,4069.37,0.8311201196415933
569,4072.1099999999997,0.8423907197750632
570,4074.85,0.7839561199085331
571,4077.6,0.8875456196775268
572,4080.34,0.9143808198109967
573,4083.08,0.8717077199444668
574,4085.83,0.8183522197134604
575,4088.57,0.8126004198469303
576,4091.3100000000004,0.8416421199804003
577,4094.06,0.8066093197493939
578,4096.8,0.7897457198828639
579,4099.54,0.7500671200163339
580,4102.29,0.7674415197853276
581,4105.03,0.8166973199187975
