,lambda (Angstroms),Total Flux (erg/s/cm^2/Angstrom)
0,102.07000000000001,0.0073057515287130274
1,103.97,0.008543736065302796
2,104.712855,0.00902775875175741
3,105.9,0.008382358592446144
4,108.12,0.00717543924426938
5,109.88,0.006218603446662447
6,114.0,0.003978736204854363
7,118.01,0.0017986717799356497
8,120.22644299999999,0.0005936977755345052
9,121.04,0.0005732364884874283
10,125.0,0.0004736294645116222
11,127.03,0.00042256910076377186
12,127.91,0.00040043549216470394
13,130.89,0.00032548184731786
14,132.1,0.0002950512384391413
15,133.94,0.00024877370635108975
16,137.06,0.0001703092423143938
17,138.038426,0.00014570317069658212
18,139.93,0.00014403635844658416
19,142.86,0.0001415031517361978
20,146.85999999999999,0.00013804885034352014
21,150.98,0.00013446349507806215
22,154.85,0.00013111688403089647
23,158.489319,0.00012798521008644878
24,158.82,0.00012754304301184572
25,162.15,0.0001230944977996471
26,165.92,0.00011809679684109192
27,170.17999999999998,0.00011245220087863965
28,172.95000000000002,0.00010881872817089481
29,176.97,0.00010355340102463704
30,179.85000000000002,9.981124783030307e-05
31,181.93,9.710889435661748e-05
32,181.970086,9.705703296062886e-05
33,186.17000000000002,9.920153179857282e-05
34,190.95000000000002,0.00010172917182704309
35,194.04999999999998,0.00010338474377437734
36,198.10999999999999,0.00010559738205378935
37,201.8,0.00010769019614271305
38,205.07000000000002,0.00010952018796135278
39,208.929613,0.00011171070003818522
40,209.85,0.00011428404121445137
41,216.23,0.0001323908924621044
42,220.25,0.0001438542803391523
43,222.8,0.00015121315470145876
44,226.94,0.0001631285447837916
45,230.1,0.00017871194885629686
46,233.83999999999997,0.00019819469858767963
47,239.83,0.0002215393621681565
48,239.88329199999998,0.0002217005465663884
49,245.98999999999998,0.00021046032162176027
50,251.72,0.0002020269286224098
51,256.99,0.0001874849942931643
52,259.96,0.00018722789331444346
53,264.19,0.00018152110858717424
54,269.1,0.0001735177110432282
55,274.1,0.00016525415680295727
56,275.42287,0.00016306122842747116
57,279.2,0.00017396191685727094
58,283.72999999999996,0.0001874974502541518
59,289.67,0.00020287757570171757
60,295.74,0.00022167686162204143
61,301.24,0.00023573890777719482
62,308.26,0.00025722020330613604
63,316.227766,0.00028140764732000897
64,318.35,0.00027922388668929045
65,328.03,0.0002683531263282709
66,337.99999999999994,0.00025642832215478273
67,348.27,0.00024389765920977517
68,357.20000000000005,0.00023331203077755342
69,363.078055,0.0002264226214478288
70,366.36,0.0002326178036358392
71,374.90000000000003,0.0002483526860911205
72,385.4,0.0002646490514049909
73,395.29,0.0002848274751149128
74,405.43,0.0003032798027608791
75,413.90999999999997,0.00031828641227150966
76,416.86938299999997,0.00032347027554825367
77,421.60999999999996,0.0003292309240297352
78,430.44,0.0003392782483089386
79,441.48,0.0003536347904428464
80,450.72,0.00036516444744622576
81,460.16,0.000376329047241886
82,469.8,0.0003887466898298271
83,478.630092,0.0004004884556528369
84,479.64,0.00039995313376061357
85,489.67999999999995,0.00039398792527400037
86,499.93,0.00039020044569354365
87,505.71999999999997,0.00046094011410614425
88,511.58000000000004,0.0007719349254874635
89,519.89,0.0007748571407739421
90,529.5500000000001,0.000783329970457141
91,539.4,0.0007568996310554338
92,549.43,0.0008829735735732896
93,549.5408739999999,0.0008841823610631495
94,559.64,0.0010014740366067166
95,570.05,0.0010843729252096603
96,580.65,0.0010618935656699102
97,590.0799999999999,0.001198962597324642
98,599.67,0.0012149852831750002
99,609.41,0.0013600654573337582
100,619.31,0.0015322236856881429
101,629.38,0.0016208495341253802
102,630.957344,0.0016299457060576419
103,639.6,0.0016867545241005819
104,650.0,0.0018398246627181086
105,657.5200000000001,0.0019227296552569355
106,665.14,0.0020479499375901616
107,674.39,0.002145688743572096
108,685.35,0.0021507731050382584
109,694.88,0.0025393215224445115
110,704.5500000000001,0.002474062745562923
111,716.0,0.0029117209270216426
112,724.43596,0.0030189647315933786
113,725.9599999999999,0.003038035308851776
114,734.36,0.003181397654748488
115,744.5799999999999,0.0034498773422561545
116,754.94,0.003637576902195433
117,765.44,0.003827412334566323
118,774.3,0.004107187832738331
119,785.0699999999999,0.00440856537622733
120,794.17,0.004608909084282102
121,805.2099999999999,0.004808826738889209
122,814.54,0.005005775023081628
123,825.8699999999999,0.005387130056297075
124,831.763771,0.005121683401996803
125,835.4300000000001,0.004953491291418424
126,845.11,0.005763589338407929
127,854.89,0.006006404968527491
128,864.79,0.00637286669840312
129,874.8000000000001,0.006748193269721812
130,884.9300000000001,0.0071627459407965725
131,895.18,0.007502463711627401
132,905.55,0.007701514582214297
133,916.0300000000001,0.011048171294244256
134,924.5100000000001,0.06452038234367308
135,935.21,0.13554992873858918
136,946.04,0.26112911049157433
137,954.8,0.3394437807737673
138,954.992586,0.34073892520422644
139,965.85,0.41376048486049516
140,974.79,0.11752417353400564
141,986.08,0.42632284893936734
142,995.1999999999999,0.41375802127744515
143,1004.4100000000001,0.4917135854478066
144,1016.04,0.458903329997351
145,1025.44,0.20935157692475578
146,1034.93,0.3870394156844442
147,1044.51,0.5763572462764163
148,1054.17,0.565852169608196
149,1063.92,0.5008611847722595
150,1073.77,0.5555071908610826
151,1086.2,0.49511936280870394
152,1096.25,0.5723944507470462
153,1096.4782,0.5716589924820845
154,1103.85,0.5478992361616383
155,1114.0700000000002,0.5466232332872044
156,1124.37,0.4996884076896831
157,1134.78,0.5658318508479163
158,1145.28,0.530501768442676
159,1155.8799999999999,0.5478830576335764
160,1163.89,0.5567750824844361
161,1174.66,0.43220982338877534
162,1185.53,0.5415952358892553
163,1193.74,0.47171890393239596
164,1204.79,0.38433876530592886
165,1215.9399999999998,0.21174179827560236
166,1224.3700000000001,0.42140240383025235
167,1235.69,0.5232010885133648
168,1244.26,0.5478572543026116
169,1255.77,0.5390911850183912
170,1258.92541,0.5311618773490334
171,1264.48,0.5172053009822162
172,1276.18,0.5619012373629282
173,1285.02,0.5658036159616884
174,1293.93,0.507772395974692
175,1305.9,0.5136431378103434
176,1314.96,0.5618962208538691
177,1324.07,0.5428227049075688
178,1336.32,0.5183973524001945
179,1345.5800000000002,0.546590239484416
180,1354.91,0.5440812279828812
181,1364.3,0.5183980176935552
182,1373.76,0.5207939088184727
183,1386.47,0.524408965604699
184,1396.0800000000002,0.46204585976013846
185,1405.76,0.4760737553298215
186,1415.5,0.5042829521117133
187,1425.32,0.4973630505098835
188,1435.2,0.5031155501202624
189,1441.82,0.5136459838672978
190,1445.43977,0.5117246983014995
191,1448.48,0.5101110085511296
192,1455.16,0.5031211218210379
193,1465.2499999999998,0.48492129291286046
194,1475.4,0.4849263650220774
195,1485.63,0.4827016384878203
196,1495.93,0.4804765131405232
197,1506.3,0.4631061889801863
198,1513.2499999999998,0.43419640682836935
199,1516.74,0.4473903660068095
200,1523.74,0.4473904847028212
201,1534.3000000000002,0.4099155637642331
202,1544.9399999999998,0.41657444418217093
203,1555.65,0.40242762578706887
204,1566.43,0.4165729085789269
205,1573.66,0.43419683117495045
206,1584.57,0.437202716171163
207,1595.55,0.44227260235433563
208,1606.61,0.4312075898940341
209,1614.03,0.4282382157118066
210,1625.22,0.4223636054558596
211,1636.4799999999998,0.4341987963868727
212,1644.04,0.43219372457856536
213,1655.43,0.422366217713933
214,1659.58691,0.42773757355514946
215,1666.91,0.4372008950240858
216,1670.75,0.41752637053389186
217,1678.46,0.4412490252684242
218,1686.21,0.4422732849561838
219,1693.99,0.42824284835886367
220,1705.73,0.418500702131031
221,1713.6100000000001,0.4071030779167788
222,1725.48,0.4042979477869344
223,1733.45,0.4165827347174433
224,1745.46,0.40897702192389385
225,1753.52,0.41850601999916376
226,1765.68,0.3996706257802161
227,1773.8300000000002,0.4024450350002472
228,1786.12,0.40523225687928777
229,1794.3700000000001,0.41467057848238664
230,1806.8000000000002,0.41467721769772226
231,1815.14,0.3951117504455822
232,1823.5199999999998,0.3996809881466693
233,1836.16,0.39239065336644746
234,1844.6399999999999,0.3687415034506024
235,1853.15,0.3687461572496777
236,1865.9999999999998,0.37646624847389837
237,1874.61,0.38791111465604156
238,1883.26,0.3645380857914119
239,1896.32,0.35054990302007505
240,1905.0700000000002,0.36790968653851325
241,1905.46072,0.3674277446854587
242,1913.86,0.3570650942359326
243,1927.1299999999999,0.3489389760901767
244,1936.03,0.3562364554799862
245,1944.96,0.36959923008122214
246,1953.94,0.34812809670150185
247,1967.48,0.3670587354585829
248,1976.56,0.37559288611695035
249,1985.69,0.3595161287943617
250,1994.85,0.3521513666831994
251,2004.06,0.35704909659108097
252,2013.3100000000002,0.3554089201141976
253,2027.27,0.36117169183124714
254,2036.6200000000001,0.34892089939245163
255,2046.02,0.3529508989726999
256,2055.4700000000003,0.340183390571992
257,2064.96,0.34412777578651926
258,2074.49,0.3611651546162816
259,2079.27,0.34810649163687596
260,2084.06,0.3537626270612791
261,2093.68,0.3409735915253204
262,2103.35,0.34570814800840555
263,2113.06,0.3472945981067259
264,2122.81,0.34971154182028125
265,2132.61,0.3393892775528805
266,2147.3900000000003,0.3386189183822496
267,2157.3,0.3441132365567454
268,2167.26,0.3378334467502851
269,2177.26,0.33550165055905984
270,2187.31,0.3347299463868785
271,2187.7616199999998,0.335008246607611
272,2197.41,0.3409566021827507
273,2202.48,0.33472924740683146
274,2212.64,0.3263662404002555
275,2222.85,0.32188423975683633
276,2233.11,0.3309106454765737
277,2243.42,0.3248679575594676
278,2253.7799999999997,0.31674317600551816
279,2264.1800000000003,0.317478899542094
280,2274.63,0.3204131294418265
281,2285.13,0.32413816570471554
282,2295.68,0.3117560083307613
283,2306.27,0.31615555604733225
284,2316.92,0.3097308113996912
285,2327.61,0.27421507184257543
286,2332.98,0.29794525524559584
287,2343.75,0.2892145258695306
288,2354.57,0.3022096028566221
289,2365.44,0.28866648620687013
290,2376.35,0.29342197464764347
291,2387.32,0.2789845707242047
292,2392.83,0.28682667194406364
293,2403.87,0.2816497769290442
294,2414.97,0.2830047895498127
295,2426.11,0.2930117072611064
296,2437.31,0.28640553260818813
297,2442.9300000000003,0.29243984782699156
298,2454.21,0.2911563833551239
299,2465.5299999999997,0.2878866239737814
300,2476.91,0.28139237222822694
301,2482.62,0.2807820989007124
302,2494.08,0.26820285733620847
303,2505.6,0.2880980234074924
304,2511.37,0.2682897577157658
305,2511.88643,0.26834754051132226
306,2517.16,0.2689366636928844
307,2522.96,0.26466127801862416
308,2534.61,0.2665531042073946
309,2546.31,0.2647686279334558
310,2552.18,0.27600673881140275
311,2563.96,0.27102205859712936
312,2575.79,0.2780333759201469
313,2587.68,0.2761874902879134
314,2593.65,0.27304769624044206
315,2605.6200000000003,0.26689230666787395
316,2617.65,0.26268901414005486
317,2623.68,0.2700794171373326
318,2635.79,0.27706592066917884
319,2647.9599999999996,0.29218462124577416
320,2654.06,0.2983415207952591
321,2666.31,0.28171621743151987
322,2672.46,0.2876410145182956
323,2684.7900000000004,0.2903645072142217
324,2697.19,0.27673139646235495
325,2703.4,0.2825582905938798
326,2715.88,0.2705271759016784
327,2722.1400000000003,0.2674602675704941
328,2734.71,0.2750078484454163
329,2747.33,0.2520329268576294
330,2753.66,0.2579329150786523
331,2766.3700000000003,0.26583448905798884
332,2772.75,0.2720499748163026
333,2785.55,0.2586748443627627
334,2791.97,0.22327962815090918
335,2804.86,0.2327687932644929
336,2817.81,0.2685419554228256
337,2824.3,0.27609053576317927
338,2837.3399999999997,0.27049539348863555
339,2843.8799999999997,0.26315517136628
340,2857.0099999999998,0.2507934246588599
341,2863.5899999999997,0.2712397005663371
342,2876.8100000000004,0.27570844942604045
343,2883.44,0.2732170228708085
344,2884.0315,0.27330442108106157
345,2896.75,0.27518428091673747
346,2910.12,0.2902062674398048
347,2930.29,0.2817554471084862
348,2950.6,0.2760891266360478
349,2971.06,0.27873840601240973
350,2991.65,0.278201585257732
351,3012.39,0.27830996435185446
352,3033.27,0.27905514330485726
353,3047.2700000000004,0.2804108291928859
354,3068.39,0.2805225079039692
355,3089.6600000000003,0.2793373864638528
356,3111.08,0.2813887648725367
357,3132.64,0.2763577431401009
358,3147.1,0.27516012856445055
359,3168.92,0.2784569065699352
360,3190.8799999999997,0.26788018443430023
361,3212.9999999999995,0.27485456213738557
362,3227.83,0.264374147188776
363,3250.21,0.28080182462978187
364,3272.7400000000002,0.29010860191958804
365,3287.84,0.288191386698819
366,3310.63,0.2850152637265457
367,3311.31121,0.2845540847626923
368,3318.26,0.27984962914339007
369,3325.9100000000003,0.2805343817352507
370,3333.58,0.28909533394173054
371,3341.27,0.27046828576282966
372,3348.97,0.29118193739123843
373,3356.69,0.2800435886342664
374,3364.43,0.24963013949191365
375,3372.1800000000003,0.25256199015687053
376,3379.96,0.2782345402437562
377,3387.75,0.28020149013795154
378,3395.5600000000004,0.2757545396467661
379,3403.39,0.2874680887701999
380,3411.23,0.26709593770094336
381,3419.09,0.27714838624630606
382,3426.98,0.2842923342135976
383,3434.88,0.2950025819881988
384,3442.79,0.2772702295701096
385,3450.73,0.2824599765739492
386,3458.6899999999996,0.27670592319240817
387,3466.66,0.27610776961817673
388,3474.65,0.28783341565856446
389,3482.6600000000003,0.27874666131357145
390,3490.69,0.2925958065831977
391,3498.73,0.2724814516601336
392,3506.7999999999997,0.28733209615899835
393,3514.88,0.27508184046517276
394,3522.99,0.290078984193276
395,3531.11,0.2802715277286888
396,3539.25,0.29283967087872087
397,3547.41,0.30247651364337225
398,3555.58,0.3004491562153332
399,3563.7799999999997,0.292974298209223
400,3572.0,0.2747253398177321
401,3580.23,0.2728826812335508
402,3588.48,0.24949302226398873
403,3596.7599999999998,0.27803526271635554
404,3605.05,0.29184910297603195
405,3613.36,0.27366264285032765
406,3621.69,0.27119538233924256
407,3630.04,0.3114155214427767
408,3638.4,0.2920198603536205
409,3646.79,0.2913844986863931
410,3648.0099999999998,0.28229757517816695
411,3650.7400000000002,0.1677683225736937
412,3653.47,0.23043766996922044
413,3656.2,0.2912016173647472
414,3658.9300000000003,0.36050306476027394
415,3661.66,0.40632961215580066
416,3664.3900000000003,0.38191415955132735
417,3667.12,0.30850880694685406
418,3669.85,0.31258825434238086
419,3672.59,0.26926420154521724
420,3675.32,0.33309354894074394
421,3678.0499999999997,0.24968549633627066
422,3680.78,0.23570064373179742
423,3683.5099999999998,0.29501099112732415
424,3686.2400000000002,0.2933377385228509
425,3688.97,0.3139791859183776
426,3691.7,0.27682473331390434
427,3694.4300000000003,0.25835738070943104
428,3697.16,0.2899546281049578
429,3699.8900000000003,0.18473237550048455
430,3702.62,0.15941302289601128
431,3705.35,0.266736170291538
432,3708.0800000000004,0.3107061176870648
433,3710.81,0.2641712650825915
434,3713.54,0.2700095124781182
435,3716.27,0.31146345987364493
436,3719.0,0.1954195072691717
437,3721.7299999999996,0.27143865466469846
438,3724.46,0.4516667020602252
439,3727.2,0.7604418492630615
440,3729.9300000000003,0.8936825966585883
441,3732.66,0.865041444054115
442,3735.39,0.5473964914496418
443,3738.12,0.3590104388451685
444,3740.85,0.3237613862406952
445,3743.5800000000004,0.2706068336362219
446,3746.31,0.3038772810317487
447,3749.04,0.23922952842727543
448,3751.77,0.23188897582280216
449,3754.5,0.3878843232183289
450,3757.2299999999996,0.2764451706138556
451,3759.96,0.2899659180093824
452,3762.69,0.2874742654049091
453,3765.42,0.3649347128004358
454,3768.15,0.2996637601959625
455,3770.8799999999997,0.2572206075914893
456,3773.61,0.28443315498701605
457,3776.34,0.2962073023825428
458,3779.0800000000004,0.3057325495853791
459,3781.81,0.40958669698090583
460,3784.54,0.45773364437643255
461,3787.27,0.35067949177195934
462,3790.0,0.3619040391674861
463,3792.7300000000005,0.3461482865630128
464,3795.46,0.3252749339585395
465,3798.19,0.2818669813540663
466,3800.92,0.269494328749593
467,3801.8939600000003,0.28104590369660964
468,3803.65,0.30187328319550355
469,3806.3799999999997,0.3799198415517987
470,3809.11,0.3448538999080939
471,3811.84,0.38263135826438904
472,3814.5699999999997,0.36274731662068416
473,3817.3,0.4112241749769794
474,3820.0299999999997,0.29133293333327454
475,3822.76,0.3105453916895697
476,3825.49,0.26179985004586487
477,3828.22,0.37212780840216003
478,3830.9500000000003,0.2672961667584552
479,3833.69,0.3299150249622093
480,3836.4199999999996,0.2597833833185045
481,3839.15,0.3038386416747996
482,3841.8799999999997,0.2623361000310948
483,3844.61,0.31439145838738997
484,3847.34,0.3624407167436851
485,3850.0699999999997,0.2992341750999803
486,3852.8,0.31771373345627546
487,3855.5299999999997,0.4030030918125706
488,3858.26,0.4319132501688658
489,3860.9900000000002,0.369696008525161
490,3863.72,0.3383186668814561
491,3866.4500000000003,0.4264906252377513
492,3869.18,0.3846337835940465
493,3871.91,0.4506619419503416
494,3874.64,0.4230587003066368
495,3877.37,0.37552235866293193
496,3880.1000000000004,0.3936600170192271
497,3882.83,0.38149507537552224
498,3885.56,0.36465223373181743
499,3888.3,0.24435649193557155
500,3891.0299999999997,0.26810015029186673
501,3893.76,0.3907636086481619
502,3896.4900000000002,0.394635467004457
503,3899.22,0.2988913253607522
504,3901.9500000000003,0.3744094837170474
505,3904.68,0.3760584420733425
506,3907.41,0.3707699004296377
507,3910.14,0.32178025878593286
508,3912.87,0.37177151714222806
509,3915.6000000000004,0.3942328754985232
510,3918.33,0.33174683385481835
511,3921.06,0.40032769221111353
512,3923.79,0.37346945056740866
513,3926.52,0.3842910089237039
514,3929.2500000000005,0.37900246727999903
515,3931.98,0.29841542563629414
516,3934.71,0.2779449839925893
517,3937.44,0.2688334423488845
518,3940.18,0.3038003005526386
519,3942.91,0.3294982589089338
520,3945.6400000000003,0.36422211726522896
521,3948.37,0.34168767562152413
522,3951.1000000000004,0.3438861339778193
523,3953.83,0.3808940923341145
524,3956.56,0.3891874506904096
525,3959.29,0.3578468090467048
526,3962.02,0.37483626740299997
527,3964.75,0.3260542257592951
528,3967.48,0.25020628411559026
529,3970.21,0.25073154247188545
530,3972.9399999999996,0.26338510082818056
531,3975.67,0.26884465918447575
532,3978.4,0.27463411754077094
533,3981.13,0.3178223758970661
534,3983.86,0.3999728342533613
535,3986.5899999999997,0.39705379260965645
536,3989.32,0.40854715096595157
537,3992.0499999999997,0.4153259093222468
538,3994.7899999999995,0.3934244675260009
539,3997.52,0.416948425882296
540,4000.25,0.3615831842385912
541,4002.98,0.40900954259488637
542,4005.71,0.4062492009511815
543,4008.4399999999996,0.4092294593074767
544,4011.17,0.42492431766377187
545,4013.9,0.41926937602006703
546,4016.63,0.4563751343763622
547,4019.36,0.4879234927326574
548,4022.0899999999997,0.4546775510889525
549,4024.82,0.4092054094452477
550,4027.5499999999997,0.42778276780154284
551,4030.28,0.43996012615783797
552,4033.01,0.4292607845141332
553,4035.74,0.44214644287042837
554,4038.4700000000003,0.43314490122672356
555,4041.2,0.44320925958301866
556,4043.93,0.40706841793931386
557,4046.6600000000003,0.422360276295609
558,4049.4,0.40422073449936313
559,4052.13,0.4840991928556583
560,4054.86,0.4744991512119534
561,4057.5899999999997,0.4243249095682486
562,4060.32,0.4343646679245438
563,4063.05,0.485540726280839
564,4065.7799999999997,0.4063340846371341
565,4068.51,0.4155189429934293
566,4071.24,0.43568400134972446
567,4073.9700000000003,0.4662187597060196
568,4076.7,0.4337544180623148
569,4079.43,0.4445148764186099
570,4082.1600000000003,0.4261208347749051
571,4084.89,0.3925449931312003
572,4087.6200000000003,0.40838645148749547
573,4090.35,0.47950790984379055
574,4093.08,0.45693666820008577
575,4095.81,0.4158981265563809
576,4098.54,0.4234585849126761
577,4101.27,0.43689394326897124
578,4104.01,0.4442080014727254
579,4106.74,0.3836518598290205
580,4109.47,0.3846168181853157
