,lambda (Angstroms),Total Flux (erg/s/cm^2/Angstrom)
0,102.06,0.0013006967203127477
1,103.96000000000001,0.001521302756712933
2,104.712855,0.0016087162169804137
3,105.89,0.0014946819161530277
4,108.11,0.001279623998689169
5,110.11999999999999,0.0010849183453024327
6,113.99,0.0007100343140897594
7,118.0,0.00032159681165900477
8,120.22644299999999,0.00010615570218600916
9,121.02,0.00010268735610638785
10,124.99,8.505702390049046e-05
11,127.02,7.603948465868398e-05
12,127.89999999999999,7.215372875435409e-05
13,130.88,5.893287250332782e-05
14,132.09,5.369319544737416e-05
15,133.93,4.5563531347411624e-05
16,137.05,3.19857177866056e-05
17,138.038426,2.7641568675312737e-05
18,139.92,2.7508551417243008e-05
19,142.85,3.0740497730097616e-05
20,146.85,3.989155862819264e-05
21,150.96,4.143421873598528e-05
22,154.84,4.346169158713746e-05
23,158.489319,4.545053717449696e-05
24,159.17000000000002,4.5763690007521744e-05
25,162.13000000000002,4.739865290254501e-05
26,165.91000000000003,5.040417159956797e-05
27,170.17000000000002,5.296829076605418e-05
28,172.93,5.549112346546777e-05
29,176.96,5.865925990700284e-05
30,179.84,6.134919272378224e-05
31,181.92,6.333706475812293e-05
32,181.970086,6.338342304111302e-05
33,186.15,6.859619458092644e-05
34,190.92999999999998,7.549092100254543e-05
35,194.03,8.044157123413933e-05
36,198.10000000000002,8.646725063497391e-05
37,201.78,9.333694181312411e-05
38,205.06,9.857574199364929e-05
39,208.929613,0.00010271820217426226
40,209.83,0.0001040396066332043
41,216.21,0.0001218452151626696
42,220.23000000000002,0.00013208904605427628
43,222.78,0.00013811612273925065
44,226.92000000000002,0.000149519227239562
45,230.08,0.00021963597560211847
46,233.82,0.0003657768347400809
47,239.81,0.00046026076154125604
48,239.88329199999998,0.0004602253284117785
49,245.97,0.00045200583576260014
50,252.28,0.0004911789317574223
51,256.97,0.0004306273961339224
52,259.94,0.0004957270874341794
53,264.15999999999997,0.0005265108969584504
54,269.08000000000004,0.0005362371966881691
55,274.08,0.0005450700695842246
56,275.42287,0.0005474474587216833
57,279.17,0.0005571151913443632
58,283.71,0.0005714874381526286
59,290.32,0.0005605119939681869
60,295.72,0.0005853664826828638
61,301.21,0.0005928823978761186
62,308.23,0.0006141971632051987
63,316.227766,0.0006414112067413081
64,318.33,0.0006470418458849659
65,328.0,0.0006597654381092279
66,337.97,0.000666866962460406
67,348.24,0.0006696309189385001
68,357.16999999999996,0.0006743644185830359
69,363.078055,0.0006783744577730756
70,366.33,0.0006823547223692186
71,374.85999999999996,0.000687459467242782
72,385.37,0.0006733873262839483
73,395.25,0.0006969185171808775
74,405.39,0.0007039404473119363
75,413.88,0.0007028797323033257
76,416.86938299999997,0.0007018151727236856
77,421.57,0.0006996918332339144
78,430.40000000000003,0.0006978989152627071
79,441.44000000000005,0.0006994858012873812
80,450.69,0.0006932440094149388
81,460.11999999999995,0.0006886254287276811
82,469.76,0.000685543461089806
83,478.630092,0.0006841558985234423
84,479.59000000000003,0.0006836876170164375
85,489.64,0.0006686685870922978
86,499.89,0.000666749954582603
87,505.68,0.0006584767597307852
88,511.53,0.0006791538841033009
89,519.85,0.0006746133165442121
90,529.51,0.0006626101116619047
91,540.6,0.0006434166482928789
92,549.38,0.0006403813947870135
93,549.5408739999999,0.0006405066688485582
94,559.6,0.0006496154907828569
95,570.0,0.000654723373745323
96,580.6,0.0006398274179186055
97,590.03,0.0006477556590086107
98,599.62,0.0006316739090672692
99,609.36,0.0005830619800340402
100,620.6899999999999,0.0006516182526268036
101,629.32,0.000648225048873542
102,630.957344,0.0006485837578022544
103,639.55,0.0006517008253828387
104,649.9399999999999,0.00065834665277857
105,657.47,0.0006560467708045429
106,665.0799999999999,0.0006728005876940053
107,674.33,0.0006765263812850077
108,685.2900000000001,0.0006569105255831034
109,694.82,0.00070872591519632
110,704.49,0.0006790172528206435
111,715.94,0.000739105315157614
112,724.43596,0.000749592160508585
113,725.9,0.0007513472212624484
114,734.3,0.0007650969487793872
115,744.5200000000001,0.0007895198922583294
116,754.87,0.0008075868368774147
117,765.38,0.0007835671905920607
118,774.2400000000001,0.0008599434067587367
119,785.01,0.0008699859627536689
120,794.0999999999999,0.0009076779732452133
121,805.15,0.0009408753701573768
122,814.47,0.0009666152749737899
123,825.8,0.0010176472128031846
124,831.763771,0.0009415767363383619
125,835.36,0.0008951685604126321
126,845.03,0.0010580342877802439
127,854.82,0.0010783896375143617
128,864.7199999999999,0.00113911173275111
129,874.7299999999999,0.001192764573490489
130,884.8599999999999,0.0012519401365963742
131,895.1099999999999,0.001302490422068765
132,905.47,0.0013161224530437868
133,915.9599999999999,0.0016701331832491898
134,924.43,0.007560474586951741
135,935.14,0.015726664808162406
136,945.96,0.0289252477748757
137,954.72,0.04047012150763064
138,954.992586,0.04059184976733695
139,965.77,0.04540562933072458
140,974.71,0.00828361675693625
141,985.99,0.03785783234168654
142,995.12,0.04028465469530092
143,1004.3299999999999,0.05916215575519013
144,1015.95,0.05755133784160842
145,1025.3600000000001,0.026017795667184682
146,1034.8400000000001,0.040938532360751415
147,1044.4199999999998,0.07726782743716168
148,1054.08,0.07585879121984677
149,1063.8400000000001,0.0598463233853754
150,1076.15,0.07145149431341406
151,1086.11,0.05649954324462974
152,1096.16,0.0753363607204046
153,1096.4782,0.07520828802961274
154,1103.76,0.07227717701307888
155,1113.97,0.06934385024342572
156,1124.28,0.06209013841236556
157,1134.68,0.07942995202603911
158,1145.1799999999998,0.0724414505783057
159,1155.78,0.07690947406916529
160,1163.79,0.07924586865046579
161,1174.56,0.05407833353693351
162,1185.43,0.07690706336199424
163,1193.6399999999999,0.05395317782048077
164,1204.69,0.03936018853500893
165,1215.83,0.0276147346942708
166,1224.26,0.053703178017661966
167,1235.59,0.07997574456025057
168,1244.15,0.08748724130381265
169,1255.67,0.08374241822972799
170,1258.92541,0.0796366463655466
171,1264.37,0.07277014306149623
172,1276.07,0.09331090518320119
173,1284.9099999999999,0.09770906700848937
174,1293.82,0.07725924908578777
175,1305.79,0.07672716217953207
176,1314.84,0.09592603476085086
177,1323.96,0.09160836759417984
178,1336.2099999999998,0.08146109169596494
179,1345.47,0.09659003503331434
180,1354.8,0.09352632862267393
181,1364.19,0.08374242242804227
182,1373.64,0.08789061644941934
183,1386.3500000000001,0.08870351220727146
184,1395.96,0.07567657680467187
185,1405.6399999999999,0.07815416165408247
186,1415.3799999999999,0.0822152467195018
187,1425.2,0.08412795207293279
188,1435.07,0.08412967760637108
189,1441.6999999999998,0.0887032614753372
190,1445.43977,0.08939771929762563
191,1448.35,0.08993813373250432
192,1455.04,0.08728524394677652
193,1465.1200000000001,0.08071552440415528
194,1475.28,0.08090007510325928
195,1485.51,0.08240385601387283
196,1495.8,0.08374379710578031
197,1506.17,0.079059088439413
198,1513.1200000000001,0.07062655943929222
199,1516.61,0.0755026599845553
200,1523.61,0.07344491113551277
201,1534.17,0.0636753530432429
202,1544.8100000000002,0.06838552519269825
203,1555.52,0.06500887755366316
204,1566.3,0.06729288012613767
205,1573.53,0.07193857197205518
206,1584.44,0.07532833493733318
207,1595.4199999999998,0.07690526811412074
208,1606.48,0.07532866153263354
209,1613.89,0.07550268392243281
210,1625.0800000000002,0.07193929773374912
211,1636.34,0.07655223175657498
212,1643.9,0.07761644459960905
213,1655.2900000000002,0.07243760901523842
214,1659.58691,0.07471216211209963
215,1666.77,0.07851464050016559
216,1670.61,0.07030117523332163
217,1678.3200000000002,0.07942414536161152
218,1686.0700000000002,0.08221523637253846
219,1693.8500000000001,0.07743883804544316
220,1705.59,0.07463995709941505
221,1713.46,0.07062816075825311
222,1725.34,0.07030304290145464
223,1733.3000000000002,0.07498376854622604
224,1745.32,0.07327841377865722
225,1753.37,0.07779758140936197
226,1765.53,0.0719413397310228
227,1773.68,0.07310930956832014
228,1785.97,0.07464183075855135
229,1794.22,0.07924482280244133
230,1806.6499999999999,0.07870022708190219
231,1814.99,0.07277499111172549
232,1823.37,0.07429871602418583
233,1836.0099999999998,0.07161173493749115
234,1844.48,0.06591767183588484
235,1853.0,0.06652690983757484
236,1865.84,0.06854831316406539
237,1874.45,0.07361935315168872
238,1883.1000000000001,0.0679210840219491
239,1896.16,0.06546445220294338
240,1904.9099999999999,0.06934310527979635
241,1905.46072,0.06918605008304664
242,1913.7,0.06683594308025495
243,1926.97,0.06516361563866993
244,1935.8600000000001,0.06698909277840688
245,1944.8,0.07046783849598261
246,1953.77,0.06591738336026161
247,1967.32,0.07210845795457382
248,1976.4,0.07395762969009817
249,1985.52,0.07046701028789355
250,1994.69,0.06870448946352771
251,2003.89,0.07046663778586515
252,2013.1399999999999,0.06854665468604138
253,2027.1,0.07095390761863167
254,2036.4499999999998,0.06791797167448549
255,2045.85,0.07046551430817809
256,2055.2999999999997,0.06621808551970948
257,2064.7799999999997,0.06698509587794416
258,2074.31,0.07260551481401761
259,2079.1,0.07193924857097372
260,2083.89,0.07585106232792986
261,2093.51,0.07160807870411313
262,2103.17,0.07177304394256746
263,2112.88,0.07310635775886055
264,2122.63,0.07310638043742469
265,2137.34,0.06854294203759684
266,2147.21,0.07127792130297408
267,2157.12,0.07378198943062235
268,2167.08,0.0706244161361094
269,2177.08,0.07046174170386749
270,2187.13,0.07094966584946437
271,2187.7616199999998,0.07111631355997265
272,2197.22,0.07361231237722837
273,2207.37,0.07160550255456252
274,2212.45,0.06682895775661746
275,2222.67,0.06606412952138148
276,2232.93,0.07177123219324832
277,2243.23,0.06901799577221795
278,2253.59,0.06441236071184178
279,2263.99,0.06530789655856839
280,2274.44,0.0674475435391735
281,2284.94,0.0709516016536571
282,2295.48,0.0659133506752435
283,2306.08,0.06806767105748408
284,2316.72,0.06411031234682746
285,2327.42,0.051871034996825036
286,2332.78,0.05779673654859952
287,2343.55,0.05456061078602699
288,2354.37,0.061637166157332945
289,2365.2400000000002,0.0545551726625174
290,2376.15,0.05712216007480465
291,2387.12,0.051498738847746084
292,2392.62,0.05505204357438035
293,2403.67,0.05318079416152738
294,2414.7599999999998,0.0550458856557772
295,2425.91,0.06147247851068122
296,2437.11,0.059656562499463724
297,2442.72,0.06377280972063067
298,2454.0,0.06376972552361877
299,2465.33,0.06174319246048536
300,2476.71,0.05896158053123045
301,2482.41,0.056828829793378687
302,2493.87,0.05364843967832936
303,2505.3900000000003,0.06360579092393423
304,2511.16,0.051941971773512355
305,2511.88643,0.051986883879511045
306,2516.95,0.05229978380515422
307,2522.7500000000005,0.05122579289961796
308,2534.4,0.054131430649704604
309,2546.0899999999997,0.05387984804871859
310,2557.85,0.06185454483335541
311,2563.74,0.05746036313790566
312,2575.58,0.06199125922039715
313,2587.4700000000003,0.060159094864047816
314,2593.43,0.0582492925542209
315,2605.4,0.05549659749572623
316,2617.43,0.05398180191062258
317,2623.46,0.0585089089864185
318,2635.5699999999997,0.06655292269916951
319,2647.73,0.0762296159730797
320,2653.84,0.0843518423467303
321,2666.0899999999997,0.06919681483072697
322,2672.23,0.07414187094107308
323,2684.57,0.07674173263515628
324,2696.96,0.06870860389039864
325,2703.18,0.0739580692985994
326,2715.65,0.06561033985169644
327,2721.92,0.06323581482105639
328,2734.48,0.06822110458423992
329,2747.1,0.05394126382081448
330,2753.43,0.05819613826356542
331,2766.1400000000003,0.06351126671022649
332,2772.52,0.06680785071413659
333,2785.32,0.05673038837088415
334,2798.1699999999996,0.043333745588790884
335,2804.62,0.046536998978323835
336,2817.5699999999997,0.0639319353185489
337,2824.06,0.07459097835700919
338,2837.1000000000004,0.07238591390732077
339,2843.64,0.06693512650694022
340,2856.7599999999998,0.05710082135510648
341,2863.35,0.07578553351588511
342,2876.57,0.08119878748636969
343,2883.2000000000003,0.07754162929607565
344,2884.0315,0.07776951796885133
345,2896.5099999999998,0.08118959975677037
346,2909.88,0.09494021735525725
347,2930.05,0.08798470373233135
348,2950.36,0.0851845700842587
349,2970.81,0.08898341641103931
350,2991.4,0.0891786227126732
351,3012.14,0.09145430898736417
352,3033.0099999999998,0.09250340523870458
353,3047.01,0.09421531272403116
354,3068.13,0.0963978189304667
355,3089.4,0.0970548451099593
356,3110.82,0.10091500126250899
357,3132.38,0.09792896738991194
358,3146.84,0.09747053479261354
359,3168.65,0.1011149908751116
360,3190.6200000000003,0.09242149692887053
361,3212.7299999999996,0.09947530295748275
362,3227.56,0.08926595029372511
363,3249.93,0.10583227627563624
364,3272.46,0.11549667222880824
365,3287.56,0.11363376951655335
366,3310.3500000000004,0.11180566542302427
367,3311.31121,0.1118212974941549
368,3325.63,0.11205411608489547
369,3333.3,0.11625348974892669
370,3340.99,0.10999956334428525
371,3348.69,0.12397913690530746
372,3356.4100000000003,0.11785731039765701
373,3364.14,0.09340057385567023
374,3371.9,0.09734806721067445
375,3379.67,0.11811703053134233
376,3387.46,0.11568850378333753
377,3395.2700000000004,0.11021957696666006
378,3403.1,0.1265427500813099
379,3410.94,0.10995632316162346
380,3418.81,0.10844269613892799
381,3426.69,0.11512356908189618
382,3434.59,0.1265199419561917
383,3442.5,0.10718831479615089
384,3450.44,0.11301118753310108
385,3458.39,0.11697636023571494
386,3466.37,0.11196523283531977
387,3474.36,0.11996860540058828
388,3482.3700000000003,0.11350787789718413
389,3490.39,0.11940445035944362
390,3498.44,0.10568442271869413
391,3506.5099999999998,0.12330029500927198
392,3514.59,0.11142096726551345
393,3522.69,0.12244233945308229
394,3530.81,0.10837451157197846
395,3538.9500000000003,0.12385398362220193
396,3547.11,0.12878975560375275
397,3555.29,0.12384242751663091
398,3563.48,0.12185519939517271
399,3571.7,0.10686277117070554
400,3579.93,0.11061314291190201
401,3588.1800000000003,0.09179133458442582
402,3596.45,0.11502188618827695
403,3604.75,0.12494935768911908
404,3613.0499999999997,0.10561532918996121
405,3621.38,0.10536780058779434
406,3625.1499999999996,0.12292798764299613
407,3627.9,0.12044257820050407
408,3630.64,0.11869206879234834
409,3633.38,0.11513435938419261
410,3636.12,0.12062384997603687
411,3638.8700000000003,0.1232324405335448
412,3641.61,0.12080423112538909
413,3644.35,0.12916262171723336
414,3647.1,0.12351471227474128
415,3649.8399999999997,0.11843220286658557
416,3652.5800000000004,0.12308589345842984
417,3655.32,0.1264293840502741
418,3658.0699999999997,0.13216667460778203
419,3660.81,0.1417335651996263
420,3663.5499999999997,0.14102225579147057
421,3666.3,0.1364133463489785
422,3669.04,0.13631193694082278
423,3671.78,0.13581512753266706
424,3674.52,0.13618811812451131
425,3677.2700000000004,0.13536300868201925
426,3680.01,0.13099209927386354
427,3682.75,0.13066478986570781
428,3685.5,0.13169208042321573
429,3688.24,0.13635707101506
430,3690.98,0.13400796160690426
431,3693.72,0.14469305219874853
432,3696.4700000000003,0.13006564275625646
433,3699.21,0.12988513334810073
434,3701.95,0.131828123939945
435,3704.7000000000003,0.12830361449745295
436,3707.44,0.12524290508929722
437,3710.1800000000003,0.1331945956811415
438,3712.93,0.13448168623864942
439,3715.6699999999996,0.1413943768304937
440,3718.41,0.13453856742233797
441,3721.1499999999996,0.14103335801418224
442,3723.9,0.14918764857169017
443,3726.64,0.16282073916353446
444,3729.38,0.16631112975537873
445,3732.13,0.14516652031288665
446,3734.8700000000003,0.12206881090473093
447,3737.61,0.1111627014965752
448,3740.35,0.11679449208841947
449,3743.1,0.12030678264592741
450,3745.8399999999997,0.11398177323777166
451,3748.5800000000004,0.11767536382961594
452,3751.33,0.12486975438712387
453,3754.0699999999997,0.13018974497896815
454,3756.81,0.13398503557081243
455,3759.5499999999997,0.13455002616265668
456,3762.3,0.13214361672016461
457,3765.04,0.1357921073120089
458,3767.78,0.13713639790385318
459,3770.53,0.1355432884613611
460,3773.2700000000004,0.13241477905320537
461,3776.01,0.15125476964504964
462,3778.75,0.1568346602368939
463,3781.5,0.16358845079440182
464,3784.24,0.1582010413862461
465,3786.9799999999996,0.15462073197809037
466,3789.73,0.1430091225355983
467,3792.47,0.1339734131274426
468,3795.21,0.13271990371928685
469,3797.95,0.13229089431113114
470,3800.7000000000003,0.13613068486863908
471,3801.8939600000003,0.13981714120697472
472,3803.44,0.14459067656657976
473,3806.1800000000003,0.1527344691187253
474,3808.93,0.1498198616436889
475,3811.6699999999996,0.14543765419583446
476,3814.41,0.14203814674798002
477,3817.15,0.13781403930012553
478,3819.9,0.13287773182508916
479,3822.64,0.1265640243772347
480,3825.38,0.12063441692938026
481,3828.13,0.10918220945434386
482,3830.87,0.1054437020064894
483,3833.61,0.09879572455863497
484,3836.35,0.10159468711078051
485,3839.1,0.10885127963574412
486,3841.84,0.11916587218788967
487,3844.5800000000004,0.12703856474003522
488,3847.33,0.1352268572649988
489,3850.0699999999997,0.13986924981714435
490,3852.81,0.14683834236928991
491,3855.5499999999997,0.13790433492143547
492,3858.3,0.13667262744639908
493,3861.04,0.14259131999854463
494,3863.78,0.14552821255069015
495,3866.53,0.14671360507565376
496,3869.2700000000004,0.1458553976277993
497,3872.01,0.14474879017994488
498,3874.7599999999998,0.1424892827049085
499,3877.5,0.13902197525705404
500,3880.24,0.13651466780919955
501,3882.9799999999996,0.13312646036134512
502,3885.73,0.13364555288630872
503,3888.47,0.13766664543845428
504,3891.21,0.13963213799059984
505,3893.96,0.14660053051556343
506,3896.7000000000003,0.15614492306770897
507,3899.44,0.15733101561985452
508,3902.1800000000003,0.15710540817200008
509,3904.93,0.15353570069696368
510,3907.6699999999996,0.15511719324910925
511,3910.4100000000003,0.16400638580125476
512,3913.16,0.16661487832621838
513,3915.9,0.16358817087836391
514,3918.64,0.16131806343050947
515,3921.3799999999997,0.14906345598265502
516,3924.13,0.14184544850761865
517,3926.87,0.12981664105976418
518,3929.61,0.11551753361190972
519,3932.3599999999997,0.10180742613687332
520,3935.1000000000004,0.10079111868901888
521,3937.84,0.11458001124116443
522,3940.5800000000004,0.12442920379330999
523,3943.33,0.13571229631827358
524,3946.0699999999997,0.14869028887041913
525,3948.81,0.1596803814225647
526,3951.56,0.1593409739475283
527,3954.3,0.15641586649967384
528,3957.04,0.1477416590518194
529,3959.7799999999997,0.14285115160396492
530,3962.53,0.13065224412892854
531,3965.27,0.11664673668107409
532,3968.01,0.10363192923321965
533,3970.7599999999998,0.10569622175818323
534,3973.5,0.11879271431032878
535,3976.24,0.14330270686247434
536,3978.9799999999996,0.15500439941461988
537,3981.73,0.1709069919395835
538,3984.47,0.18322988449172906
539,3987.21,0.1898940770438746
540,3989.96,0.1900628695688382
541,3992.7000000000003,0.19394846212098374
542,3995.44,0.1967950546731293
543,3998.1800000000003,0.19734884722527485
544,4000.93,0.19886163975023846
545,4003.6699999999996,0.194581132302384
546,4006.4100000000003,0.19731472485452953
547,4009.16,0.20189971737949314
548,4011.9,0.2012562099316387
549,4014.64,0.20576320248378424
550,4017.3799999999997,0.2095810950359298
551,4020.13,0.21087928756089339
552,4022.87,0.20814618011303895
553,4025.61,0.2068588726651845
554,4028.36,0.2051751651901481
555,4031.1000000000004,0.19882775774229366
556,4033.84,0.19642225029443922
557,4036.5899999999997,0.2011992428194028
558,4039.33,0.20203543537154833
559,4042.0699999999997,0.1990199279236939
560,4044.81,0.19398272047583945
561,4047.56,0.19119221300080305
562,4050.3,0.19903110555294862
563,4053.04,0.20270219810509416
564,4055.7900000000004,0.19365429063005776
565,4058.53,0.1938804831822033
566,4061.27,0.19515707573434887
567,4064.01,0.18987136828649442
568,4066.7599999999998,0.193202660811458
569,4069.5,0.19582335336360354
570,4072.24,0.1969982459157491
571,4074.99,0.19782203844071272
572,4077.73,0.19813863099285828
