,lambda (Angstroms),Total Flux (erg/s/cm^2/Angstrom)
0,102.05000000000001,7.992659095358177
1,103.95,7.969878613591238
2,104.712855,7.96073219034699
3,105.88,7.8872250648711955
4,108.10000000000001,7.747408831033864
5,110.11,7.620818459507864
6,113.98,7.377084757770781
7,117.97999999999999,7.125163620579785
8,120.22644299999999,6.983682041648137
9,121.01,6.942308399722097
10,124.97,6.7332110960698035
11,127.0,6.626022328496534
12,127.88000000000001,6.57955626560141
13,130.86,6.422205272944067
14,132.07,6.358314453469648
15,133.91,6.261158144626973
16,137.03,6.0964148733401275
17,138.038426,6.043167626684289
18,139.9,5.972907657029961
19,143.16,5.849868410199965
20,146.83,5.711355453272866
21,150.95000000000002,5.555857793440805
22,155.17,5.3965860170215985
23,158.489319,5.2713079693568705
24,159.14999999999998,5.252456313455823
25,162.10999999999999,5.167996720056959
26,165.89,5.060139714491043
27,170.14999999999998,4.93858652704358
28,172.91,4.859833967794197
29,176.94000000000003,4.744843826063431
30,179.81,4.662952717537236
31,181.89000000000001,4.603603088985874
32,181.970086,4.601317958075662
33,186.13000000000002,4.510764042810116
34,190.91,4.40671242394913
35,194.01000000000002,4.339231374274766
36,198.07000000000002,4.2508530180137605
37,202.22,4.160515830577757
38,205.03,4.099348078020609
39,208.929613,4.01446109431627
40,209.81,4.000053209502252
41,216.17999999999998,3.8958079503073177
42,220.20000000000002,3.830020520370356
43,222.75,3.7882899041391496
44,226.89000000000001,3.72053920775825
45,230.05,3.6688464650711863
46,233.79,3.60768882395675
47,239.78,3.5096954673959555
48,239.88329199999998,3.5080050997390484
49,245.93,3.4317516382275635
50,252.24,3.3521928230471043
51,256.93,3.2930254765709788
52,259.91,3.2554742279716486
53,264.13,3.2022705391739414
54,269.04,3.1403589997206836
55,274.04,3.077312018394963
56,275.42287,3.059874799985495
57,279.14,3.023905436608891
58,283.67,2.9800727517101175
59,290.28000000000003,2.916097296996456
60,295.68,2.8638511760462637
61,301.18,2.8106242620395854
62,308.19,2.742795678899984
63,316.227766,2.66502317281781
64,318.29,2.6501211337527635
65,327.96,2.5802382268490214
66,337.92,2.5082568981747424
67,348.19000000000005,2.4340329648147176
68,357.12,2.369495272573723
69,363.078055,2.3264362419620266
70,366.29,2.309054075467185
71,374.82,2.262890150016642
72,385.32,2.2060482663178482
73,395.2,2.1525888324631737
74,405.34000000000003,2.097710377725481
75,413.83000000000004,2.051758249326171
76,416.86938299999997,2.035306671263314
77,421.52000000000004,2.0160843355191633
78,430.34999999999997,1.979586266144353
79,441.39,1.9339590482781117
80,450.63,1.8957649636759313
81,460.07,1.856744097555522
82,469.7,1.8169391761077953
83,478.630092,1.7800284973710676
84,479.53000000000003,1.7771680289182086
85,489.58000000000004,1.7452143911515023
86,499.83,1.712634701245658
87,505.61,1.6942572297145566
88,511.46999999999997,1.675657529667801
89,519.7800000000001,1.6492399070415988
90,529.4399999999999,1.6185251483512129
91,540.53,1.5832573049809868
92,549.5408739999999,1.5546132230452365
93,550.58,1.5520935952682042
94,559.53,1.5304088138842618
95,569.9300000000001,1.5051995865325294
96,580.52,1.479510202018122
97,589.96,1.4566316847988572
98,599.54,1.4333855664123578
99,610.6899999999999,1.4063009388290104
100,620.61,1.3823263028935118
101,630.7,1.357856662133514
102,630.957344,1.3572330130570904
103,639.47,1.340883039332009
104,649.86,1.3209185749111927
105,657.38,1.306458199055992
106,665.0,1.2918357402859615
107,674.25,1.274070112614205
108,685.1999999999999,1.2529965726903425
109,694.7399999999999,1.2347181349955794
110,704.4,1.2161119779430212
111,715.8499999999999,1.1941854998450092
112,724.43596,1.1776967772154974
113,725.8000000000001,1.1757531878268312
114,734.21,1.1637767495922915
115,744.42,1.1492318194447706
116,754.7800000000001,1.1344760306878343
117,765.28,1.1194568470287778
118,774.14,1.1069166323659927
119,784.9100000000001,1.0915598966099886
120,795.83,1.0760337152445696
121,805.0400000000001,1.0629367658264826
122,814.37,1.0496642929208637
123,825.69,1.0335720632636707
124,831.763771,1.0248194089917628
125,835.26,1.0210413480957914
126,844.93,1.010930732665974
127,854.71,1.0005338006718048
128,864.61,0.9900529638801613
129,874.62,0.9794439135241659
130,884.75,0.9687139763706966
131,894.99,0.9578578836528755
132,905.36,0.946823134904457
133,915.84,0.9360173855916867
134,924.31,0.932640353136614
135,935.02,0.9287917954620177
136,945.84,0.9291439052230699
137,954.6,0.9296777570074339
138,954.992586,0.9294759883173574
139,965.65,0.9242442495888533
140,974.58,0.8818898288929968
141,985.8699999999999,0.8998725487187283
142,994.99,0.8913802414123215
143,1004.1999999999999,0.8966210151851283
144,1015.83,0.8822079768656645
145,1025.23,0.8438247040279209
146,1034.71,0.8501078610383667
147,1044.29,0.8710649703590493
148,1053.95,0.8604848495279211
149,1066.15,0.835540541376807
150,1076.02,0.8351696163971762
151,1085.97,0.8129637212657348
152,1096.02,0.8180706484445303
153,1096.4782,0.8175021776103901
154,1106.16,0.8073221540659559
155,1113.83,0.7994652608196704
156,1124.14,0.7846456635094741
157,1134.54,0.7901201153789175
158,1145.04,0.7752488396701822
159,1155.6299999999999,0.7701377331410867
160,1166.32,0.7635022990338125
161,1174.41,0.7351236519591774
162,1185.28,0.745323706211182
163,1196.24,0.7162018796428261
164,1204.54,0.6964270006540164
165,1215.68,0.6714909724449393
166,1224.1100000000001,0.6904429256044976
167,1235.43,0.7046176557546994
168,1244.0,0.704914574304808
169,1255.51,0.6929115460564705
170,1258.92541,0.6863854476405722
171,1264.21,0.6775845509830896
172,1275.91,0.6886512065714039
173,1284.75,0.6874476047936858
174,1293.66,0.6661481331263253
175,1305.63,0.6581063119974468
176,1314.68,0.6692115005508011
177,1323.79,0.6605631520558903
178,1336.04,0.6449760513684417
179,1345.3000000000002,0.6521423702528681
180,1354.63,0.6441970892476522
181,1364.02,0.6305552411941713
182,1373.47,0.6283538960924251
183,1386.1799999999998,0.6218988347016111
184,1395.7900000000002,0.6039221641378246
185,1405.46,0.6003246065257735
186,1415.21,0.5995711561827021
187,1425.02,0.5948362787913656
188,1434.89,0.5894500643517642
189,1441.52,0.5894874505184756
190,1445.43977,0.5878794078955731
191,1448.17,0.5872617140827341
192,1454.8500000000001,0.5824422934359705
193,1464.94,0.5724498723392876
194,1475.09,0.5683385539912863
195,1485.32,0.5654350326415274
196,1495.61,0.5623181340404503
197,1505.98,0.5541798324376154
198,1512.93,0.5436622441599199
199,1516.42,0.5467507507082425
200,1523.42,0.5418373580544487
201,1533.98,0.5281345418224395
202,1544.61,0.5279951354638924
203,1555.32,0.5200865261035875
204,1566.1,0.5181360766167448
205,1573.33,0.5200398478328976
206,1584.23,0.5187011138434183
207,1595.22,0.5160260239769617
208,1606.27,0.5093277668591869
209,1613.69,0.5063676534461654
210,1624.87,0.4981215189505344
211,1636.14,0.4980184885779261
212,1643.6899999999998,0.49602098778704834
213,1655.08,0.48603652291180355
214,1659.58691,0.48662339651302056
215,1666.55,0.4884173612704433
216,1670.3999999999999,0.47900148198646086
217,1678.11,0.48664079477100486
218,1685.8500000000001,0.4871120316130763
219,1693.63,0.4799385538651844
220,1705.37,0.4738083317109105
221,1713.24,0.4683309561356007
222,1725.12,0.4644073229164547
223,1733.08,0.4671648695137272
224,1745.1,0.461973345229709
225,1753.15,0.4642896539995637
226,1765.3,0.4543756472981643
227,1773.45,0.45393082959311043
228,1785.7500000000002,0.4518839931793481
229,1793.99,0.45446709764687643
230,1806.42,0.45012048881573286
231,1814.76,0.4422282868083526
232,1823.14,0.44115677021100874
233,1835.78,0.4347636097825571
234,1844.25,0.42610003535779556
235,1857.03,0.4234121038644717
236,1865.6000000000001,0.42352706296480147
237,1874.21,0.4257408174751679
238,1882.8700000000001,0.41761067874808
239,1895.92,0.4116394837725028
240,1904.67,0.41286135721799705
241,1905.46072,0.41243456621993624
242,1913.4599999999998,0.4087535742339106
243,1926.72,0.40378560723792145
244,1935.6200000000001,0.402776972421609
245,1944.55,0.40627735919580343
246,1953.53,0.39962578195417586
247,1967.07,0.4035982364695836
248,1976.15,0.4032804811963121
249,1985.27,0.3977905947103829
250,1994.43,0.3939946270117961
251,2003.6399999999999,0.3935799452973875
252,2012.8899999999999,0.3899651723703212
253,2026.84,0.3887172719559887
254,2036.2,0.38467804819411405
255,2045.59,0.3856391660227462
256,2055.04,0.37842399703239205
257,2064.52,0.3775156596325446
258,2074.05,0.38233182821687517
259,2078.83,0.38277646830429396
260,2083.62,0.38611820558854826
261,2093.2400000000002,0.3792040889443993
262,2102.9,0.37709582108759265
263,2112.61,0.37713419921496416
264,2127.25,0.3735031053822884
265,2137.07,0.3658760026748516
266,2146.94,0.3685537259515927
267,2156.85,0.3687965980156763
268,2166.8,0.3622975088671022
269,2176.8,0.3601149457027062
270,2186.85,0.3602765085224883
271,2187.7616199999998,0.36037608349376216
272,2196.95,0.3620284452225729
273,2207.0899999999997,0.35809285800966634
274,2217.27,0.3498403737071625
275,2227.51,0.3485325987702628
276,2232.64,0.3565340145294137
277,2242.95,0.3512773721857188
278,2253.3,0.34290879275242664
279,2263.7,0.34177399945713793
280,2274.15,0.3434970922998526
281,2284.65,0.34818305128057064
282,2295.19,0.33935427317169153
283,2305.79,0.3419853744284165
284,2316.43,0.33537427859554414
285,2327.12,0.3185681089006752
286,2332.4900000000002,0.3239140021222424
287,2343.25,0.31634015502057833
288,2354.07,0.3267712772845183
289,2364.94,0.31379395568646173
290,2375.85,0.3169210169988079
291,2386.82,0.3057624076767581
292,2392.32,0.31023712285713423
293,2403.36,0.30673430612828934
294,2414.46,0.3079822687650484
295,2425.6,0.31771489431221034
296,2436.8,0.31406944922497626
297,2442.4100000000003,0.3197272299089599
298,2453.69,0.3186807906425314
299,2465.0099999999998,0.31346375428650564
300,2476.39,0.30720832729608394
301,2487.82,0.2997284564436656
302,2493.56,0.29657188908645815
303,2505.0699999999997,0.31039971405484534
304,2510.8399999999997,0.29025928638043996
305,2511.88643,0.28986590077232044
306,2516.63,0.2882612176463056
307,2522.43,0.2868093516236
308,2534.0699999999997,0.2919086782952735
309,2545.77,0.2911391330425741
310,2557.52,0.3049404161862308
311,2563.42,0.29619892695623706
312,2575.25,0.3031799375340633
313,2587.14,0.2985270761875168
314,2593.1,0.29445945503315035
315,2605.0699999999997,0.28835601112077336
316,2617.09,0.2842855956047523
317,2623.13,0.29250596188455535
318,2635.24,0.3086902434819751
319,2647.3999999999996,0.32612135347575094
320,2653.4999999999995,0.3452897578311812
321,2665.75,0.3135129649383977
322,2678.05,0.32129197044197016
323,2684.23,0.32839617223157
324,2696.6200000000003,0.3082745748485833
325,2702.84,0.31936477535526797
326,2715.3100000000004,0.30025007540645077
327,2727.84,0.2918764135332609
328,2734.13,0.3020774717948439
329,2746.75,0.2742996070350947
330,2753.08,0.28361121401376255
331,2765.7900000000004,0.29414615636745406
332,2772.17,0.29909235174247795
333,2784.96,0.2759213615303391
334,2797.8199999999997,0.24882257907309865
335,2804.27,0.2536412022030208
336,2817.21,0.2886575071799499
337,2823.71,0.30987269870622813
338,2836.74,0.30385618079659804
339,2843.28,0.28793467103996095
340,2856.4,0.26597867024377164
341,2862.9900000000002,0.30404363888349056
342,2876.2,0.320041915200742
343,2882.83,0.31166190255754567
344,2884.0315,0.31266740487847905
345,2896.14,0.3231920586727757
346,2909.51,0.35390428832394116
347,2929.6699999999996,0.3373179733476881
348,2949.98,0.3286866020100045
349,2970.43,0.33330905140165257
350,2991.02,0.3335518215226321
351,3011.7500000000005,0.33495801237294326
352,3032.63,0.338384146861824
353,3046.63,0.3429250197949816
354,3067.75,0.3496409041055735
355,3089.0099999999998,0.3470800091454971
356,3110.42,0.3604960578239902
357,3131.9799999999996,0.3497219501410529
358,3146.4399999999996,0.34812057689915704
359,3168.2500000000005,0.3591109419471689
360,3190.21,0.33768795063375034
361,3212.32,0.35138550295890136
362,3227.1499999999996,0.32806287735881046
363,3249.52,0.3717279253241486
364,3272.05,0.3965490398372943
365,3287.1499999999996,0.3918889327866286
366,3309.93,0.3817044200307236
367,3311.31121,0.3808154925570314
368,3325.21,0.3721854608391086
369,3332.8799999999997,0.3841936834900671
370,3340.5600000000004,0.35998915571423407
371,3348.26,0.4017617270848183
372,3355.98,0.3913371976018195
373,3363.7200000000003,0.32328136726523793
374,3371.47,0.3436664865018648
375,3379.2400000000002,0.39170530488490884
376,3387.0299999999997,0.37992392241436995
377,3394.84,0.37782373909024813
378,3402.67,0.4171366549125435
379,3410.5099999999998,0.3714855203080474
380,3418.37,0.3605471848499683
381,3426.25,0.38267024853830633
382,3434.15,0.4089568113730615
383,3442.0699999999997,0.35814277335423383
384,3449.9999999999995,0.3729694849086147
385,3457.96,0.3836510451826211
386,3465.93,0.36086665502983617
387,3473.9199999999996,0.3992192640234683
388,3481.93,0.3683993721635175
389,3489.95,0.3904948298767753
390,3498.0,0.3674734363096587
391,3506.06,0.4091623923157507
392,3514.14,0.37362564746825977
393,3522.24,0.40317790176718593
394,3530.36,0.36184495521252924
395,3538.5,0.4059818078042896
396,3546.66,0.41320635954246715
397,3554.84,0.41207921042706175
398,3563.0299999999997,0.3946115108848649
399,3571.24,0.35424611048908516
400,3579.48,0.37093705881293104
401,3587.73,0.3243057567099855
402,3595.9999999999995,0.38311445375345704
403,3604.29,0.4111128499433456
404,3612.6000000000004,0.3518423452796514
405,3620.92,0.38049589018916574
406,3621.93,0.39769049708322934
407,3624.6699999999996,0.37692808014237233
408,3627.42,0.3670299127747238
409,3630.16,0.3916348958338668
410,3632.9,0.38776367889300967
411,3635.64,0.40507536195215266
412,3638.3900000000003,0.40403489458450415
413,3641.13,0.398239977643647
414,3643.8700000000003,0.41005506070278996
415,3646.61,0.4227580437619329
416,3649.3599999999997,0.43915837639428434
417,3652.1,0.4421579594534273
418,3654.8399999999997,0.4430223425125702
419,3657.5800000000004,0.42401462557171316
420,3660.33,0.4231009582040647
421,3663.07,0.41654504126320757
422,3665.81,0.4186355243223505
423,3668.5499999999997,0.42590540738149346
424,3671.3,0.400891640013845
425,3674.04,0.4043774230729879
426,3676.78,0.4021763061321308
427,3679.52,0.4071418891912737
428,3682.2700000000004,0.40589012182362516
429,3685.01,0.41939640488276814
430,3687.75,0.42651828794191105
431,3690.4900000000002,0.42433847100105404
432,3693.24,0.4178014036334055
433,3695.98,0.4241833866925484
434,3698.72,0.42187666975169136
435,3701.4599999999996,0.40441225281083437
436,3704.21,0.41808558544318575
437,3706.95,0.4307039685023287
438,3709.69,0.41795385156147163
439,3712.43,0.4285428346206146
440,3715.1800000000003,0.46487866725296606
441,3717.92,0.518467350312109
442,3720.66,0.5155899333712519
443,3723.4,0.45258891643039484
444,3726.1499999999996,0.41814644906274634
445,3728.8900000000003,0.38520713212188923
446,3731.63,0.3967474151810322
447,3734.38,0.3951784478133837
448,3737.12,0.38401383087252666
449,3739.8599999999997,0.3632091139316696
450,3742.6,0.3805206969908125
451,3745.35,0.397217229623164
452,3748.09,0.4127952126823069
453,3750.83,0.41410349574144983
454,3753.57,0.4075052788005928
455,3756.32,0.41610481143294425
456,3759.0600000000004,0.41198009449208717
457,3761.8,0.4195881775512301
458,3764.54,0.4479563606103731
459,3767.29,0.4607204932427245
460,3770.0299999999997,0.47919477630186746
461,3772.7699999999995,0.4892130593610104
462,3775.51,0.4866315424201534
463,3778.2599999999998,0.4730756750525048
464,3781.0,0.4416375581116478
465,3783.74,0.4290988411707907
466,3786.48,0.41476312422993367
467,3789.23,0.41600585686228514
468,3791.9700000000003,0.42190163992142804
469,3794.71,0.44407552298057096
470,3797.45,0.46278250603971394
471,3800.2000000000003,0.46687903867206537
472,3801.8939600000003,0.46210706869062895
473,3802.94,0.4591770207311607
474,3805.6800000000003,0.4380568451958612
475,3808.42,0.42558296966056164
476,3811.1699999999996,0.416510803338637
477,3813.91,0.3967223278033375
478,3816.6499999999996,0.38809605226803806
479,3819.39,0.3712248767327385
480,3822.14,0.3503988104108138
481,3824.88,0.34490123487551433
482,3827.62,0.3517919593402148
483,3830.3599999999997,0.36468658380491537
484,3833.11,0.39732461748299064
485,3835.85,0.42212144194769113
486,3838.59,0.4227335664123917
487,3841.33,0.4418012908770922
488,3844.0800000000004,0.4370628245551675
489,3846.82,0.433256549019868
490,3849.5600000000004,0.4408027734845684
491,3852.3,0.44528359794926897
492,3855.0499999999997,0.46077653162734433
493,3857.79,0.4571817560920448
494,3860.5299999999997,0.45616608055674535
495,3863.27,0.4562074050214458
496,3866.02,0.43855203869952114
497,3868.7599999999998,0.43743066316422163
498,3871.5,0.4286140876289221
499,3874.24,0.4153158120936226
500,3876.9900000000002,0.4100277457716979
501,3879.73,0.42414857023639846
502,3882.4700000000003,0.43435849470109894
503,3885.21,0.4479086191657995
504,3887.9599999999996,0.46063215284387476
505,3890.7000000000003,0.4831457773085753
506,3893.44,0.4821302017732758
507,3896.1800000000003,0.49946452623797627
508,3898.93,0.5069872599160516
509,3901.67,0.5134553843807521
510,3904.41,0.5188030088454526
511,3907.1499999999996,0.5050186333101532
512,3909.9,0.4976161669882284
513,3912.64,0.46015439145292897
514,3915.38,0.43229031591762945
515,3918.12,0.39793594038232993
516,3920.8700000000003,0.34449007406040527
517,3923.61,0.3250608985251058
518,3926.35,0.32318252298980626
519,3929.1,0.3671689566678816
520,3931.8399999999997,0.40371968113258205
521,3934.58,0.4375646055972826
522,3937.32,0.4726992300619831
523,3940.07,0.4908133637400584
524,3942.81,0.49890928820475894
525,3945.5499999999997,0.48258801266945944
526,3948.29,0.4660975371341599
527,3951.04,0.42981737081223526
528,3953.78,0.3869647952769358
529,3956.52,0.34373151974163624
530,3959.26,0.32563414420633674
531,3962.01,0.33909807788441204
532,3964.75,0.3924132023491126
533,3967.4900000000002,0.44517872681381304
534,3970.23,0.49485805127851357
535,3972.98,0.5283623849565889
536,3975.72,0.5481067094212894
537,3978.4599999999996,0.5537926338859899
538,3981.2,0.5702814583506904
539,3983.95,0.5718211920287657
540,3986.69,0.5737654164934662
541,3989.43,0.5868716409581667
542,3992.17,0.5932130654228672
543,3994.92,0.5872689991009425
544,3997.6600000000003,0.589593723565643
545,4000.4,0.5993175480303435
546,4003.14,0.615108772495044
547,4005.89,0.6228848061731194
548,4008.63,0.6214677306378199
549,4011.3700000000003,0.6099453551025203
550,4014.11,0.623516779567221
551,4016.8599999999997,0.6174035132452962
552,4019.6,0.6032810377099967
553,4022.3399999999997,0.5955004621746972
554,4025.08,0.5952249866393977
555,4027.83,0.613000420317473
556,4030.57,0.6115199447821735
557,4033.31,0.598475469246874
558,4036.0499999999997,0.6026605937115745
559,4038.8,0.6069273273896498
560,4041.54,0.6067997518543503
561,4044.28,0.6062704763190508
562,4047.02,0.5859749007837514
563,4049.77,0.5886139344618266
564,4052.5099999999998,0.5941730589265272
565,4055.2500000000005,0.5998167833912277
566,4057.9900000000002,0.6021415078559282
567,4060.74,0.5956477415340035
568,4063.48,0.603342165998704
569,4066.22,0.5919255904634044
570,4068.9599999999996,0.599345114928105
571,4071.71,0.6163172486061803
572,4074.45,0.6385986730708808
573,4077.19,0.6368431975355813
574,4079.93,0.6286189220002819
575,4082.6800000000003,0.6110263556783572
576,4085.42,0.5917454801430577
577,4088.1600000000003,0.5639873046077581
578,4090.9,0.5419157290724587
579,4093.6499999999996,0.5444281627505341
580,4096.389999999999,0.5656310872152346
581,4099.13,0.5753973116799349
582,4101.87,0.6089886361446355
583,4104.62,0.6098730698227108
584,4107.36,0.6220492942874113
585,4110.099999999999,0.6127467187521118
586,4112.84,0.6159170432168123
587,4115.59,0.6127211768948876
588,4118.33,0.6124033013595882
589,4121.07,0.6126985258242886
590,4123.820000000001,0.6118070595023639
591,4126.56,0.6185077839670645
592,4129.3,0.619754408431765
593,4132.04,0.6099866328964655
