,lambda (Angstroms),Total Flux (erg/s/cm^2/Angstrom)
0,102.01,0.004069462044514969
1,103.91,0.0047148037392379305
2,104.712855,0.004992998921965332
3,106.08,0.004631317070627457
4,108.06,0.004115067999376878
5,110.06,0.003716091632457102
6,113.93,0.002715088820467333
7,117.94000000000001,0.00165097803879318
8,120.22644299999999,0.0017285863147023855
9,120.96000000000001,0.001947939398642339
10,124.92,0.0020733430597293717
11,126.95,0.002129202343064391
12,128.13,0.00216728942894386
13,131.10999999999999,0.002245651815317435
14,132.02,0.002419257356122788
15,133.86,0.0024751012188500964
16,136.98,0.0027150810730398795
17,138.038426,0.002756857702257753
18,139.84,0.002850318407354961
19,143.1,0.00427451565549556
20,147.11,0.006186568239864824
21,150.88,0.006577172836640916
22,155.11,0.007024508492970589
23,158.489319,0.007445383324779725
24,159.09,0.0075200483318304985
25,162.05,0.007888063561972712
26,165.82,0.008406595496984925
27,170.07999999999998,0.008877523463338248
28,172.84,0.009269892272524907
29,176.87,0.00976813175477934
30,180.15,0.010130961658450444
31,181.82,0.010411906173429328
32,181.970086,0.010429963605009083
33,186.06,0.010925809952500903
34,190.82999999999998,0.011545221211332626
35,193.93,0.011977017417281964
36,197.99,0.012512189222493033
37,202.14,0.013038221240134889
38,204.95,0.013435432317140578
39,208.929613,0.013623897486125826
40,210.21,0.01368599231764856
41,216.1,0.014871115361972932
42,220.10999999999999,0.015433944378567281
43,223.17,0.01572417774285125
44,226.79999999999998,0.016315828498521447
45,229.95999999999998,0.024264868247259142
46,234.23,0.039489631863433176
47,239.88329199999998,0.05039872331364011
48,240.24,0.05108617132027251
49,245.84,0.04878300982805772
50,252.14000000000001,0.05095795189931608
51,256.83,0.04067410277458619
52,259.8,0.04910946603675084
53,264.02,0.0515326449479747
54,268.93,0.051173818657479234
55,273.93,0.05069987125371603
56,275.42287,0.05042660000925974
57,279.03000000000003,0.04977469069517364
58,284.21,0.0497843539611869
59,290.17,0.04722494281551877
60,296.24,0.04723315361179299
61,301.05,0.04429610307309102
62,308.07,0.04491836336795842
63,316.227766,0.04534815609800234
64,318.15999999999997,0.04544594075852198
65,327.83,0.044403534885683014
66,337.79,0.04289205422451693
67,348.05,0.04142994998921933
68,356.98,0.04076122426590476
69,363.078055,0.040693148537830626
70,366.14,0.040663756197772724
71,374.67,0.039470795185389033
72,385.16,0.036849768137334524
73,395.03999999999996,0.03728329281466736
74,405.18,0.036778395772982635
75,413.66,0.035703250475794625
76,416.86938299999997,0.03525776444456716
77,422.32,0.03449968357405299
78,430.17,0.033334713140473045
79,441.21,0.032732005103947866
80,451.49,0.031701564396024055
81,459.88,0.03042292612370103
82,469.51,0.02946475799944945
83,478.630092,0.028967063426905366
84,480.45,0.02886601839978375
85,490.51,0.027440441837206203
86,499.63,0.027185242329183613
87,506.58000000000004,0.02638240336199535
88,512.4399999999999,0.02787439236232294
89,519.57,0.026989316299581595
90,530.45,0.0257723874128178
91,540.3100000000001,0.024108798734188117
92,549.5408739999999,0.023306134130702556
93,550.36,0.023235205605493015
94,560.59,0.023663959535676533
95,569.7,0.023392430103024716
96,580.29,0.022547980828405312
97,589.7199999999999,0.022034745213706446
98,600.6800000000001,0.020756990978595145
99,610.44,0.018464267426160266
100,620.36,0.02037639578270186
101,630.44,0.019505006048219937
102,630.957344,0.01950041962552594
103,640.69,0.019418148514173176
104,649.6,0.01872053712282287
105,658.6400000000001,0.0179660164968064
106,664.73,0.01809107773436831
107,675.53,0.017806603623640668
108,684.93,0.016701848193933274
109,694.4599999999999,0.016857983529559716
110,705.74,0.015669823013910844
111,715.56,0.016108266979897378
112,724.43596,0.015784936480742633
113,725.51,0.015745702152386333
114,735.61,0.015426562118680275
115,745.84,0.014906789589490873
116,754.48,0.01450490296659777
117,764.9699999999999,0.013208225446441678
118,775.61,0.0138283481238048
119,784.59,0.013181627281955257
120,795.51,0.013122847661354253
121,804.72,0.012944847789034175
122,815.92,0.012682825870469042
123,825.36,0.01245485696767843
124,831.763771,0.011711481812670888
125,834.92,0.011343742745600538
126,844.59,0.011842284179477625
127,854.37,0.011520213323564274
128,864.26,0.011386290177860489
129,874.2700000000001,0.011151771806930772
130,884.39,0.010897421146210617
131,894.63,0.010697215260264533
132,904.99,0.010405164149092518
133,915.47,0.010331147812694572
134,923.94,0.01673709149883097
135,934.6400000000001,0.023068930582852146
136,945.46,0.028686624441647397
137,954.21,0.03129933593558995
138,954.992586,0.03144638606482727
139,965.26,0.03337819983392335
140,974.19,0.019150565507506944
141,985.4699999999999,0.029348892147823068
142,994.59,0.027838389005950998
143,1006.11,0.031010324510954698
144,1015.42,0.030867712553626962
145,1024.81,0.020796896884528415
146,1034.3,0.027581516575716357
147,1043.87,0.03329744255513349
148,1055.95,0.03209539207774154
149,1065.72,0.02881070877773166
150,1075.59,0.03023359083800827
151,1085.54,0.025742559186514073
152,1095.58,0.030025333359277713
153,1096.4782,0.02990001227294492
154,1105.72,0.028609639640772847
155,1115.95,0.02802304409507409
156,1126.28,0.025560454027912002
157,1134.08,0.028020381353772182
158,1144.5800000000002,0.026759596600122434
159,1155.1699999999998,0.02657485877715568
160,1165.86,0.0262093364327256
161,1173.94,0.02068702309848846
162,1184.8,0.024972046067570714
163,1195.76,0.02231226451518964
164,1204.05,0.019663440685879503
165,1215.19,0.014323302994864432
166,1223.62,0.021257968835505632
167,1234.94,0.023516695005856562
168,1246.36,0.02378752665474417
169,1255.0,0.02319198200031237
170,1258.92541,0.022813661196304146
171,1263.7,0.022354241290183777
172,1275.3999999999999,0.02351361213974117
173,1284.24,0.02340558344829564
174,1296.1200000000001,0.02100950615707699
175,1305.1,0.02096152891169455
176,1314.15,0.02250986238934364
177,1326.31,0.02159783799025115
178,1335.5,0.020298752913963325
179,1344.7600000000002,0.02140015856070704
180,1354.08,0.02091396482719207
181,1363.47,0.01970117181670864
182,1376.0800000000002,0.01956725206567605
183,1385.62,0.019388040604545926
184,1395.23,0.016357059866447338
185,1404.9,0.01605984974809007
186,1414.64,0.01817975035276434
187,1424.4399999999998,0.017645661577179936
188,1434.32,0.017890343627917287
189,1440.94,0.01797233200604292
190,1445.43977,0.0178895488834091
191,1447.59,0.017849987124700737
192,1454.27,0.017404445033902278
193,1464.3500000000001,0.01669982241784711
194,1474.5,0.016546970408624895
195,1484.72,0.01650992900623563
196,1495.01,0.016246698210679315
197,1505.38,0.01562485810864637
198,1512.3300000000002,0.014651318358489287
199,1515.81,0.014957528526755958
200,1526.32,0.014854699638388914
201,1533.36,0.013459570668445624
202,1543.99,0.012797662820363638
203,1554.69,0.012564975579114604
204,1565.47,0.013215119031388941
205,1576.32,0.013646903090496227
206,1583.6,0.013677456201123052
207,1594.58,0.013677461387205818
208,1605.63,0.013275537180121534
209,1616.7599999999998,0.013064823666560622
210,1624.22,0.012798318337615033
211,1635.48,0.0130648959510296
212,1646.82,0.012915344257967538
213,1654.42,0.01265210014268785
214,1659.58691,0.01278467211856568
215,1665.88,0.012946483340255272
216,1673.5700000000002,0.012169020181787619
217,1677.43,0.013523034552179668
218,1685.18,0.013462175192215518
219,1696.8600000000001,0.01288834463423084
220,1704.69,0.012712910338938028
221,1716.5,0.012655868011044272
222,1724.43,0.012743620046590633
223,1736.3799999999999,0.013465616581871719
224,1744.4,0.013221194315173336
225,1756.49,0.01406664971362926
226,1764.5900000000001,0.012922202511602216
227,1776.8300000000002,0.0133446574063169
228,1785.03,0.013781076535129028
229,1793.2699999999998,0.015139668196276821
230,1805.7,0.014934015119585933
231,1814.0300000000002,0.014330402478488984
232,1826.61,0.014496068898056854
233,1835.04,0.014266132587799076
234,1843.5099999999998,0.012263798809876969
235,1856.29,0.013753867891123183
236,1864.8500000000001,0.015390289810956328
237,1873.46,0.015390724896209062
238,1886.45,0.015008017272217539
239,1895.1599999999999,0.015930628688309443
240,1903.9,0.0158581820036531
241,1905.46072,0.01591059685414441
242,1917.1,0.016299800984306043
243,1925.9499999999998,0.014768318778097528
244,1934.84,0.01182393330768016
245,1943.77,0.01729944457305394
246,1957.24,0.017258015350723015
247,1966.28,0.019760497639522454
248,1975.35,0.01861467748016525
249,1984.47,0.019578713240546983
250,1993.63,0.019848915736719867
251,2002.83,0.018870424968683897
252,2016.7199999999998,0.019576071472160023
253,2026.03,0.017095011727549708
254,2035.3799999999999,0.020730458718730544
255,2044.77,0.022724982445702525
256,2054.21,0.02150476209241344
257,2063.69,0.02082341847491551
258,2073.2200000000003,0.024176940777156507
259,2078.0,0.03350740070419869
260,2082.79,0.037416519815188655
261,2097.23,0.03468152143579307
262,2106.9,0.03281906231330308
263,2116.63,0.036563618294499826
264,2126.4,0.03266664101148772
265,2136.2200000000003,0.030557989648214535
266,2146.08,0.037757685020732505
267,2155.98,0.03758326712904163
268,2165.9300000000003,0.033041575157089685
269,2175.9300000000003,0.03365379910487667
270,2185.9700000000003,0.0403585497884548
271,2187.7616199999998,0.040575837711233236
272,2196.06,0.041583483502335226
273,2206.2000000000003,0.0397147032435124
274,2216.38,0.03206808558721888
275,2226.61,0.036059051184086977
276,2236.89,0.046227770034116704
277,2247.2200000000003,0.043645062137308045
278,2257.5899999999997,0.03412491684302869
279,2262.79,0.03251689517183749
280,2273.24,0.03532342508261674
281,2283.73,0.044968697595925276
282,2294.27,0.03799321336239544
283,2304.86,0.045323222382027226
284,2315.5,0.039910924654820636
285,2326.19,0.03213090018077566
286,2336.9300000000003,0.02862308895989232
287,2342.31,0.019948119000082972
288,2353.13,0.03690608298425822
289,2363.99,0.021738029570962773
290,2374.9,0.02875243941082895
291,2385.86,0.016748332503856746
292,2396.87,0.021201588850046162
293,2402.4,0.021194248649721685
294,2413.4900000000002,0.025103180200969705
295,2424.63,0.042270235005379346
296,2435.8199999999997,0.04175644306295061
297,2447.06,0.04946797437368349
298,2452.7,0.05153982133031459
299,2464.02,0.046439157846106076
300,2475.4,0.0401464082656915
301,2486.8199999999997,0.026647701287806233
302,2492.56,0.03107203475076057
303,2504.0600000000004,0.047724492977933894
304,2511.88643,0.030059273762308217
305,2515.62,0.021631808175055358
306,2527.2299999999996,0.01844868582150961
307,2533.06,0.029801929015207142
308,2544.75,0.03197813464716668
309,2556.5,0.05311026876825518
310,2562.39,0.04065871045108167
311,2574.22,0.05101317255767545
312,2586.1,0.04543603340521004
313,2592.06,0.04085899332535365
314,2604.0200000000004,0.03491827215839353
315,2616.04,0.031031389480562353
316,2622.07,0.04338900763802309
317,2634.18,0.07059946269388537
318,2646.3399999999997,0.09579709649068845
319,2652.4399999999996,0.12650874288546632
320,2664.68,0.08587106466777467
321,2676.98,0.09693063493921199
322,2683.15,0.10996576957130698
323,2695.54,0.08127693757643775
324,2707.98,0.09829998432250932
325,2714.22,0.07218717719192143
326,2726.75,0.06111600167168644
327,2733.03,0.07549213353385119
328,2745.65,0.04205153574730964
329,2751.98,0.05773497635041519
330,2764.68,0.07533043654937893
331,2777.44,0.08120305523747164
332,2783.84,0.04814974407789431
333,2796.69,0.019097480499680453
334,2803.14,0.02374317808104393
335,2816.0800000000004,0.07185900223652351
336,2822.5699999999997,0.10355815881063964
337,2835.6,0.09723367069981266
338,2842.1400000000003,0.07357039601486959
339,2855.26,0.04241807563773607
340,2861.84,0.09750920994554563
341,2875.05,0.12433923730210555
342,2884.0315,0.1172252164311977
343,2888.3199999999997,0.11382850892727224
344,2894.9799999999996,0.13335360549511713
345,2908.3399999999997,0.17683979861019336
346,2928.5,0.1559491882209671
347,2948.7999999999997,0.14567867775959345
348,2969.2400000000002,0.15128406722607238
349,2989.82,0.1538845566204039
350,3010.55,0.15544584593743463
351,3031.41,0.16328083518747136
352,3052.42,0.17191342436020726
353,3066.51,0.18192211709908634
354,3087.7700000000004,0.1779334061429876
355,3109.17,0.19934949511474148
356,3130.73,0.18576718400404116
357,3152.43,0.18336237282119344
358,3166.98,0.20131506532301677
359,3188.93,0.1779218540113344
360,3211.03,0.19613704262235124
361,3233.29,0.1690066311509139
362,3248.22,0.22773482345690854
363,3270.73,0.2622628118566366
364,3293.4,0.2570609001739104
365,3308.61,0.24298669233561024
366,3311.31121,0.23970892208613992
367,3323.88,0.22445726712479055
368,3331.54,0.2426057916639173
369,3339.22,0.21167341600601824
370,3346.92,0.2537601401510934
371,3354.63,0.2313079641976557
372,3362.37,0.1945286879486793
373,3370.12,0.21465471160119007
374,3377.89,0.209650435056675
375,3385.67,0.21739835841364705
376,3393.48,0.24888638147508044
377,3401.2999999999997,0.28298860443800095
378,3409.14,0.2385293272038957
379,3417.0,0.21592254977276462
380,3424.88,0.2754488721446078
381,3432.77,0.28563179441793807
382,3440.69,0.2597581163957297
383,3448.62,0.20766133827500838
384,3456.5699999999997,0.24722505995726135
385,3464.54,0.2147081814424885
386,3472.52,0.2701382028292028
387,3480.53,0.2110375239203784
388,3488.55,0.24609964491304112
389,3496.59,0.23113156570867804
390,3504.65,0.2770762863072892
391,3512.73,0.26022740670887456
392,3520.83,0.2832048269134342
393,3528.9500000000003,0.197640846920968
394,3537.0800000000004,0.27580826682998894
395,3545.2299999999996,0.2866481865419841
396,3553.4100000000003,0.2938354059584406
397,3561.6,0.27030112527638417
398,3569.81,0.21213994439730197
399,3578.04,0.23299896332119402
400,3586.29,0.1884190820480603
401,3594.55,0.25052480067641364
402,3602.84,0.3080183190092283
403,3611.15,0.24062433714501727
404,3619.4700000000003,0.27673635518229334
405,3627.8100000000004,0.29430657302254354
406,3636.18,0.22938039056725515
407,3644.56,0.31935880801345384
408,3652.96,0.25352862526262676
409,3661.38,0.3497464423147739
410,3669.8199999999997,0.3254561591698953
411,3678.2799999999997,0.33054847582799085
412,3686.76,0.30617079228906063
413,3695.26,0.3355085085531047
414,3703.7799999999997,0.35680272462012297
415,3712.32,0.2559645404901154
416,3712.74,0.25798543635257404
417,3715.4700000000003,0.26795000945855524
418,3718.2,0.25086108256453643
419,3720.9199999999996,0.21762445576903056
420,3723.65,0.23875572887501173
421,3726.38,0.29193390198099295
422,3729.11,0.26909767508697413
423,3731.84,0.2739378481929553
424,3734.5699999999997,0.2501293212989365
425,3737.3,0.22039869440491772
426,3740.0299999999997,0.24940776751089894
427,3742.7500000000005,0.268595540715393
428,3745.48,0.2131881138213742
429,3748.21,0.2150562869273554
430,3750.94,0.2384384600333366
431,3753.67,0.2430601331393178
432,3756.3999999999996,0.268474406245299
433,3759.13,0.2859890793512802
434,3761.86,0.2474518524572614
435,3764.5899999999997,0.2440427255632426
436,3767.31,0.2601710987677367
437,3770.04,0.26486917187371783
438,3772.7699999999995,0.2787345449796991
439,3775.5,0.2992648180856803
440,3778.23,0.3631505911916615
441,3780.96,0.3833640642976427
442,3783.69,0.3872644374036239
443,3786.4199999999996,0.28009931050960507
444,3789.15,0.3003017836155863
445,3791.87,0.27378495682008036
446,3794.6000000000004,0.27083462992606155
447,3797.33,0.24529970303204277
448,3800.06,0.20974537613802396
449,3801.8939600000003,0.2886729504491923
450,3802.79,0.32723555108324676
451,3805.52,0.328459129792917
452,3808.2500000000005,0.31311840850258726
453,3810.98,0.3332115872122576
454,3813.7,0.2604219659999144
455,3816.4300000000003,0.25011834470958466
456,3819.16,0.24811862341925497
457,3821.89,0.27069220212892525
458,3824.6200000000003,0.2548269808385955
459,3827.35,0.2468069595482658
460,3830.08,0.24150753825793606
461,3832.81,0.14635041696760634
462,3835.54,0.14352039567727662
463,3838.26,0.18265907446493346
464,3840.9900000000002,0.2092645531746037
465,3843.72,0.26222423188427396
466,3846.4500000000003,0.22982761059394427
467,3849.18,0.27467978930361453
468,3851.91,0.3000941680132848
469,3854.64,0.3108782467229551
470,3857.37,0.28858842543262536
471,3860.0899999999997,0.2611100042202822
472,3862.82,0.2695121829299525
473,3865.5499999999997,0.27494236163962277
474,3868.28,0.30071734034929304
475,3871.0099999999998,0.25779861905896334
476,3873.74,0.2555912977686336
477,3876.4700000000003,0.3270599764783038
478,3879.2,0.3122983551879741
479,3881.9300000000003,0.3141228338976444
480,3884.65,0.29129921268530123
481,3887.3799999999997,0.2682553913949715
482,3890.11,0.2652613701046418
483,3892.84,0.30933784881431203
484,3895.5699999999997,0.33534222752398235
485,3898.3,0.3435477062336526
486,3901.0299999999997,0.3538072849433229
487,3903.76,0.35356666365299316
488,3906.4900000000002,0.38695704236266343
489,3909.21,0.3682966211503203
490,3911.94,0.37885129985999055
491,3914.67,0.3735954785696608
492,3917.3999999999996,0.3697928572793311
493,3920.13,0.36417653598900135
494,3922.86,0.34533931469867163
495,3925.5899999999997,0.3103421934083419
496,3928.32,0.2533287721180122
497,3931.04,0.21466165090566902
498,3933.77,0.14438342961533931
499,3936.5,0.1480655083250096
500,3939.23,0.21825598703467985
501,3941.96,0.2555362657443501
502,3944.69,0.2757060444540204
503,3947.4199999999996,0.3249724231636907
504,3950.15,0.345240601873361
505,3952.8799999999997,0.3744899805830312
506,3955.6000000000004,0.39964395937068803
507,3958.33,0.3606149380803583
508,3961.06,0.2912872167900286
509,3963.79,0.22180679549969887
510,3966.52,0.19697117420936916
511,3969.2499999999995,0.15990905291903942
512,3971.98,0.20665153162870972
513,3974.71,0.27883041033837996
514,3977.44,0.32060128904805024
515,3980.16,0.3682414678357071
516,3982.89,0.4179668465453774
517,3985.6200000000003,0.4579130252550477
518,3988.35,0.4757226039647179
519,3991.0800000000004,0.47280508267438814
520,3993.81,0.45359636138405846
521,3996.54,0.4980223400937287
522,3999.27,0.475623118803399
523,4001.9900000000002,0.48914109759105584
524,4004.72,0.5153639763007262
525,4007.4500000000003,0.4634418550103964
526,4010.18,0.4935762337200667
527,4012.9100000000003,0.49978211242973697
528,4015.64,0.49909339113940726
529,4018.37,0.5247151698490775
530,4021.1000000000004,0.5368648485587477
531,4023.83,0.529183427268418
532,4026.5499999999997,0.5284427060560749
533,4029.28,0.5457168847657452
534,4032.0099999999998,0.5127082634754154
535,4034.74,0.4941987421850857
536,4037.4700000000003,0.519591120894756
537,4040.2,0.5300909996044263
538,4042.9300000000003,0.49048287831409654
539,4045.66,0.4825829570237668
540,4048.3799999999997,0.47740593581142365
541,4051.11,0.507748014521094
542,4053.84,0.4976735932307642
543,4056.5699999999997,0.46606347194043446
544,4059.3,0.4786284506501048
545,4062.0299999999997,0.473285229359775
546,4064.76,0.4954980080694453
547,4067.4900000000002,0.4803429867791155
548,4070.22,0.5006873654887859
549,4072.94,0.5104358442764426
550,4075.67,0.509714322986113
551,4078.3999999999996,0.4911503016957832
552,4081.13,0.48241988040545347
553,4083.86,0.49883075911512376
554,4086.59,0.506642837824794
555,4089.32,0.5426664165344643
556,4092.0499999999997,0.5215565952441346
557,4094.77,0.4877418740317915
558,4097.5,0.4748703527414617
559,4100.2300000000005,0.47472803145113196
560,4102.96,0.44741201016080223
561,4105.6900000000005,0.45185868887047254
562,4108.42,0.4885598675801428
563,4111.15,0.5029604462898131
564,4113.88,0.5095158249994833
565,4116.61,0.5445452037091536
566,4119.33,0.5262348824968104
567,4122.06,0.49934496120648075
568,4124.79,0.5056273399161509
569,4127.52,0.5139856186258213
570,4130.25,0.5071563973354916
571,4132.98,0.5226932760451618
572,4135.71,0.49260195475483215
573,4138.44,0.4909408334645024
574,4141.17,0.5143665121741726
575,4143.89,0.48557779096182946
576,4146.62,0.4896966696714998
577,4149.35,0.5078013483811701
578,4152.08,0.4985464270908403
579,4154.8099999999995,0.4729021058005106
