,lambda (Angstroms),Total Flux (erg/s/cm^2/Angstrom)
0,102.00000000000001,0.06383940133429465
1,103.9,0.07472530639811503
2,104.712855,0.0793825374752575
3,106.08,0.0728475764963058
4,108.05,0.06343127893797158
5,110.06,0.053824654497178784
6,113.91999999999999,0.035375418092427544
7,117.92999999999999,0.01620967186770661
8,120.22644299999999,0.0052573125003240835
9,120.95,0.005105252618879576
10,124.92,0.004239876566900087
11,126.95,0.003796304088885385
12,128.12,0.003541737416236518
13,131.1,0.0028911955188060715
14,132.01,0.00270448164452362
15,133.85,0.002304205028392068
16,136.97,0.0016424938879950875
17,138.038426,0.001410664708851669
18,140.16,0.0014030236731545271
19,143.09,0.001640906025942461
20,147.10000000000002,0.002269344923444036
21,150.87,0.0023342486998981357
22,155.1,0.0024214099583598973
23,158.489319,0.002513452329663466
24,159.07999999999998,0.0025270177062301996
25,162.04,0.002589092012388358
26,165.80999999999997,0.0027129809394884456
27,170.07000000000002,0.0027987284274052543
28,172.82999999999998,0.002886893320985159
29,176.85,0.002991950513808064
30,180.14,0.0030662448507203415
31,181.81,0.0031290929457487623
32,181.970086,0.003133379222892108
33,186.04,0.0033069216619131987
34,190.82,0.0035375316180675928
35,193.92,0.0037010215017660485
36,197.98,0.0038835964268678974
37,202.12,0.004091498355420029
38,204.93999999999997,0.0042443297270424955
39,208.929613,0.0043188650840548706
40,210.19,0.004367107976420605
41,216.07999999999998,0.0049463534316536014
42,220.1,0.005268072336583423
43,223.16,0.0054349240552613465
44,226.79000000000002,0.005766937947026335
45,229.94,0.008243172745665373
46,234.21999999999997,0.012782571326038416
47,239.88329199999998,0.015513494416862233
48,240.22000000000003,0.015661455983035862
49,245.82,0.014893800076233017
50,252.13,0.01572759520624624
51,256.81,0.013482855984132434
52,259.78999999999996,0.015320894983726635
53,264.01,0.015969804103957347
54,268.92,0.01591030071067128
55,273.92,0.015815828293883026
56,275.42287,0.015797424354458803
57,279.01,0.015896809605714875
58,284.2,0.016005586412753642
59,290.15,0.01546188159616032
60,296.21999999999997,0.01585293231267772
61,301.03000000000003,0.015788399931532533
62,308.05,0.01613375861850982
63,316.227766,0.016522993595570332
64,318.14000000000004,0.016545666560883153
65,327.81,0.016334828026005183
66,337.77000000000004,0.015986177446130876
67,348.03000000000003,0.015602813716260353
68,356.96,0.015306676951373046
69,363.078055,0.015194685737367288
70,366.10999999999996,0.015220756193864307
71,374.64,0.015067251567313677
72,385.14,0.014541719400985236
73,395.02000000000004,0.014874585495906664
74,405.15000000000003,0.014935839872582178
75,413.63,0.01473530558968073
76,416.86938299999997,0.014652414154392938
77,422.29999999999995,0.014487833679065082
78,430.15,0.014285168238468673
79,441.17999999999995,0.014195533651235756
80,451.46,0.013909072258964279
81,459.84999999999997,0.013645627717995632
82,469.47999999999996,0.013452337094690738
83,478.630092,0.01338907148188245
84,480.42,0.013347425156537591
85,490.47,0.01277839774632089
86,499.59000000000003,0.012671158275557075
87,506.53999999999996,0.01229317066351667
88,512.41,0.012955842594066715
89,519.54,0.012713905058261234
90,530.42,0.012294107444016681
91,540.28,0.011681462731107558
92,549.5408739999999,0.011705385453408802
93,550.3199999999999,0.011712273698014156
94,560.55,0.011945073512261982
95,569.6600000000001,0.012138375243229499
96,580.25,0.011699278012817428
97,589.68,0.012033483481865033
98,600.64,0.011665799011108062
99,610.4,0.011062669022550759
100,620.3199999999999,0.0123213039030335
101,630.4,0.012318436652556285
102,630.957344,0.012312760866920375
103,640.64,0.012282804045657073
104,649.56,0.012653990215871252
105,658.59,0.012850354107915426
106,664.69,0.013143332318487903
107,675.49,0.013002320461796552
108,684.8799999999999,0.012600189625284348
109,694.4100000000001,0.014344548616555776
110,705.69,0.013705290455122584
111,715.51,0.015039879803945817
112,724.43596,0.015245704892663269
113,725.47,0.015267734879063848
114,735.56,0.015483101463913088
115,745.7900000000001,0.01656498226302188
116,754.43,0.017145150914468603
117,764.9200000000001,0.01720870382577371
118,775.56,0.018571314109499765
119,784.54,0.019266600138433974
120,795.46,0.01982638885067914
121,804.67,0.02035496751732547
122,815.86,0.020774361499928347
123,825.31,0.0221972559624482
124,831.763771,0.019598721489977055
125,834.87,0.01832515964207162
126,844.53,0.022581710291428723
127,854.3100000000001,0.022825535110343062
128,864.1999999999999,0.02412858458468486
129,874.21,0.025463638228583895
130,884.34,0.027293506042040158
131,894.5699999999999,0.02845814899679411
132,904.9300000000001,0.027739595635235065
133,915.41,0.043984016443233256
134,926.01,0.3231138514207887
135,934.58,0.700439685030001
136,945.4,1.3553099593184113
137,954.15,2.0042697841819597
138,954.992586,2.005360205844074
139,965.1999999999999,2.018613385067317
140,974.13,0.27096105916394325
141,985.4100000000001,1.3720532580228397
142,994.53,1.6724849805045006
143,1006.04,2.840235795829491
144,1015.35,2.853806366696187
145,1024.75,1.2786428657452673
146,1034.23,1.756715300956467
147,1043.8,3.887157664350052
148,1055.89,3.8085120168504116
149,1065.6599999999999,2.7033262206492963
150,1075.52,3.4193073526305655
151,1085.47,2.44397641279422
152,1095.51,3.657000401140259
153,1096.4782,3.640594558502866
154,1105.6499999999999,3.485165721856251
155,1115.88,3.215954172302354
156,1126.2,2.7953293979723237
157,1134.01,3.9305608923989186
158,1144.5,3.4798006934917467
159,1155.09,3.816295244833314
160,1165.78,3.9059915464236217
161,1173.8600000000001,2.4314643665218147
162,1184.72,3.7661542435349804
163,1195.6799999999998,2.239056870796886
164,1203.97,1.4101151664174332
165,1215.11,1.2005943441270708
166,1226.36,2.519496247110322
167,1234.86,4.162281018253224
168,1246.28,4.596550496659334
169,1254.9199999999998,4.24140191815047
170,1258.92541,3.890974247014957
171,1263.6200000000001,3.4802637485657266
172,1275.31,4.871761825252606
173,1284.15,5.185266395647132
174,1296.03,3.6467675060868348
175,1305.02,3.572654103128327
176,1314.06,4.920912709052141
177,1326.2199999999998,4.636146869232847
178,1335.4199999999998,3.839265503580091
179,1344.67,5.0041161468096576
180,1353.99,4.801903802474475
181,1366.52,4.088199028384363
182,1375.99,4.4016447106961465
183,1385.5300000000002,4.43303340544318
184,1395.14,3.7826521126254646
185,1404.81,3.9254228304665357
186,1414.55,3.9625505607428577
187,1424.3500000000001,4.169330301677967
188,1434.22,4.084632055048325
189,1440.84,4.3874822310677555
190,1445.43977,4.465719256495258
191,1447.4899999999998,4.50059135388332
192,1454.1699999999998,4.308557349850166
193,1464.25,3.8498148527462472
194,1474.3999999999999,3.859471366079106
195,1484.6200000000001,3.9960228898487435
196,1494.92,4.089860425546127
197,1505.28,3.782691970189321
198,1512.23,3.2276870064123138
199,1515.71,3.5637755252692935
200,1526.22,3.380736092277013
201,1533.26,2.8124981419187196
202,1543.8899999999999,3.2522067268180583
203,1554.5900000000001,3.035950322154176
204,1565.3700000000001,3.05763292941804
205,1576.22,3.2921345471186827
206,1583.49,3.528095631052661
207,1594.47,3.594377268135892
208,1605.52,3.5377409156559008
209,1616.65,3.5631675751036562
210,1624.11,3.2954366873660335
211,1635.37,3.5809523661963776
212,1646.71,3.6399420569544683
213,1654.31,3.282320190090402
214,1659.58691,3.4552449035052635
215,1665.78,3.658198720059992
216,1673.47,3.114277093133927
217,1677.32,3.6591752851150265
218,1685.07,3.912358723518537
219,1696.75,3.6104634410092475
220,1704.58,3.424810966518859
221,1716.39,3.1678728255569832
222,1724.32,3.1538054599492202
223,1736.27,3.427043471423021
224,1744.28,3.326562192921359
225,1756.37,3.6316163568308357
226,1764.48,3.2300221872118
227,1776.71,3.321299503556953
228,1784.91,3.39917843193228
229,1793.15,3.7192144038606583
230,1805.58,3.6775299379710633
231,1813.9099999999999,3.3010700078938044
232,1826.49,3.394376705328148
233,1834.9199999999998,3.2124408841335153
234,1843.39,2.896972106491933
235,1856.17,2.8777650216915287
236,1864.73,2.9999843420443097
237,1873.34,3.3434227168384036
238,1886.33,3.0152848606915135
239,1895.03,2.8867193334799706
240,1903.78,3.086594860709741
241,1905.46072,3.0664311065763568
242,1916.98,2.9282045233067837
243,1925.82,2.8820491162857853
244,1934.71,2.9700176390893285
245,1943.64,3.1177711057525053
246,1957.12,2.8903861864489913
247,1966.15,3.251142512761252
248,1975.23,3.3427107688980544
249,1984.34,3.127396982929582
250,1993.5,3.021892126785651
251,2002.7,3.128615214501354
252,2016.5900000000001,2.9681617197590837
253,2025.8899999999999,3.15182966712387
254,2035.2500000000002,2.942080530278107
255,2044.64,3.1096673513270687
256,2054.08,2.9431611022005724
257,2063.56,2.93018579693371
258,2073.08,3.1913804355264808
259,2077.86,3.0270777267526827
260,2082.65,3.1846670039437934
261,2097.09,2.972891737271483
262,2106.77,2.966637151302788
263,2116.4900000000002,3.0015985091937263
264,2126.26,3.0440177969092064
265,2136.08,2.7640750144492285
266,2145.94,2.8815641758488835
267,2155.84,3.0109092811081726
268,2165.79,2.8893533161920035
269,2175.79,2.8568602811003765
270,2185.83,2.798802189868382
271,2187.7616199999998,2.828046579466213
272,2195.92,2.951583608109246
273,2206.06,2.852013954843835
274,2216.24,2.6623063463387187
275,2226.4700000000003,2.55482279378397
276,2236.75,2.788706297179589
277,2247.0699999999997,2.6316218453355025
278,2257.44,2.4659284494417837
279,2262.65,2.545799279470108
280,2273.09,2.6274319619069044
281,2283.58,2.717933700294068
282,2294.12,2.5407054946315992
283,2304.71,2.533059344919499
284,2315.35,2.362377251157766
285,2326.04,1.7143952133464013
286,2336.77,2.1172782202953306
287,2347.56,2.0392712943847013
288,2352.9700000000003,2.261003348214497
289,2363.83,2.009174500634382
290,2374.74,2.0879897090046358
291,2385.71,1.8985689845153304
292,2396.72,2.0563303047863193
293,2402.24,1.949612481706924
294,2413.33,2.0213968914985014
295,2424.47,2.1944613572404466
296,2435.66,2.0941398789327597
297,2446.9,2.2422344565754404
298,2452.54,2.2055677677769276
299,2463.86,2.1737534349401972
300,2475.24,2.069679169243908
301,2486.66,2.1211979483079126
302,2492.39,1.9881003602200622
303,2503.9,2.265063239994729
304,2511.88643,2.0342754037510007
305,2515.46,1.9310026292079823
306,2527.07,1.8899676010875548
307,2532.89,1.9377130805310614
308,2544.5800000000004,1.8877810177638095
309,2556.33,2.0825029290114387
310,2562.2200000000003,1.9881013781389738
311,2574.0499999999997,2.1383502547397786
312,2585.9300000000003,2.0880971096863177
313,2597.87,2.0389499386477388
314,2603.85,1.9464313487975962
315,2615.8700000000003,1.9094501431121922
316,2627.95,2.03019891144167
317,2634.0099999999998,2.139721286944703
318,2646.1600000000003,2.376741024958209
319,2652.26,2.4705193831378294
320,2664.5099999999998,2.1353360778428048
321,2676.81,2.2704597508935147
322,2682.98,2.2590690787571632
323,2695.36,2.126128717161049
324,2707.8,2.2141253295798156
325,2714.04,2.056062627127493
326,2726.5699999999997,2.0402942005685816
327,2732.8599999999997,2.1651134764619933
328,2745.47,1.782997015256258
329,2758.14,1.8399475280654038
330,2764.4999999999995,1.934649773642844
331,2777.2599999999998,2.042775247474312
332,2783.66,1.8837834757283403
333,2796.5099999999998,1.4579349105821306
334,2802.96,1.5795051171818932
335,2815.9,1.9911015130580059
336,2822.3900000000003,2.157118702334356
337,2835.41,2.067882063563644
338,2841.95,1.996872231185729
339,2855.07,1.8792195491064863
340,2868.25,2.160535841042125
341,2874.86,2.1794109783482383
342,2884.0315,2.15062010754974
343,2888.1299999999997,2.1377559699805566
344,2894.79,2.122148910951722
345,2908.15,2.3733647925395247
346,2928.31,2.242761613857646
347,2948.6099999999997,2.188763433934921
348,2969.04,2.252125252859981
349,2989.62,2.249011070455563
350,3010.35,2.287536886721667
351,3031.2099999999996,2.2738157018355567
352,3052.23,2.265378515531336
353,3073.38,2.277872328074901
354,3087.57,2.301886202306257
355,3108.97,2.2933200126340245
356,3130.52,2.248222821632314
357,3152.22,2.249941629301125
358,3166.77,2.2477565003417337
359,3188.72,2.0995193057947477
360,3210.83,2.1950101098296515
361,3233.08,2.045540912623709
362,3248.0,2.2198257803849377
363,3270.52,2.310165580785934
364,3293.1899999999996,2.2748953798574525
365,3308.39,2.2725552451369886
366,3311.31121,2.263182095135734
367,3323.66,2.2235571269900154
368,3331.3199999999997,2.263822829156061
369,3338.9999999999995,2.116525527933506
370,3346.7000000000003,2.277076223322351
371,3354.42,2.178459915322595
372,3362.1499999999996,2.0697006056285394
373,3369.9,2.0878062925458836
374,3377.6699999999996,2.120565976074627
375,3385.45,2.16379065790907
376,3393.26,2.2748753346606128
377,3401.0800000000004,2.430597009717855
378,3408.9199999999996,2.1903136813864967
379,3416.7799999999997,2.1840613496665386
380,3424.65,2.32278701625228
381,3432.5499999999997,2.3975136777551214
382,3440.46,2.2884483375636617
383,3448.39,2.095593993983602
384,3456.34,2.1381886470149416
385,3464.31,2.0269372966576813
386,3472.2999999999997,2.24163294291182
387,3480.3,2.057513587471659
388,3488.3199999999997,2.163154228642897
389,3496.36,2.127418866425535
390,3504.4199999999996,2.226505500819573
391,3512.5,2.1497321318250098
392,3520.6,2.2600397594418467
393,3528.7200000000003,2.0225543836700832
394,3536.8500000000004,2.216348006204019
395,3545.0,2.314183625349355
396,3553.1800000000003,2.33414623941179
397,3561.37,2.274531851779925
398,3569.58,2.06857446075946
399,3577.81,2.0389290663503936
400,3586.05,1.9106826702470276
401,3594.3199999999997,2.0840222690607613
402,3602.61,2.289044864485894
403,3610.91,2.096033458216727
404,3619.2400000000002,2.2036920468646586
405,3627.5800000000004,2.306201633818291
406,3635.9399999999996,2.0637382173833223
407,3643.5099999999998,2.42791393479807
408,3646.19,2.308696480725616
409,3648.8599999999997,2.4772130283474616
410,3651.53,2.5923665759693084
411,3654.21,1.967766121896854
412,3656.88,2.2430076695187005
413,3659.5499999999997,2.490475217140547
414,3662.22,2.4319667647623926
415,3664.8999999999996,2.185116310689939
416,3667.57,2.3388088583117845
417,3670.2400000000002,2.157192405933631
418,3672.91,2.0365829535554774
419,3675.59,2.427118499483023
420,3678.2599999999998,2.3278860471048697
421,3680.93,2.079643594726716
422,3683.61,2.1612391406542617
423,3686.28,2.368137688276108
424,3688.95,2.354254235897954
425,3691.62,2.2083677835198006
426,3694.2999999999997,2.140017329447346
427,3696.97,2.3113418770691925
428,3699.6400000000003,2.4481844246910387
429,3702.31,2.1507919723128848
430,3704.9900000000002,2.219904518240431
431,3707.66,2.092118065862277
432,3710.33,2.0857236134841233
433,3713.0,2.293715161105969
434,3715.6800000000003,2.3018197070335153
435,3718.3500000000004,2.0924292546553613
436,3721.02,3.0816678022772077
437,3723.7,3.858063348204754
438,3726.37,5.0423398958266
439,3729.04,5.8839764434484465
440,3731.7099999999996,4.830619991070293
441,3734.3900000000003,3.7972105369978384
442,3737.06,3.1685680846196846
443,3739.73,2.4402206322415307
444,3742.4,2.308221179863377
445,3745.08,2.478596725790923
446,3747.7500000000005,2.2532912734127692
447,3750.42,2.077291821034615
448,3753.1,1.9161033669621614
449,3755.77,2.457375914584008
450,3758.44,2.4040164622058535
451,3761.1099999999997,2.3882600098277003
452,3763.79,2.6386795557552456
453,3766.4599999999996,2.294323103377092
454,3769.13,2.5255636509989383
455,3771.8,2.2406541986207844
456,3774.48,2.394802744548331
457,3777.15,2.641803292170177
458,3779.8199999999997,2.696260839792023
459,3782.4999999999995,3.065573385719569
460,3785.17,3.168401933341415
461,3787.84,2.8121874809632614
462,3790.51,2.7149840285851075
463,3793.19,2.4820195745126536
464,3795.8599999999997,2.4640791221344998
465,3798.5299999999997,2.144686669756346
466,3801.2000000000003,2.502937217378192
467,3801.8939600000003,2.4615623242035145
468,3803.88,2.343151833418436
469,3806.55,2.4976254752986575
470,3809.22,2.733391117178879
471,3811.89,3.0023917590591007
472,3814.5699999999997,2.74118439959805
473,3817.2400000000002,2.834807041478271
474,3819.9100000000003,2.919379683358493
475,3822.59,2.548951323897442
476,3825.2599999999998,2.2531209657776636
477,3827.93,2.276528607657885
478,3830.6,2.2317502495381065
479,3833.28,2.3704528900770554
480,3835.9500000000003,2.180722531957277
481,3838.62,2.2624851738374985
482,3841.29,2.31538281571772
483,3843.97,2.502142456256669
484,3846.64,2.4277180981368907
485,3849.3100000000004,2.954013740017112
486,3851.9900000000002,2.766297380556061
487,3854.66,3.2610740224362824
488,3857.33,3.1922686643165044
489,3860.0,3.109888306196726
490,3862.68,3.7703529467356747
491,3865.3500000000004,3.6581715886158963
492,3868.02,3.913599230496118
493,3870.69,4.051691872376339
494,3873.37,3.7464805129152885
495,3876.04,3.37045115479551
496,3878.71,3.2228507966757314
497,3881.3799999999997,2.787840438555953
498,3884.06,2.787049079094902
499,3886.73,2.284477720975124
500,3889.4,2.616514362855345
501,3892.08,2.7602080033942937
502,3894.75,2.6151026452745154
503,3897.4199999999996,2.8458762871547374
504,3900.09,2.7962609290349585
505,3902.77,3.089275569573908
506,3905.44,3.367326211454129
507,3908.11,3.343456853334351
508,3910.7799999999997,3.425066495214572
509,3913.4600000000005,3.7148011357535213
510,3916.13,3.753969777633743
511,3918.8,3.2841654195139647
512,3921.48,3.3245650600529135
513,3924.15,3.157772701933135
514,3926.8199999999997,3.0892793438133563
515,3929.49,2.914839985693578
516,3932.1699999999996,3.091299626232527
517,3934.84,2.7753412681127485
518,3937.51,2.92060890999297
519,3940.18,2.7742565518731914
520,3942.86,2.9430701924121405
521,3945.5299999999997,3.2699588342923622
522,3948.2,3.3854254761725833
523,3950.8700000000003,3.301016118052805
524,3953.55,3.374182758591754
525,3956.22,3.255603400471976
526,3958.89,3.0824130423521976
527,3961.5699999999997,2.743035682891146
528,3964.24,2.7814223247713676
529,3966.9100000000003,2.687962966651589
530,3969.58,2.785329608531811
531,3972.26,2.58965724907076
532,3974.93,2.6140008909509818
533,3977.6,2.721197532831203
534,3980.27,2.7057531747114245
535,3982.9500000000003,3.0050108152503734
536,3985.6200000000003,3.2165914571305954
537,3988.29,3.2492060990108165
538,3990.97,3.486359739549765
539,3993.64,3.454534381429987
540,3996.31,3.3292450233102087
541,3998.9799999999996,3.40866966519043
542,4001.6600000000003,3.4266003057293792
543,4004.33,3.4613989476096005
544,4007.0,3.3989905894898222
545,4009.67,3.5094652313700436
546,4012.35,3.203163871908993
547,4015.0200000000004,3.3885325137892144
548,4017.69,3.436594155669436
549,4020.36,3.596998797549657
550,4023.04,3.7399094380886067
551,4025.71,3.667983079968828
552,4028.3799999999997,3.4256717218490493
553,4031.0600000000004,3.4189493623879983
554,4033.73,3.4807420042682202
555,4036.4,3.5362936461484415
556,4039.07,3.393685288028663
557,4041.75,3.278053928567612
558,4044.42,3.4432945704478337
559,4047.0899999999997,3.4007022123280555
560,4049.76,3.4317568542082766
561,4052.44,3.4601414947472255
562,4055.11,3.7366321366274473
563,4057.78,3.593400778507669
564,4060.46,3.527854419046618
565,4063.1299999999997,3.744585060926839
566,4065.8,3.7609727028070608
567,4068.4700000000003,3.7648783446872827
568,4071.15,3.5262949852262313
569,4073.82,3.630838627106453
570,4076.49,3.6289712689866747
571,4079.16,3.6603379108668963
572,4081.8399999999997,3.731473551405845
573,4084.51,3.580909193286067
574,4087.1800000000003,3.645197835166288
575,4089.85,3.7739284770465096
576,4092.5299999999997,3.6344231175854587
577,4095.2,3.3655867594656805
578,4097.87,3.4055344013459017
579,4100.55,3.1664840418848508
580,4103.22,3.1744446837650724
581,4105.889999999999,3.1897393256452937
582,4108.56,3.328142967525515
583,4111.24,3.3329676080644646
584,4113.91,3.290219249944686
585,4116.58,3.3144078918249074
586,4119.25,3.386030533705129
587,4121.929999999999,3.800591174244078
588,4124.6,3.672338816124299
589,4127.27,3.528638458004521
