,lambda (Angstroms),Total Flux (erg/s/cm^2/Angstrom)
0,100.00999999999999,0.001016335391616008
1,102.11,0.0012495285236620343
2,104.0,0.0014594015182864564
3,104.712855,0.0015385601911754134
4,105.94,0.0014248655663923187
5,107.91,0.001242346691088636
6,109.91000000000001,0.0010570588392981447
7,114.03999999999999,0.0006744222792943347
8,118.05,0.00030290417282775173
9,120.22644299999999,0.00010135040175792423
10,121.07,9.777170554434823e-05
11,125.03999999999999,8.080850742528388e-05
12,127.07,7.213637531452806e-05
13,127.95,6.838143651282106e-05
14,130.93,5.565533482067703e-05
15,132.14,5.051455944333005e-05
16,133.98,4.266512554885185e-05
17,137.1,2.9392150297345352e-05
18,138.038426,2.539589676776815e-05
19,139.97,2.515882536369682e-05
20,142.91,2.5105409781861724e-05
21,146.91,2.5053867731745936e-05
22,151.03,2.471129527012668e-05
23,154.9,2.445658974913966e-05
24,158.489319,2.4249741275751628e-05
25,158.86999999999998,2.4196880849366625e-05
26,161.82999999999998,2.3821434237436852e-05
27,165.98000000000002,2.3321239538278545e-05
28,169.84,2.291961555785662e-05
29,173.0,2.26036998640397e-05
30,177.03,2.2264060014013696e-05
31,179.91,2.2074888634838785e-05
32,181.970086,2.1948386427769226e-05
33,181.99,2.1953287218939582e-05
34,185.79999999999998,2.2963382703920055e-05
35,191.01,2.43387492909931e-05
36,194.11,2.522946958848378e-05
37,198.17999999999998,2.645564662099573e-05
38,201.85999999999999,2.7735447832210474e-05
39,205.14000000000001,2.877024958568448e-05
40,208.929613,2.9900084028555925e-05
41,209.92000000000002,3.0571475236515657e-05
42,215.79999999999998,3.538056014013648e-05
43,219.81,3.8553163603320095e-05
44,222.87,4.089061686949012e-05
45,227.01,4.4262042464896634e-05
46,230.17,5.494654890969966e-05
47,233.91,7.572408179057415e-05
48,239.88329199999998,9.221880072256526e-05
49,239.91,9.227040785544862e-05
50,246.06,9.150165648943205e-05
51,251.8,9.528131321448325e-05
52,257.07,8.474293848295363e-05
53,260.05,9.488501601616838e-05
54,264.27,9.849170420078792e-05
55,269.18,9.947325218336657e-05
56,274.19,0.00010015493941202625
57,275.42287,0.00010028566993720508
58,279.28999999999996,0.00010369022956531875
59,283.82,0.00010843009008428082
60,289.77,0.00011020719193589763
61,295.83000000000004,0.00011728027607384689
62,301.33,0.00011886851039046747
63,308.35,0.00012653776993640868
64,316.227766,0.00013516410120213522
65,317.72,0.00013576444560135749
66,328.13,0.00013673905787569432
67,338.1,0.00013700273341605337
68,348.38,0.0001367631189280786
69,357.31,0.00013699658036994485
70,363.078055,0.00013769427549302837
71,365.64,0.0001393400777000416
72,375.02,0.00014338930068761953
73,384.64,0.0001442225814062229
74,395.41,0.00015167152208598987
75,404.62,0.0001560567875140914
76,414.04999999999995,0.00015906753919563295
77,416.86938299999997,0.00015992880135635981
78,421.74,0.00016097134114474693
79,429.59,0.00016204360339984531
80,440.6,0.00016531253339075404
81,450.87,0.00016701927853213753
82,460.31,0.00016801379607202656
83,469.95000000000005,0.00016963494194962507
84,478.630092,0.00017134394463532647
85,479.79,0.00017120467756126122
86,489.83,0.00016851505222994148
87,500.09,0.00016785706797701913
88,505.88,0.00017353214908575007
89,511.73999999999995,0.0002133116432648802
90,520.0500000000001,0.00021222549490798107
91,529.72,0.00021089800049026576
92,539.5699999999999,0.0002038856396821483
93,549.5408739999999,0.0002182049011056564
94,549.6,0.00021829698376581378
95,559.8199999999999,0.0002335303567691149
96,570.23,0.00024304620999459088
97,579.49,0.0002371407671384821
98,590.27,0.0002530251660597723
99,599.86,0.0002514248099053357
100,609.61,0.00026198648972746737
101,619.51,0.0002883692907776318
102,629.58,0.00029639064255290016
103,630.957344,0.0002969893345074325
104,639.81,0.0003020538052578966
105,650.1999999999999,0.00031925875584740745
106,657.73,0.00032667148558167286
107,665.35,0.00034139591527292145
108,674.6,0.0003494370330739778
109,685.57,0.00034516553894182523
110,695.1,0.0003944157454979406
111,704.77,0.0003803770964315855
112,716.22,0.00043400926873667686
113,724.43596,0.0004439450734654006
114,726.19,0.0004460066429358651
115,734.6,0.00045797432619420006
116,744.82,0.0004898926513904169
117,755.1800000000001,0.0005096823604934311
118,765.68,0.000525760053503243
119,774.55,0.0005601105838839126
120,785.32,0.0005917231958568337
121,794.42,0.0006117081497986707
122,805.4699999999999,0.0006324455295851869
123,814.8,0.000649602307088191
124,824.23,0.0006923788730960506
125,831.763771,0.0006485193414558271
126,835.7,0.0006250418608770472
127,845.37,0.0007254343369110199
128,855.16,0.0007470622707654763
129,865.07,0.0007865918624404163
130,875.08,0.0008265203689657593
131,885.22,0.0008745004547966262
132,895.47,0.0009111749769629365
133,905.8299999999999,0.0009245205354646901
134,914.22,0.001337168661413504
135,924.8000000000001,0.007838003392586144
136,935.51,0.01684049940306431
137,944.17,0.033037232009109206
138,954.992586,0.04536520752441583
139,955.1,0.04548757134158299
140,963.9399999999999,0.05557388461959702
141,975.1,0.012956672015822861
142,984.12,0.05886075250990504
143,995.52,0.05832471619422177
144,1004.73,0.07257848374970924
145,1014.03,0.06483844991323078
146,1025.77,0.025766818339009574
147,1035.26,0.0503346015639364
148,1044.84,0.0864521233968973
149,1054.51,0.08664980383789227
150,1064.26,0.07461289304158421
151,1074.1100000000001,0.08487356069864735
152,1084.05,0.07290996696374456
153,1094.0800000000002,0.08705118183687587
154,1096.4782,0.08639654752447774
155,1104.2,0.08428848095891069
156,1114.42,0.08332414624262564
157,1124.73,0.0770514471697393
158,1135.14,0.08866574325618477
159,1145.64,0.08199008498602892
160,1156.24,0.08526636187520492
161,1164.26,0.08785015365361923
162,1175.03,0.06820102231365936
163,1185.9,0.08370656613303136
164,1194.1200000000001,0.06365014823010934
165,1205.17,0.04906978333627866
166,1216.32,0.024943733601779837
167,1224.75,0.054801015533454706
168,1236.09,0.07865664660168639
169,1244.6599999999999,0.08684447175642586
170,1256.17,0.08565232459552168
171,1258.92541,0.08287311189538214
172,1264.8799999999999,0.07686739171772838
173,1273.65,0.09177447191402788
174,1285.4299999999998,0.09478329247416563
175,1294.34,0.0829380331525041
176,1306.32,0.08160984440126896
177,1315.37,0.09391688556164644
178,1324.49,0.09093411696304339
179,1333.67,0.0848655585710285
180,1346.01,0.0934824010593222
181,1355.34,0.09156616318377765
182,1364.74,0.08545343554925258
183,1374.1999999999998,0.08764794812131566
184,1383.72,0.08886419089996689
185,1396.53,0.08049173500653432
186,1406.21,0.08293776833608725
187,1415.95,0.08448039187222829
188,1425.77,0.0846717356838202
189,1435.65,0.08428201970200025
190,1442.28,0.08744488252998948
191,1445.43977,0.08802086618318086
192,1445.6,0.08805007387253695
193,1455.62,0.08644409282821668
194,1465.71,0.08236632198618159
195,1475.87,0.08161136134643167
196,1486.1,0.08179847090896697
197,1496.4099999999999,0.08236558070268532
198,1503.31,0.07957206064222525
199,1513.73,0.07391943075382032
200,1517.22,0.07704561083918182
201,1524.23,0.07546606109659847
202,1534.79,0.06882859161276393
203,1545.43,0.07307383236011246
204,1556.14,0.06946590330974617
205,1563.32,0.07010861405842685
206,1574.16,0.07357678538373305
207,1585.0700000000002,0.07546687691132445
208,1596.06,0.07704553867009892
209,1603.43,0.07443289996783939
210,1614.54,0.07426216207338845
211,1625.73,0.07157568441012059
212,1633.24,0.07426213611243145
213,1644.56,0.07460430882483608
214,1655.96,0.07010861176842378
215,1659.58691,0.07257100930356228
216,1663.6000000000001,0.07529566694000656
217,1671.28,0.06946623901552865
218,1675.1299999999999,0.07511881026432554
219,1686.74,0.07686975527693121
220,1694.53,0.07341151967384751
221,1706.28,0.0712443276409549
222,1714.15,0.06930707372615788
223,1726.03,0.06867066443673113
224,1734.0,0.07174265263229249
225,1746.02,0.06995005629736743
226,1754.0800000000002,0.0730755363922513
227,1766.24,0.06788405301182797
228,1774.39,0.07011107500603436
229,1786.69,0.07043273458011272
230,1794.9399999999998,0.07324236868467748
231,1803.22,0.07257362342234976
232,1815.72,0.06946957721714483
233,1824.1,0.06978568406517546
234,1836.75,0.06788520102550809
235,1845.22,0.06350241977286124
236,1853.74,0.06394091957539356
237,1866.59,0.06528482075644293
238,1875.21,0.0682022426693336
239,1883.86,0.06438608521533182
240,1896.92,0.06234711082813372
241,1905.46072,0.0646272245723159
242,1905.6799999999998,0.06468575510291238
243,1914.47,0.06321426599070414
244,1923.31,0.062057895518358164
245,1936.64,0.06249114290564643
246,1945.5800000000002,0.06558407971302506
247,1954.56,0.06249005543229353
248,1968.1100000000001,0.0661883568349759
249,1977.19,0.06710943983396896
250,1981.75,0.06438481578941042
251,1995.49,0.06292253202356952
252,2004.7,0.06350035148620456
253,2013.9499999999998,0.06248906986072942
254,2023.25,0.06364968687511659
255,2037.27,0.06219931549250454
256,2046.6799999999998,0.06349907951458877
257,2056.12,0.061063952720590356
258,2065.61,0.061486504566454256
259,2075.15,0.06453184505218044
260,2079.9300000000003,0.063354115023016
261,2084.73,0.06453151444979646
262,2094.35,0.06176923275930233
263,2104.02,0.06219710970867049
264,2113.73,0.06248583556992849
265,2123.48,0.06291962034307631
266,2133.29,0.05953585348405891
267,2143.13,0.061061565808958884
268,2153.0299999999997,0.06205084650169361
269,2162.96,0.06022045637834571
270,2172.95,0.05966876462283256
271,2182.98,0.059807541779209265
272,2187.7616199999998,0.06073785702772405
273,2193.05,0.06176702640328266
274,2203.1800000000003,0.06022021610831764
275,2213.34,0.05764622646400918
276,2223.56,0.056725668121013866
277,2233.82,0.06008721064556065
278,2244.14,0.05791363447142057
279,2254.4900000000002,0.055816508947937056
280,2264.9,0.05607838472576668
281,2275.35,0.0573849913711384
282,2285.86,0.05871786931782326
283,2296.4100000000003,0.055939938132050206
284,2307.0099999999998,0.05651858803070478
285,2317.66,0.05491286901378696
286,2323.0,0.047039234830656335
287,2333.72,0.05175271733193718
288,2344.49,0.04913804091764564
289,2355.31,0.05319689558778172
290,2366.19,0.04901937155923094
291,2377.11,0.05067969839822225
292,2382.59,0.04662138725148895
293,2393.5899999999997,0.048982495825564444
294,2404.63,0.047699275267182026
295,2415.73,0.04830258601011275
296,2426.8799999999997,0.05133543783747109
297,2432.48,0.049676159293364074
298,2443.71,0.0518311728558066
299,2454.99,0.05129155750267674
300,2466.3199999999997,0.0505235032339745
301,2477.7,0.04874636004969988
302,2483.41,0.04871520389133361
303,2494.8799999999997,0.04678509265902869
304,2506.39,0.05134864229426587
305,2511.88643,0.046313099703218084
306,2512.17,0.04605329912357734
307,2517.96,0.04591719052208131
308,2523.77,0.04453447175270445
309,2535.42,0.04540557396212953
310,2547.12,0.04524076575185256
311,2552.99,0.04855479647883327
312,2564.77,0.04695172759703304
313,2576.6099999999997,0.04920967821159036
314,2582.55,0.04861376835098822
315,2594.47,0.047771308294022284
316,2606.4500000000003,0.0460865277334139
317,2612.4599999999996,0.0452144272852289
318,2624.52,0.04738759605309725
319,2636.6299999999997,0.049665154401263574
320,2642.7099999999996,0.05416651336549572
321,2654.91,0.05624829095819837
322,2667.1600000000003,0.05099300813119898
323,2673.31,0.05286835650784827
324,2685.65,0.05365254292538522
325,2698.04,0.04999883892322012
326,2704.26,0.05183674671228655
327,2716.75,0.048307931870717385
328,2723.01,0.04750092932402219
329,2735.5800000000004,0.04978023381092976
330,2741.8799999999997,0.04332730092847293
331,2754.54,0.04498978465991683
332,2767.25,0.047256047971658686
333,2773.63,0.0489922444176786
334,2786.44,0.045028276890016386
335,2792.8599999999997,0.03607457300027467
336,2805.75,0.03832957480108919
337,2812.2200000000003,0.047880560491645435
338,2825.2,0.050872611536996286
339,2838.2400000000002,0.04929674207870469
340,2844.78,0.046934777181678086
341,2857.9100000000003,0.04353417696792282
342,2864.5,0.04959849165119417
343,2877.72,0.05102489068197524
344,2884.0315,0.05032205598009539
345,2884.36,0.05028547764655527
346,2897.67,0.050904275360084454
347,2911.05,0.05572751306158864
348,2931.22,0.05308995959666631
349,2951.5400000000004,0.051875286105976096
350,2972.0,0.052468002591235845
351,2992.6000000000004,0.05245924905244557
352,3013.3500000000004,0.052690825487887394
353,3027.2599999999998,0.05308903309834503
354,3048.24,0.05344458949427609
355,3069.3700000000003,0.053677555864439265
356,3090.64,0.053539032210552416
357,3112.07,0.054266198529179806
358,3126.43,0.05293905606233376
359,3148.1,0.052677382339732536
360,3169.9300000000003,0.053634368589645556
361,3191.8999999999996,0.050733104815508544
362,3206.6299999999997,0.052540602285101705
363,3228.86,0.049695188466300354
364,3251.2400000000002,0.05433594462173111
365,3266.25,0.05718342204322421
366,3288.89,0.05649830815399062
367,3311.31121,0.055582015660586945
368,3311.6800000000003,0.05556694309127801
369,3319.32,0.054004058002393975
370,3326.9700000000003,0.054699652880671086
371,3334.64,0.0574884376932705
372,3342.33,0.0537202724401922
373,3350.0299999999997,0.055941687154275055
374,3357.76,0.055374061769841346
375,3365.5,0.04829554635256878
376,3373.25,0.04813746090245736
377,3381.0299999999997,0.05260718535382938
378,3388.82,0.05503145977236255
379,3396.6400000000003,0.05178325409237916
380,3404.47,0.05606966837955691
381,3412.31,0.05227902263389582
382,3420.18,0.05443724678971816
383,3428.0699999999997,0.055138180879862796
384,3435.97,0.05520782493716857
385,3443.89,0.049841898928796646
386,3451.8300000000004,0.05612291285474701
387,3459.78,0.05428734674785853
388,3467.7599999999998,0.05373577054245348
389,3475.7500000000005,0.05455477430420958
390,3483.77,0.05437250796744912
391,3491.7999999999997,0.05532532159784981
392,3499.85,0.05029071516257279
393,3507.92,0.05546427866161806
394,3516.0000000000005,0.05159255212782448
395,3524.1099999999997,0.05273881549551433
396,3532.23,0.05516465883036534
397,3540.37,0.05651890209953864
398,3548.54,0.058713195270195376
399,3556.72,0.05614398840801326
400,3564.91,0.05686160151299229
401,3573.13,0.04879762451945476
402,3581.37,0.05080754746023953
403,3589.62,0.04461514036818543
404,3597.9,0.052965243177614786
405,3606.19,0.05218271595420529
406,3614.51,0.05164825863227922
407,3619.71,0.03934687155607543
408,3622.45,0.03882239255822959
409,3625.1899999999996,0.04988258356038375
410,3627.94,0.058659594529699044
411,3630.68,0.0481016955318532
412,3633.4300000000003,0.03971240650116851
413,3636.17,0.04824079750332266
414,3638.9100000000003,0.047176788505476824
415,3641.66,0.05508401947479212
416,3644.3999999999996,0.051360860476946275
417,3647.15,0.058445371446261586
418,3649.89,0.05359067244841574
419,3652.63,0.0507410434505699
420,3655.3799999999997,0.0574765844198852
421,3658.1200000000003,0.07312771542203936
422,3660.87,0.05908762639135466
423,3663.61,0.05216843739350882
424,3666.35,0.07075656839566298
425,3669.1000000000004,0.060522159364978276
426,3671.84,0.050687930367132435
427,3674.5899999999997,0.051985761336447736
428,3677.33,0.0639746223386019
429,3680.0699999999997,0.06191400334075605
430,3682.82,0.06481489431007136
431,3685.56,0.06005120531222551
432,3688.3100000000004,0.05172772628154081
433,3691.05,0.062256397283694975
434,3693.79,0.06986793828584913
435,3696.54,0.061870919255164435
436,3699.2799999999997,0.05509999025731859
437,3702.03,0.0635301412266339
438,3704.77,0.06203689222878805
439,3707.5099999999998,0.06394254323094221
440,3710.26,0.05798488420025751
441,3713.0,0.05014343520241167
442,3715.7400000000002,0.05952132620456582
443,3718.49,0.06833150717388113
444,3721.23,0.06551616817603528
445,3723.98,0.06910218914535059
446,3726.7200000000003,0.061046650147504745
447,3729.46,0.0638836611496589
448,3732.21,0.05103077211897421
449,3734.9500000000003,0.05786723312112837
450,3737.7,0.04205974409044366
451,3740.44,0.05834888509259782
452,3743.18,0.05902878609475198
453,3745.9300000000003,0.057556617064067284
454,3748.67,0.06271665806622144
455,3751.4199999999996,0.06235246903553674
456,3754.1600000000003,0.0631501300376909
457,3756.9,0.055538831039845055
458,3759.65,0.06924666200916037
459,3762.39,0.06536080301131451
460,3765.1400000000003,0.06863637398062981
461,3767.88,0.06218125498278398
462,3770.62,0.06880256598493813
463,3773.37,0.07118959695425343
464,3776.1099999999997,0.06990510795640759
465,3778.86,0.07801941892572291
466,3781.6,0.07602305992787706
467,3784.34,0.07448165093003122
468,3787.09,0.08162713189934652
469,3789.83,0.07801962290150068
470,3792.58,0.07075054387081597
471,3795.3199999999997,0.06904319487297013
472,3798.06,0.06361043587512429
473,3800.81,0.0650072568444396
474,3801.8939600000003,0.0674488098879056
475,3803.55,0.07117893897971696
476,3806.3,0.07070233183068296
477,3809.0400000000004,0.07638159470764544
478,3811.78,0.07828191758460792
479,3814.5299999999997,0.07964657043557392
480,3817.27,0.08150944331253641
481,3820.02,0.07845820616350242
482,3822.76,0.0709379490404649
483,3825.5,0.07098627191742739
484,3828.2500000000005,0.06405441476839338
485,3830.9900000000002,0.06524281764535587
486,3833.74,0.05855722049632187
487,3836.48,0.06212752337328436
488,3839.22,0.058926776250246844
489,3841.9700000000003,0.06592243910121284
490,3844.71,0.07598013197817534
491,3847.4599999999996,0.07459890482914133
492,3850.2,0.0752467177061038
493,3852.94,0.07761273058306631
494,3855.69,0.0800050934340323
495,3858.43,0.0797108563109948
496,3861.1800000000003,0.08235478916196079
497,3863.92,0.08275104203892326
498,3866.6600000000003,0.08740263491588576
499,3869.41,0.08641211776685176
500,3872.1499999999996,0.08137548064381425
501,3874.9,0.07918065349478025
502,3877.64,0.07980707637174272
503,3880.38,0.07799268924870521
504,3883.13,0.07605479209967121
505,3885.8700000000003,0.06923571497663371
506,3888.62,0.0639310678275997
507,3891.3599999999997,0.06724445070456218
508,3894.1,0.07393535358152467
509,3896.85,0.07724837643249068
510,3899.59,0.07819058930945316
511,3902.34,0.08114497216041916
512,3905.0800000000004,0.08226382503738164
513,3907.82,0.08197495791434413
514,3910.5699999999997,0.08580716076531013
515,3913.31,0.08575914364227262
516,3916.06,0.08558759649323862
517,3918.8,0.0863103593702011
518,3921.54,0.08594655224716359
519,3924.2899999999995,0.07976938509812959
520,3927.03,0.07171384797509207
521,3929.7799999999997,0.06383461082605808
522,3932.52,0.05835901370302056
523,3935.2599999999998,0.05736354657998305
524,3938.01,0.05994866943094904
525,3940.75,0.06702493230791154
526,3943.5,0.07172965515887754
527,3946.24,0.07778358803584001
528,3948.9800000000005,0.08194807091280251
529,3951.73,0.0793143437637685
530,3954.47,0.08042782664073099
531,3957.2200000000003,0.080609569491697
532,3959.96,0.07405278236865948
533,3962.7000000000003,0.06920345524562196
534,3965.45,0.06066583809658796
535,3968.1899999999996,0.054531870973550445
536,3970.94,0.05185646382451645
537,3973.68,0.05390018670147893
538,3976.42,0.06127618957844142
539,3979.17,0.07162258242940742
540,3981.9100000000003,0.08044381530636992
541,3984.66,0.08990694815733591
542,3987.3999999999996,0.09476194103429839
543,3990.14,0.09726180391126088
544,3992.89,0.09572529676222688
545,3995.63,0.09646413963918937
546,3998.38,0.09582689249015537
547,4001.1200000000003,0.10089063536711784
548,4003.86,0.09914050824408034
549,4006.6099999999997,0.10083162109504633
550,4009.35,0.10031261397200883
551,4012.1,0.10402700682297482
552,4014.84,0.1048835996999373
553,4017.58,0.1043110925768998
554,4020.33,0.10602358542786579
555,4023.07,0.10539757830482828
556,4025.82,0.10311167115579428
557,4028.56,0.10490496403275676
558,4031.2999999999997,0.10533875690971925
559,4034.05,0.10364704976068524
560,4036.79,0.10236794263764774
561,4039.54,0.10670863548861374
562,4042.2799999999997,0.10418772836557622
563,4045.0199999999995,0.10318162124253871
564,4047.77,0.1031492140935047
565,4050.5099999999998,0.1050924069704672
566,4053.26,0.1067245998214332
567,4056.0,0.09963260269839568
568,4058.7400000000002,0.10002358557535816
