,lambda (Angstroms),Total Flux (erg/s/cm^2/Angstrom)
0,100.03,0.000350032255456737
1,101.89,0.0004210117008981165
2,104.03,0.0005026761431524112
3,104.712855,0.0005287345758932288
4,105.96,0.0004890248063911517
5,107.93,0.0004262990135788574
6,109.94,0.00036230022771198915
7,114.05999999999999,0.0002311177495538163
8,118.07,0.00010343785661922281
9,120.22644299999999,3.478155159317754e-05
10,121.1,3.3497073982849796e-05
11,125.07000000000001,2.7652447401831602e-05
12,127.10000000000001,2.466414843259561e-05
13,127.98,2.336907585415834e-05
14,130.96,1.89828133351321e-05
15,131.87,1.7645550377543553e-05
16,134.01,1.4496168104752923e-05
17,137.13,9.907920343020751e-06
18,138.038426,8.571851997816036e-06
19,140.0,8.474819353549424e-06
20,142.94,8.350596958822116e-06
21,146.94,8.181023500961834e-06
22,151.06,7.991566425765744e-06
23,154.93,7.82005128668592e-06
24,158.489319,7.665435815275265e-06
25,158.91,7.635418271050796e-06
26,161.85999999999999,7.428986320903606e-06
27,166.01000000000002,7.141545767306706e-06
28,169.88,6.881038681181408e-06
29,173.04,6.670156805430519e-06
30,177.07,6.407739052178593e-06
31,179.95000000000002,6.227711143899298e-06
32,181.970086,6.101898854711952e-06
33,182.03,6.1044988909739335e-06
34,185.84,6.280490658289386e-06
35,191.05,6.520201606508157e-06
36,194.15,6.672898657079785e-06
37,198.22,6.87996470799157e-06
38,201.9,7.086109183508858e-06
39,205.18,7.260748107339485e-06
40,208.929613,7.462599712118218e-06
41,209.96,7.652545079603038e-06
42,215.85,8.817783987829095e-06
43,219.85999999999999,9.603310151154475e-06
44,222.92,1.0197084555088558e-05
45,227.06,1.1028529748646437e-05
46,230.22,1.2912999021990128e-05
47,233.96,1.5640989737909562e-05
48,239.88329199999998,1.8118045458570127e-05
49,239.96,1.8128266579145795e-05
50,246.11999999999998,1.7648743824739545e-05
51,251.85,1.765666544929347e-05
52,257.12,1.6166234549014092e-05
53,260.09999999999997,1.7073958992499385e-05
54,263.71999999999997,1.7240880383578828e-05
55,269.24,1.6963404681578416e-05
56,274.25,1.6749371615088912e-05
57,275.42287,1.6697786612628474e-05
58,278.7,1.74257353353698e-05
59,283.89,1.8580965977638433e-05
60,289.83,1.9472613071101954e-05
61,295.90000000000003,2.1008403282772593e-05
62,300.71,2.1696768656435807e-05
63,307.71,2.3379898867588107e-05
64,316.227766,2.5403653062812352e-05
65,317.79,2.5402927414206512e-05
66,328.20000000000005,2.5051351464282948e-05
67,338.18,2.4677074165508967e-05
68,347.65,2.427849735995891e-05
69,357.39,2.3835765587407948e-05
70,363.078055,2.3642168192933964e-05
71,365.72,2.4025683262494897e-05
72,375.1,2.518300789306716e-05
73,384.71999999999997,2.5977494923568778e-05
74,394.59000000000003,2.754729987066348e-05
75,404.71,2.879474273435125e-05
76,414.14,2.982850494824213e-05
77,416.86938299999997,3.0118393011256485e-05
78,421.84,3.0490138172038265e-05
79,429.68,3.098945810037042e-05
80,440.7,3.190071172412302e-05
81,450.96999999999997,3.2605757778200984e-05
82,460.40999999999997,3.3184925855172354e-05
83,470.04999999999995,3.3865119950723625e-05
84,478.630092,3.446804590535533e-05
85,479.89,3.4419344965483164e-05
86,489.94000000000005,3.389089917653476e-05
87,500.20000000000005,3.3581826520354615e-05
88,505.99,3.61306457523933e-05
89,511.85,4.84465993620214e-05
90,520.17,4.809784824122035e-05
91,529.84,4.7917954402500846e-05
92,539.69,4.623248753472555e-05
93,549.5408739999999,5.0324381588813635e-05
94,549.72,5.040625394319327e-05
95,559.94,5.479743170580525e-05
96,570.35,5.74635480471742e-05
97,579.62,5.61893829160013e-05
98,590.4,6.058693754231806e-05
99,599.99,6.039425633326217e-05
100,609.74,6.449738708526479e-05
101,619.65,7.107315979832591e-05
102,629.71,7.350849559987939e-05
103,630.957344,7.368601865865788e-05
104,639.9499999999999,7.53905260077762e-05
105,650.3399999999999,8.027376701110865e-05
106,657.87,8.247103118387992e-05
107,665.49,8.665956532684366e-05
108,674.7499999999999,8.962079114887048e-05
109,685.7099999999999,8.882405529675534e-05
110,695.25,0.00010180302213715877
111,704.93,9.855084448675052e-05
112,716.3799999999999,0.00011306720291679447
113,724.43596,0.00011598770615862037
114,726.35,0.00011665923070471733
115,734.76,0.0001207575565468136
116,744.9799999999999,0.0001284724019815608
117,755.34,0.00013386540694281136
118,765.85,0.00013891112568245842
119,774.72,0.00014752244711163724
120,785.4899999999999,0.00015639207640050484
121,794.59,0.00016195184562322495
122,805.64,0.00016738719396509934
123,814.97,0.00017261011098136073
124,824.41,0.00018380882476844618
125,831.763771,0.00017426753252360716
126,835.88,0.00016872493904839292
127,845.5600000000001,0.00019360322358043892
128,855.35,0.00020007580907307636
129,865.25,0.00021043669552630524
130,875.27,0.00022042494666381566
131,885.41,0.00023196776248560764
132,895.6600000000001,0.00024151357926799108
133,906.0300000000001,0.00024600126073465607
134,914.41,0.0003499463611869852
135,925.0,0.001939177544574833
136,935.71,0.004059297392646962
137,944.3699999999999,0.007960701177362615
138,954.992586,0.010799460197124258
139,955.3100000000001,0.010884294277859901
140,964.15,0.013419757292001925
141,975.3100000000001,0.0036015249750138037
142,984.3399999999999,0.014883859979278791
143,995.7299999999999,0.01481506943980794
144,1004.95,0.017768690434195888
145,1014.25,0.015584661003372455
146,1025.99,0.006195022603601795
147,1035.48,0.012553358162901321
148,1045.06,0.02077951724383804
149,1054.73,0.021068565846411955
150,1064.49,0.01860578397062306
151,1074.34,0.020874851616471356
152,1084.28,0.018435658783956848
153,1094.32,0.021409995419928107
154,1096.4782,0.021285684850961897
155,1104.44,0.020827001500796066
156,1114.6599999999999,0.02073047148666893
157,1124.98,0.019347309808998476
158,1135.38,0.02175731680049337
159,1145.8899999999999,0.020258511962090612
160,1153.83,0.020921679876751132
161,1164.51,0.021508102210324734
162,1175.29,0.01720401288035502
163,1186.16,0.020351382053196313
164,1194.38,0.015982315309935543
165,1205.43,0.012464181488398866
166,1213.79,0.006065716416177454
167,1225.02,0.013385865600262803
168,1236.35,0.018905557120804835
169,1244.92,0.02082475455514245
170,1256.44,0.02082480291495218
171,1258.92541,0.020314416439711637
172,1265.1499999999999,0.0190362889344352
173,1273.92,0.022262399311691133
174,1285.7099999999998,0.02304448326241489
175,1294.62,0.020776443805328268
176,1303.6000000000001,0.020443694431070365
177,1315.6599999999999,0.02315034870127635
178,1324.7800000000002,0.0226229694926759
179,1333.9599999999998,0.0214567203550715
180,1346.3,0.023310954956592383
181,1355.6399999999999,0.02288559600831078
182,1365.0300000000002,0.021655087119192555
183,1374.4899999999998,0.022210598312903052
184,1384.02,0.022468549589442274
185,1393.6200000000001,0.020824570948810222
186,1406.51,0.021309326201128225
187,1416.26,0.021705177737986296
188,1426.0800000000002,0.021704899357673092
189,1435.96,0.021606041048355937
190,1442.59,0.022364518893419425
191,1445.43977,0.02249692959711128
192,1445.92,0.022519242742378095
193,1455.94,0.02226231269328281
194,1466.0300000000002,0.021309462713704822
195,1476.19,0.021163052803644132
196,1486.43,0.021210942973031787
197,1493.29,0.02135849978572703
198,1503.6399999999999,0.020872000064356154
199,1510.58,0.01965991695649974
200,1517.55,0.020350633878436452
201,1524.5600000000002,0.019932990840097333
202,1535.1200000000001,0.018475381327278353
203,1545.76,0.01952512189390771
204,1556.48,0.01868884253998541
205,1563.66,0.01868898967047402
206,1574.5,0.019614730435724228
207,1585.4199999999998,0.02007192128042278
208,1596.41,0.02053854219463863
209,1603.77,0.01984152950388601
210,1614.8899999999999,0.01975080054720541
211,1626.08,0.019080291660042114
212,1633.5900000000001,0.019750899118255127
213,1644.91,0.019933170360195384
214,1656.32,0.018603041691515027
215,1659.58691,0.01925061577007269
216,1663.9599999999998,0.02011748665153351
217,1671.64,0.018475602350384056
218,1675.49,0.02007216027233387
219,1683.23,0.020585976406331682
220,1694.9,0.019660231042475666
221,1706.64,0.01921293618629147
222,1714.52,0.01894930333563291
223,1726.4099999999999,0.018775489567316884
224,1734.38,0.01956988736937923
225,1746.3999999999999,0.019125174543882288
226,1754.4599999999998,0.01993373299866554
227,1766.6200000000001,0.018476341188512227
228,1774.77,0.019213320296016384
229,1782.97,0.019302039766143267
230,1795.33,0.02007287940648085
231,1803.61,0.019888809456804095
232,1816.11,0.019213580112485314
233,1824.5,0.01916910096057855
234,1832.92,0.018776262026245417
235,1845.6200000000001,0.017605074132417534
236,1854.1399999999999,0.017809045923329856
237,1867.0,0.01818122918989469
238,1875.6100000000001,0.018776681633527918
239,1884.2700000000002,0.017973644439783866
240,1892.97,0.017605347536137992
241,1905.46072,0.017995649359760342
242,1906.09,0.018015302241695792
243,1914.8899999999999,0.017809329974943857
244,1923.7299999999998,0.017564627334252136
245,1937.06,0.017443652718819938
246,1946.0,0.018434379143278768
247,1954.98,0.017686165193797815
248,1968.54,0.018561608428211872
249,1977.62,0.01873368354388147
250,1982.18,0.01809789091474637
251,1995.9199999999998,0.017685772466431413
252,2005.1299999999999,0.017726336366796717
253,2014.39,0.017523179799737294
254,2023.6899999999998,0.01764480285873809
255,2033.0300000000002,0.017522885543799098
256,2047.1200000000001,0.017890263823511058
257,2056.57,0.01728277548023767
258,2066.06,0.0173223867630245
259,2075.6,0.018138507578386608
260,2080.38,0.01793065289258271
261,2085.1800000000003,0.01809687801980893
262,2094.8,0.01744214808729147
263,2104.47,0.017442067687349284
264,2114.19,0.017562746819982374
265,2123.94,0.017684695672160626
266,2133.75,0.016695393963429204
267,2143.6,0.017242261880758
268,2153.4900000000002,0.017401829424147017
269,2163.4300000000003,0.016849116500111304
270,2173.42,0.01677156310865087
271,2183.4500000000003,0.01684893934325065
272,2187.7616199999998,0.01710224948510255
273,2193.5299999999997,0.017441242030627052
274,2203.65,0.01696630745989282
275,2213.82,0.016277723261832834
276,2224.04,0.016054849436447086
277,2234.31,0.017083515983735573
278,2244.62,0.016390202829163453
279,2254.98,0.015870860047265567
280,2265.39,0.015870787638041922
281,2275.85,0.016278005601492514
282,2286.35,0.0166957538630825
283,2296.91,0.015907832571881567
284,2307.51,0.016127201578820027
285,2312.83,0.015759621231358947
286,2323.5,0.01366268076004134
287,2334.23,0.01497865073593282
288,2345.0,0.014107741009963688
289,2355.83,0.01539537173120364
290,2366.7,0.014203282750582986
291,2377.62,0.014768374142636567
292,2383.1,0.013499714987733055
293,2394.11,0.014264837050600264
294,2405.16,0.013906989411606866
295,2416.26,0.014066702145287704
296,2427.4100000000003,0.015001975251642782
297,2433.0099999999998,0.014558956991157439
298,2444.2400000000002,0.015208930693791296
299,2455.52,0.015033404769099392
300,2466.85,0.014859649217081727
301,2472.54,0.014355231627410012
302,2483.9500000000003,0.014386576671671127
303,2495.42,0.013929412163141327
304,2506.9399999999996,0.015235928027285765
305,2511.88643,0.014005118228979237
306,2512.71,0.013800182519678258
307,2518.5099999999998,0.013641335788448197
308,2524.31,0.01320780905721813
309,2535.96,0.013421235450523261
310,2547.67,0.0134504516707467
311,2553.5400000000004,0.014478324737587997
312,2565.33,0.01408243072703585
313,2577.1699999999996,0.01477763657224896
314,2583.11,0.01464156943716162
315,2595.0299999999997,0.014439445051599144
316,2607.01,0.013916030492954977
317,2613.02,0.013660933155938996
318,2625.0800000000004,0.014402528366519242
319,2637.2000000000003,0.015009863404017797
320,2643.28,0.016456095865073177
321,2655.48,0.01707193067179615
322,2667.7400000000002,0.015604905305437424
323,2673.89,0.01618865756456417
324,2686.23,0.016450371967429857
325,2692.4199999999996,0.015387584111168808
326,2704.85,0.015925948254411963
327,2717.33,0.014896292253420377
328,2723.6,0.01469125416638374
329,2736.17,0.015452567905769616
330,2742.48,0.013458349703345184
331,2755.14,0.013961863183108528
332,2767.85,0.014718546518637129
333,2774.2299999999996,0.015270188114284058
334,2787.04,0.014151621161343175
335,2793.46,0.010960612641602311
336,2806.36,0.011797495429038893
337,2812.83,0.015159476765063287
338,2825.8100000000004,0.015982289321724283
339,2832.33,0.015617600513513933
340,2845.4,0.014878882810552394
341,2851.96,0.013885053886954251
342,2865.12,0.015721475924370176
343,2871.73,0.01612384685653729
344,2884.0315,0.01598440055989769
345,2884.9799999999996,0.015973651314468155
346,2898.2999999999997,0.016120010528109567
347,2911.68,0.017631499738208822
348,2931.86,0.016913558546863758
349,2952.18,0.016601817347253665
350,2972.65,0.016829476138788175
351,2993.25,0.01694282492264802
352,3007.07,0.017097784106771468
353,3027.91,0.017213012876462687
354,3048.9,0.01740948163729852
355,3070.03,0.01748610038986932
356,3091.31,0.017483239133584728
357,3112.74,0.01772314786844475
358,3127.11,0.017357587020098438
359,3148.7900000000004,0.017353775740199476
360,3170.6099999999997,0.017713654452035484
361,3192.59,0.016836133154425743
362,3207.33,0.017505802284236135
363,3229.5600000000004,0.016676450971867415
364,3251.94,0.018155859650643303
365,3266.96,0.019052228763923637
366,3289.6,0.01891719742735018
367,3311.31121,0.01870754965466134
368,3312.3999999999996,0.018697034916866116
369,3320.0400000000004,0.01801975629482385
370,3327.6899999999996,0.01810187766149619
371,3335.36,0.01921661900559774
372,3343.05,0.017850680327128495
373,3350.7599999999998,0.01830784162608846
374,3358.48,0.01826442291376303
375,3366.23,0.01700502416758141
376,3373.9900000000002,0.015832745410114396
377,3381.7599999999998,0.017318726641361987
378,3389.56,0.018386127838753392
379,3397.37,0.0175170790248594
380,3405.2,0.018172720188394616
381,3413.05,0.017840131329359042
382,3420.92,0.018253922447752674
383,3428.81,0.018549533543575518
384,3436.71,0.018719614628112967
385,3444.64,0.016154805678794227
386,3452.58,0.019598946718190093
387,3460.53,0.018122597746300564
388,3468.51,0.018372858740554845
389,3476.5099999999998,0.018245259712238338
390,3484.52,0.018583480672636432
391,3492.5499999999997,0.018326571610463735
392,3500.61,0.017500862514434855
393,3508.6699999999996,0.01853625341840597
394,3516.7599999999998,0.017259094288520904
395,3524.87,0.018070485136065042
396,3533.0,0.018877155961038387
397,3541.14,0.01953844677472634
398,3549.3,0.020038207565843503
399,3557.49,0.019223838323104474
400,3565.69,0.020174199069080058
401,3573.9100000000003,0.016896159792484843
402,3582.15,0.01724854049331884
403,3590.4,0.01569461118286744
404,3598.6800000000003,0.018736441838559853
405,3606.98,0.018224352471681474
406,3615.29,0.0183915830935177
407,3621.47,0.018915846119143195
408,3624.21,0.017889983026944792
409,3626.96,0.015827749923460994
410,3629.7000000000003,0.01124145683126259
411,3632.45,0.02111970372777879
412,3635.1899999999996,0.018483200635580385
413,3637.94,0.014789537532096586
414,3640.68,0.01078894443989818
415,3643.42,0.010413941347699778
416,3646.17,0.010372338244215977
417,3648.9100000000003,0.011181935152017573
418,3651.66,0.014728142048533772
419,3654.4,0.02019587895633537
420,3657.15,0.01732594585285157
421,3659.89,0.021049832760653166
422,3662.64,0.021497529657169365
423,3665.3799999999997,0.021498526564970963
424,3668.13,0.019880263461487163
425,3670.87,0.018455760369288754
426,3673.61,0.02251312727709035
427,3676.36,0.02141914417360655
428,3679.1000000000004,0.019988981081408147
429,3681.85,0.01794089797792435
430,3684.5899999999997,0.019648884885725946
431,3687.34,0.021830031782242146
432,3690.08,0.02168366869004374
433,3692.83,0.022970225586559943
434,3695.57,0.022384592494361536
435,3698.32,0.021566449390877734
436,3701.06,0.02238268629867933
437,3703.81,0.01791628319519553
438,3706.55,0.017688660102997127
439,3709.29,0.019512837010798725
440,3712.04,0.019074453907314926
441,3714.7799999999997,0.020625630815116522
442,3717.53,0.021746877711632723
443,3720.27,0.029785044619434313
444,3723.0200000000004,0.03430892151595052
445,3725.76,0.053340118423752116
446,3728.5099999999998,0.0768968653202683
447,3731.25,0.08097799222806991
448,3734.0,0.06930367912458611
449,3736.7400000000002,0.0417188560323877
450,3739.48,0.0302460529401893
451,3742.2299999999996,0.0204281198367055
452,3744.9700000000003,0.020876886744507092
453,3747.72,0.018267673641023295
454,3750.46,0.01702454054882489
455,3753.21,0.02122443744534109
456,3755.9500000000003,0.022254164353142685
457,3758.7,0.022448701249658885
458,3761.4399999999996,0.024545898157460482
459,3764.19,0.020994855053976684
460,3766.93,0.023963021961778276
461,3769.6800000000003,0.021552188858294477
462,3772.42,0.021312295766096074
463,3775.1600000000003,0.02512216267389767
464,3777.91,0.02197825957041387
465,3780.6499999999996,0.026799856478215468
466,3783.4,0.027884243374731665
467,3786.14,0.029355150282533264
468,3788.89,0.026033647179049463
469,3791.6299999999997,0.026509814086851057
470,3794.38,0.021811950983367256
471,3797.12,0.02191780789116885
472,3799.8700000000003,0.022218134787685053
473,3801.8939600000003,0.020475783638748468
474,3802.61,0.019859371863859627
475,3805.35,0.024123619415957583
476,3808.1,0.026458746959121593
477,3810.8399999999997,0.026657184511219546
478,3813.59,0.027136052054383557
479,3816.33,0.028811939606481513
480,3819.0800000000004,0.026231997149645518
481,3821.82,0.030645504701743473
482,3824.5699999999997,0.02737312224490748
483,3827.31,0.027762389797005436
484,3830.06,0.02171083734016944
485,3832.8,0.022440164892267397
486,3835.54,0.01976304244436535
487,3838.29,0.020083219987529363
488,3841.03,0.020598107539627316
489,3843.78,0.022092495082791323
490,3846.52,0.024800892634889278
491,3849.27,0.030018160178053286
492,3852.01,0.02859084773015124
493,3854.7599999999998,0.029202905273315247
494,3857.5,0.0303431728254132
495,3860.25,0.02838954036857721
496,3862.9900000000002,0.022617737920675167
497,3865.74,0.030843735463839173
498,3868.4800000000005,0.029325743015937128
499,3871.2200000000003,0.033655190568035086
500,3873.97,0.02955621811119909
501,3876.71,0.030210935663297047
502,3879.46,0.02658431320646105
503,3882.2000000000003,0.02845763075855901
504,3884.95,0.021852508301723018
505,3887.6899999999996,0.02358883585382097
506,3890.44,0.023481083396984976
507,3893.18,0.026215920949082934
508,3895.9300000000003,0.025946618492246942
509,3898.67,0.022136866044344897
510,3901.4100000000003,0.029832123596442852
511,3904.16,0.03024202113960686
512,3906.8999999999996,0.03220981869170481
513,3909.65,0.02949383623486882
514,3912.39,0.031032753786966776
515,3915.14,0.03211997133013078
516,3917.88,0.029615748882228742
517,3920.63,0.026548366425392746
518,3923.37,0.026994293977490702
519,3926.1200000000003,0.02852646152065471
520,3928.86,0.026751499072752667
521,3931.6099999999997,0.02443040661591667
522,3934.35,0.021180834168014626
523,3937.0899999999997,0.018911801720112583
524,3939.84,0.02359441926327659
525,3942.58,0.024911326815374547
526,3945.3300000000004,0.027373044358538552
527,3948.07,0.026718451910636508
528,3950.8199999999997,0.028203379453800515
529,3953.56,0.029501407005898473
530,3956.31,0.028825894549062477
531,3959.05,0.026139342101160434
532,3961.7999999999997,0.02291042964432444
533,3964.5399999999995,0.023467827196422396
534,3967.28,0.021233754748520354
535,3970.0299999999997,0.020280542291684356
536,3972.77,0.020621609843782314
537,3975.52,0.021923287386946322
538,3978.26,0.023642614939044276
539,3981.0099999999998,0.025589482482208284
540,3983.75,0.02980367003430624
541,3986.5,0.030294807577470245
542,3989.24,0.0310751651295682
543,3991.9900000000002,0.02920088267273221
544,3994.73,0.03275948022483016
545,3997.48,0.031467097767994175
546,4000.22,0.03104679532009213
547,4002.96,0.032863442872190084
548,4005.71,0.033648360415354094
549,4008.4500000000003,0.03167314796745204
550,4011.2,0.031561595510616054
551,4013.9399999999996,0.03295598306271401
552,4016.69,0.03250718060587801
553,4019.43,0.03424636815797597
554,4022.1800000000003,0.03281606570113998
555,4024.92,0.03595334325323793
