,lambda (Angstroms),Total Flux (erg/s/cm^2/Angstrom)
0,102.05000000000001,0.008688230570791013
1,103.95,0.010163128010105188
2,104.712855,0.010755311719108623
3,105.88,0.009999436123773004
4,108.10000000000001,0.008561720787304546
5,110.11,0.007260146935949333
6,113.96999999999998,0.004760495094187083
7,117.97999999999999,0.0021637681291296527
8,120.22644299999999,0.0007117190543796754
9,121.01,0.0006892506638435963
10,124.97,0.0005722338223667779
11,127.0,0.0005121944808824491
12,127.88000000000001,0.00048638978555426687
13,130.86,0.0003983637948974689
14,132.07,0.0003638923384462194
15,133.91,0.00030980771939638437
16,137.03,0.00021998156405101196
17,138.038426,0.00019051832657924946
18,139.9,0.00018994733392633915
19,143.16,0.0002160427748952203
20,147.17,0.00027894912630172745
21,150.94,0.0002893275599681943
22,155.17,0.0003019964176364051
23,158.489319,0.00031467952234903696
24,159.14999999999998,0.00031682883441304355
25,162.10999999999999,0.0003271914481262733
26,165.89,0.0003450229406384383
27,170.14000000000001,0.0003605409978280418
28,172.91,0.00037513319816103043
29,176.93,0.00039431139178507893
30,179.81,0.00040910190512768085
31,181.89000000000001,0.0004208988147640045
32,181.970086,0.00042131339618012504
33,186.13000000000002,0.0004517900642837163
34,190.9,0.0004918492268409482
35,194.0,0.0005210887358404071
36,198.07000000000002,0.0005548708705590516
37,202.21,0.0005945092380615547
38,205.03,0.0006237772159255787
39,208.929613,0.0006460090670596867
40,209.79999999999998,0.0006532818161270496
41,216.17999999999998,0.000755143374662815
42,220.20000000000002,0.0008126620353703035
43,222.73999999999998,0.0008466838821854827
44,226.89000000000001,0.000909747889383512
45,230.04,0.0013125730466543052
46,233.78,0.0021445519533821677
47,239.78,0.002676629252945583
48,239.88329199999998,0.002676205671886797
49,245.93,0.002616362535913759
50,252.24,0.002801747266241638
51,256.93,0.0024270370768973834
52,259.9,0.0027939407629629623
53,264.12,0.0029509080105039527
54,269.03,0.0029835408719793705
55,274.04,0.003009431938372821
56,275.42287,0.0030167447479173223
57,279.13,0.0030564151818261746
58,284.32,0.003118303372881356
59,290.27,0.0030474727845920158
60,295.67,0.0031566779313546324
61,301.17,0.003165294580835075
62,308.18,0.003267758721354693
63,316.227766,0.0033811786561042346
64,318.28000000000003,0.003400163947140422
65,327.95,0.0034318157434853674
66,337.92,0.003426247355642461
67,348.18,0.003412817256417966
68,357.11,0.003409290040426276
69,363.078055,0.003411673641670457
70,366.28000000000003,0.003424623884861596
71,374.81,0.003430775278946314
72,385.31,0.0033439863760025327
73,395.19,0.003440904825423051
74,405.33,0.003457085707723056
75,413.82,0.003440904189057084
76,416.86938299999997,0.003432832870339465
77,422.48,0.003414396296422994
78,430.34000000000003,0.003385485464730223
79,441.37999999999994,0.003381829212581599
80,450.62,0.0033338033493702504
81,460.04999999999995,0.0033007956339933006
82,469.68999999999994,0.003268397239907002
83,478.630092,0.0032523221302819113
84,479.52000000000004,0.00324875028113606
85,489.56,0.0031621383671521478
86,499.81,0.0031360304908239506
87,505.6,0.0030831066719029495
88,511.46,0.0031545638655338533
89,519.77,0.003110930498481432
90,529.43,0.0030336192306443213
91,540.52,0.002924515504938984
92,549.5408739999999,0.0028743625776615233
93,550.5600000000001,0.002869560657346652
94,559.51,0.0028781430947483508
95,569.91,0.0028678233180978105
96,580.51,0.0027907087188193745
97,589.9399999999999,0.0027749337819141253
98,599.53,0.0026832053869065594
99,610.6700000000001,0.0024329728665328076
100,620.59,0.0026631494641892153
101,630.68,0.002602469512611912
102,630.957344,0.002601828587950584
103,639.45,0.002590360408805247
104,649.84,0.0025629850796612627
105,657.37,0.0025182905745164894
106,664.98,0.002533252186182927
107,674.23,0.002511561192479187
108,685.1899999999999,0.0024236501956150813
109,694.72,0.00248062061075058
110,704.38,0.0023837647157042966
111,715.8299999999999,0.0024508099343088573
112,724.43596,0.0024335314399812884
113,725.7800000000001,0.0024305134891025723
114,734.1899999999999,0.0024128632413362608
115,744.4000000000001,0.0024060777681265055
116,754.76,0.00238937435946313
117,765.26,0.0022488708777097083
118,774.1199999999999,0.002370817823582536
119,784.89,0.002344938058012598
120,795.81,0.0023531773569890405
121,805.0200000000001,0.002351296120136754
122,814.34,0.0023397173972851456
123,825.67,0.0023577523393550253
124,831.763771,0.0022390580338165736
125,835.23,0.0021680843754280847
126,844.91,0.0023122980681057836
127,854.69,0.002286717358848334
128,864.5899999999999,0.0022988385672687074
129,874.5999999999999,0.002311075533560418
130,884.7199999999999,0.002328287257723467
131,894.9699999999999,0.0023358700593708232
132,905.33,0.002294861618889517
133,915.8199999999999,0.002895192255892519
134,924.29,0.010483691611985504
135,934.99,0.021097072604924695
136,945.82,0.038758064675348196
137,954.57,0.05392003950602277
138,954.992586,0.05419722730037489
139,965.62,0.06117421146335386
140,974.5600000000001,0.011903514912896224
141,985.84,0.05317678537272149
142,994.97,0.05554581828036375
143,1004.1700000000001,0.07911459361993754
144,1015.8000000000001,0.07538695623942052
145,1025.2,0.03232855995594157
146,1034.68,0.05329555502324153
147,1044.26,0.1002396992790151
148,1053.92,0.0984126848855676
149,1066.12,0.07838554587935025
150,1075.99,0.09270059878169735
151,1085.95,0.07332979195367073
152,1095.99,0.096616276476423
153,1096.4782,0.09642765620382147
154,1106.13,0.09269637770685894
155,1113.8,0.08914064232303413
156,1124.11,0.08037733361283418
157,1134.51,0.100914884448326
158,1145.01,0.09162329144569754
159,1155.6,0.09704143798876083
160,1166.29,0.09998157069370385
161,1174.38,0.0701701531897739
162,1185.24,0.09636309836991247
163,1196.21,0.06624367632811873
164,1204.5,0.04791133114794825
165,1215.65,0.03076217819753803
166,1224.07,0.06399101902781121
167,1235.3999999999999,0.09701381516878449
168,1243.96,0.10684964862568928
169,1255.48,0.10227615047423405
170,1258.92541,0.09641078590549576
171,1264.18,0.08746743108410827
172,1275.8700000000001,0.1129089924487764
173,1284.72,0.11822450545795628
174,1293.6200000000001,0.09393274967057787
175,1305.5900000000001,0.09221953777451948
176,1314.6399999999999,0.11500902559746615
177,1323.76,0.10983604510523119
178,1336.0,0.09723207970775795
179,1345.27,0.11527116282584808
180,1354.59,0.11136378714737989
181,1363.98,0.09949452315373007
182,1373.4399999999998,0.10441644084489864
183,1386.1399999999999,0.105384446519089
184,1395.75,0.09222086782058264
185,1405.43,0.09567826080689466
186,1415.17,0.0972324452373367
187,1424.9800000000002,0.09949617135259711
188,1434.85,0.09858471891198758
189,1441.48,0.10394047848835623
190,1445.43977,0.10494498583089132
191,1448.1299999999999,0.10562742813999965
192,1454.82,0.10251646328285148
193,1464.9,0.09436764690616185
194,1475.05,0.09393715194352302
195,1485.28,0.09545949859694218
196,1495.57,0.09701185646240486
197,1505.94,0.09180007594392556
198,1512.89,0.08164139633896596
199,1516.3799999999999,0.08727308683949704
200,1523.38,0.08450700824457369
201,1533.94,0.07361597156423219
202,1544.5700000000002,0.08108093629794146
203,1555.28,0.07637782264770873
204,1566.06,0.07726042041152678
205,1573.29,0.08220854646277025
206,1584.19,0.08607885665067531
207,1595.1699999999998,0.08787821845463842
208,1606.2299999999998,0.08568310187465952
209,1613.65,0.08588048176404078
210,1624.83,0.08089767760814894
211,1636.0900000000001,0.08588161506831508
212,1643.64,0.08707553758379064
213,1655.0400000000002,0.07997117787205832
214,1659.58691,0.08294659003184802
215,1666.51,0.08747781103181218
216,1670.35,0.07779767751673108
217,1678.0600000000002,0.08788122491223231
218,1685.8100000000002,0.09159798820861813
219,1693.5900000000001,0.08568898593066736
220,1705.33,0.08221723784028921
221,1713.2,0.07834333883932873
222,1725.08,0.0778051514020466
223,1733.0400000000002,0.0827906056780764
224,1745.05,0.0807241274186691
225,1753.11,0.08609367644691035
226,1765.26,0.07835070884059907
227,1773.3999999999999,0.08072889967060946
228,1785.7,0.08185170419261532
229,1793.94,0.08769791977483712
230,1806.3799999999999,0.08649762494993898
231,1814.71,0.08017953380915109
232,1823.09,0.0814805200444689
233,1835.7299999999998,0.07800113472399361
234,1844.2,0.07147861423630172
235,1856.98,0.07214096956892245
236,1865.55,0.07467217383344198
237,1874.17,0.08018734547406722
238,1887.1599999999999,0.07416386178633196
239,1895.8700000000001,0.07165113670394749
240,1904.62,0.07519516752244758
241,1905.46072,0.07496772327693231
242,1913.41,0.07281447993086206
243,1926.67,0.07099427844046728
244,1935.5700000000002,0.07148176603741196
245,1944.5000000000002,0.07640881792962727
246,1953.48,0.07197334031396022
247,1967.02,0.07871991557942438
248,1976.1000000000001,0.07999461894799269
249,1985.22,0.0765738747102551
250,1994.38,0.07449049286621165
251,2003.5900000000001,0.07569560151428588
252,2012.83,0.07346714445763071
253,2026.79,0.07551811985688327
254,2036.1399999999999,0.07329508188288696
255,2045.5400000000002,0.07638950440100832
256,2054.98,0.0729528393128238
257,2064.47,0.07278545471675696
258,2074.0,0.07815769251438426
259,2078.78,0.0803436535608332
260,2083.5699999999997,0.08509753270570569
261,2093.19,0.07997216338914477
262,2102.85,0.079423096466278
263,2117.43,0.08145246396778963
264,2127.2,0.08089235612758174
265,2137.02,0.07480704877949149
266,2146.88,0.07996183382509538
267,2156.79,0.08219859936281693
268,2166.75,0.07778258539265616
269,2176.75,0.07742312381618952
270,2186.79,0.079954834633417
271,2187.7616199999998,0.0802247708144443
272,2196.89,0.0827639438377213
273,2207.03,0.08014164117599036
274,2217.22,0.07310249609482285
275,2227.45,0.0731039370781061
276,2232.59,0.08238901636002946
277,2242.89,0.07832634795610155
278,2253.24,0.0712816671327371
279,2263.64,0.07144598388993613
280,2274.09,0.0746376482276986
281,2284.59,0.08126707014602452
282,2295.13,0.0743220381288012
283,2305.73,0.07821430520825404
284,2316.37,0.07236936835215765
285,2327.06,0.057272549076624706
286,2332.43,0.06309247322913997
287,2343.19,0.05718416456639587
288,2354.01,0.06923704500032792
289,2364.87,0.057770501498710734
290,2375.79,0.062496787093769685
291,2386.76,0.053482980269392105
292,2392.2599999999998,0.05851130413137236
293,2403.2999999999997,0.05655775791978362
294,2414.39,0.05938411928875833
295,2425.54,0.07075214975440919
296,2436.73,0.06902140628451083
297,2442.35,0.07568887833984336
298,2453.62,0.07642784699884653
299,2464.95,0.07236153475452584
300,2476.33,0.0678887800907686
301,2487.7599999999998,0.061958393007574816
302,2493.49,0.061832801740146964
303,2505.0,0.07573156678585471
304,2510.78,0.05645012309899032
305,2511.88643,0.05620768596923994
306,2516.56,0.0551826466125964
307,2522.37,0.05419180569601463
308,2534.0099999999998,0.06053594268930006
309,2545.7000000000003,0.06098680674870784
310,2557.4599999999996,0.07766576670068692
311,2563.35,0.06846044108990094
312,2575.1800000000003,0.07736772693445133
313,2587.07,0.07342043925834857
314,2593.03,0.06997954954013387
315,2605.0,0.06520168716982687
316,2617.03,0.062447971278866705
317,2623.06,0.07153431745322333
318,2635.17,0.09110683686805893
319,2647.33,0.1108305833490169
320,2653.43,0.13386972541594483
321,2665.6800000000003,0.09932586661592305
322,2677.98,0.10895428488202362
323,2684.16,0.11784452225474731
324,2696.5499999999997,0.09764321523986814
325,2702.76,0.11083913085226527
326,2715.24,0.09120697855640633
327,2727.77,0.08285635332666977
328,2734.06,0.09470104424486267
329,2746.6800000000003,0.06727270373414634
330,2753.01,0.07759657230523713
331,2765.72,0.09015032651354105
332,2772.0899999999997,0.09573067273752972
333,2784.89,0.07302376166485391
334,2797.7400000000002,0.048205167658300435
335,2804.1899999999996,0.05359239918808489
336,2817.1400000000003,0.08972651931377615
337,2823.6299999999997,0.11321633849645847
338,2836.66,0.10893647392794552
339,2843.2000000000003,0.09191470017675021
340,2856.3300000000004,0.07076156974048195
341,2862.9100000000003,0.11185003364218454
342,2876.13,0.13237635792493654
343,2882.7599999999998,0.12358316889276148
344,2884.0315,0.12506137077673463
345,2896.06,0.13904597983983683
346,2909.4300000000003,0.1751171637844811
347,2929.6,0.1573009395633499
348,2949.8999999999996,0.14932331518610828
349,2970.35,0.15649279062873925
350,2990.94,0.1584432659032513
351,3011.67,0.16078594100964447
352,3032.55,0.16734731593591023
353,3046.55,0.17293019912401947
354,3067.67,0.18333457376208137
355,3088.93,0.1822375482320244
356,3110.3399999999997,0.20091172252183997
357,3131.9,0.1902903966315282
358,3153.61,0.190463670561089
359,3168.17,0.2042033530767226
360,3190.13,0.1813433267060711
361,3212.2400000000002,0.19855390015529215
362,3227.07,0.17266108234669642
363,3249.44,0.22517905548369668
364,3271.96,0.2563977284405695
365,3287.06,0.2518796103077445
366,3309.85,0.24133438294038798
367,3311.31121,0.24051383569591103
368,3325.12,0.23275916419644854
369,3332.79,0.23770688812689286
370,3340.47,0.21938201182778105
371,3348.1699999999996,0.26748373506955697
372,3355.8900000000003,0.2567094578522206
373,3363.63,0.178924780175772
374,3371.38,0.20127020226976725
375,3379.15,0.25695952390465027
376,3386.94,0.24548004508042096
377,3394.7500000000005,0.2388710657970794
378,3402.58,0.28658298605462557
379,3410.42,0.2368384060826156
380,3418.28,0.22315582565149336
381,3426.16,0.24873004476125884
382,3434.06,0.27723326341191207
383,3441.98,0.21779108160345304
384,3449.91,0.22707969956543783
385,3457.8599999999997,0.2525218170683104
386,3465.84,0.22670663388251452
387,3473.83,0.26888915046716255
388,3481.8300000000004,0.2386406668222544
389,3489.86,0.26053778248867787
390,3497.9100000000003,0.23552279769598908
391,3505.97,0.2825939126737441
392,3514.05,0.2434002271923869
393,3522.15,0.27698284125191747
394,3530.27,0.23260765485233567
395,3538.4100000000003,0.28165746799364166
396,3546.57,0.2889726806758353
397,3554.7400000000002,0.2864436931284729
398,3562.94,0.2680290048924421
399,3571.15,0.22303361642685512
400,3579.3799999999997,0.24575282750215588
401,3587.63,0.19041903811834437
402,3595.9,0.25869594827542064
403,3604.19,0.2910078579733845
404,3612.5,0.22341776721223622
405,3620.8,0.24342247668064404
406,3623.54,0.232792313782263
407,3626.27,0.2456696511134381
408,3629.0099999999998,0.2814356882150571
409,3631.74,0.27324912554623215
410,3634.48,0.27579796264785117
411,3637.22,0.29216109974947013
412,3639.9500000000003,0.2780808370806452
413,3642.69,0.2908687741822642
414,3645.4199999999996,0.2579824115134393
415,3648.16,0.2635427486150582
416,3650.9,0.27214208571667725
417,3653.63,0.31303612304785233
418,3656.37,0.31817826014947126
419,3659.1099999999997,0.33918919725109026
420,3661.84,0.33809013458226533
421,3664.58,0.33176387168388427
422,3667.31,0.3288222090150594
423,3670.05,0.3292339461166784
424,3672.7900000000004,0.3151795832182973
425,3675.52,0.2992843205494724
426,3678.2599999999998,0.3254107576510914
427,3680.9900000000002,0.2885035949822665
428,3683.73,0.2796472320838854
429,3686.47,0.27783146918550444
430,3689.2000000000003,0.28000500651667953
431,3691.94,0.2897401436182985
432,3694.6800000000003,0.31809418071991746
433,3697.41,0.3285461180510926
434,3700.1499999999996,0.3286828551527115
435,3702.88,0.31152249248388664
436,3705.62,0.2945253295855056
437,3708.36,0.28319376668712454
438,3711.09,0.3088818040182997
439,3713.8300000000004,0.2994478411199186
440,3716.56,0.3171876784510937
441,3719.2999999999997,0.34820961555271274
442,3722.04,0.38475925265433164
443,3724.77,0.43792238998550675
444,3727.5099999999998,0.5024966270871257
445,3730.25,0.4671002641887447
446,3732.98,0.3655908015199198
447,3735.7200000000003,0.3126757386215388
448,3738.45,0.2670586759527139
449,3741.1899999999996,0.29603711305433283
450,3743.93,0.2619887501559518
451,3746.66,0.2580154874871269
452,3749.4,0.25540492458874586
453,3752.13,0.26357946191992093
454,3754.8700000000003,0.2994196990215399
455,3757.61,0.30692713612315886
456,3760.3399999999997,0.300107573454334
457,3763.08,0.287565810555953
458,3765.8199999999997,0.2862450476575719
459,3768.55,0.296146784988747
460,3771.29,0.29416592209036596
461,3774.02,0.3273071594215411
462,3776.76,0.3517833965231601
463,3779.5,0.366028733624779
464,3782.2299999999996,0.3816236709559541
465,3784.97,0.3510954080575731
466,3787.7,0.3384729453887482
467,3790.44,0.31625028249036713
468,3793.18,0.29482541959198616
469,3795.9100000000003,0.2862180569231612
470,3798.65,0.28357719402478015
471,3801.39,0.30568833112639915
472,3801.8939600000003,0.3066734229071396
473,3804.12,0.3110246791048915
474,3806.86,0.33753612931213717
475,3809.59,0.3297540797011082
476,3812.33,0.31674472990835384
477,3815.0699999999997,0.3139388801155995
478,3817.8,0.27796683050457055
479,3820.54,0.2615721807118162
480,3823.2699999999995,0.25377873110078725
481,3826.01,0.2468723813080329
482,3828.75,0.23105813151527857
483,3831.48,0.20614448190424964
484,3834.22,0.20748883211149527
485,3836.96,0.21937758231874094
486,3839.69,0.225813732707712
487,3842.43,0.2660517829149576
488,3845.1600000000003,0.2855572333039287
489,3847.9,0.29713508351117435
490,3850.6400000000003,0.30486253371842004
491,3853.37,0.30365328410739106
492,3856.1099999999997,0.2952644343146367
493,3858.84,0.2889673847036078
494,3861.58,0.3065956349108534
495,3864.32,0.3259014851180991
496,3867.05,0.3264800355070701
497,3869.79,0.32141898571431576
498,3872.53,0.31173753592156145
499,3875.2599999999998,0.29966498631053246
500,3878.0,0.2937513365177781
501,3880.73,0.2963924869067492
502,3883.47,0.2889112371139948
503,3886.21,0.2929808873212405
504,3888.94,0.2978221377102115
505,3891.6800000000003,0.3142128879174572
506,3894.41,0.32989013830642827
507,3897.1499999999996,0.3356098885136739
508,3899.89,0.3489203387209196
509,3902.62,0.35120398910989065
510,3905.36,0.3586013393171363
511,3908.1,0.37438688952438187
512,3910.83,0.37920093991335296
513,3913.57,0.38951339012059866
514,3916.2999999999997,0.3813464405095697
515,3919.04,0.3627815907168153
516,3921.78,0.333986040924061
517,3924.5099999999998,0.312260191313032
518,3927.25,0.2701343415202777
519,3929.98,0.22536969190924871
520,3932.7200000000003,0.20706374211649436
521,3935.46,0.19847429232374003
522,3938.1899999999996,0.22102674271271108
523,3940.9300000000003,0.2579204929199568
524,3943.67,0.3053007431272024
525,3946.4,0.33241889351617343
526,3949.14,0.36561344372341914
527,3951.87,0.3756252941123901
528,3954.61,0.38134494431963584
529,3957.35,0.35243939452688144
530,3960.0800000000004,0.3332713449158525
531,3962.82,0.28123639512309817
532,3965.5499999999997,0.2203361455120692
533,3968.29,0.19933219571931488
534,3971.0299999999997,0.21125394592656055
535,3973.76,0.25071479631553156
536,3976.5,0.31245134652277723
537,3979.24,0.36646499673002286
538,3981.9700000000003,0.39724114711899394
539,3984.71,0.4238348973262396
540,3987.44,0.4357446477152106
541,3990.18,0.4512000979224563
542,3992.9199999999996,0.4563420481297019
543,3995.65,0.467454398518673
544,3998.39,0.47251374872591867
545,4001.1200000000003,0.4793082991148897
546,4003.86,0.4783446493221354
547,4006.6000000000004,0.486126899529381
548,4009.33,0.48942854991835205
549,4012.0699999999997,0.5050214001255977
550,4014.81,0.5186064503328435
551,4017.54,0.5213032007218144
552,4020.2799999999997,0.5189369509290601
553,4023.01,0.5130530013180312
554,4025.75,0.5177824515252768
555,4028.4900000000002,0.5088706017325224
556,4031.22,0.4848901521214935
557,4033.9599999999996,0.4770785023287391
558,4036.69,0.4928662527177102
559,4039.43,0.4971831029249559
560,4042.17,0.4957245531322015
561,4044.9,0.48486260352117255
562,4047.6400000000003,0.48475165372841816
563,4050.38,0.4884085039356639
564,4053.1099999999997,0.49382775432463494
565,4055.85,0.49206660453188056
566,4058.58,0.4750991549208516
567,4061.3199999999997,0.4714679051280973
568,4064.06,0.46720415533534293
569,4066.79,0.472953505724314
570,4069.53,0.4837884559315596
571,4072.2599999999998,0.4835148063205307
