,lambda (Angstroms),Total Flux (erg/s/cm^2/Angstrom)
0,102.05000000000001,0.0006976943418620618
1,103.95,0.0008161322820738216
2,104.712855,0.0008636854880258554
3,105.88,0.0008029807399718761
4,108.10000000000001,0.0006875156554944438
5,110.11,0.0005829741466328507
6,113.98,0.00038169137973797623
7,117.97999999999999,0.00017364733841663158
8,120.22644299999999,5.6817344967819096e-05
9,121.01,5.493544386662942e-05
10,124.97,4.541291773566356e-05
11,127.0,4.0531835683931054e-05
12,127.88000000000001,3.841659890593861e-05
13,130.86,3.1252485165464286e-05
14,132.07,2.834640721822476e-05
15,133.91,2.392434811424061e-05
16,137.03,1.6430212732267484e-05
17,138.038426,1.4007881885416975e-05
18,139.9,1.3858154359294154e-05
19,143.16,1.3630007212418566e-05
20,147.17,1.3356116728961169e-05
21,150.94,1.3078976246009948e-05
22,155.17,1.2771950812088554e-05
23,158.489319,1.2540182316611962e-05
24,159.14999999999998,1.2463924429676007e-05
25,162.10999999999999,1.2129592044100699e-05
26,165.89,1.1713444688197096e-05
27,170.14000000000001,1.1243954154178494e-05
28,172.91,1.0955167112947552e-05
29,176.93,1.0536473285240547e-05
30,179.81,1.0248405923599705e-05
31,181.89000000000001,1.0043194001303542e-05
32,181.970086,1.003527585752396e-05
33,186.13000000000002,1.0342077773043241e-05
34,190.9,1.0730592542169757e-05
35,194.0,1.0988983979128289e-05
36,198.07000000000002,1.1339725585070623e-05
37,202.21,1.1709586007331372e-05
38,205.03,1.198659717901623e-05
39,208.929613,1.2343264424562933e-05
40,209.79999999999998,1.2608429004193535e-05
41,216.17999999999998,1.4667168262236625e-05
42,220.20000000000002,1.5972503913856266e-05
43,222.75,1.6833337386898563e-05
44,226.89000000000001,1.8215173849014304e-05
45,230.04,2.1270139374537137e-05
46,233.78,2.6042682801665847e-05
47,239.78,3.110545932647127e-05
48,239.88329199999998,3.11421092223949e-05
49,245.93,3.0473145218525635e-05
50,252.24,3.080356597329705e-05
51,256.93,2.7729109069949648e-05
52,259.9,3.0172218109834137e-05
53,264.13,3.0846369772699916e-05
54,269.04,3.0738150946380994e-05
55,274.04,3.0615320878846454e-05
56,275.42287,3.052468140944934e-05
57,279.13,3.189316022718249e-05
58,284.32,3.411826806146269e-05
59,290.28000000000003,3.570230719292898e-05
60,295.67,3.825027627323153e-05
61,301.17,3.901310553884638e-05
62,308.18,4.242386371193004e-05
63,316.227766,4.620248739698711e-05
64,318.28000000000003,4.6368021195377255e-05
65,327.95,4.643556561739065e-05
66,337.92,4.613859763264126e-05
67,348.19000000000005,4.571405724112911e-05
68,357.12,4.571203359982401e-05
69,363.078055,4.588626931690713e-05
70,366.28000000000003,4.691718508155391e-05
71,374.81,4.9055601241810296e-05
72,385.31,5.040390546017983e-05
73,395.19,5.3943735162798024e-05
74,405.33,5.674838643653775e-05
75,413.82,5.8657540047390844e-05
76,416.86938299999997,5.9212149906602934e-05
77,422.48,5.9944610991973535e-05
78,430.34000000000003,6.082993692238467e-05
79,441.37999999999994,6.311119074830565e-05
80,450.62,6.450854840695692e-05
81,460.06,6.543267341752703e-05
82,469.68999999999994,6.667152591242006e-05
83,478.630092,6.819095034091693e-05
84,479.52000000000004,6.8183856276049e-05
85,489.56,6.706849698324995e-05
86,499.82,6.716907063423419e-05
87,505.6,6.862233070272238e-05
88,511.46,7.951888547804086e-05
89,519.77,7.868152440003686e-05
90,529.43,7.784206274979396e-05
91,540.52,7.510853523414241e-05
92,549.5408739999999,7.726058482165241e-05
93,550.57,7.7576166738459e-05
94,559.51,8.224910143451201e-05
95,569.92,8.45353306611241e-05
96,580.51,8.324801615678423e-05
97,589.9399999999999,8.661782236302359e-05
98,599.53,8.564765191952791e-05
99,610.68,8.59342891411153e-05
100,620.6,9.412617685754101e-05
101,630.68,9.527965792423168e-05
102,630.957344,9.533025840030985e-05
103,639.46,9.753742886235863e-05
104,649.85,0.0001011212333041261
105,657.37,0.00010245542888661804
106,664.98,0.00010648712014762384
107,674.23,0.00010923288932821566
108,685.1899999999999,0.00010822503640057091
109,694.72,0.00011891207546987254
110,704.39,0.00011564549448352907
111,715.8299999999999,0.0001281577385079583
112,724.43596,0.00013099215960965104
113,725.7900000000001,0.0001314122738727387
114,734.1899999999999,0.00013479692838584331
115,744.41,0.00014110324137678727
116,754.76,0.0001456654299732912
117,765.26,0.00014799019811467196
118,774.1199999999999,0.00015710964323206562
119,784.89,0.00016387561455422477
120,795.81,0.00016956446542126078
121,805.0300000000001,0.00017470078144635897
122,814.3499999999999,0.0001799936171680417
123,825.6800000000001,0.00018974589879107448
124,831.763771,0.00018248545456484665
125,835.24,0.00017805834015944828
126,844.91,0.00019960456165518453
127,854.69,0.0002053797407894452
128,864.5899999999999,0.00021494342825664157
129,874.5999999999999,0.00022456827336236234
130,884.7299999999999,0.00023573022680101885
131,894.9699999999999,0.00024490943787819976
132,905.34,0.00025016640798272764
133,915.8199999999999,0.00036222013572578
134,924.29,0.001762045973892159
135,935.0,0.003951648667606672
136,945.82,0.010732935318959708
137,954.58,0.022875704127264015
138,954.992586,0.023189585106866296
139,965.63,0.031282649106921426
140,974.5600000000001,0.006886376574365685
141,985.85,0.049457263551683235
142,994.97,0.05275033436949865
143,1004.18,0.06429818440591092
144,1015.8000000000001,0.04788882351808364
145,1025.2,0.008162519904867075
146,1034.69,0.03305863951024737
147,1044.26,0.0765929864210471
148,1053.93,0.08244724246362113
149,1066.1299999999999,0.07247500654008472
150,1076.0,0.08359464084620732
151,1085.95,0.07197676445774938
152,1096.0,0.08534431720106571
153,1096.4782,0.08520765112909202
154,1106.14,0.08244620050049227
155,1113.81,0.08056985207673398
156,1124.11,0.07819592218563745
157,1134.52,0.08793544930541271
158,1145.01,0.08150199425127654
159,1155.61,0.08475410620801216
160,1166.3,0.08977657571909742
161,1174.38,0.07801437615404307
162,1185.25,0.08632990077382759
163,1196.22,0.056387612676222845
164,1204.51,0.03964826740465099
165,1215.65,0.009132087687484452
166,1224.08,0.03946507561156759
167,1235.41,0.0781916977313614
168,1243.97,0.09102242512283848
169,1255.48,0.09039665235133157
170,1258.92541,0.08458082149312932
171,1264.18,0.07571125888252274
172,1275.88,0.09531195149699932
173,1284.73,0.09934167860282135
174,1293.63,0.08813566580528646
175,1305.6000000000001,0.08573413894163559
176,1314.65,0.09843710643402988
177,1323.76,0.09575244404239583
178,1336.01,0.08854279771994611
179,1345.27,0.09889022561824125
180,1354.6,0.09619350365183668
181,1363.99,0.0903957518014038
182,1373.4399999999998,0.09335723006694259
183,1386.1499999999999,0.09553267463360902
184,1395.76,0.09207702320840562
185,1405.43,0.09443925189917388
186,1415.18,0.09207595074457103
187,1424.9899999999998,0.09292798970593986
188,1434.8600000000001,0.09207747878328038
189,1441.49,0.09487427159815044
190,1445.43977,0.09539564887250782
191,1448.1399999999999,0.09575208361290356
192,1454.82,0.094221724449404
193,1464.91,0.09102291081771081
194,1475.06,0.08977505728335147
195,1485.29,0.08956773387877057
196,1495.58,0.0901888505715235
197,1505.95,0.08854251739405487
198,1512.9,0.08378280866855758
199,1516.3899999999999,0.08712709433014239
200,1523.39,0.08455759568575663
201,1533.95,0.07946119281651182
202,1544.5800000000002,0.08514349006082317
203,1555.29,0.08093873743491295
204,1566.07,0.07964455492255888
205,1573.3,0.08263278665128616
206,1584.2,0.08455807433359976
207,1595.1799999999998,0.08652761214569181
208,1606.2399999999998,0.0830143300875623
209,1613.65,0.08339883210829109
210,1624.84,0.08001254026105156
211,1636.1000000000001,0.08206570852736819
212,1643.65,0.08225392077520927
213,1655.0500000000002,0.07694098926863817
214,1659.58691,0.079343462535963
215,1666.52,0.08301487876380464
216,1670.36,0.07783213425569478
217,1678.0700000000002,0.08093878559488044
218,1685.8200000000002,0.08320568740793996
219,1693.6000000000001,0.08019766957640485
220,1705.34,0.07783206865838146
221,1713.21,0.07571181189306254
222,1725.08,0.07519199251512917
223,1733.05,0.0778322169344949
224,1745.06,0.07588690921512004
225,1753.11,0.07909834458223347
226,1765.27,0.07331133863988555
227,1773.41,0.07659006507321516
228,1785.71,0.07676579078942573
229,1793.95,0.07873453840743998
230,1806.3799999999999,0.07819354566374058
231,1814.72,0.07553938446643947
232,1823.1,0.07571328374301221
233,1835.7399999999998,0.07381999348715056
234,1844.21,0.07033665382993948
235,1856.99,0.06969095523263633
236,1865.56,0.07049853676010988
237,1874.18,0.07364964887992574
238,1887.1699999999998,0.07017489277046034
239,1895.88,0.0681064559564924
240,1904.6299999999999,0.07082454961639828
241,1905.46072,0.07062724786409036
242,1913.42,0.06873664791389968
243,1926.68,0.06810669542419487
244,1935.5800000000002,0.06873561951481533
245,1944.5100000000002,0.07066063314731427
246,1953.49,0.06763606601627736
247,1967.03,0.07066029925077184
248,1976.1100000000001,0.07147844059266328
249,1985.23,0.06905190132372602
250,1994.39,0.06717004144396012
251,2003.6000000000001,0.06810458080065834
252,2012.84,0.06670818969923507
253,2026.8,0.06857554652002851
254,2036.1499999999999,0.0667078237388264
255,2045.55,0.06732462019408844
256,2054.99,0.06503877603852182
257,2064.48,0.06564050111941935
258,2074.01,0.06732337558948821
259,2078.79,0.0660955025954619
260,2083.58,0.06701483944872841
261,2093.2000000000003,0.06473961254443276
262,2102.86,0.06533809502930844
263,2117.44,0.06518744238225745
264,2127.21,0.06579073318735428
265,2137.03,0.06312014322891527
266,2146.89,0.06399757265964759
267,2156.8,0.06458967132684407
268,2166.76,0.0626847492305047
269,2176.76,0.06225303652333666
270,2186.81,0.061824603052632786
271,2187.7616199999998,0.06198791160001948
272,2196.9,0.06355640978257578
273,2207.04,0.06182545323939041
274,2217.23,0.060002567304966475
275,2227.46,0.058502441857551664
276,2232.6,0.06139999443822496
277,2242.9,0.059316029843076136
278,2253.25,0.05783321585668871
279,2263.6600000000003,0.05823273260081499
280,2274.1,0.05918014971019812
281,2284.6,0.059864907550094944
282,2295.15,0.05783330599875317
283,2305.7400000000002,0.05758168493442054
284,2316.38,0.05642348447884932
285,2327.07,0.04905007463203952
286,2332.44,0.054415410013015315
287,2343.2,0.052227501018471484
288,2354.02,0.054584032754441354
289,2364.89,0.05190896509917263
290,2375.8,0.05313956793091305
291,2386.77,0.05030291149316716
292,2392.27,0.052442528456922634
293,2403.31,0.05091691287144272
294,2414.41,0.05140836801647651
295,2425.5499999999997,0.052991973648519416
296,2436.75,0.05109604001107603
297,2442.36,0.052902828314106615
298,2453.64,0.052198665650681486
299,2464.96,0.05162284347426549
300,2476.34,0.05046947202836319
301,2487.77,0.0516664211912223
302,2493.5099999999998,0.05026876107703256
303,2505.0099999999998,0.05266035109215765
304,2510.79,0.04984006146497704
305,2511.88643,0.049929307930773804
306,2516.58,0.05031127269753231
307,2522.38,0.04850186536715574
308,2534.02,0.04852315051791725
309,2545.7200000000003,0.04820933538595072
310,2557.47,0.050155350018377495
311,2563.36,0.049363592263908886
312,2575.2000000000003,0.05100237647224361
313,2587.08,0.05078993049209298
314,2593.05,0.050334832360653656
315,2605.0099999999998,0.048985446003532315
316,2617.04,0.0485571493165616
317,2623.07,0.04935672090239424
318,2635.18,0.05006538383845281
319,2647.34,0.052810706538904705
320,2653.45,0.05306643774776662
321,2665.69,0.0507013000712478
322,2678.0,0.051785062064879595
323,2684.17,0.05179647299101349
324,2696.56,0.05017678460767458
325,2702.78,0.050769165298201774
326,2715.25,0.04895516653789215
327,2727.79,0.04852783744773316
328,2734.07,0.04989875785553232
329,2746.69,0.04616254838840261
330,2753.03,0.04660103851347375
331,2765.73,0.04781790866937333
332,2772.1099999999997,0.048942218605959105
333,2784.9,0.04752162833776663
334,2797.76,0.04198574773972479
335,2804.2099999999996,0.0438728373464612
336,2817.15,0.04846107637144864
337,2823.6499999999996,0.04903327574257835
338,2836.68,0.04793970434347375
339,2843.2200000000003,0.046751653526118105
340,2856.34,0.04571001170292145
341,2862.9300000000003,0.048095360649959104
342,2876.14,0.0481185184026704
343,2882.77,0.04801931716122271
344,2884.0315,0.04803196412821066
345,2896.08,0.04815281005497012
346,2909.4500000000003,0.049983408765635756
347,2929.61,0.04854543682150854
348,2949.9199999999996,0.04780386486291608
349,2970.37,0.04794913289082275
350,2990.9599999999996,0.047764490905228524
351,3011.69,0.047909768906133424
352,3032.57,0.04783539689257309
353,3046.56,0.04774895554344909
354,3067.68,0.04756622350674438
355,3088.95,0.047383481455574444
356,3110.3599999999997,0.047310389390903616
357,3131.92,0.04669769731176756
358,3153.63,0.04651880521816627
359,3168.18,0.04665068381503874
360,3190.1400000000003,0.045205941697328736
361,3212.26,0.045976129564189144
362,3227.08,0.044747898135024194
363,3249.45,0.04624941597777588
364,3271.98,0.047146843805097996
365,3287.08,0.04674006234893128
366,3309.86,0.046349530152144665
367,3311.31121,0.04607693806889902
368,3325.14,0.04347934451932836
369,3332.81,0.04379255037996362
370,3340.49,0.04144956622216426
371,3348.1899999999996,0.04432382202749562
372,3355.91,0.04253558779595772
373,3363.65,0.039708523527550554
374,3371.4,0.039994109240708745
375,3379.17,0.04316268491699767
376,3386.96,0.04337419055641733
377,3394.7699999999995,0.04328656615896771
378,3402.6,0.04420409172464883
379,3410.44,0.04117143727189531
380,3418.3,0.042336182782272525
381,3426.18,0.04373489825578047
382,3434.08,0.04425325369241914
383,3441.99,0.04237195911062318
384,3449.93,0.04189861447352332
385,3457.8799999999997,0.04162148981798882
386,3465.85,0.04115704512558505
387,3473.84,0.043108610396312017
388,3481.8500000000004,0.04194559563016971
389,3489.88,0.04333156082715813
390,3497.92,0.04177634600571192
391,3505.99,0.04246687112896182
392,3514.07,0.041512596233777066
393,3522.17,0.04318159130172305
394,3530.29,0.04144049633279977
395,3538.4300000000003,0.043206401327007204
396,3546.58,0.04392024630278002
397,3554.76,0.04444149122324892
398,3562.95,0.043343166125283196
399,3571.17,0.041787700972013564
400,3579.3999999999996,0.0404736758003093
401,3587.65,0.03884246059173575
402,3595.92,0.041060455346292955
403,3604.21,0.042417810063980876
404,3611.71,0.038174856238004935
405,3614.46,0.06416774116848042
406,3617.21,0.050509956098955915
407,3619.96,0.027657571029431404
408,3622.71,0.03018632595990689
409,3625.4599999999996,0.034634990890382376
410,3628.2,0.0257358058392925
411,3630.95,0.03868369076976799
412,3633.7000000000003,0.05027433570024348
413,3636.45,0.050274300630718964
414,3639.2000000000003,0.03735620556119445
415,3641.95,0.06211208049166994
416,3644.7000000000003,0.05699098542214543
417,3647.45,0.020408770352620915
418,3650.1899999999996,0.03928871530153104
419,3652.94,0.03514777023200653
420,3655.6899999999996,0.038831755162482016
421,3658.44,0.0465960400929575
422,3661.19,0.05121976502343299
423,3663.94,0.05330218995390847
424,3666.69,0.05644557488438397
425,3669.44,0.03502736981485945
426,3672.19,0.023931114745334943
427,3674.9300000000003,0.03982729969424506
428,3677.68,0.043489154624720555
429,3680.4300000000003,0.04321786955519604
430,3683.18,0.06325190448567153
431,3685.93,0.05386870941614701
432,3688.68,0.047368284346622505
433,3691.43,0.037933179277097995
434,3694.1800000000003,0.06812170420757348
435,3696.92,0.059257309156483605
436,3699.67,0.0471692840869591
437,3702.42,0.06372227901743459
438,3705.17,0.04211453394791007
439,3707.92,0.038308338878385556
440,3710.6699999999996,0.04477406380886105
441,3713.42,0.05452075873933653
442,3716.1699999999996,0.03242058366981202
443,3718.9100000000003,0.04354299861872214
444,3721.66,0.048660183549197635
445,3724.4100000000003,0.11543499847967312
446,3727.16,0.13581719341014858
447,3729.9100000000003,0.13607678834062412
448,3732.66,0.10204538327109958
449,3735.4100000000003,0.06231965820157507
450,3738.16,0.031583713132050564
451,3740.91,0.03380851806252605
452,3743.65,0.04549747301143617
453,3746.3999999999996,0.05347529794191166
454,3749.15,0.04605915287238714
455,3751.9,0.020489427802862635
456,3754.65,0.03410290273333812
457,3757.4,0.04827232766381361
458,3760.15,0.047410452594289096
459,3762.9,0.04654279752476459
460,3765.64,0.046388152473674706
461,3768.39,0.047890577404150196
462,3771.14,0.042205812334625684
463,3773.89,0.05867704726510117
464,3776.64,0.05200058219557666
465,3779.3900000000003,0.06027079712605215
466,3782.14,0.05129929205652763
467,3784.8900000000003,0.059415596987003126
468,3787.63,0.06189753193591325
469,3790.3799999999997,0.05794125686638874
470,3793.13,0.053589661796864224
471,3795.8799999999997,0.054141746727339714
472,3798.63,0.0466592216578152
473,3801.3799999999997,0.042837646588290694
474,3801.8939600000003,0.04377514045289803
475,3804.13,0.047853812377646056
476,3806.88,0.04884451836441735
477,3809.63,0.05539006435118863
478,3812.37,0.05177844035255348
479,3815.1200000000003,0.05408788633932477
480,3817.87,0.057494832326096056
481,3820.6200000000003,0.06657782831286735
482,3823.37,0.06357479429963864
483,3826.12,0.055679640286409926
484,3828.87,0.05826128627318121
485,3831.62,0.0434790922599525
486,3834.36,0.03427887826131735
487,3837.11,0.038870884248088634
488,3839.86,0.04428625023485993
489,3842.61,0.04757104622163121
490,3845.3599999999997,0.05807474220840251
491,3848.11,0.06190586819517379
492,3850.8599999999997,0.058214134181945085
493,3853.61,0.05606141016871637
494,3856.35,0.057870966170081216
495,3859.1,0.05988318215685251
496,3861.85,0.055655668143623806
497,3864.6000000000004,0.05817672413039509
498,3867.35,0.07064843011716637
499,3870.1000000000004,0.07699486610393766
500,3872.85,0.07590500209070895
501,3875.6000000000004,0.07317321807748026
502,3878.35,0.06492794406425152
503,3881.0899999999997,0.06995311006561639
504,3883.84,0.06895559605238767
505,3886.5899999999997,0.06531386203915895
506,3889.34,0.06735204802593024
507,3892.09,0.06333999401270154
508,3894.84,0.07421784999947283
509,3897.59,0.07429378598624412
510,3900.34,0.0734136219730154
511,3903.08,0.07742212797438025
512,3905.83,0.08591260396115154
513,3908.58,0.08011239994792282
514,3911.33,0.08204380593469413
515,3914.08,0.0822784519214654
516,3916.83,0.06917181790823669
517,3919.58,0.05640185389500798
518,3922.33,0.05077193988177928
519,3925.07,0.046593745883144126
520,3927.82,0.05169553186991541
521,3930.5699999999997,0.0530613778566867
522,3933.32,0.04868381384345799
523,3936.0699999999997,0.04631081983022928
524,3938.82,0.06056200581700057
525,3941.5699999999997,0.05662307180377186
526,3944.32,0.05519367779054315
527,3947.0699999999997,0.06278959377731444
528,3949.8100000000004,0.05080961977867928
529,3952.56,0.05182148576545057
530,3955.3100000000004,0.06539071175222187
531,3958.06,0.04472080773899315
532,3960.81,0.05452907372576444
533,3963.56,0.04825179971253573
534,3966.31,0.035069215699307016
535,3969.06,0.04495634168607831
536,3971.7999999999997,0.04114170768744316
537,3974.55,0.05562186367421444
538,3977.2999999999997,0.05741188966098573
539,3980.05,0.05996275564775702
540,3982.8,0.05215705163452831
541,3985.5499999999997,0.0659965476212996
542,3988.3,0.06580509360807088
543,3991.0499999999997,0.07249491959484217
544,3993.79,0.07766727559620702
545,3996.54,0.07142461158297832
546,3999.29,0.0728933575697496
547,4002.04,0.06822914355652089
548,4004.79,0.058617989543292184
549,4007.54,0.06811843553006347
550,4010.2900000000004,0.06301081151683476
551,4013.04,0.06108508750360605
552,4015.7900000000004,0.07990997349037735
553,4018.53,0.07187859949174218
554,4021.2799999999997,0.06467309547851348
555,4024.03,0.06308786146528476
556,4026.7799999999997,0.06469993745205606
557,4029.53,0.048180563438827345
558,4032.2799999999997,0.06373123942559862
559,4035.03,0.06250288541236991
560,4037.78,0.06503643139914121
561,4040.5200000000004,0.06978840740050606
562,4043.27,0.06345436338727735
563,4046.02,0.06766447937404864
564,4048.77,0.060486875360819925
565,4051.52,0.06291367134759121
566,4054.27,0.0615487173343625
567,4057.02,0.0652317133211338
568,4059.77,0.07094426930790508
