,lambda (Angstroms),Total Flux (erg/s/cm^2/Angstrom)
0,100.1,0.044490620252063476
1,101.96000000000001,0.05344408896116389
2,104.10000000000001,0.0637453883495388
3,104.712855,0.06669548581486899
4,106.03,0.06140526499419942
5,108.0,0.053492906383119244
6,110.01,0.04541992829966432
7,113.88000000000001,0.029876409864634697
8,117.88,0.0138107862278623
9,120.22644299999999,0.004387380808300945
10,120.9,0.00426247414578917
11,124.86,0.0035271442410554758
12,126.89,0.0031502042517525964
13,128.07,0.002931119495862254
14,131.05,0.002377856368274773
15,131.96,0.0022093794371389995
16,134.1,0.0018121410626768535
17,136.91,0.0012914086989718825
18,138.038426,0.0010820611351405264
19,140.1,0.001069200410837993
20,143.03,0.0010610730476071917
21,147.04,0.0010606730932469484
22,151.16,0.0010412280936050028
23,155.04,0.0010250781182140443
24,158.489319,0.0010116819652288603
25,159.01999999999998,0.0010077522920492077
26,161.97,0.0009867564952650582
27,166.13,0.0009588581136304615
28,170.0,0.0009338307139848149
29,173.16000000000003,0.0009140884102431496
30,177.19,0.0008900423105346342
31,180.07,0.0008745824894029904
32,181.970086,0.000864597290080607
33,182.14999999999998,0.0008660501206383053
34,185.97,0.0008988933862263112
35,191.18,0.0009436399623293243
36,193.83999999999997,0.0009719065436026477
37,197.89999999999998,0.001010055188704036
38,202.04,0.001052509260309885
39,204.85,0.0010839523412790727
40,208.929613,0.0011164514557049387
41,210.10999999999999,0.001145287288907046
42,215.99,0.0013261031478521788
43,220.01,0.00144438267794732
44,223.07,0.0015283118963779502
45,227.22,0.0016542267978443277
46,229.85,0.001990346572508562
47,234.11999999999998,0.002663829062933003
48,239.88329199999998,0.0031731962228830992
49,240.13,0.0031861331417658654
50,245.72,0.003111960255248048
51,252.01999999999998,0.003211484615702029
52,256.71,0.002896627106262215
53,260.28,0.0031525916438528037
54,263.9,0.003263241438272393
55,268.81,0.003268072258880177
56,273.8,0.0032636522904143615
57,275.42287,0.0032625037018418745
58,278.89,0.0033764339063334513
59,284.08,0.0035479800632078327
60,290.03000000000003,0.003627413283516614
61,296.1,0.0038775074612097727
62,300.91,0.003992185086366955
63,307.92,0.004255241263571081
64,316.227766,0.0045679638134322065
65,318.01000000000005,0.00458153247177877
66,327.66999999999996,0.004596442784295156
67,337.63,0.004582654317697142
68,347.89,0.004553366071984731
69,356.81,0.004560469372983297
70,363.078055,0.004600845827782213
71,365.96999999999997,0.004684845866126533
72,375.34999999999997,0.004890881042779232
73,384.97999999999996,0.004959940382988773
74,394.86,0.005415288886755156
75,404.99,0.00581345955407838
76,414.42,0.0060957271634424475
77,416.86938299999997,0.006154491563536979
78,422.12,0.006259650580983606
79,429.97,0.006450682444346062
80,441.0,0.007039101656178914
81,451.27,0.0074746326086289035
82,459.66,0.007659634814184446
83,470.37,0.008177118601013987
84,478.630092,0.008907614319141456
85,480.22,0.009026375339761937
86,490.28000000000003,0.008997766774031295
87,500.54,0.010344491230850735
88,506.34,0.010199795884803247
89,512.2,0.013664832845520784
90,520.52,0.014198989383604387
91,530.1999999999999,0.014721804875028579
92,540.06,0.014193657286747848
93,549.5408739999999,0.015258508007167378
94,550.1,0.015324246407185792
95,560.33,0.01968150229262285
96,569.43,0.023081445054839587
97,580.02,0.0245092575990017
98,589.44,0.027268428502307374
99,600.4,0.026297332334603574
100,610.16,0.02739657063781625
101,620.07,0.035890798382164364
102,630.14,0.037171330197056957
103,630.957344,0.03761894899902635
104,640.38,0.042835400188643104
105,649.29,0.045033390646951846
106,658.33,0.0449620156798487
107,664.42,0.05170312228939979
108,675.2099999999999,0.05712774198021363
109,684.6099999999999,0.05415338814273912
110,695.7299999999999,0.06562710636904587
111,705.4100000000001,0.05919312007683808
112,715.22,0.0767679083592184
113,724.43596,0.08162115057701984
114,725.17,0.0820066234082428
115,735.26,0.08660724614936607
116,745.49,0.08982833129720462
117,755.86,0.09443986885175847
118,764.61,0.09109638427146395
119,775.25,0.10533926718182585
120,784.22,0.10393792066922682
121,795.13,0.11540384893539676
122,804.34,0.12328026940573822
123,815.53,0.12933174248533874
124,824.97,0.13754681048099815
125,831.763771,0.12336609373722388
126,834.53,0.11757499560926857
127,844.1899999999999,0.14689541931589498
128,855.9300000000001,0.15057671996970384
129,865.8499999999999,0.16119384079472807
130,875.87,0.1686814374345207
131,886.01,0.17611612505203536
132,894.21,0.18305664186304327
133,904.5699999999999,0.18596589627304838
134,915.04,0.19776858407929873
135,925.64,0.597400520444748
136,934.2,1.0960865101889221
137,945.02,1.793321613346862
138,954.992586,2.303361588303986
139,955.96,2.3528426624955157
140,964.81,2.676482728906824
141,975.98,0.734566539846294
142,985.0100000000001,2.3366151855744426
143,994.12,2.3910340776656303
144,1005.64,3.262260353943401
145,1014.94,3.2101721186468097
146,1024.33,1.693029823008638
147,1036.19,2.532619871329329
148,1045.78,4.221727441598757
149,1055.46,4.154251951526606
150,1065.22,3.431789407817495
151,1075.0800000000002,3.9764677970621847
152,1085.03,3.315234125965293
153,1095.07,4.182978394526822
154,1096.4782,4.164542958575718
155,1105.2,4.050349148341865
156,1115.43,3.958134681457393
157,1125.75,3.5767950257147
158,1136.1599999999999,4.3901371811137855
159,1144.04,4.08772364552731
160,1154.62,4.270545444194201
161,1165.31,4.369890012034376
162,1176.0900000000001,3.1009903910163303
163,1184.24,4.250827288855192
164,1195.2,3.2396492901207035
165,1206.26,2.5734670815437473
166,1214.6200000000001,1.8474395387134261
167,1225.86,3.1877609524200277
168,1234.3600000000001,4.389901115810251
169,1245.78,4.736416151800411
170,1254.41,4.596750042395425
171,1258.92541,4.424510928667022
172,1266.02,4.153905626083143
173,1274.7900000000002,5.0634779350896295
174,1283.63,5.253435254544286
175,1295.51,4.379783027748055
176,1304.49,4.359619368099054
177,1313.53,5.217329717405626
178,1325.6899999999998,5.028496532402077
179,1334.87,4.59673190260499
180,1344.13,5.253425284748668
181,1353.4399999999998,5.122099674355327
182,1365.97,4.692957544577821
183,1375.44,4.846716958066011
184,1384.97,4.880300380509776
185,1394.57,4.115839813401711
186,1404.24,4.192333256741816
187,1413.97,4.607382709037496
188,1423.77,4.649955171781347
189,1433.6399999999999,4.692981644973367
190,1443.58,4.891578128613557
191,1445.43977,4.916838327322161
192,1446.9099999999999,4.936807590380738
193,1453.59,4.8133244271979025
194,1463.6599999999999,4.523293688687251
195,1473.8100000000002,4.533707960198361
196,1484.02,4.607390239225794
197,1494.3100000000002,4.649973528274988
198,1504.6699999999998,4.440712826093225
199,1511.61,4.050023695481118
200,1518.59,4.270292569879891
201,1525.6,4.182746448036826
202,1536.17,3.6767997721621897
203,1543.26,3.779823660340887
204,1553.96,3.6431130007516144
205,1564.73,3.8323683499313836
206,1575.58,4.078168709132916
207,1586.5000000000002,4.23114707710349
208,1593.82,4.309832994094754
209,1604.87,4.211711378350692
210,1616.0,4.202029772628393
211,1623.4599999999998,4.059385707157741
212,1634.71,4.2801421164680855
213,1646.04,4.319744535800192
214,1653.64,4.096918487867625
215,1659.58691,4.24373007071299
216,1665.1,4.379836276434367
217,1672.7900000000002,3.976147311540012
218,1676.64,4.451038833667025
219,1684.38,4.55468591451458
220,1696.0600000000002,4.3297315998245836
221,1703.89,4.1924067630075745
222,1715.7,4.003757567246542
223,1723.62,3.9670448127649705
224,1735.56,4.202157735932903
225,1743.5700000000002,4.115956063786767
226,1755.66,4.319861124180427
227,1763.76,4.050149534369728
228,1775.99,4.087610722840735
229,1784.19,4.163621224513854
230,1796.5500000000002,4.349849531913823
231,1804.8500000000001,4.339830125070762
232,1813.18,4.050204745672845
233,1825.7499999999998,4.125455245188834
234,1834.17,4.003908948126355
235,1846.8899999999999,3.7281065848680712
236,1855.41,3.7453573792894104
237,1863.98,3.8413962194526583
238,1876.8999999999999,4.059593039162012
239,1885.56,3.780041961660697
240,1894.2600000000002,3.643354920752909
241,1903.01,3.84140992558703
242,1905.46072,3.8171829264408137
243,1916.2,3.710995503447241
244,1925.0400000000002,3.618245078995703
245,1933.93,3.7367535955823343
246,1942.86,3.8768860649995025
247,1956.32,3.626545192474875
248,1965.35,3.912741543968383
249,1974.42,4.013133848292426
250,1983.54,3.8237010936546407
251,1997.29,3.7280488791513995
252,2006.51,3.8236610065899534
253,2015.77,3.736631086859043
254,2025.07,3.8679071199586694
255,2034.42,3.6768490940964655
256,2043.8100000000002,3.7799000210647975
257,2053.2400000000002,3.5114609008636655
258,2062.7200000000003,3.593149721700704
259,2072.24,3.876764495368278
260,2077.02,3.702322858617333
261,2086.61,3.8235435497383454
262,2096.2400000000002,3.6430811936898935
263,2105.91,3.6767817904719777
264,2115.63,3.710791328292232
265,2125.4,3.7451408071506562
266,2135.21,3.5601252388396163
267,2145.06,3.5930666233591126
268,2154.97,3.702235937124413
269,2164.91,3.6013812155126157
270,2174.91,3.584768423146622
271,2184.94,3.527445595403531
272,2187.7616199999998,3.5621012136534858
273,2195.03,3.6513881017515315
274,2205.16,3.576521625942268
275,2215.34,3.4313651971428305
276,2225.57,3.3610018153532195
277,2235.84,3.5113254711714688
278,2246.1600000000003,3.399955173999544
279,2256.5299999999997,3.284557923837445
280,2266.94,3.336254711283207
281,2277.41,3.3877165551407598
282,2282.66,3.441364491172484
283,2293.19,3.2538063914418283
284,2303.78,3.2812133481229635
285,2314.41,3.16726934241196
286,2325.09,2.6628673837107817
287,2335.83,2.992104481421395
288,2346.61,2.921600616739869
289,2357.44,3.070859799068169
290,2362.87,2.8912249043352665
291,2373.78,2.935770161879288
292,2384.74,2.7628484664331356
293,2395.7400000000002,2.8905728085948432
294,2406.8,2.8029892071683427
295,2412.35,2.8407574252590226
296,2423.4900000000002,2.9583968990482434
297,2434.67,2.862095410445325
298,2445.91,2.9669389782541975
299,2457.2,2.930401593072896
300,2462.86,2.902304914585193
301,2474.23,2.8142146046196133
302,2485.65,2.8312353416638594
303,2497.13,2.5918011351198964
304,2502.88,2.90664754124988
305,2511.88643,2.705452362864019
306,2514.4300000000003,2.6486280835077114
307,2520.23,2.715266972999034
308,2526.04,2.6401098588515484
309,2537.7,2.668256616001345
310,2543.55,2.6243984872986275
311,2555.29,2.7645142153379596
312,2567.09,2.699093921544444
313,2572.9999999999995,2.7991037710088778
314,2584.88,2.764505448104897
315,2596.81,2.723985107006876
316,2602.8,2.6485139273608453
317,2614.8100000000004,2.60971555715236
318,2626.8799999999997,2.6926571651110263
319,2632.9399999999996,2.766720959993339
320,2645.09,2.9346015388415405
321,2657.3,2.993149095856894
322,2663.43,2.7537678652675504
323,2675.72,2.8346323931724386
324,2688.07,2.844978899244479
325,2694.2700000000004,2.7093296431834792
326,2706.7000000000003,2.7697501201450554
327,2712.9399999999996,2.6438308495288227
328,2725.46,2.616988293741126
329,2738.04,2.706233716120581
330,2744.36,2.4330554163938842
331,2757.02,2.4758218096628744
332,2763.3799999999997,2.549723495380946
333,2776.13,2.6244988559006637
334,2782.5299999999997,2.4936315270635023
335,2795.38,2.130119851195139
336,2801.8199999999997,2.2344935078027457
337,2814.7499999999995,2.568683802823918
338,2827.75,2.6684320723734345
339,2834.26,2.5764887035093844
340,2847.3500000000004,2.5036509403096283
341,2853.91,2.400786553251538
342,2867.0800000000004,2.6055057609413166
343,2873.69,2.628193355689186
344,2884.0315,2.607224480859986
345,2886.96,2.6012875708075716
346,2893.6099999999997,2.6119245212856685
347,2906.97,2.7892124217950482
348,2927.1200000000003,2.677846271739959
349,2947.41,2.618641120642303
350,2967.84,2.638526968502081
351,2988.4100000000003,2.628082815319292
352,3009.1299999999997,2.629725661019468
353,3029.98,2.6252665057515467
354,3050.9900000000002,2.620768349292121
355,3072.13,2.6223351918645976
356,3093.43,2.6117540332455698
357,3107.71,2.626809926903799
358,3129.25,2.568421766497515
359,3150.94,2.557961604974196
360,3172.78,2.5710584423338405
361,3187.43,2.441180333236716
362,3209.52,2.504975168734635
363,3231.77,2.38239000304105
364,3246.69,2.5437058919332616
365,3269.19,2.6221607243779506
366,3291.85,2.5931975556311357
367,3307.05,2.5543954424382145
368,3311.31121,2.555134281063196
369,3322.31,2.557039844960627
370,3329.97,2.614904754512955
371,3337.6499999999996,2.5596676612181612
372,3345.34,2.5229505664998064
373,3353.05,2.45830146893433
374,3360.7799999999997,2.537141368521732
375,3368.53,2.523870265262012
376,3376.2999999999997,2.31627815915517
377,3384.08,2.385131051624767
378,3391.88,2.5481199412472417
379,3399.7,2.611726828022595
380,3407.54,2.4583997119508267
381,3415.39,2.4794925944554973
382,3423.26,2.630698474113046
383,3431.16,2.6048223494999116
384,3439.06,2.5792642248867774
385,3446.99,2.329268096002961
386,3454.94,2.499882964272022
387,3462.9,2.326163831117522
388,3470.89,2.4285026936923395
389,3478.89,2.2649415548435963
390,3486.91,2.3700514131477313
391,3494.95,2.341314268604744
392,3503.0,2.478333122638196
393,3511.08,2.4314339724009653
394,3519.1699999999996,2.435395820740174
395,3527.2799999999997,2.28707366623226
396,3535.42,2.4488915074536632
397,3543.56,2.562532348675067
398,3551.73,2.548964185625788
399,3559.9199999999996,2.483498019729387
400,3568.13,2.3214838509858637
401,3576.35,2.25666268081878
402,3584.6,2.1240715063810134
403,3592.86,2.177064330519686
404,3601.14,2.4691201518112362
405,3606.42,2.271660400171066
406,3609.1299999999997,2.5196350143860538
407,3611.83,2.258032630024603
408,3614.53,2.284472245663152
409,3617.23,1.8453438613017012
410,3619.9399999999996,2.2019384755166893
411,3622.64,2.5698650911552385
412,3625.34,2.462398706793788
413,3628.0499999999997,2.708360321008776
414,3630.75,2.712443936647325
415,3633.45,2.687045552285874
416,3636.15,2.1944711679244233
417,3638.8599999999997,2.3536537821394115
418,3641.56,2.3754953977779603
419,3644.26,2.5392310134165097
420,3646.96,2.2947556290550586
421,3649.67,2.169001243270047
422,3652.37,2.470089858908596
423,3655.07,2.089180474547145
424,3657.77,2.672679090185694
425,3660.48,2.556462704400682
426,3663.18,2.6656023200392314
427,3665.88,2.2776239356777803
428,3668.5800000000004,2.5717595513163296
429,3671.29,2.440660165531318
430,3673.99,2.5891657811698665
431,3676.69,2.536986396808416
432,3679.3900000000003,2.3038320124469647
433,3682.1,2.021758626661953
434,3684.7999999999997,2.2564122423005024
435,3687.5,2.4301478579390516
436,3690.2000000000003,2.3105544735776005
437,3692.91,2.5429540877925887
438,3695.6099999999997,2.543991703431138
439,3698.3100000000004,2.4929033190696868
440,3701.01,2.585031934708236
441,3703.72,2.409794548923224
442,3706.42,2.709907164561773
443,3709.1200000000003,2.5901997802003223
444,3711.82,2.5962373958388714
445,3714.5299999999997,2.91219701005386
446,3717.2300000000005,3.8966076256924085
447,3719.9300000000003,5.366299241330958
448,3722.63,8.052297856969508
449,3725.3399999999997,10.571752471184494
450,3728.0400000000004,11.258532086823044
451,3730.7400000000002,9.433870702461594
452,3733.44,6.455196318100142
453,3736.1499999999996,4.11556093231513
454,3738.8500000000004,3.2471345479536793
455,3741.55,2.9275461635922286
456,3744.25,2.6677837792307777
457,3746.9599999999996,2.6182913934457663
458,3749.6600000000003,2.5897320090843152
459,3752.36,2.5541606247228645
460,3755.06,2.879675240361413
461,3757.7700000000004,3.6724068545764013
462,3760.4700000000003,4.16257547021495
463,3763.17,4.5459640858535
464,3765.8799999999997,4.445775700068488
465,3768.5800000000004,3.834873315707037
466,3771.28,3.0516739313455865
467,3773.98,2.797601546984135
468,3776.6899999999996,3.009368161199123
469,3779.3900000000003,3.2147697768376724
470,3782.09,3.1341423924762215
471,3784.79,3.249662008114771
472,3787.4999999999995,3.1243646223297588
473,3790.2000000000003,2.9198892379683077
474,3792.9,2.846790853606857
475,3795.6,2.638234469245406
476,3798.31,2.6046610834603947
477,3801.01,2.8131656990989433
478,3801.8939600000003,2.8369120127877823
479,3803.71,2.8856973686041214
480,3806.41,3.0216180643289556
481,3809.12,3.151142758926845
482,3811.82,3.2674094546516796
483,3814.52,3.397296150376514
484,3817.2200000000003,3.1431088461013483
485,3819.9300000000003,3.1035575406992377
486,3822.63,2.954598236424072
487,3825.33,2.9698889321489066
488,3828.03,2.7169076278737414
489,3830.7400000000002,2.6228763224716305
490,3833.44,2.430814018196465
491,3836.1400000000003,2.4575407139212997
492,3838.84,2.509324409646134
493,3841.55,2.709425104244023
494,3844.25,2.856436799968858
495,3846.9500000000003,3.0418394956936923
496,3849.65,3.3936771914185266
497,3852.36,3.408317886016416
498,3855.06,3.4537815817412505
499,3857.76,3.614759277466085
500,3860.46,3.6506259731909196
501,3863.17,3.602278667788809
502,3865.8700000000003,3.792049363513643
503,3868.57,3.790560059238478
504,3871.27,3.709704754963312
505,3873.98,3.5857844495612015
506,3876.6800000000003,3.4409641452860362
507,3879.38,3.186201841010871
508,3882.08,3.1141955367357053
509,3884.79,3.135447231333594
510,3887.4900000000002,3.129761927058429
511,3890.19,2.9940206227832635
512,3892.89,3.0418973185080977
513,3895.6000000000004,3.0692410131059873
514,3898.3,3.3409067088308215
515,3901.0,3.337462404555656
516,3903.7,3.51516410028049
517,3906.4100000000003,3.65968779487838
518,3909.11,3.8183674906032143
519,3911.81,3.864119186328049
520,3914.5200000000004,3.868298880925938
521,3917.2200000000003,3.7614095766507725
522,3919.92,3.652336272375607
523,3922.62,3.6469369681004413
524,3925.3300000000004,3.562672662698331
525,3928.03,3.2694063584231654
526,3930.73,3.0406220541479994
527,3933.43,2.934075749872834
528,3936.1400000000003,2.9854994444707237
529,3938.84,3.140500140195558
530,3941.54,3.376878835920392
531,3944.24,3.612856531645227
532,3946.9500000000003,3.5476712262431165
533,3949.65,3.6254329219679504
534,3952.35,3.851294617692785
535,3955.05,3.7918753134176195
536,3957.76,3.448591008015509
537,3960.46,3.366643703740343
538,3963.16,3.1919383994651778
539,3965.86,3.003439095190012
540,3968.57,2.8421667897879015
541,3971.27,2.745447485512736
542,3973.97,2.8376331812375706
543,3976.67,3.112574876962405
544,3979.38,3.2647435715602944
545,3982.08,3.718186267285129
546,3984.78,3.9312329630099634
547,3987.48,4.073936658734798
548,3990.19,4.073634353332687
549,3992.89,4.122316049057522
550,3995.59,4.173698744782356
551,3998.29,4.215312440507191
552,4001.0,4.18075713510508
553,4003.7,4.331276830829914
554,4006.4,4.135998526554749
555,4009.1,4.157439222279583
556,4011.81,4.260237916877473
557,4014.51,4.315299612602307
558,4017.21,4.252661308327141
559,4019.91,4.316114004051975
560,4022.62,4.379889698649865
561,4025.32,4.2031163943747
562,4028.02,4.356452090099534
563,4030.72,4.262091785824369
564,4033.4300000000003,4.289775480422258
565,4036.13,4.357941176147092
566,4038.83,4.280647871871927
567,4041.5299999999997,4.166344567596761
568,4044.2400000000002,4.222994262194651
569,4046.94,4.133747957919486
570,4049.64,4.5165056536443196
571,4052.3399999999997,4.4080643493691545
572,4055.05,4.407818043967044
573,4057.75,4.423224739691878
574,4060.45,4.482309435416712
575,4063.1600000000003,4.354192130014602
576,4065.86,4.631030825739436
577,4068.56,4.5737385214642705
578,4071.2599999999998,4.563802217189105
579,4073.9700000000003,4.350570911786995
580,4076.67,4.395747607511829
581,4079.37,4.127481303236663
582,4082.0699999999997,4.236679998961498
583,4084.78,4.128562693559387
584,4087.48,4.175176389284221
585,4090.18,3.9358180850090565
586,4092.8799999999997,3.849731780733891
587,4095.59,3.7022494753317803
588,4098.29,3.7077131710566147
589,4100.99,3.5813978667814492
590,4103.69,3.6376075625062834
591,4106.4,3.711961257104173
592,4109.1,3.5762779528290074
593,4111.8,3.6131786485538417
594,4114.5,3.959383344278676
595,4117.21,3.8875890388765657
596,4119.91,4.067186734601401
597,4122.61,3.9639184303262343
598,4125.3099999999995,4.126276126051069
