,lambda (Angstroms),Total Flux (erg/s/cm^2/Angstrom)
0,100.04,0.00503336384927323
1,101.89999999999999,0.006052915659990338
2,104.04,0.007225948387229221
3,104.712855,0.007594771258026889
4,105.97,0.007019800567500576
5,107.94,0.006118796908789701
6,109.94999999999999,0.005199498803093924
7,114.07000000000001,0.0033151663608141447
8,118.08000000000001,0.0014811438475910428
9,120.22644299999999,0.0004994433045826824
10,121.11,0.00048074532744234926
11,125.08,0.0003967301250490565
12,127.11,0.00035377026849794187
13,127.99,0.00033514746996578883
14,130.98,0.0002718719475186892
15,131.88,0.000252826969538328
16,134.03,0.00020732810549296517
17,137.15,0.00014130435349751316
18,138.038426,0.00012250377659759378
19,140.02,0.00012102509293683592
20,142.95000000000002,0.00011886820622085655
21,146.96,0.00011594851886420905
22,151.07,0.00011290947638916634
23,154.95,0.00011005403782343262
24,158.489319,0.00010745832440965853
25,158.92,0.00010696977393750176
26,161.88000000000002,0.00010361906394840224
27,166.03,9.893531374172563e-05
28,169.9,9.458570259212599e-05
29,173.05999999999997,9.102760500511441e-05
30,177.09,8.655704323718502e-05
31,179.97,8.337275840725041e-05
32,181.970086,8.116597838682226e-05
33,182.04999999999998,8.119911140088577e-05
34,185.85999999999999,8.282702647600937e-05
35,191.07,8.509808859054843e-05
36,194.17000000000002,8.650566585639705e-05
37,197.78,8.823501564017558e-05
38,201.92000000000002,9.026121802101852e-05
39,205.21,9.191181453864494e-05
40,208.929613,9.38528143644527e-05
41,209.99,9.639403285939978e-05
42,215.86999999999998,0.0001110653757540498
43,219.88,0.00012120828906995914
44,222.94000000000003,0.00012896076319880774
45,227.07999999999998,0.00013985430296136738
46,230.23999999999998,0.00015122019374148548
47,233.99,0.000169633943164094
48,239.88329199999998,0.00019323694995852404
49,239.99,0.00019322757377667735
50,246.14000000000001,0.0001883146921916849
51,251.88,0.00019111453937902537
52,257.15,0.00018709464759806446
53,260.13,0.00019358515871623067
54,263.75,0.00022204933906782862
55,269.27,0.00023728519120617692
56,274.28000000000003,0.0002569037825491343
57,275.42287,0.0002557561268166321
58,278.72999999999996,0.0002650764996514888
59,283.92,0.0003448095589723437
60,289.86,0.00041919663033378445
61,295.93,0.0004628243891155933
62,300.74,0.0004862015236692179
63,307.74,0.0006131506693813534
64,316.227766,0.0007506389615148229
65,317.83,0.000771113815063399
66,328.24,0.0009632380989527233
67,338.21,0.001111882098412528
68,347.69,0.001283444699303094
69,356.60999999999996,0.002005651901828817
70,363.078055,0.0030926136006591636
71,365.75000000000006,0.0035485137407728676
72,375.14,0.004160317694959933
73,384.76000000000005,0.003989324163466809
74,394.63,0.006908958712756089
75,404.74999999999994,0.009979773342827772
76,414.18,0.011394581429940022
77,416.86938299999997,0.011488932700301489
78,421.88000000000005,0.011662458014742163
79,429.72,0.012489675544611122
80,440.75000000000006,0.0168315126433936
81,451.01000000000005,0.019482728466921086
82,460.46,0.019224175935959566
83,470.1,0.02199945203135966
84,478.630092,0.026733784416261203
85,479.94,0.027458754035540236
86,489.99,0.02604465342217391
87,500.25,0.03521524640793128
88,506.04,0.032275217069484406
89,511.9,0.0522258655974121
90,520.22,0.0534306105722173
91,529.89,0.05403805725567477
92,539.74,0.04839275416695255
93,549.5408739999999,0.05071526675439152
94,549.78,0.05077207559981154
95,560.0,0.07132403302917237
96,570.41,0.08532899556729823
97,579.68,0.08954479745283393
98,590.46,0.0972663830975022
99,600.0500000000001,0.08790736253464217
100,609.8,0.08953725574758424
101,619.71,0.11990426273632847
102,629.7800000000001,0.1190722535008748
103,630.957344,0.12128292626702449
104,640.01,0.13828703866503264
105,650.41,0.14021188865026052
106,657.94,0.13421652099533418
107,665.5600000000001,0.15586988838835691
108,674.82,0.17129039443289637
109,685.79,0.15444606638846844
110,695.3299999999999,0.18566068147107173
111,704.9999999999999,0.15841244717849035
112,716.45,0.20831020605645756
113,724.43596,0.21697155442040428
114,726.42,0.21912305556357703
115,734.83,0.22734481895712305
116,745.0500000000001,0.22839688339018369
117,755.42,0.23478808105856325
118,764.17,0.21812881978549875
119,774.8,0.2510008750617644
120,785.58,0.2380585635733489
121,794.67,0.2634336776336739
122,805.73,0.2783854281845204
123,815.06,0.2881635954213556
124,824.5,0.300353987030758
125,831.763771,0.2605987849362003
126,834.0400000000001,0.24813919696818457
127,845.65,0.31089388898656956
128,855.4399999999999,0.31304646012007425
129,865.34,0.33235077812024744
130,875.36,0.34165403815678647
131,885.5,0.35040734022969117
132,895.75,0.3593842891692645
133,904.04,0.36021088484819747
134,914.51,0.35608702752110793
135,925.0999999999999,0.8442148122303842
136,935.81,1.3817187389760262
137,944.47,1.9651925559337533
138,954.992586,2.3843845999003657
139,955.41,2.4010134413376525
140,964.25,2.6570087664286053
141,975.4100000000001,0.9782101143941067
142,984.44,2.220250224979096
143,995.84,2.2202483546212743
144,1005.05,2.8999826514637714
145,1014.35,2.9675489414350222
146,1026.1000000000001,1.9204360443556894
147,1035.59,2.5549983198209767
148,1045.17,3.779151588415018
149,1054.84,3.7016508501378134
150,1064.6,3.1217301049893633
151,1074.46,3.5349583522061954
152,1084.3999999999999,3.050639593315253
153,1094.43,3.7186958275530646
154,1096.4782,3.694846778148174
155,1104.56,3.600741740009686
156,1114.78,3.543110297911627
157,1125.09,3.1797648343078118
158,1135.5,3.8582373468087123
159,1146.01,3.6508178354143284
160,1153.95,3.7531509381287513
161,1164.6299999999999,3.787791386112384
162,1175.41,2.6508718102007327
163,1186.28,3.684603212783325
164,1194.51,3.008756246201424
165,1205.56,2.5199356057725044
166,1213.92,1.987897608126734
167,1225.15,3.008727924686303
168,1233.64,3.8582048959766624
169,1245.05,4.09630516952472
170,1253.68,3.9937821073616813
171,1258.92541,3.8771514235586326
172,1265.28,3.735859961962215
173,1274.06,4.399296111192009
174,1285.8400000000001,4.543430311411481
175,1294.76,3.8581634630207935
176,1303.7299999999998,3.8671036154799334
177,1315.8,4.553912820628408
178,1324.92,4.389167975637032
179,1334.1,4.06802113166545
180,1346.44,4.564401341402996
181,1355.78,4.460485500150863
182,1365.18,4.115124659918523
183,1374.64,4.210967820705978
184,1384.17,4.2304209826831904
185,1393.76,3.422819145680198
186,1403.4199999999998,3.430763309866964
187,1416.4099999999999,4.021481530652274
188,1426.23,4.012157697558489
189,1436.11,4.105651865484499
190,1442.7400000000002,4.24020397817169
191,1445.43977,4.271974560692122
192,1446.0700000000002,4.279391033048746
193,1456.09,4.162775175984427
194,1466.18,3.9299313199186616
195,1476.35,3.9663004649940983
196,1486.5800000000002,4.040019610925437
197,1493.44,4.058676708783599
198,1503.7900000000002,3.8760348564267426
199,1510.7400000000002,3.551284955568757
200,1517.7099999999998,3.7272020549960723
201,1524.71,3.6676641548513387
202,1535.28,3.201768305632791
203,1545.93,3.157798457555446
204,1556.6399999999999,3.0930626103340035
205,1563.83,3.329530712899627
206,1574.6699999999998,3.5512828675326396
207,1585.5800000000002,3.684570023164205
208,1596.57,3.735822179936973
209,1603.94,3.6592232850703037
210,1615.0600000000002,3.650767443697527
211,1626.25,3.551304603323303
212,1633.76,3.7444337104537384
213,1645.09,3.7703738720766196
214,1656.49,3.6256330346980534
215,1659.58691,3.7091515530352765
216,1664.13,3.8316715521515485
217,1671.82,3.502535353256546
218,1675.6699999999998,3.929926754329919
219,1683.3999999999999,3.9846395596019124
220,1695.07,3.8052937753230203
221,1706.82,3.69303399937812
222,1714.7,3.518755820276349
223,1726.5900000000001,3.478425058915935
224,1734.56,3.684554889189905
225,1746.5800000000002,3.6256671413722286
226,1754.64,3.7704199810219396
227,1766.8,3.57590324778875
228,1774.9599999999998,3.575908097855951
229,1783.15,3.650792951048399
230,1795.51,3.7878192386501897
231,1803.8000000000002,3.796492102260128
232,1816.3000000000002,3.535003404446405
233,1824.6899999999998,3.6089722784738334
234,1833.1100000000001,3.518759155626509
235,1845.82,3.2838564796895153
236,1854.34,3.2990603672596817
237,1862.89,3.3681282579550946
238,1875.81,3.5595056038948303
239,1884.47,3.3066395060494824
240,1893.16,3.179747411329382
241,1905.46072,3.3562148406125014
242,1906.29,3.3681115813978026
243,1915.0900000000001,3.2388463997108534
244,1923.93,3.1505692126526
245,1932.8100000000002,3.306623020223042
246,1946.1999999999998,3.3914632221789223
247,1955.19,3.1505840149782776
248,1968.74,3.4071421954489405
249,1977.83,3.5106459748200343
250,1982.3899999999999,3.3372043624913426
251,1996.13,3.26129151744831
252,2005.34,3.3603772807054915
253,2014.6,3.2838890372485423
254,2023.8999999999999,3.4149797884202893
255,2033.24,3.2165525342207313
256,2047.33,3.299076642178786
257,2056.78,3.0226403732081417
258,2066.28,3.1216820975233666
259,2075.81,3.3914478178101133
260,2085.4,3.2990345300399038
261,2095.02,3.1432882382412157
262,2104.69,3.1943739397283974
263,2114.41,3.231370634501449
264,2124.17,3.2537573239031956
265,2133.9700000000003,3.1216740079336383
266,2143.8199999999997,3.1144676852499504
267,2153.7200000000003,3.2165233558521327
268,2163.66,3.14326502108301
269,2173.64,3.1288646809425837
270,2183.6800000000003,3.0576513327452006
271,2187.7616199999998,3.1011581003808093
272,2193.7599999999998,3.1650974268562933
273,2203.88,3.1073065103289825
274,2214.0499999999997,3.008752599154798
275,2224.27,2.9403016933337396
276,2234.54,3.0295857928658068
277,2244.86,2.9538308977509997
278,2255.22,2.8733660069186935
279,2265.6299999999997,2.9267021214395137
280,2276.08,2.960458240242834
281,2286.59,2.9807663654699055
282,2297.14,2.826796494979478
283,2302.44,2.8463020624108273
284,2313.07,2.7621642004854015
285,2323.74,2.3562563428424763
286,2334.47,2.649646491623302
287,2345.25,2.6191626457572537
288,2356.07,2.698568804173706
289,2366.95,2.5887899690139102
290,2372.4,2.600713552504637
291,2383.35,2.494936724839217
292,2394.35,2.5883449025269227
293,2405.41,2.51761108663838
294,2416.51,2.5407732750323375
295,2427.6600000000003,2.5937834687794212
296,2433.2599999999998,2.5113780683295257
297,2444.49,2.587537270641611
298,2455.77,2.5518244783068225
299,2467.11,2.5399126923957844
300,2472.8,2.482005301581516
301,2484.21,2.5163585231648544
302,2495.6800000000003,2.2477167511719442
303,2507.2,2.5217819845321596
304,2511.88643,2.398478296807761
305,2512.98,2.3697054409599785
306,2518.77,2.45285920104546
307,2524.5800000000004,2.3914069603022217
308,2536.23,2.3912444775726645
309,2542.07,2.3475532355863455
310,2553.8100000000004,2.413128749127547
311,2565.6,2.390773260596948
312,2577.4399999999996,2.451919769994548
313,2583.38,2.434956523864628
314,2595.2999999999997,2.412442029947347
315,2607.28,2.362790533543905
316,2613.29,2.341033284513464
317,2625.36,2.3734027843807812
318,2637.48,2.378711282176297
319,2643.55,2.4508870306596955
320,2655.7599999999998,2.4450495247259703
321,2668.02,2.329457016720445
322,2674.17,2.3726477618889623
323,2686.5099999999998,2.361570250568555
324,2692.7000000000003,2.297141994079632
325,2705.13,2.3128344790299837
326,2717.62,2.2600099614941755
327,2723.88,2.265150702104731
328,2736.46,2.301739180839681
329,2742.76,2.167926919792796
330,2755.42,2.1677523952128652
331,2768.14,2.1926338681467734
332,2774.52,2.2436116037850073
333,2787.33,2.202500072989674
334,2793.76,1.9765238065561075
335,2806.65,2.0599592724458935
336,2813.12,2.212318004354886
337,2826.11,2.2172164661010707
338,2832.6200000000003,2.1369171963526226
339,2845.69,2.1220266547839266
340,2852.25,2.107356382963678
341,2865.42,2.15625983725138
342,2872.0299999999997,2.126577563359331
343,2884.0315,2.126368738140486
344,2885.28,2.1263470650062897
345,2891.93,2.1019320593671074
346,2911.98,2.1505920423647606
347,2932.16,2.1062680252521737
348,2952.49,2.072304008012388
349,2972.96,2.067217990653882
350,2986.68,2.0481119790193585
351,3007.38,2.0384169614658134
352,3028.23,2.0240989437850683
353,3049.2200000000003,2.000655925985604
354,3070.35,1.9820729080674198
355,3091.64,1.963589890013556
356,3113.07,1.9453468718409728
357,3127.44,1.9184338596552508
358,3149.11,1.9093898412791481
359,3170.94,1.8829418227673658
360,3192.92,1.8356018041283841
361,3207.66,1.8396397916289031
362,3229.8900000000003,1.809962772777922
363,3252.28,1.813836753791261
364,3267.29,1.805341741062821
365,3289.94,1.7885437218556808
366,3311.31121,1.7767506559350557
367,3312.75,1.7759566804095284
368,3320.39,1.8172255565617454
369,3328.04,1.8129624325518583
370,3335.71,1.8170603082177623
371,3343.4,1.7351901835594574
372,3351.11,1.8001970585769436
373,3358.83,1.7072519334323253
374,3366.5699999999997,1.7349048079634986
375,3374.34,1.6992216820083579
376,3382.1200000000003,1.6991615558911133
377,3389.91,1.750725429611764
378,3397.73,1.7627303028461017
379,3405.5600000000004,1.6988711759183346
380,3413.41,1.7066720486663591
381,3421.2799999999997,1.7422889210901744
382,3429.17,1.7302177931897809
383,3437.0699999999997,1.742116665127283
384,3444.99,1.6790165367405763
385,3452.94,1.7459254078675561
386,3460.89,1.6596162789945361
387,3468.87,1.6595621496352029
388,3476.8700000000003,1.6442560199516607
389,3484.88,1.640390890106014
390,3492.92,1.6746207597740541
391,3500.97,1.64777662927999
392,3509.04,1.6064984984617168
393,3517.13,1.595357367319235
394,3525.2400000000002,1.6286622358525438
395,3533.3599999999997,1.6474371042237486
396,3541.5099999999998,1.65493397210864
397,3549.6699999999996,1.6701858398314269
398,3557.86,1.6433887070679005
399,3566.06,1.66232557414227
400,3574.28,1.5910804408924304
401,3582.52,1.544084307318382
402,3590.78,1.5157931734201247
403,3599.0499999999997,1.5653950393597629
404,3607.35,1.565270904813088
405,3615.67,1.5833397699422043
406,3624.0,1.6015916349092159
407,3629.87,1.5699495397539167
408,3632.5800000000004,1.6539514958236168
409,3635.28,1.5275184520554212
410,3637.99,1.7294154081251214
411,3640.7000000000003,1.7731173641948217
412,3643.4100000000003,1.8327553202645215
413,3646.11,1.7829942764963262
414,3648.8199999999997,1.5702392325660262
415,3651.53,1.6489291886357265
416,3654.23,1.6488201448675308
417,3656.94,1.5987611009372311
418,3659.6499999999996,1.609093057006931
419,3662.36,1.633916013076631
420,3665.06,1.7907309693084357
421,3667.77,1.5771669253781357
422,3670.48,1.473876881447836
423,3673.18,1.4906838376796403
424,3675.89,1.5159117937493405
425,3678.6000000000004,1.5210477498190405
426,3681.31,1.4538997058887406
427,3684.0099999999998,1.5896976621205452
428,3686.72,1.5136006181902453
429,3689.4300000000003,1.4544785742599453
430,3692.13,1.46043053049175
431,3694.8399999999997,1.58502048656145
432,3697.55,1.47630344263115
433,3700.26,1.4884833987008501
434,3702.96,1.3331233549326547
435,3705.6699999999996,1.3259053110023549
436,3708.38,1.5089802670720547
437,3711.09,1.6303362231417549
438,3713.79,1.6055161793735595
439,3716.5,1.8977101354432595
440,3719.21,2.9480760915129594
441,3721.91,5.385602047744764
442,3724.6200000000003,8.791377003814464
443,3727.33,10.905039959884165
444,3730.04,9.603677915953865
445,3732.74,6.341689872185669
446,3735.4500000000003,3.3917738282553693
447,3738.16,2.251390784325069
448,3740.8599999999997,1.9700567405568736
449,3743.57,1.7434436966265736
450,3746.28,1.5443716526962739
451,3748.99,1.583975608765974
452,3751.6899999999996,1.6829965649977785
453,3754.4,1.7880715210674785
454,3757.11,1.7612794771371787
455,3759.81,1.882068433368983
456,3762.5199999999995,1.8771583894386832
457,3765.23,1.5223743455083834
458,3767.94,1.5552813015780833
459,3770.6400000000003,1.522378257809888
460,3773.35,1.581207213879588
461,3776.06,1.7690161699492881
462,3778.77,1.7872001260189883
463,3781.4700000000003,1.8627820822507928
464,3784.18,1.9053880383204926
465,3786.89,1.8919329943901928
466,3789.5899999999997,1.8620909506219974
467,3792.3,1.7161339066916976
468,3795.0099999999998,1.6061468627613977
469,3797.72,1.6107058188310976
470,3800.42,1.676529775062902
471,3801.8939600000003,1.75741915305867
472,3803.13,1.8252517353074988
473,3805.8399999999997,1.9061357005306
474,3808.5400000000004,2.1061366658820293
475,3811.25,1.9657806311051307
476,3813.96,2.079052596328232
477,3816.6699999999996,2.009421561551333
478,3819.3700000000003,2.028770526902762
479,3822.08,2.0271504921258634
480,3824.79,1.9153734573489647
481,3827.4900000000002,1.8273344227003938
482,3830.2000000000003,1.7126123879234951
483,3832.91,1.5477773531465964
484,3835.6200000000003,1.6661313183696975
485,3838.32,1.7338602837211268
486,3841.03,1.667405248944228
487,3843.74,1.8289442141673293
488,3846.4500000000003,1.9373101793904304
489,3849.15,1.9202851447418596
490,3851.8599999999997,2.065890109964961
491,3854.57,1.9985680751880621
492,3857.27,1.9443050405394913
493,3859.98,2.0276710057625924
494,3862.6899999999996,2.3273119709856935
495,3865.4,2.448955936208795
496,3868.1,2.379740901560224
497,3870.81,2.3215978667833252
498,3873.5199999999995,2.0896158320064266
499,3876.2200000000003,2.0094297973578557
500,3878.93,1.925653762580957
501,3881.64,1.9550377278040583
502,3884.35,1.9783016930271595
503,3887.05,1.9367976583785886
504,3889.7599999999998,2.13153462360169
505,3892.4700000000003,2.021547588824791
506,3895.18,1.8083875540478924
507,3897.88,1.8341445193993215
508,3900.5899999999997,1.9092544846224226
509,3903.3,1.924089449845524
510,3906.0,1.9546384151969534
511,3908.71,2.0356953804200546
512,3911.42,2.1586103456431553
513,3914.13,2.106472310866257
514,3916.83,2.046666276217686
515,3919.5400000000004,2.0309022414407876
516,3922.25,1.9906002066638886
517,3924.95,2.1045181720153177
518,3927.66,1.955790137238419
519,3930.3700000000003,1.9217241024615204
520,3933.08,1.8505920676846213
521,3935.7799999999997,1.7337430330360506
522,3938.4900000000002,1.921378998259152
523,3941.2000000000003,1.831251963482253
524,3943.9,1.9880099288336823
525,3946.6099999999997,1.9254788940567835
526,3949.32,1.9359848592798847
527,3952.03,2.059187824502986
528,3954.73,1.9652607898544152
529,3957.44,1.8687247550775166
530,3960.15,1.8994377203006176
531,3962.86,1.749381685523719
532,3965.5600000000004,1.8327576508751482
533,3968.27,1.8675116160982492
534,3970.98,1.9567085813213505
535,3973.68,1.7989265466727797
536,3976.3900000000003,1.912545511895881
537,3979.1,1.880442477118982
538,3981.81,1.8896194423420833
539,3984.51,1.9029634076935127
540,3987.2200000000003,2.014446372916614
541,3989.93,1.980322338139715
542,3992.6299999999997,2.186559303491144
543,3995.34,2.1952742687142455
544,3998.05,2.1086112339373466
545,4000.7599999999998,2.188109199160448
546,4003.4599999999996,2.049437164511877
547,4006.17,2.0345961297349784
548,4008.88,2.1111500949580795
549,4011.58,2.173453060309509
550,4014.29,2.1825150255326102
551,4017.0,2.125411990755711
552,4019.71,2.0562429559788122
553,4022.4100000000003,2.134538921330242
554,4025.12,2.160573886553343
555,4027.83,2.0841298517764444
556,4030.5400000000004,2.060109816999545
557,4033.2400000000002,2.1182557823509747
558,4035.95,2.2783517475740758
559,4038.66,2.249827712797177
560,4041.36,2.0894476781486064
561,4044.07,2.151971643371707
562,4046.7799999999997,2.0082666085948087
563,4049.4900000000002,2.16905557381791
564,4052.19,2.116639539169339
565,4054.9,2.23499350439244
566,4057.6099999999997,2.2338354696155416
567,4060.31,2.2791654349669708
568,4063.02,2.088925400190072
569,4065.73,2.0847653654131735
570,4068.44,2.135800330636274
571,4071.14,2.1274362959877036
572,4073.85,1.9781302612108047
573,4076.5600000000004,2.0774322264339062
574,4079.26,1.9912981917853352
575,4081.97,1.9620821570084366
576,4084.68,2.0003001222315375
577,4087.3900000000003,1.8249560874546389
578,4090.09,1.8279650528060682
579,4092.7999999999997,1.9086180180291694
580,4095.5099999999998,1.8703369832522707
581,4098.22,1.9590149484753716
582,4100.92,2.324599913826801
583,4103.63,2.2907638790499023
584,4106.34,2.048043844273004
585,4109.04,1.8895108096244326
586,4111.75,1.856252774847534
587,4114.46,1.871838740070635
588,4117.17,1.881823705293736
