,lambda (Angstroms),Total Flux (erg/s/cm^2/Angstrom)
0,100.03,0.07547871619253702
1,101.89,0.09078425738271297
2,104.02,0.10831157068118677
3,104.712855,0.1140129259186091
4,105.96,0.10545010828102476
5,107.92,0.09199287390248792
6,109.92999999999999,0.07819234273014597
7,114.05999999999999,0.04983602743691418
8,118.07,0.02230362445807803
9,120.22644299999999,0.007497625103334732
10,121.09,0.007223275059920847
11,125.06,0.005962015283466982
12,127.09,0.005317089009493066
13,127.97,0.005037515072646309
14,130.95000000000002,0.004090776045744565
15,131.85999999999999,0.003801671254185162
16,134.01,0.0031186213186727226
17,137.13,0.002127404860588558
18,138.038426,0.0018388001162160522
19,140.0,0.001816790824276968
20,142.93,0.0017839182026470717
21,146.93,0.001739045830644664
22,151.05,0.001692822811431554
23,154.93,0.0016492943818878488
24,158.489319,0.0016093654431478949
25,158.9,0.0016022862998797877
26,161.85000000000002,0.0015514369335988493
27,166.01000000000002,0.001479733242557018
28,169.86999999999998,0.0014132037516203678
29,173.03,0.0013587412295958032
30,177.06,0.0012892882691162167
31,179.94,0.0012396583633464877
32,181.970086,0.001204675318853333
33,182.01999999999998,0.0012049526024518753
34,185.82999999999998,0.001226125585948186
35,191.04,0.0012550838929940597
36,194.14000000000001,0.0012723232718180918
37,198.20999999999998,0.0012949610313493214
38,201.89,0.0013154484908281725
39,205.17000000000002,0.0013337066078071488
40,208.929613,0.001354635571277699
41,209.95,0.0013890322309404546
42,215.83,0.00158732545689188
43,219.85000000000002,0.001722898813062752
44,222.91,0.0018260932755823703
45,227.04999999999998,0.001965748025697148
46,230.21,0.00207297697878669
47,233.95,0.0022004398772217794
48,239.88329199999998,0.0024018652885835724
49,239.95,0.0024000311616465524
50,246.11,0.0022295509416913662
51,251.84,0.002071791825059351
52,257.11,0.0019251604318428206
53,260.09000000000003,0.0018439642676729411
54,263.71,0.0017446579625336942
55,269.23,0.0015924656825478773
56,274.23,0.0014547413641621749
57,275.42287,0.0014219276042100539
58,278.69,0.0015195316150530059
59,283.87,0.0016742758381641566
60,289.82,0.001851464528359397
61,295.88,0.0020328000167095074
62,300.69,0.0021763889160270043
63,307.7,0.0023864490084419014
64,316.227766,0.0026422305942010757
65,317.78000000000003,0.0026091072265798025
66,328.19,0.0023867272180834653
67,338.15999999999997,0.002173810875037503
68,347.63,0.001971960576366963
69,357.37,0.0017644383675336937
70,363.078055,0.0016437065088223293
71,365.7,0.0016895654554939321
72,375.08,0.0018523166717896332
73,384.7,0.002017997798800789
74,394.57,0.002192037560723878
75,404.69,0.0023692571275588984
76,414.11999999999995,0.0025333856548369854
77,416.86938299999997,0.0025810686786769273
78,421.81000000000006,0.0026332791880966334
79,429.65999999999997,0.002716812249462124
80,440.68,0.00283546605506056
81,450.94,0.0029446428599280688
82,460.39,0.003044249931253406
83,470.03000000000003,0.0031476458952614753
84,478.630092,0.003240682455482592
85,479.87,0.0032249730779244225
86,489.92,0.0030943255005443223
87,500.17,0.00296563298804223
88,505.97,0.0028949206395044603
89,511.83,0.0028707733894300946
90,520.14,0.002770205126611325
91,529.8100000000001,0.002653008028963009
92,539.66,0.002522647826704902
93,549.5408739999999,0.0024421952415958235
94,549.6899999999999,0.0024423213690731083
95,559.91,0.002443052992739632
96,570.32,0.00243950458758978
97,579.5899999999999,0.002400081155338184
98,590.37,0.002426381162493284
99,599.96,0.002408884292235159
100,609.7099999999999,0.0024350053029737707
101,619.61,0.002488903864646822
102,629.68,0.0025102962373789064
103,630.957344,0.00250844792856825
104,639.9100000000001,0.0025866584140809227
105,650.3100000000001,0.0027608139101468728
106,657.8399999999999,0.0028763127597023143
107,665.4599999999999,0.002989990850089097
108,674.72,0.0030840891956247407
109,685.6800000000001,0.0031641789568634723
110,695.22,0.003538356884985507
111,704.89,0.003567861794308366
112,716.34,0.003939670600073282
113,724.43596,0.004076488842155977
114,726.3100000000001,0.004103437083544097
115,734.7199999999999,0.0042409434016678245
116,744.94,0.004563368136652903
117,755.3,0.004800904539240515
118,765.81,0.005023862871402274
119,774.68,0.005357796240220047
120,785.46,0.005692271645615265
121,794.55,0.00592892077780845
122,805.6,0.006193951256437131
123,814.93,0.006434551675948948
124,824.37,0.006932196977148472
125,831.763771,0.0065211377846568115
126,835.84,0.006251402301804595
127,845.52,0.007273827059517861
128,855.31,0.007454381178114235
129,865.21,0.007878115657593712
130,875.23,0.008323877985309305
131,885.36,0.008908655673908002
132,895.62,0.009351326698095824
133,905.99,0.009407512083166751
134,914.37,0.013689228484988776
135,924.9599999999999,0.08664804759182591
136,935.67,0.19397049654689916
137,944.33,0.37884010059460543
138,954.992586,0.5437950311857721
139,955.26,0.5479336768709925
140,964.0999999999999,0.628817245116739
141,975.26,0.1000631843500571
142,984.2900000000001,0.5478975048318547
143,995.6800000000001,0.592357050456182
144,1004.9,0.8874196831740309
145,1014.1999999999999,0.867256624201796
146,1025.94,0.37352236868200683
147,1035.43,0.617294991945823
148,1045.01,1.221463412058295
149,1054.68,1.2158343290194227
150,1064.44,0.9683507428292062
151,1074.29,1.1746018534876455
152,1084.23,0.9355097609947407
153,1094.26,1.2700909653504915
154,1096.4782,1.2618931265477518
155,1104.3899999999999,1.2326340420655342
156,1114.6100000000001,1.19905838121842
157,1124.9199999999998,1.0886503975262722
158,1135.33,1.4116700551174208
159,1145.8300000000002,1.2934903898635361
160,1153.78,1.395438871885595
161,1164.45,1.457752596813314
162,1175.23,1.0135739271526591
163,1186.1,1.4443239346469712
164,1194.32,0.99276664813393
165,1205.3700000000001,0.7129309099381752
166,1213.73,0.477969921221749
167,1224.96,1.0087525373359276
168,1236.29,1.5688508947334026
169,1244.86,1.7520451527118985
170,1256.38,1.6886518285476368
171,1258.92541,1.6210698065955749
172,1265.0900000000001,1.457420270649484
173,1273.86,1.9208785083399598
174,1285.65,2.0392655165920357
175,1294.56,1.61641979000391
176,1303.53,1.608992078724955
177,1315.5900000000001,2.0486781558683
178,1324.71,1.9793124828622721
179,1333.89,1.7600808251654152
180,1346.24,2.1256699763030857
181,1355.5700000000002,2.0772263568791565
182,1364.97,1.864289755315926
183,1374.43,1.9838071690618664
184,1383.9499999999998,2.0207485981169775
185,1393.55,1.7722730475843171
186,1406.4399999999998,1.8600293365045257
187,1416.19,1.9165208242447922
188,1426.01,1.9883023298457576
189,1435.8899999999999,1.9883288507558943
190,1442.52,2.1159345424192755
191,1445.43977,2.1546410912747747
192,1445.85,2.1600793752564984
193,1455.87,2.111041521011104
194,1465.96,1.956658681756012
195,1476.12,1.9656508574912215
196,1486.35,2.0207860482167326
197,1496.6499999999999,2.0725662539325453
198,1503.56,1.9746697336894643
199,1510.5,1.7601112198707984
200,1517.48,1.894593714618019
201,1524.48,1.847248213648183
202,1535.05,1.6127444771837307
203,1545.69,1.7969517557095798
204,1556.4,1.7043230492257309
205,1563.59,1.7480165889438564
206,1574.42,1.8815959081576672
207,1585.3400000000001,1.988353246644723
208,1596.33,2.0487276001220804
209,1603.7,2.016094178386696
210,1614.8100000000002,2.0393745575617133
211,1626.0,1.934284953868504
212,1633.51,2.077275562113723
213,1644.83,2.1257519862596452
214,1656.23,1.970212427537341
215,1659.58691,2.0579351286689267
216,1663.88,2.170127860273361
217,1671.56,1.938767870846121
218,1675.4099999999999,2.2004518917712677
219,1683.1499999999999,2.304014996176627
220,1694.81,2.175271230978499
221,1706.56,2.0965256065292706
222,1714.44,2.0023259298773626
223,1726.3200000000002,2.0023545087321004
224,1734.29,2.150312972829092
225,1746.3100000000002,2.111243770626562
226,1754.3700000000001,2.267404375472453
227,1766.53,2.082359392212656
228,1774.6899999999998,2.150348153446213
229,1786.99,2.2006183891291484
230,1795.2399999999998,2.363212291111605
231,1803.5200000000002,2.352504240010362
232,1816.0200000000002,2.1854137884686295
233,1824.4099999999999,2.241509909393819
234,1837.0500000000002,2.160446676794819
235,1845.53,1.993352938468908
236,1854.05,2.016434262698063
237,1866.8999999999999,2.0872073585131625
238,1875.52,2.267583839129984
239,1884.18,2.1016723823018717
240,1892.8700000000001,2.0256789723900597
241,1905.46072,2.150427402040292
242,1905.99,2.155669595771793
243,1914.7900000000002,2.087237856252929
244,1923.63,2.058692036099889
245,1936.97,2.121176144601976
246,1945.9099999999999,2.2311861228634937
247,1954.8899999999999,2.101614020490836
248,1968.4399999999998,2.309527705663495
249,1977.5200000000002,2.379682401705395
250,1982.08,2.2569442094092564
251,1995.8200000000002,2.2056995115695766
252,2005.03,2.2777979455504025
253,2014.29,2.2107442787385074
254,2023.5900000000001,2.320164531292436
255,2032.93,2.2106947032121878
256,2047.02,2.3040892998234623
257,2056.47,2.200476249999228
258,2065.96,2.2258671195408173
259,2075.5,2.395874888289686
260,2080.2799999999997,2.282915252505576
261,2085.07,2.3685145965629224
262,2094.7,2.251621183884893
263,2104.3700000000003,2.2775846905726875
264,2114.08,2.3039591166263054
265,2123.8399999999997,2.352218441887202
266,2133.64,2.195268686513922
267,2143.4900000000002,2.256594830347922
268,2153.38,2.346688893547745
269,2163.32,2.2827548559548467
270,2173.31,2.2721727175692283
271,2183.34,2.2410874985494322
272,2187.7616199999998,2.289765095665558
273,2193.42,2.3520786795006776
274,2203.54,2.2985699446242123
275,2213.71,2.2002822901090293
276,2223.9300000000003,2.1402967159551283
277,2234.2000000000003,2.28766322216251
278,2244.51,2.194448792658917
279,2254.87,2.119425443516607
280,2265.28,2.1733861747355787
281,2275.74,2.2337729863158327
282,2286.24,2.290482862185113
283,2296.79,2.172062818415675
284,2307.39,2.1814708550075195
285,2312.71,2.097633405447955
286,2323.39,1.6853745706178513
287,2334.11,1.9749438000767736
288,2344.89,1.9207521259692342
289,2355.71,2.0718945161507207
290,2366.58,1.9243319866934898
291,2377.5099999999998,1.9824245536697975
292,2382.9900000000002,1.849894361266336
293,2393.99,1.972476040748439
294,2405.04,1.9008498005918242
295,2416.14,1.9446606407964915
296,2427.29,2.054625561362441
297,2432.89,1.9801715618260574
298,2444.12,2.087279610970059
299,2455.4,2.0628747404753427
300,2466.73,2.0529289503419084
301,2472.42,1.9876560954558324
302,2483.83,2.0474764339004503
303,2495.29,1.91494385270635
304,2506.81,2.1331183679457886
305,2511.88643,1.9564562236132388
306,2512.59,1.9319700892665472
307,2518.38,1.9857724876628207
308,2524.19,1.9093808736183215
309,2535.8399999999997,1.9310106268681635
310,2547.54,1.9040683490160737
311,2553.42,2.0211126914288697
312,2565.2000000000003,1.9884793638136886
313,2577.04,2.091066998876189
314,2582.9800000000005,2.0764173039666667
315,2594.9100000000003,2.0568548830456894
316,2606.8799999999997,2.0003844372431665
317,2612.89,1.9773116987909392
318,2624.95,2.060361197004939
319,2637.07,2.10295265789662
320,2643.15,2.2528498759016884
321,2655.3500000000004,2.283515287030278
322,2667.61,2.1111396608365496
323,2673.76,2.2002538352989127
324,2686.1000000000004,2.1945771593420935
325,2692.29,2.110144308922911
326,2704.72,2.1585985769826133
327,2717.2000000000003,2.075343813940384
328,2723.4599999999996,2.0798449199784965
329,2736.04,2.1720680947324036
330,2742.3399999999997,1.9357941758889705
331,2755.0,1.9666633008797862
332,2767.7200000000003,2.0305583885482834
333,2774.1,2.116157419941759
334,2786.9,2.0297744578471653
335,2793.33,1.688220458138709
336,2806.22,1.8000604400606373
337,2812.69,2.1143704154706353
338,2825.67,2.1880533414090864
339,2832.19,2.1086852857171525
340,2845.26,2.0742891556721252
341,2851.8199999999997,2.0267910750986458
342,2864.9799999999996,2.1661308890701414
343,2878.21,2.1506836594989323
344,2884.0315,2.1590944326448795
345,2884.84,2.160263028008653
346,2898.1600000000003,2.1397388584429096
347,2911.5299999999997,2.2816316882406573
348,2931.71,2.2134174313460098
349,2952.0400000000004,2.1921001725418376
350,2972.5,2.2216179120827446
351,2993.1000000000004,2.225933649841429
352,3006.92,2.245659473910605
353,3027.7599999999998,2.244687208614051
354,3048.75,2.243706941407972
355,3069.8799999999997,2.2480126724196716
356,3091.16,2.2624724015218467
357,3112.59,2.2511281287144973
358,3126.9599999999996,2.2298169457820847
359,3148.63,2.244092669919497
360,3170.46,2.2431163920200836
361,3192.43,2.1559621123384476
362,3207.1699999999996,2.210670924695875
363,3229.4,2.1444166417043973
364,3251.78,2.2288603568033953
365,3266.79,2.274778165723679
366,3289.44,2.2632398773855336
367,3311.31121,2.262301439164142
368,3312.2400000000002,2.262261372938942
369,3319.88,2.288059513732424
370,3327.53,2.2982226520923894
371,3335.2,2.3621287855853224
372,3342.89,2.2296229142112227
373,3350.59,2.334373040403606
374,3358.32,2.249552159295441
375,3366.06,2.213198275753759
376,3373.82,2.1328713873450442
377,3381.6000000000004,2.217683494069297
378,3389.39,2.3111075983600333
379,3397.21,2.2581386953502203
380,3405.0399999999995,2.2473817899068913
381,3412.89,2.2059548795965287
382,3420.75,2.2829599668526503
383,3428.64,2.277478046808223
384,3436.54,2.287447124330279
385,3444.4700000000003,2.1443791945517856
386,3452.4100000000003,2.350757262339776
387,3460.36,2.20868932769425
388,3468.3399999999997,2.218644385748175
389,3476.34,2.1928444389350674
390,3484.35,2.2127774896884427
391,3492.38,2.2276395355747862
392,3500.43,2.161579576594096
393,3508.5,2.201443612746374
394,3516.59,2.1459346440316183
395,3524.7000000000003,2.2209756704498305
396,3532.8199999999997,2.2618266944345256
397,3540.97,2.2928927111186725
398,3549.1299999999997,2.335098725369302
399,3557.3100000000004,2.2815527347528994
400,3563.81,2.483628152967249
401,3566.47,2.539525505651891
402,3569.1299999999997,2.3712618583365326
403,3571.8,2.5489012085876577
404,3574.46,2.5301435612722996
405,3577.12,2.3964709139569407
406,3579.79,2.131650264208066
407,3582.45,2.0779106168927077
408,3585.11,2.3521069695773495
409,3587.7799999999997,2.088458319828475
410,3590.4399999999996,2.2094356725131163
411,3593.1000000000004,2.4109310251977583
412,3595.77,2.4156123754488834
413,3598.4300000000003,2.161552728133525
414,3601.1,2.35854007838465
415,3603.7599999999998,2.596582431069292
416,3606.42,2.0421417837539337
417,3609.0899999999997,2.229749134005059
418,3611.7500000000005,2.3423224866897003
419,3614.4100000000003,2.098424839374342
420,3617.08,2.3051851896254676
421,3619.7400000000002,2.389224542310109
422,3622.4,2.1742518949947507
423,3625.07,2.145905245245876
424,3627.73,2.288966597930518
425,3630.39,2.359912950615159
426,3633.0600000000004,2.3040093008662845
427,3635.7200000000003,2.282515653550926
428,3638.38,2.2836920062355675
429,3641.05,2.091963356486693
430,3643.71,2.3036217091713347
431,3646.37,2.2328780618559763
432,3649.04,2.270783412107101
433,3651.7,2.369871764791743
434,3654.37,2.3217861150428685
435,3657.03,2.1482454677275102
436,3659.69,2.4580108204121514
437,3662.36,2.2230911706632766
438,3665.02,2.2983375233479184
439,3667.68,2.2565178760325604
440,3670.35,2.495914226283685
441,3673.0099999999998,2.288173578968327
442,3675.6699999999996,2.3976199316529687
443,3678.34,2.288363281904094
444,3681.0,2.3720126345887356
445,3683.6600000000003,2.223095987273377
446,3686.33,2.1990493375245026
447,3688.99,2.351686690209144
448,3691.65,2.206874042893786
449,3694.3199999999997,2.3727883931449107
450,3696.9800000000005,2.284260745829553
451,3699.65,2.169142096080678
452,3702.31,2.3981934487653196
453,3704.9700000000003,2.2619798014499612
454,3707.64,2.3610561517010864
455,3710.3,2.144324504385728
456,3712.96,2.42457985707037
457,3715.6299999999997,2.424766207321495
458,3718.2900000000004,2.8496415600061367
459,3720.9500000000003,3.8692229126907782
460,3723.6200000000003,5.641003262941904
461,3726.28,7.538475615626545
462,3728.94,7.883624968311186
463,3731.61,6.2857363185623125
464,3734.27,4.531929671246954
465,3736.93,3.199861023931595
466,3739.6000000000004,2.902400374182721
467,3742.26,2.7738097268673623
468,3744.92,2.9156990795520037
469,3747.59,2.636805429803129
470,3750.25,2.5594177824877704
471,3752.92,2.541624132738896
472,3755.58,2.849240485423538
473,3758.24,2.8351738381081795
474,3760.9100000000003,2.8932061883593043
475,3763.57,2.869173541043946
476,3766.23,2.730419893728588
477,3768.9,2.8111242439797133
478,3771.56,2.6264435966643545
479,3774.22,2.6336789493489965
480,3776.89,2.7923612996001217
481,3779.5499999999997,3.029621652284763
482,3782.2099999999996,3.3956740049694045
483,3784.88,3.39917935522053
484,3787.54,3.236584707905172
485,3790.2000000000003,3.063631060589813
486,3792.87,2.9131364108409383
487,3795.5299999999997,2.6989457635255802
488,3798.2,2.4577731137767054
489,3800.8599999999997,2.548066466461347
490,3801.8939600000003,2.6675628378380103
491,3803.5200000000004,2.8554869015946913
492,3806.19,3.028435387228732
493,3808.85,3.132605874789237
494,3811.51,3.402114362349742
495,3814.18,3.462490847983782
496,3816.84,3.4282953355442873
497,3819.5,3.209024823104792
498,3822.1699999999996,3.235006308738833
499,3824.8300000000004,3.276833796299338
500,3827.4900000000002,2.9969792838598424
501,3830.1600000000003,2.6934607694938832
502,3832.82,2.543568257054388
503,3835.48,2.3336767446148934
504,3838.15,2.3401172302489335
505,3840.81,2.594184717809439
506,3843.47,2.9139182053699435
507,3846.1400000000003,3.0956606910039843
508,3848.8,3.416958178564489
509,3851.4700000000003,3.38039966419853
510,3854.13,3.3108321517590347
511,3856.79,3.42301563931954
512,3859.46,3.4044381249535802
513,3862.12,3.5691936125140855
514,3864.7799999999997,3.61669010007459
515,3867.4500000000003,3.7691155857086307
516,3870.11,3.9385620732691358
517,3872.77,3.590696560829641
518,3875.44,3.4787010464636814
519,3878.1,3.4691305340241865
520,3880.7599999999998,3.3354600215846912
521,3883.43,3.054025507218732
522,3886.0899999999997,2.9770289947792365
523,3888.7500000000005,2.9391204823397414
524,3891.42,2.9819099679737824
525,3894.08,3.155263455534287
526,3896.7400000000002,3.2137039430947922
527,3899.41,3.3759014287288323
528,3902.07,3.5377259162893377
529,3904.74,3.688588401923378
530,3907.3999999999996,3.706964889483883
531,3910.0600000000004,3.920384377044388
532,3912.73,3.907862862678429
533,3915.3900000000003,3.9424613502389336
534,3918.05,3.9883948377994387
535,3920.72,3.997370323433479
536,3923.38,3.928780810993984
537,3926.04,3.877192298554489
538,3928.71,3.4501577841885296
539,3931.3700000000003,3.1376662717490347
540,3934.03,3.0561757593095398
541,3936.7000000000003,3.24221724494358
542,3939.36,3.572699732504085
543,3942.02,3.65166122006459
544,3944.69,3.647153705698631
545,3947.35,3.6919131932591354
546,3950.02,3.6491016788931763
547,3952.6800000000003,3.724154166453681
548,3955.34,3.627615654014186
549,3958.01,3.4495641396482264
550,3960.67,3.110102627208731
551,3963.33,2.9731081147692366
552,3966.0,2.808348600403277
553,3968.66,2.583409087963782
554,3971.3199999999997,2.6082325755242866
555,3973.9900000000002,2.7047670611583277
556,3976.65,2.8671765487188323
557,3979.31,2.9385150362793375
558,3981.98,3.277971521913378
559,3984.64,3.526373009473883
560,3987.2999999999997,3.5846174970343876
561,3989.97,3.7010829826684284
562,3992.6299999999997,3.7776994702289333
563,3995.2900000000004,3.7468269577894384
564,3997.96,3.685643443423479
565,4000.62,3.591840930983984
566,4003.29,3.6488954166180245
567,4005.95,3.6594549041785296
568,4008.61,3.823233391739034
569,4011.2799999999997,3.824588877373075
570,4013.9399999999996,3.75717136493358
571,4016.6000000000004,3.7233668524940846
572,4019.27,3.7911693381281255
573,4021.9300000000003,3.85801382568863
574,4024.59,3.7849273132491352
575,4027.2599999999998,3.817747798883176
576,4029.92,3.831239286443681
577,4032.58,3.9743027740041854
578,4035.25,4.077868259638226
579,4037.9100000000003,4.099177747198731
580,4040.57,3.9440092347592364
581,4043.2400000000002,3.8550747203932767
582,4045.9,3.848632207953782
