,lambda (Angstroms),Total Flux (erg/s/cm^2/Angstrom)
0,100.11000000000001,87.64339349943626
1,101.97,87.39956294879141
2,104.10000000000001,87.12033764079489
3,104.712855,87.0399974407332
4,106.04,86.12611809669032
5,108.01,84.7695652650385
6,110.02,83.38546821346019
7,113.88000000000001,80.72745099003305
8,117.88,77.97302899685589
9,120.22644299999999,76.35725544579127
10,120.91,75.96262198182839
11,124.87,73.67642124454399
12,126.9,72.50445470499822
13,128.07,71.82898630536802
14,131.06,70.10278928413165
15,131.96,69.58319820765526
16,134.10999999999999,68.34195285800156
17,136.92,66.71967405253848
18,138.038426,66.07398053103717
19,140.10999999999999,65.21912202681057
20,143.04000000000002,64.01002430273114
21,147.04999999999998,62.35525233824615
22,151.17000000000002,60.65508762021366
23,155.04,59.058088239527684
24,158.489319,57.6346876452967
25,159.01999999999998,57.46912603218527
26,161.98000000000002,56.54566660204407
27,166.13,55.250951525499616
28,170.0,54.04359072300285
29,173.16000000000003,53.057735392744384
30,177.2,51.79733807615262
31,180.07999999999998,50.89883702340918
32,181.970086,50.30916887833276
33,182.16,50.26396733407298
34,185.98,49.35476686575913
35,191.19,48.11473167731894
36,193.85,47.48162351492601
37,197.89999999999998,46.51768063208664
38,202.05,45.529936700794536
39,204.86,44.861126968209405
40,208.929613,43.892515993036355
41,210.10999999999999,43.68129782115416
42,216.0,42.62734270309394
43,220.02,41.908004917457106
44,223.08,41.36044928599168
45,227.23,40.61784936464157
46,229.85999999999999,40.14723853627068
47,234.13,39.383167480023616
48,239.88329199999998,38.353676179080125
49,240.14000000000001,38.31827811894183
50,245.73000000000002,37.547459119929584
51,252.03,36.67873705423871
52,256.72,36.03202039793001
53,260.29,35.53974538013105
54,263.91,35.040575308669005
55,268.82,34.36352364102513
56,273.81,33.67544060330093
57,275.42287,33.45303810275121
58,278.90999999999997,33.08400832940267
59,284.09,32.53582862868945
60,290.03999999999996,31.906162175002372
61,296.10999999999996,31.263797546867423
62,300.92,30.75477349438514
63,307.93,30.012932314851838
64,316.227766,29.13481204319699
65,318.02,28.9931509058298
66,327.68,28.229608431257155
67,337.64000000000004,27.44235341910449
68,347.90000000000003,26.631385807891807
69,356.83,25.925543901388554
70,363.078055,25.43168747104724
71,365.97999999999996,25.25991055516129
72,375.37,24.704081201477067
73,385.0,24.13404464605344
74,394.87,23.549803723170406
75,405.0,22.95017157774635
76,414.44,22.391382656013082
77,416.86938299999997,22.24757841054213
78,422.14000000000004,22.009325736277813
79,429.99,21.654474716142307
80,441.02000000000004,21.155875758153904
81,451.29,20.691631014214625
82,459.68,20.312370259525803
83,470.39,19.828236091314928
84,478.630092,19.455752003679393
85,480.23999999999995,19.399782195311346
86,490.29,19.050384731285178
87,500.56000000000006,18.693340102928545
88,506.36,18.49171305362633
89,512.2199999999999,18.288103518133994
90,520.5400000000001,17.998864653136465
91,530.22,17.662347220696077
92,540.08,17.319553435885314
93,549.5408739999999,16.99073814283872
94,550.12,16.975385260369
95,560.35,16.704157461772503
96,569.45,16.46288920189537
97,580.04,16.182022951665274
98,589.46,15.932335744169384
99,600.42,15.641705739601976
100,610.1800000000001,15.383022575679904
101,620.09,15.120360732302169
102,630.1700000000001,14.85315217816134
103,630.957344,14.83227474283238
104,640.41,14.633584711482186
105,649.32,14.44647223400431
106,658.35,14.256755153597444
107,664.44,14.128847283950952
108,675.24,13.901861949341411
109,684.63,13.704465939147559
110,695.76,13.471065304483282
111,705.43,13.267691883788443
112,715.25,13.061824119432359
113,724.43596,12.868880422533746
114,725.2,12.856972094455186
115,735.29,12.699697472599185
116,745.5100000000001,12.540738827170207
117,754.15,12.406263584551194
118,764.64,12.242918904009127
119,775.28,12.077393113959783
120,784.25,11.937951218424763
121,795.1600000000001,11.768063359262323
122,804.3699999999999,11.624717107515668
123,815.5600000000001,11.450447773272982
124,825.0,11.303954656281835
125,831.763771,11.197549264606138
126,834.5600000000001,11.164579894147453
127,844.22,11.053827258245905
128,855.97,10.917194262602719
129,865.88,10.802440890559824
130,875.9,10.68646213921474
131,884.01,10.592983230389528
132,894.24,10.474512486285713
133,904.6,10.3539223021884
134,915.07,10.239384015788897
135,925.67,10.241953919395895
136,934.2399999999999,10.324393573670607
137,945.0500000000001,10.512340866518873
138,954.992586,10.644875210119611
139,956.0,10.658557855552317
140,964.84,10.708157075380718
141,976.0099999999999,9.694207566838099
142,985.05,10.37241760611963
143,994.1600000000001,10.320783107209756
144,1005.6700000000001,10.634621841737458
145,1014.98,10.482036062280716
146,1024.37,9.56994451060523
147,1033.8500000000001,9.886638152683648
148,1045.82,10.672307721953556
149,1055.5,10.543852983485106
150,1065.26,10.06250417279791
151,1075.12,10.258301021837282
152,1085.0700000000002,9.790145664630556
153,1095.11,10.164504101177748
154,1096.4782,10.13666376097024
155,1105.24,9.976502534712106
156,1115.47,9.824298837608845
157,1125.79,9.540541113844853
158,1136.2,9.906676363420125
159,1144.08,9.65828080690266
160,1154.67,9.694884003156467
161,1165.35,9.673954172749546
162,1176.1299999999999,8.919146868275142
163,1184.29,9.496945784368727
164,1195.24,8.805117873979608
165,1206.3,8.271693042116258
166,1214.66,7.780973410074882
167,1225.9,8.504028124890068
168,1234.3999999999999,9.173805829154222
169,1245.82,9.262158890647942
170,1254.46,9.084781331217622
171,1258.92541,8.94171496437334
172,1266.07,8.731980045591378
173,1274.84,9.176816848252265
174,1283.68,9.211505331208048
175,1295.56,8.585800215542294
176,1304.54,8.572159059087877
177,1313.58,9.012294200029089
178,1325.73,8.801337422643657
179,1334.92,8.492625307073935
180,1344.18,8.821210871799114
181,1353.49,8.702464351020648
182,1366.02,8.374524123807525
183,1375.49,8.404086729417399
184,1385.0199999999998,8.388233632422901
185,1394.6200000000001,7.941181215723299
186,1404.29,7.997804479318599
187,1414.02,8.049206040309526
188,1423.8200000000002,8.03547828159535
189,1433.69,8.004752203176075
190,1443.6299999999999,8.058505805051698
191,1445.43977,8.053170247364463
192,1446.9599999999998,8.051746645049812
193,1453.6399999999999,7.965740963781295
194,1463.71,7.749205944264234
195,1473.86,7.724794928564315
196,1484.0800000000002,7.7002624162043976
197,1494.3600000000001,7.687120906707338
198,1504.72,7.4970804010274215
199,1511.6699999999998,7.219232232641765
200,1518.65,7.324519565687535
201,1525.66,7.281490400164733
202,1536.23,6.95685740450482
203,1543.32,7.047463242799163
204,1554.0200000000002,6.916158753342106
205,1564.79,6.957328767225051
206,1575.64,7.043893784925139
207,1586.56,7.078247305965227
208,1593.88,7.088048655233857
209,1604.93,7.020132682476803
210,1616.06,6.9848847135368946
211,1623.52,6.863452069485525
212,1634.7700000000002,6.965060106271331
213,1646.1000000000001,6.935389146874279
214,1653.6999999999998,6.777013509502913
215,1659.58691,6.842644617821113
216,1665.16,6.912541475316685
217,1672.85,6.722786036468704
218,1676.7,6.892565533274329
219,1684.44,6.939179256722525
220,1696.1200000000001,6.770921369109465
221,1703.9499999999998,6.66585898469078
222,1715.76,6.50204371904778
223,1723.6799999999998,6.471036226762213
224,1735.6299999999999,6.573825015548509
225,1743.6399999999999,6.497795415396061
226,1755.72,6.582576826152416
227,1763.8300000000002,6.41554055059232
228,1776.0600000000002,6.386644448237208
229,1784.25,6.421242632350996
230,1796.62,6.502002584425179
231,1804.91,6.49277709313132
232,1813.2400000000002,6.249241331674403
233,1825.81,6.2970319329332956
234,1834.24,6.191791496068733
235,1846.96,5.976323584216154
236,1855.48,5.93331003948471
237,1864.04,5.971907224590208
238,1876.97,6.124825394381572
239,1885.63,5.886141904079424
240,1894.33,5.742311143614217
241,1903.0800000000002,5.897354545445187
242,1905.46072,5.869017554326069
243,1916.27,5.749763651048803
244,1925.11,5.683790068461413
245,1933.9999999999998,5.77929215565577
246,1942.9299999999998,5.826942778675521
247,1956.39,5.624029083921418
248,1965.4199999999998,5.811190046504663
249,1974.4999999999998,5.878588678869651
250,1983.6100000000001,5.713709713103686
251,1992.7700000000002,5.644414417119467
252,2006.58,5.701987410837584
253,2015.8400000000001,5.626183454416857
254,2025.15,5.729500167777875
255,2034.49,5.544862283007941
256,2043.8799999999999,5.591430068019752
257,2053.3199999999997,5.47387552281331
258,2062.7999999999997,5.492901513432263
259,2072.32,5.611351039876611
260,2077.09,5.432598937055134
261,2086.68,5.516394401193929
262,2096.31,5.376484401158118
263,2105.9900000000002,5.416415070904052
264,2115.71,5.414601276475384
265,2125.48,5.429167151828462
266,2135.29,5.314701563006936
267,2145.1400000000003,5.275411510010804
268,2155.04,5.347692126796421
269,2164.99,5.286225413363782
270,2174.98,5.24639223575654
271,2185.02,5.175006727931043
272,2187.7616199999998,5.190084866787581
273,2195.11,5.236171475878416
274,2205.24,5.182265032743302
275,2215.42,5.1083578569174914
276,2225.65,5.025566948400984
277,2235.92,5.096269453731919
278,2246.24,5.039749226372158
279,2256.61,4.9586992663217
280,2267.0299999999997,4.993769573580545
281,2277.4900000000002,5.0092162946868335
282,2282.7400000000002,5.0327003621637
283,2293.28,4.914567910964873
284,2303.86,4.909158873613491
285,2314.5,4.823906957033271
286,2325.18,4.4470354543004955
287,2335.91,4.7060052188770225
288,2346.69,4.676034250762854
289,2357.5299999999997,4.726408403419849
290,2362.96,4.642567833210206
291,2373.87,4.645067960100227
292,2384.82,4.564182500837688
293,2395.83,4.626683162346316
294,2406.89,4.545060091164246
295,2412.44,4.559801762496933
296,2423.5699999999997,4.590346665547889
297,2434.7599999999998,4.508146689370008
298,2446.0,4.56184098050143
299,2457.29,4.526008538942156
300,2462.95,4.508254598355311
301,2474.32,4.444810984490922
302,2485.74,4.479183637935838
303,2497.22,4.325036412151918
304,2502.97,4.472549152721818
305,2511.88643,4.3662952357137685
306,2514.5299999999997,4.335880847339477
307,2520.3199999999997,4.403107164212044
308,2526.1299999999997,4.332357420002998
309,2537.79,4.324433809421674
310,2543.64,4.2820119430493975
311,2555.3900000000003,4.337556057600808
312,2567.18,4.3063160499889905
313,2573.1,4.360432969831063
314,2584.97,4.338253717892785
315,2596.91,4.320836252168858
316,2602.89,4.272519988766086
317,2614.91,4.245843278715699
318,2626.98,4.255922415961276
319,2633.03,4.267864938772854
320,2645.19,4.3214758011511645
321,2657.3999999999996,4.3132555108254405
322,2663.52,4.2164518198513665
323,2675.8199999999997,4.2503262546583755
324,2681.98,4.2341294415210715
325,2694.36,4.169480632001622
326,2706.7999999999997,4.169953639237329
327,2713.04,4.121852581773568
328,2725.5600000000004,4.108231344682815
329,2738.14,4.136203924347219
330,2744.46,4.011850622557
331,2757.1200000000003,4.006868957894945
332,2763.48,4.0266885339414955
333,2776.24,4.058209563871369
334,2782.6400000000003,4.028422017754689
335,2795.48,3.8452298033581043
336,2801.92,3.9102231350781964
337,2814.86,4.007434615273537
338,2827.85,3.9979259427648426
339,2834.37,3.923268030158476
340,2847.4500000000003,3.895853082782514
341,2854.02,3.879864017472112
342,2867.19,3.9236537952288844
343,2873.8,3.902944607755253
344,2884.0315,3.8918940498603805
345,2887.0600000000004,3.88969340947674
346,2893.7200000000003,3.8757667725254166
347,2907.0800000000004,3.9067995128152546
348,2927.23,3.8604031622793453
349,2947.52,3.818731861417132
350,2967.95,3.808200610228614
351,2988.52,3.7797764087137917
352,3009.2400000000002,3.7601877604207865
353,3030.1,3.744976161801478
354,3051.1,3.7163636128558646
355,3072.2500000000005,3.692107617132068
356,3093.54,3.6632496710819686
357,3107.82,3.644113737798951
358,3129.3700000000003,3.6065728840000006
359,3151.06,3.586353079874746
360,3172.9,3.5572008289713084
361,3187.55,3.4955315269687732
362,3209.6400000000003,3.5003048647683643
363,3231.89,3.450327259337893
364,3246.81,3.4602715531346293
365,3269.3100000000004,3.452122536407186
366,3291.9700000000003,3.422627576449682
367,3307.1699999999996,3.3987519695938095
368,3311.31121,3.4060545604289008
369,3322.4300000000003,3.428416918673138
370,3330.09,3.4247099901670115
371,3337.77,3.3954770252940287
372,3345.46,3.3622970422376177
373,3353.18,3.3668050046309217
374,3360.91,3.3422099488407966
375,3368.65,3.3425948748672436
376,3376.42,3.2654227463434053
377,3384.2,3.318305599636139
378,3392.0,3.3477544165620152
379,3399.82,3.3906441971210355
380,3407.6600000000003,3.2902879413131987
381,3415.5200000000004,3.302824649138505
382,3423.39,3.3491593387803835
383,3431.2799999999997,3.3409969920554055
384,3439.1899999999996,3.3330016089635706
385,3447.1200000000003,3.258523189504878
386,3455.07,3.238361733679329
387,3463.03,3.202434259670352
388,3471.0099999999998,3.234510749294518
389,3479.01,3.2024282025518276
390,3487.04,3.2144376012588523
391,3495.07,3.2306759999658765
392,3503.1299999999997,3.206450344122616
393,3511.21,3.186386651912499
394,3519.3,3.1903569415189525
395,3527.4100000000003,3.1743251947585502
396,3535.55,3.2106013934478623
397,3543.7000000000003,3.2313095739537467
398,3551.86,3.2314377362762023
399,3560.05,3.202557844048373
400,3568.2599999999998,3.1619839154536873
401,3576.48,3.0948119686755726
402,3584.73,3.063784967347173
403,3585.53,3.1591195126729037
404,3588.2,3.254284657697531
405,3590.87,3.230228802722158
406,3593.54,3.126913947746785
407,3596.22,3.2291580745879838
408,3598.8900000000003,3.15167021961261
409,3601.56,3.0087883646372378
410,3604.23,2.8735935096618648
411,3606.9,2.9472786546864915
412,3609.58,3.1202147815276904
413,3612.25,3.1177839265523177
414,3614.9199999999996,3.169000071576945
415,3617.59,3.1183802166015715
416,3620.26,3.062391361626198
417,3622.93,2.932081506650826
418,3625.61,3.174021633492024
419,3628.2799999999997,3.1841807785166516
420,3630.95,3.2244229235412787
421,3633.6200000000003,3.2019840685659053
422,3636.29,3.035628213590533
423,3638.96,3.0672493586151592
424,3641.64,2.9531614854563584
425,3644.31,2.9988096304809853
426,3646.98,3.0575867755056123
427,3649.6499999999996,3.12489592053024
428,3652.32,3.0974990655548664
429,3654.9900000000002,3.001530210579493
430,3657.67,2.9550453374206924
431,3660.34,2.9277744824453196
432,3663.0099999999998,3.0246456274699463
433,3665.68,3.0180117724945736
434,3668.3500000000004,3.0907259175192
435,3671.02,3.0977420625438272
436,3673.7,2.9929751893850263
437,3676.37,3.003960334409653
438,3679.04,3.11523547943428
439,3681.71,2.9570696244589074
440,3684.3799999999997,3.0970287694835346
441,3687.05,2.968370914508161
442,3689.73,2.93846304134936
443,3692.4,3.0671961863739865
444,3695.0699999999997,3.0017053313986137
445,3697.74,3.020611476423241
446,3700.4100000000003,3.001315621447868
447,3703.0800000000004,2.971367766472495
448,3705.76,2.9727478933136933
449,3708.43,3.034955038338321
450,3711.1,2.958563183362948
451,3713.77,3.019657328387575
452,3716.4399999999996,3.273556473412202
453,3719.1200000000003,3.9458056002534008
454,3721.79,5.476218745278027
455,3724.46,7.375898890302654
456,3727.13,8.058947035327282
457,3729.7999999999997,7.018337180351909
458,3732.47,5.247636325376536
459,3735.1499999999996,3.7251264522177348
460,3737.82,3.1204125972423613
461,3740.4900000000002,2.9508067422669884
462,3743.16,2.9819428872916154
463,3745.83,2.942890032316243
464,3748.5,2.99768017734087
465,3751.1800000000003,3.012691304182068
466,3753.8500000000004,2.960707449206695
467,3756.52,3.0725935942313223
468,3759.19,3.0809377392559494
469,3761.86,3.1023578842805764
470,3764.5299999999997,2.997050029305204
471,3767.2099999999996,2.9974591561464026
472,3769.88,3.0663843011710292
473,3772.55,3.0991544461956564
474,3775.2200000000003,3.2078265912202832
475,3777.89,3.2548937362449104
476,3780.56,3.3179458812695377
477,3783.24,3.216106008110736
478,3785.9100000000003,3.292987153135363
479,3788.58,3.2504322981599905
480,3791.25,3.0150554431846173
481,3793.92,2.9911605882092442
482,3796.59,3.0413717332338717
483,3799.27,3.0880998600750704
484,3801.8939600000003,2.9897447438873357
485,3801.9399999999996,2.988027041162873
486,3804.61,3.0352542219972074
487,3807.28,3.1601974028315425
488,3809.95,3.3196235836658774
489,3812.62,3.3486587645002124
490,3815.2999999999997,3.25464967260359
491,3817.97,3.2429138534379245
492,3820.6400000000003,3.1898690342722595
493,3823.31,3.0798902151065946
494,3825.98,3.0756973959409293
495,3828.66,3.126270304044307
496,3831.33,3.0246254848786416
497,3834.0,2.9218126657129764
498,3836.6699999999996,3.009414846547312
499,3839.34,3.0629830273816463
500,3842.01,3.116443208215981
501,3844.69,3.2559201163193583
502,3847.36,3.346738297153693
503,3850.0299999999997,3.3702044779880285
504,3852.7,3.3687066588223633
505,3855.3700000000003,3.340985839656698
506,3858.04,3.386185020491033
507,3860.7200000000003,3.426518928594411
508,3863.39,3.4690241094287453
509,3866.06,3.5754672902630804
510,3868.73,3.462076471097415
511,3871.3999999999996,3.3610776519317502
512,3874.07,3.3112658327660847
513,3876.75,3.2082767408694624
514,3879.42,3.1599019217037974
515,3882.09,3.168821102538132
516,3884.7599999999998,3.154391283372467
517,3887.43,3.1597174642068024
518,3890.1000000000004,3.2291626450411366
519,3892.78,3.1867005531445143
520,3895.45,3.119826733978849
521,3898.12,3.1686169148131844
522,3900.79,3.2148930956475192
523,3903.46,3.2390792764818537
524,3906.1299999999997,3.3525274573161887
525,3908.81,3.369872365419566
526,3911.48,3.408964546253901
527,3914.15,3.304553727088236
528,3916.8199999999997,3.308263907922571
529,3919.49,3.3570550887569057
530,3922.1600000000003,3.24653726959124
531,3924.84,3.180546177694618
532,3927.51,3.221614358528953
533,3930.18,3.0640405393632877
534,3932.85,3.0373967201976226
535,3935.52,3.1186959010319577
536,3938.2,3.1570558091353353
537,3940.8700000000003,3.11101598996967
538,3943.54,3.2950481708040047
539,3946.21,3.39179235163834
540,3948.88,3.4165165324726745
541,3951.5499999999997,3.2903737133070097
542,3954.23,3.2705406214103867
543,3956.8999999999996,3.269760802244722
544,3959.57,3.1919309830790565
545,3962.2400000000002,3.2033641639133914
546,3964.91,3.1619943447477263
547,3967.58,3.1484625255820617
548,3970.2599999999998,3.0813944336854386
549,3972.9300000000003,3.1098906145197738
550,3975.6000000000004,3.0581027953541082
551,3978.27,3.0469059761884436
552,3980.94,3.1652031570227783
553,3983.61,3.2606903378571133
554,3986.29,3.3398202459604907
555,3988.9599999999996,3.3428114267948255
556,3991.63,3.3930396076291602
557,3994.3,3.469848788463495
558,3996.9700000000003,3.5057079692978297
559,3999.64,3.393933150132165
560,4002.3199999999997,3.4179230582355427
561,4004.99,3.3911012390698776
562,4007.6600000000003,3.359070419904212
563,4010.33,3.3223696007385475
564,4013.0,3.3312887815728818
565,4015.67,3.421926962407217
566,4018.35,3.4748338705105946
567,4021.02,3.459686051344929
568,4023.6899999999996,3.3888602321792645
569,4026.36,3.290735413013599
570,4029.03,3.377782593847934
571,4031.71,3.397641501951311
572,4034.38,3.3476506827856465
573,4037.0499999999997,3.381533863619981
574,4039.72,3.358843044454316
575,4042.3900000000003,3.346389225288651
576,4045.06,3.3001694061229854
577,4047.7400000000002,3.330625314226363
578,4050.41,3.3147594950606987
579,4053.08,3.297096675895033
580,4055.75,3.350018856729368
581,4058.4199999999996,3.3549860375637026
582,4061.09,3.316309218398038
583,4063.77,3.4139381265014146
584,4066.44,3.3670003073357497
585,4069.11,3.425129488170085
586,4071.7799999999997,3.38699266900442
587,4074.45,3.2671358498387546
588,4077.1200000000003,3.2485750306730896
589,4079.8,3.214732938776467
590,4082.4700000000003,3.1995851196108016
591,4085.14,3.257356300445137
592,4087.81,3.248673481279472
593,4090.48,3.1489326621138067
594,4093.1499999999996,3.154258842948142
595,4095.83,3.2641007510515188
596,4098.5,3.446156931885854
597,4101.17,3.5244031127201882
