,lambda (Angstroms),Total Flux (erg/s/cm^2/Angstrom)
0,100.09,0.005219654391509322
1,101.96000000000001,0.0062768910416541954
2,104.09,0.007481113981794074
3,104.712855,0.007833259759023267
4,106.03,0.007211991214583756
5,108.0,0.006282808531181173
6,110.0,0.005339559411165351
7,113.86999999999999,0.0035143164622577403
8,117.87,0.0016278185801260896
9,120.22644299999999,0.0005188182175630833
10,120.9,0.0005048476319295937
11,125.14000000000001,0.0004136755262261345
12,126.88,0.00037634695421103615
13,128.06,0.0003510526865341299
14,131.04,0.00028703560484160474
15,131.95,0.0002687592311670416
16,134.09,0.0002228756924818049
17,136.9,0.00016474532812408785
18,138.038426,0.00014051282237452918
19,140.09,0.00014004080224941585
20,143.02,0.00016762195265505837
21,147.03,0.00024002836327848036
22,151.15,0.00025002517818334283
23,155.03,0.0002630100019286988
24,158.489319,0.00027627613776571474
25,159.0,0.00027802335386077626
26,161.95999999999998,0.00028777546221743776
27,166.11999999999998,0.00030542476315112416
28,169.98,0.0003210781909405544
29,173.14,0.0003344608147267201
30,177.18,0.00035111684640270395
31,180.06,0.0003651847085875638
32,181.970086,0.00037445248302069397
33,182.14000000000001,0.0003755429213027777
34,185.96,0.00040154630312282374
35,191.17,0.00043576077937477147
36,193.82,0.0004600682191190443
37,197.88,0.00048825747623668493
38,202.03,0.0005203591365909235
39,204.83999999999997,0.000544836659866926
40,208.929613,0.0005588180123416485
41,210.09,0.0005650286694885053
42,215.98,0.0006481494352844144
43,219.99,0.0006933502982456361
44,223.04999999999998,0.0007193036634978401
45,227.20000000000002,0.000769829974542496
46,229.83,0.0011196248492527238
47,234.1,0.001843477415797466
48,239.88329199999998,0.0022738071901634805
49,240.11,0.0022897193281767995
50,246.26999999999998,0.0022056880609649067
51,252.01000000000002,0.002361963607426552
52,257.28000000000003,0.002034515302522871
53,260.26,0.0023310973388391957
54,263.88,0.002454804087652986
55,268.79,0.00247234319446948
56,273.78,0.002479473765348158
57,275.42287,0.002483402742517952
58,278.87,0.002505236515256934
59,284.06,0.0025380756270999725
60,290.01,0.0024569838458795646
61,296.08,0.00253468634470177
62,300.89,0.002539004903076533
63,307.90000000000003,0.002603371928899212
64,316.227766,0.002681448144044508
65,317.99,0.002691754872957291
66,327.65000000000003,0.0026948861350972026
67,338.38,0.0026730069521532333
68,347.85999999999996,0.0026473546069240785
69,356.79,0.002622302350289442
70,363.078055,0.00261699200738752
71,365.94,0.002622172919569543
72,375.33,0.002610048243460327
73,384.95,0.0025258922227818763
74,394.83,0.0025874347691121164
75,404.96,0.0025879522452584044
76,414.39,0.0025655581179197568
77,416.86938299999997,0.0025544020659553674
78,422.09000000000003,0.002528481553081314
79,429.94,0.002501689565344609
80,440.96999999999997,0.0024827699112381298
81,451.23999999999995,0.0024377686113583887
82,459.63,0.002402716661407948
83,470.34,0.0023699905775022003
84,478.630092,0.0023549602186342363
85,480.19,0.0023496148233965925
86,490.24,0.002272726365344844
87,500.51,0.002249077504231267
88,506.3,0.0022016589418313044
89,512.16,0.002252659296638942
90,520.49,0.002211891444343314
91,530.16,0.002147645864307453
92,540.02,0.002062617345263648
93,549.5408739999999,0.002021047632018218
94,550.06,0.0020191016043979494
95,560.2900000000001,0.002020313430305994
96,569.39,0.0020175859557960436
97,579.97,0.001955076494222936
98,589.4,0.001939726691516471
99,600.36,0.0018593830035352557
100,610.11,0.0016690818522745944
101,620.03,0.0018455880470945164
102,630.0999999999999,0.001799754547279659
103,630.957344,0.001798212822258257
104,640.3399999999999,0.0017879045209436273
105,650.7400000000001,0.0017618775564981499
106,658.28,0.0017241309072751785
107,664.37,0.0017412508829027788
108,675.1600000000001,0.0017236675572905955
109,684.5600000000001,0.0016528619548110293
110,695.6800000000001,0.0016995411697500956
111,705.36,0.0016168330259200743
112,716.8199999999999,0.0016727407977907306
113,724.43596,0.0016600070434481947
114,726.79,0.0016556636011094373
115,735.21,0.001643875735559933
116,745.43,0.001632698205166116
117,755.8,0.00162162695270194
118,764.56,0.0015144197837929543
119,775.19,0.0016094879464068222
120,784.17,0.001582144051794643
121,795.0799999999999,0.001591106199877173
122,804.28,0.0015899635795617998
123,815.4699999999999,0.0015795857131129928
124,824.92,0.0015946522226803542
125,831.763771,0.0014886077126411072
126,834.4699999999999,0.00144470796014532
127,844.13,0.001558029510252535
128,855.87,0.001536456839264823
129,865.78,0.0015440868435673593
130,875.8100000000001,0.0015549850658836497
131,885.9499999999999,0.0015692434880458816
132,894.15,0.00157488138565242
133,904.5,0.0015406951893387217
134,914.9699999999999,0.0019563432110387777
135,925.57,0.007579647468920401
136,934.13,0.015359060020568202
137,944.9499999999999,0.028215779678141706
138,954.992586,0.03901357904676823
139,955.89,0.03997885596594314
140,964.74,0.04312426909719506
141,975.91,0.007563364546470075
142,984.9399999999999,0.033733078504120335
143,994.05,0.03731637116239208
144,1005.5600000000001,0.05706494483930842
145,1014.8699999999999,0.055898011749133884
146,1024.26,0.024694222359580832
147,1036.12,0.03748399847671617
148,1045.71,0.07484020333871683
149,1055.38,0.07314258190133899
150,1065.15,0.055510662589738
151,1075.0,0.06748392697875849
152,1084.95,0.05122032349355585
153,1094.99,0.07114781292155238
154,1096.4782,0.07070098305187492
155,1105.12,0.06810484597500728
156,1115.35,0.06444682480246162
157,1125.67,0.05705021144951234
158,1136.08,0.07534633591615944
159,1143.96,0.0676267938985974
160,1154.54,0.07278593646892653
161,1165.22,0.07465104439436275
162,1176.01,0.049578335210416755
163,1184.1599999999999,0.07211301665164382
164,1195.1100000000001,0.046913858035869165
165,1206.17,0.03225887231071228
166,1214.53,0.023499641997664227
167,1225.77,0.048328711911700094
168,1234.27,0.07567135709580194
169,1245.69,0.08333898264903056
170,1254.32,0.07849832579477162
171,1258.92541,0.07356328931707176
172,1265.93,0.0660592035851295
173,1274.7,0.08827289732104865
174,1283.54,0.0928529222840504
175,1295.4199999999998,0.0701321905374962
176,1304.4,0.06885171795466313
177,1316.46,0.08970675936346417
178,1325.5900000000001,0.08527741941009381
179,1334.7800000000002,0.07343330050850853
180,1344.03,0.09074406265870832
181,1356.4699999999998,0.08726318072881487
182,1365.87,0.07654155550847737
183,1375.34,0.08107075151522246
184,1384.87,0.08182193857375263
185,1394.4699999999998,0.07061955685936538
186,1404.14,0.07326482637206075
187,1413.8700000000001,0.07445481693654118
188,1423.6699999999998,0.07724775872810422
189,1433.5400000000002,0.07636764174674983
190,1443.48,0.08125777599247805
191,1445.43977,0.08226037437187929
192,1446.8,0.0829562503591976
193,1453.48,0.08014745863896722
194,1463.5600000000002,0.07293293694137411
195,1473.7,0.07276449612653339
196,1483.92,0.07463126648869592
197,1494.2,0.07636933773361086
198,1504.5600000000002,0.07176636015552904
199,1511.5,0.06266263226055917
200,1518.48,0.0677562049540909
201,1525.49,0.06606416808899887
202,1536.06,0.05676267360055052
203,1546.71,0.0651620802891054
204,1553.85,0.0605369253366436
205,1564.62,0.06095976379070333
206,1575.47,0.06667905342176628
207,1586.39,0.07094954408270707
208,1593.71,0.07343715177850253
209,1604.76,0.07144009435207355
210,1615.88,0.07111353795552242
211,1623.3400000000001,0.06576638771107353
212,1634.59,0.07111421322715264
213,1645.9199999999998,0.07377624992023496
214,1653.52,0.06530986173554172
215,1659.58691,0.06997445186739892
216,1664.98,0.074121470444579
217,1672.67,0.06209014668069308
218,1676.52,0.07887155033596475
219,1684.26,0.08353705194422523
220,1695.94,0.07567487687762087
221,1703.76,0.07277164708131555
222,1715.57,0.07095698598229179
223,1723.49,0.07095776693027925
224,1735.44,0.07761438087326537
225,1743.45,0.07515588149111632
226,1755.53,0.08278352940168306
227,1763.6399999999999,0.07194879076382678
228,1775.86,0.07690844371640337
229,1784.0600000000002,0.07726456474841059
230,1796.43,0.08688241381742634
231,1804.72,0.08413062451929706
232,1813.05,0.07870607951888488
233,1825.6200000000001,0.07888732007648618
234,1834.0400000000002,0.07413959474593748
235,1846.75,0.06700582034554867
236,1855.28,0.06951592683372204
237,1863.84,0.07362944654518322
238,1876.76,0.07799120470780922
239,1885.4299999999998,0.07295980623799246
240,1894.1299999999999,0.07245936099146354
241,1902.8700000000001,0.0743159000426517
242,1905.46072,0.07411568141754214
243,1916.06,0.07329393044854005
244,1924.9099999999999,0.07146500476664637
245,1933.79,0.0677803449298988
246,1947.19,0.07762701909516712
247,1956.1799999999998,0.07397052402395535
248,1965.21,0.08222205341293841
249,1974.28,0.0827902872621163
250,1983.3999999999999,0.07924655418653773
251,1997.14,0.07690955126346212
252,2006.3600000000001,0.07690807433837062
253,2015.62,0.07413219187347395
254,2024.93,0.07550627248382082
255,2034.27,0.07498657893931382
256,2043.6599999999999,0.07978594847005036
257,2053.1,0.07550247107603043
258,2067.33,0.07463755029034148
259,2072.09,0.08277647105352637
260,2076.87,0.08372933904680864
261,2086.46,0.08627168087851933
262,2096.0899999999997,0.08107512717042485
263,2105.76,0.07868835792252521
264,2115.48,0.08014769174986909
265,2125.25,0.08125725865245652
266,2135.06,0.07209543001523877
267,2144.91,0.07849656583821586
268,2154.81,0.08088087473643649
269,2164.76,0.07618067670990065
270,2174.75,0.07566082314355965
271,2184.79,0.07723851265246219
272,2187.7616199999998,0.07847540347899476
273,2194.87,0.08143592601292166
274,2205.0,0.0783126045789733
275,2215.18,0.07110479866608145
276,2225.41,0.06980834827424612
277,2235.68,0.07922330229925602
278,2246.0,0.07428306184532243
279,2256.37,0.06806868691244539
280,2266.7799999999997,0.06917514639641355
281,2277.2400000000002,0.07260047140143823
282,2282.4900000000002,0.07760443111237318
283,2293.03,0.0712765749510883
284,2303.61,0.07364150320664864
285,2314.25,0.06861605808747681
286,2324.93,0.0503411073851502
287,2335.66,0.05930650220388011
288,2346.44,0.05376111254366655
289,2357.27,0.06586324840450951
290,2362.7000000000003,0.054313227991247943
291,2373.6099999999997,0.05931060268578134
292,2384.57,0.04995337290137125
293,2395.5699999999997,0.05556319753380639
294,2406.6299999999997,0.053471438791509354
295,2417.74,0.056283685570268846
296,2423.31,0.06613565061596555
297,2434.5,0.06393679622841547
298,2445.73,0.06949988625771061
299,2457.02,0.06939422291227358
300,2462.69,0.06736945900008334
301,2474.06,0.06335999448833675
302,2485.47,0.061822124393435374
303,2496.95,0.05922281202801314
304,2502.7,0.07202764694951332
305,2511.88643,0.05937459240266118
306,2514.2599999999998,0.05610495988888509
307,2520.0499999999997,0.055228822448112835
308,2525.8599999999997,0.053131504152622876
309,2537.52,0.05670178585220757
310,2543.37,0.05685392584728223
311,2555.1099999999997,0.06821934412799616
312,2566.8999999999996,0.06255590027191585
313,2572.82,0.06971875727547858
314,2584.7,0.06755758957316865
315,2596.6299999999997,0.06486674973406449
316,2602.61,0.06112689417347414
317,2614.6200000000003,0.05868982091549921
318,2626.69,0.06695292509337118
319,2632.75,0.07759596611391006
320,2644.9,0.09248671687291127
321,2657.1099999999997,0.1050358950677594
322,2663.2299999999996,0.08196096352414518
323,2675.5299999999997,0.08951270787276369
324,2687.88,0.09315057008458798
325,2694.07,0.08154774554946184
326,2706.5099999999998,0.0898835239150565
327,2712.75,0.07778437724313612
328,2725.27,0.07417406218986002
329,2737.85,0.08232370457243081
330,2744.16,0.061075614908998516
331,2756.83,0.0674715734453397
332,2763.1800000000003,0.07502972207247202
333,2775.94,0.08044367676258359
334,2782.33,0.0658857536802805
335,2795.18,0.043294484524162444
336,2808.08,0.048491203231250155
337,2814.55,0.07735706673007631
338,2827.54,0.09241694159093439
339,2834.06,0.08890830295296633
340,2847.1400000000003,0.08004655396759477
341,2853.71,0.06911439319283247
342,2866.88,0.09220635036123132
343,2873.4900000000002,0.10183454787703361
344,2884.0315,0.09878945619156204
345,2886.75,0.09800428499910656
346,2893.3999999999996,0.10408488918301981
347,2906.7599999999998,0.12754977749837035
348,2926.91,0.11673615987519022
349,2947.2,0.11213364212956616
350,2967.63,0.11728932426149816
351,2988.2,0.11878980627098623
352,3008.9100000000003,0.12058368815803036
353,3029.77,0.12411396991388458
354,3050.77,0.12628565154729485
355,3071.92,0.1333138330495152
356,3093.21,0.1337821144292916
357,3107.49,0.1431342019400106
358,3129.0299999999997,0.13718338310113715
359,3150.7200000000003,0.13894896413107377
360,3172.56,0.14567724502982046
361,3187.2,0.13055583222568365
362,3209.2900000000004,0.14135741290578047
363,3231.54,0.12586839344594136
364,3246.46,0.15532248039691668
365,3268.96,0.17289366071842766
366,3291.62,0.17074454090000277
367,3306.81,0.16585402761483622
368,3311.31121,0.1650041032000985
369,3322.0699999999997,0.16297244380215495
370,3329.73,0.17591071573481773
371,3337.4100000000003,0.16729738733310107
372,3345.1,0.16776075876419463
373,3352.81,0.15735932986090875
374,3360.5400000000004,0.17221080062324337
375,3368.29,0.17189377105119855
376,3376.0499999999997,0.14503984131196399
377,3383.84,0.14543921107116023
378,3391.6400000000003,0.1749164806631667
379,3399.46,0.17906774992079372
380,3407.29,0.169913919011231
381,3415.15,0.16804578760009908
382,3423.02,0.19080615602177742
383,3430.91,0.1785660241090763
384,3438.82,0.18113219186199572
385,3446.75,0.13654345928053566
386,3454.69,0.17717212653188583
387,3462.6600000000003,0.15192479328166683
388,3470.64,0.1693538598642581
389,3478.64,0.14389222611246988
390,3486.66,0.1630077920263022
391,3494.6899999999996,0.15290625777294478
392,3502.75,0.18137962301801813
393,3510.83,0.17979898792871207
394,3518.9199999999996,0.16595785267221622
395,3527.0299999999997,0.15567491708134093
396,3535.16,0.17880658115608614
397,3543.31,0.1974990448964519
398,3551.48,0.19443040830243818
399,3559.6699999999996,0.18620057137404503
400,3567.8700000000003,0.1758734342784621
401,3576.1,0.15610779668130995
402,3584.3399999999997,0.13386205891696812
403,3592.6000000000004,0.15060302081824678
404,3600.89,0.19769008221795623
405,3609.19,0.16991014345047598
406,3617.5099999999998,0.18297900434861622
407,3625.85,0.189499164912377
408,3633.65,0.16902483450438352
409,3636.4,0.16989868852720633
410,3639.15,0.1826064425500291
411,3641.89,0.18971979674004164
412,3644.6400000000003,0.19138335076286445
413,3647.39,0.19416930478568725
414,3650.1299999999997,0.18687105897569978
415,3652.88,0.20202681299852257
416,3655.62,0.19508946718853512
417,3658.3700000000003,0.21052162121135792
418,3661.12,0.20184037523418072
419,3663.8599999999997,0.21581262942419327
420,3666.61,0.21960828344701605
421,3669.3599999999997,0.21084233746983885
422,3672.1,0.2122080916598514
423,3674.85,0.21181834568267421
424,3677.59,0.19926879987268672
425,3680.3399999999997,0.19432155389550954
426,3683.09,0.20111230791833234
427,3685.83,0.2032507621083449
428,3688.5800000000004,0.18508201613116768
429,3691.33,0.20094847015399048
430,3694.0699999999997,0.20925202434400303
431,3696.82,0.21361737836682584
432,3699.56,0.21451493255683837
433,3702.31,0.22087698657966115
434,3705.06,0.21749214060248395
435,3707.8,0.1875131947924965
436,3710.55,0.1868077488153193
437,3713.2999999999997,0.19659930283814211
438,3716.04,0.22371405702815464
439,3718.79,0.20724321105097745
440,3721.54,0.21239816507380024
441,3724.2799999999997,0.21989511926381278
442,3727.03,0.23284537328663557
443,3729.77,0.2661987274766481
444,3732.5199999999995,0.2640547814994709
445,3735.27,0.22915053552229372
446,3738.0099999999998,0.19954388971230624
447,3740.76,0.17211914373512904
448,3743.5099999999998,0.18979049775795187
449,3746.25,0.1814487519479644
450,3749.0,0.1736474059707872
451,3751.7400000000002,0.17011696016079972
452,3754.49,0.18953141418362252
453,3757.2400000000002,0.20230676820644536
454,3759.98,0.20719222239645788
455,3762.73,0.21237537641928067
456,3765.48,0.21327173044210346
457,3768.22,0.21188488463211602
458,3770.9700000000003,0.20857903865493882
459,3773.71,0.22015409284495135
460,3776.46,0.24025654686777415
461,3779.21,0.24746470089059697
462,3781.95,0.2604274550806095
463,3784.7,0.2616566091034323
464,3787.45,0.2581813631262551
465,3790.19,0.25119351731626766
466,3792.94,0.22398297133909045
467,3795.6800000000003,0.21054222552910298
468,3798.43,0.19917037955192576
469,3801.1800000000003,0.20014583357474858
470,3801.8939600000003,0.19921855957383652
471,3803.92,0.19658719482266843
472,3806.6699999999996,0.2237516584253836
473,3809.42,0.2354440220280988
474,3812.16,0.24716588576316773
475,3814.9100000000003,0.2432677493658829
476,3817.65,0.23092691310095184
477,3820.4,0.21585487670366701
478,3823.15,0.2006757403063822
479,3825.8900000000003,0.19601160404145115
480,3828.64,0.1910023676441663
481,3831.39,0.1738660312468815
482,3834.13,0.16804549498195043
483,3836.8799999999997,0.1627824585846656
484,3839.6200000000003,0.16594732231973455
485,3842.37,0.17295248592244972
486,3845.1200000000003,0.1923443495251649
487,3847.86,0.21351961326023383
488,3850.6099999999997,0.22457467686294902
489,3853.36,0.2268303404656642
490,3856.1,0.22336780420073313
491,3858.85,0.2238918678034483
492,3861.5899999999997,0.21555583153851726
493,3864.34,0.22704519514123242
494,3867.09,0.2304008587439476
495,3869.8300000000004,0.23997362247901655
496,3872.58,0.2405765860817317
497,3875.3300000000004,0.2294360496844469
498,3878.07,0.22234651341951583
499,3880.8199999999997,0.22582627702223101
500,3883.56,0.21960544075729996
501,3886.31,0.20765830436001512
502,3889.06,0.2056836679627303
503,3891.8,0.21133613169779925
504,3894.55,0.21974009530051442
505,3897.3,0.2323124589032296
506,3900.04,0.25308172263829853
507,3902.79,0.2557886862410137
508,3905.5299999999997,0.2547572499760826
509,3908.28,0.2659532135787978
510,3911.0299999999997,0.26513477718151296
511,3913.7699999999995,0.2847365409165819
512,3916.52,0.28047740451929715
513,3919.2700000000004,0.27799496812201224
514,3922.01,0.2597993318570812
515,3924.7599999999998,0.2500349954597964
516,3927.5,0.22706735919486531
517,3930.25,0.20287452279758053
518,3933.0,0.1743103864002957
519,3935.74,0.16088075013536463
520,3938.4900000000002,0.17344191373807982
521,3941.24,0.191186677340795
522,3943.9800000000005,0.2112451410758639
523,3946.73,0.2367343046785791
524,3949.47,0.253622868413648
525,3952.2200000000003,0.2662459320163632
526,3954.97,0.2667078956190784
527,3957.71,0.2699295593541473
528,3960.46,0.2557542229568625
529,3963.2099999999996,0.22636088655957767
530,3965.95,0.19066805029464662
531,3968.7,0.16715781389736178
532,3971.44,0.1574452776324307
533,3974.19,0.1706382412351459
534,3976.94,0.20435140483786107
535,3979.68,0.24066596857293002
536,3982.4300000000003,0.2690093321756452
537,3985.18,0.28753229577836037
538,3987.9199999999996,0.30292625951342933
539,3990.67,0.30768632311614447
540,3993.4199999999996,0.31482098671885966
541,3996.1600000000003,0.3203327504539286
542,3998.91,0.3271177140566438
543,4001.65,0.3284329777917127
544,4004.4,0.3326626413944279
545,4007.15,0.33776670499714306
546,4009.89,0.342218168732212
547,4012.64,0.3443552323349272
548,4015.39,0.3523246959376424
549,4018.1299999999997,0.3550501596727113
550,4020.88,0.3536506232754265
551,4023.62,0.35175068701049544
552,4026.3700000000003,0.3494204506132106
553,4029.12,0.3483594142159258
554,4031.8599999999997,0.33908167795099475
555,4034.61,0.3342414415537099
556,4037.3599999999997,0.33857840515642507
557,4040.1,0.34333436889149405
558,4042.85,0.3486527324942092
559,4045.59,0.34441769622927815
560,4048.34,0.3294300598319933
561,4051.09,0.33070422343470846
562,4053.83,0.3338469871697774
563,4056.5800000000004,0.3384490507724926
564,4059.33,0.33595521437520776
565,4062.0699999999997,0.3264800781102767
566,4064.82,0.3282336417129919
567,4067.56,0.3245288054480608
568,4070.31,0.328493469050776
569,4073.06,0.3305121326534912
