,lambda (Angstroms),Total Flux (erg/s/cm^2/Angstrom)
0,102.05000000000001,9.948882772706302
1,103.95,9.920526770282562
2,104.712855,9.909141769194179
3,105.88,9.817643639182803
4,108.10000000000001,9.64360714237222
5,110.11,9.486033698807816
6,113.96999999999998,9.183429859357908
7,117.97999999999999,8.869066864955371
8,120.22644299999999,8.692960165226992
9,121.01,8.64146121498152
10,124.97,8.381188436471723
11,127.0,8.247765721325518
12,127.88000000000001,8.18992752514834
13,130.86,7.99406571891233
14,132.07,7.9145392091683355
15,133.91,7.793604669632693
16,137.03,7.588543637314427
17,138.038426,7.522264721017324
18,139.9,7.434809790814381
19,143.16,7.281685266927004
20,147.17,7.093363515761029
21,150.94,6.916264128897804
22,155.17,6.717556822369307
23,158.489319,6.561632155597226
24,159.14999999999998,6.538169594272804
25,162.10999999999999,6.433052757097203
26,165.89,6.2988203131830955
27,170.14000000000001,6.147893061272521
28,172.91,6.049528483399749
29,176.93,5.9067735591768065
30,179.81,5.804502425570818
31,181.89000000000001,5.7306410550609375
32,181.970086,5.727797139601028
33,186.13000000000002,5.615106260356545
34,190.9,5.485893438881898
35,194.0,5.401921854496698
36,198.07000000000002,5.291670683970321
37,202.21,5.179528576879119
38,205.03,5.103144192153227
39,208.929613,4.997498454691931
40,209.79999999999998,4.979771829462953
41,216.17999999999998,4.849882929325902
42,220.20000000000002,4.768034043281864
43,222.73999999999998,4.716316257180908
44,226.89000000000001,4.631824201903357
45,230.04,4.568046635314374
46,233.78,4.492677133227137
47,239.78,4.37096084529574
48,239.88329199999998,4.368855875357776
49,245.93,4.273887640280475
50,252.24,4.175032033921144
51,256.93,4.101043655235682
52,259.9,4.054793800833588
53,264.12,3.988714162312766
54,269.03,3.9116800334864092
55,274.04,3.8330695750505526
56,275.42287,3.8113715288508803
57,279.13,3.7667377226299474
58,284.32,3.7042565265917933
59,290.27,3.632484086916067
60,295.67,3.5675195628070053
61,301.17,3.501249381140368
62,308.18,3.4168765041543447
63,316.227766,3.320008785978311
64,318.28000000000003,3.3015647461507576
65,327.95,3.2145997626234695
66,337.92,3.1248985940105367
67,348.18,3.0325805642814805
68,357.11,2.952237848498783
69,363.078055,2.8985483288501426
70,366.28000000000003,2.8769782708319696
71,374.81,2.8194871633819982
72,385.31,2.7486241472970394
73,395.19,2.682124006264716
74,405.33,2.613790573468384
75,413.82,2.5565467568282596
76,416.86938299999997,2.5359840356073544
77,422.48,2.5070862115925054
78,430.34000000000003,2.4665997209107315
79,441.37999999999994,2.409770150976027
80,450.62,2.3621613060524145
81,460.04999999999995,2.3135894970665207
82,469.68999999999994,2.263937369695999
83,478.630092,2.217904184413718
84,479.52000000000004,2.21437948453044
85,489.56,2.1745672768664557
86,499.81,2.133984659384798
87,505.6,2.1110222535546717
88,511.46,2.0879072574519872
89,519.77,2.054983175809786
90,529.43,2.016683827196829
91,540.52,1.972694558444479
92,549.5408739999999,1.936951218880181
93,550.5600000000001,1.9338697370699327
94,559.51,1.9068588096381924
95,569.91,1.8754515174996333
96,580.51,1.8433736426084097
97,589.9399999999999,1.8148892667702743
98,599.53,1.7858459071300068
99,610.6700000000001,1.7519646869065886
100,620.59,1.7222469821744246
101,630.68,1.6917252011524961
102,630.957344,1.6908872754294941
103,639.45,1.6705434236656884
104,649.84,1.6456412075983087
105,657.37,1.6275688373704582
106,664.98,1.6093645941680752
107,674.23,1.587197351987781
108,685.1899999999999,1.560869955476859
109,694.72,1.538111022885701
110,704.38,1.5148870292109287
111,715.8299999999999,1.4875414732309968
112,724.43596,1.4669205484999386
113,725.7800000000001,1.4645291216455107
114,734.1899999999999,1.449566589639131
115,744.4000000000001,1.4314162556813255
116,754.76,1.4129894482275682
117,765.26,1.3941900555109223
118,774.1199999999999,1.378567454016686
119,784.89,1.3594028850073263
120,795.81,1.3400058795020144
121,805.0200000000001,1.3236374868505563
122,814.34,1.3070639226354004
123,825.67,1.2869481275744863
124,831.763771,1.2760005763059192
125,835.23,1.2713286292070345
126,844.91,1.2586238871890532
127,854.69,1.2456166136233655
128,864.5899999999999,1.2324877574004303
129,874.5999999999999,1.219213006075018
130,884.7199999999999,1.2057972186471282
131,894.9699999999999,1.1921992440072204
132,905.33,1.1784066672648355
133,915.8199999999999,1.1650828713104324
134,924.29,1.1614285344196986
135,934.99,1.1578390408151118
136,945.82,1.161124599998507
137,954.57,1.1646720745741952
138,954.992586,1.1643883337737184
139,965.62,1.1575575410560948
140,974.5600000000001,1.0966714576097667
141,985.84,1.1232890721204407
142,994.97,1.1137958586791683
143,1004.1700000000001,1.1254114394502848
144,1015.8000000000001,1.1065734050229035
145,1025.2,1.0513019621151314
146,1034.68,1.0599519697358037
147,1044.26,1.0944492005170319
148,1053.92,1.0800713318267046
149,1066.12,1.0441932174144901
150,1075.99,1.0456845713613294
151,1085.95,1.0133731321526689
152,1095.99,1.0236150434724527
153,1096.4782,1.0227921243315554
154,1106.13,1.0087959495197967
155,1113.8,0.9970830046274365
156,1124.11,0.9773547897851632
157,1134.51,0.9868317175582335
158,1145.01,0.9663731493483526
159,1155.6,0.9605286037538159
160,1166.29,0.9520996921763276
161,1174.38,0.9136843861555718
162,1185.24,0.9283274884070665
163,1196.21,0.8865412360773149
164,1204.5,0.8593922980906566
165,1215.65,0.8303848809915927
166,1224.07,0.854658871227098
167,1235.3999999999999,0.8756319693587219
168,1243.96,0.876364059218095
169,1255.48,0.8595387939821116
170,1258.92541,0.8500091619801524
171,1264.18,0.8370805577872347
172,1275.8700000000001,0.8536560486967026
173,1284.72,0.8522594382218347
174,1293.6200000000001,0.8212176373488034
175,1305.5900000000001,0.8104259940285581
176,1314.6399999999999,0.8263516719610379
177,1323.76,0.814261791336089
178,1336.0,0.792374617865763
179,1345.27,0.8033830360463249
180,1354.59,0.7924070738287237
181,1363.98,0.7734161330536942
182,1373.4399999999998,0.7711632837212365
183,1386.1399999999999,0.7624992025878099
184,1395.75,0.7420470920608626
185,1405.43,0.7381628629764873
186,1415.17,0.732329919414316
187,1424.9800000000002,0.7271534272947163
188,1434.85,0.7187562506973215
189,1441.48,0.7190836059008946
190,1445.43977,0.7170848968356978
191,1448.1299999999999,0.7163431369956801
192,1454.82,0.7096905000964935
193,1464.9,0.6962053527506337
194,1475.05,0.6904014689648722
195,1485.28,0.6865080749620801
196,1495.57,0.682612928296515
197,1505.94,0.6719112914139191
198,1512.89,0.6580732963093829
199,1516.3799999999999,0.6618573880914217
200,1523.38,0.6553855241012412
201,1533.94,0.6389040454531978
202,1544.5700000000002,0.6407415103652523
203,1555.28,0.6303685450602765
204,1566.06,0.6255442333153988
205,1573.29,0.6266648124512553
206,1584.19,0.6247646853808315
207,1595.1699999999998,0.6207512580933774
208,1606.2299999999998,0.6127010005888923
209,1613.65,0.608970247959301
210,1624.83,0.5980687751292701
211,1636.0900000000001,0.5970916920822085
212,1643.64,0.5942886603499425
213,1655.0400000000002,0.5811491644230773
214,1659.58691,0.5817174519155032
215,1666.51,0.583680792095042
216,1670.35,0.5725763433752715
217,1678.0600000000002,0.5798001328988572
218,1685.8100000000002,0.580642301706612
219,1693.5900000000001,0.5718475774774937
220,1705.33,0.564021282381112
221,1713.2,0.5572282790413741
222,1725.08,0.5522836164395841
223,1733.0400000000002,0.5543165839892263
224,1745.05,0.5477954115609859
225,1753.11,0.5501753823210509
226,1765.26,0.5379257923874021
227,1773.3999999999999,0.5372847317158053
228,1785.7,0.5338452765977904
229,1793.94,0.5366351491366161
230,1806.3799999999999,0.5308206665131929
231,1814.71,0.5214128499413991
232,1823.09,0.5196055649748166
233,1835.7299999999998,0.5114378087722388
234,1844.2,0.5017736346950366
235,1856.98,0.49769569098705035
236,1865.55,0.4970481501202709
237,1874.17,0.4993660308587027
238,1887.1599999999999,0.4885243558926041
239,1895.8700000000001,0.4827809575204163
240,1904.62,0.4830794784323975
241,1905.46072,0.48254019817675553
242,1913.41,0.47822860753910823
243,1926.67,0.4728081195968195
244,1935.5700000000002,0.4708791253369122
245,1944.5000000000002,0.4733815499278142
246,1953.48,0.46650786927006516
247,1967.02,0.46957813393532993
248,1976.1000000000001,0.46838748278027853
249,1985.22,0.4624905234263062
250,1994.38,0.4579200658734129
251,2003.5900000000001,0.4566245230718684
252,2012.83,0.45188726912113336
253,2026.79,0.4501478976977283
254,2036.1399999999999,0.4453861961999606
255,2045.5400000000002,0.4459283794535417
256,2054.98,0.4399286145082018
257,2064.47,0.4371845543142109
258,2074.0,0.439969255921299
259,2078.78,0.44085737615024767
260,2083.5699999999997,0.4443106993294663
261,2093.19,0.43657335748898213
262,2102.85,0.4334014574495772
263,2117.43,0.43147213894289776
264,2127.2,0.4282593313564604
265,2137.02,0.4195077485213716
266,2146.88,0.421985397487362
267,2156.79,0.42153145120470126
268,2166.75,0.4144111496733894
269,2176.75,0.4113365399431565
270,2186.79,0.41114224201400273
271,2187.7616199999998,0.4111483689701138
272,2196.89,0.4120081644657689
273,2207.03,0.4075203732803254
274,2217.22,0.398606541014086
275,2227.45,0.39672593588320965
276,2232.59,0.4050653927773734
277,2242.89,0.3991078001333826
278,2253.24,0.39015899640859564
279,2263.64,0.3884099916030126
280,2274.09,0.38967913571663354
281,2284.59,0.3943768387494584
282,2295.13,0.38549272891764635
283,2305.73,0.38743487978887914
284,2316.37,0.379632467795475
285,2327.06,0.3625689747212748
286,2332.43,0.3674009626437767
287,2343.19,0.35951310205646186
288,2354.01,0.3695753921721918
289,2364.87,0.356110899423285
290,2375.79,0.3588281973774229
291,2386.76,0.34779620425076463
292,2392.2599999999998,0.35181267536319677
293,2403.2999999999997,0.3478280647234241
294,2414.39,0.34861416300285525
295,2425.54,0.3579308919853311
296,2436.73,0.3541414881031702
297,2442.35,0.3597750306216917
298,2453.62,0.35844062101025703
299,2464.95,0.3522898921018671
300,2476.33,0.34572352211268104
301,2487.7599999999998,0.337690321042699
302,2493.49,0.33651056318346917
303,2505.0,0.3482917963842133
304,2510.78,0.3279469874441874
305,2511.88643,0.32750099681667655
306,2516.56,0.32583612693004527
307,2522.37,0.3240498736457812
308,2534.0099999999998,0.32880044782326245
309,2545.7000000000003,0.32765090386576723
310,2557.4599999999996,0.3427198725193052
311,2563.35,0.33270818221907866
312,2575.1800000000003,0.33999589348364945
313,2587.07,0.3344208169862484
314,2593.03,0.330163979297055
315,2605.0,0.3237473757836917
316,2617.03,0.3193467045083566
317,2623.06,0.3276075194301962
318,2635.17,0.3455221311388988
319,2647.33,0.363581124712625
320,2653.43,0.38578515224549753
321,2665.6800000000003,0.349564219176266
322,2677.98,0.35750871797205813
323,2684.16,0.3655528884889683
324,2696.5499999999997,0.3436553406418028
325,2702.76,0.356001082277727
326,2715.24,0.3346603677876039
327,2727.77,0.3245943351625043
328,2734.06,0.33557789978246627
329,2746.6800000000003,0.30642183051440897
330,2753.01,0.3158790966263898
331,2765.72,0.32669280071537504
332,2772.0899999999997,0.33140106831937466
333,2784.89,0.3069417857654022
334,2797.7400000000002,0.2803639750764532
335,2804.1899999999996,0.2848681756644906
336,2817.1400000000003,0.31922938870558876
337,2823.6299999999997,0.3418307007856449
338,2836.66,0.33576697681078077
339,2843.2000000000003,0.31784985075586036
340,2856.3300000000004,0.2948991705110433
341,2862.9100000000003,0.3350868059481419
342,2876.13,0.3538032590603672
343,2882.7599999999998,0.34410239636248935
344,2884.0315,0.34540652478251954
345,2896.06,0.3582276487086587
346,2909.4300000000003,0.39300558775317446
347,2929.6,0.3732383725346167
348,2949.8999999999996,0.36329718260220617
349,2970.35,0.3684885833845807
350,2990.94,0.3684474421674213
351,3011.67,0.36878495895072816
352,3032.55,0.37332666644882007
353,3046.55,0.3775553664954334
354,3067.67,0.3859168591371816
355,3088.93,0.38276340977939594
356,3110.3399999999997,0.3993666511363954
357,3131.9,0.38665988320818
358,3153.61,0.38473320599474975
359,3168.17,0.39706453804322767
360,3190.13,0.37208037868777266
361,3212.2400000000002,0.3871523100471027
362,3227.07,0.3598250253821939
363,3249.44,0.4101792073138183
364,3271.96,0.43921957996022787
365,3287.06,0.4332408785819323
366,3309.85,0.42049123451495507
367,3311.31121,0.4195293482741792
368,3325.12,0.4108288912373217
369,3332.79,0.4152512849200166
370,3340.47,0.39640039345757816
371,3348.1699999999996,0.4439747317048729
372,3355.8900000000003,0.43267169966190083
373,3363.63,0.3543568973286621
374,3371.38,0.37617150985029
375,3379.15,0.43132865208165105
376,3386.94,0.41931562402274536
377,3394.7500000000005,0.4121717256735729
378,3402.58,0.45934735703413376
379,3410.42,0.4090658032495611
380,3418.28,0.3948448791747218
381,3426.16,0.4198793848096156
382,3434.06,0.4478415201542427
383,3441.98,0.38785688520860306
384,3449.91,0.39660236511783004
385,3457.8599999999997,0.42149997473679024
386,3465.84,0.3951382289203502
387,3473.83,0.4367734979587769
388,3481.8300000000004,0.40597708185207015
389,3489.86,0.42732421030996326
390,3497.9100000000003,0.4017578684775896
391,3505.97,0.44827694150008257
392,3514.05,0.40852984423230876
393,3522.15,0.4415576766742682
394,3530.27,0.3966263388259609
395,3538.4100000000003,0.4451186306873868
396,3546.57,0.4518749522585459
397,3554.7400000000002,0.44878638868457166
398,3562.94,0.4298100696751972
399,3571.15,0.3842523655206894
400,3579.3799999999997,0.4064078910759149
401,3587.63,0.35050904634087354
402,3595.9,0.4182195313155655
403,3604.19,0.4499636459999906
404,3612.5,0.38180439039414904
405,3620.8,0.40124061993344073
406,3623.54,0.39042279016689374
407,3626.27,0.40311314554548006
408,3629.0099999999998,0.43869151577893306
409,3631.74,0.4303179711575193
410,3634.48,0.4326791413909723
411,3637.22,0.44885461162442525
412,3639.9500000000003,0.4345873670030115
413,3642.69,0.4471876372364645
414,3645.4199999999996,0.41411429261505084
415,3648.16,0.41948696284850373
416,3650.9,0.42789863308195675
417,3653.63,0.46860568846054307
418,3656.37,0.473560158693996
419,3659.1099999999997,0.4943834289274489
420,3661.84,0.4930973843060352
421,3664.58,0.48658345453948815
422,3667.31,0.48345480991807455
423,3670.05,0.4836788801515275
424,3672.7900000000004,0.46943685038498034
425,3675.52,0.45335460576356673
426,3678.2599999999998,0.4792933759970197
427,3680.9900000000002,0.442199231375606
428,3683.73,0.43315520160905896
429,3686.47,0.4311517718425119
430,3689.2000000000003,0.4331383272210982
431,3691.94,0.44268579745455117
432,3694.6800000000003,0.4708521676880041
433,3697.41,0.4811171230665905
434,3700.1499999999996,0.4810661933000434
435,3702.88,0.46371884867862967
436,3705.62,0.44653401891208266
437,3708.36,0.4350147891455356
438,3711.09,0.46051584452412186
439,3713.8300000000004,0.45089421475757485
440,3716.56,0.46844707013616116
441,3719.2999999999997,0.4992813403696142
442,3722.04,0.535643310603067
443,3724.77,0.5886194659816534
444,3727.5099999999998,0.6530060362151064
445,3730.25,0.6174220064485593
446,3732.98,0.5157255618271456
447,3735.7200000000003,0.46262283206059857
448,3738.45,0.4168187874391849
449,3741.1899999999996,0.4456095576726379
450,3743.93,0.4113735279060908
451,3746.66,0.4072132832846771
452,3749.4,0.40441505351813
453,3752.13,0.41240260889671637
454,3754.8700000000003,0.44805517913016923
455,3757.61,0.4553749493636222
456,3760.3399999999997,0.4483684047422086
457,3763.08,0.4356389749756615
458,3765.8199999999997,0.43413054520911454
459,3768.55,0.4438453005877008
460,3771.29,0.4416767708211537
461,3774.02,0.47463102619974007
462,3776.76,0.498919596433193
463,3779.5,0.5129772666666459
464,3782.2299999999996,0.5283852220452323
465,3784.97,0.4976692922786852
466,3787.7,0.48485984765727164
467,3790.44,0.46244951789072447
468,3793.18,0.4408369881241775
469,3795.9100000000003,0.4320426435027637
470,3798.65,0.42921411373621665
471,3801.39,0.45113758396966963
472,3801.8939600000003,0.4520881587449791
473,3804.12,0.45633117354528874
474,3806.86,0.4827093910033512
475,3809.59,0.4747945948940484
476,3812.33,0.4616520123521109
477,3815.0699999999997,0.4587129298101733
478,3817.8,0.4226081337008706
479,3820.54,0.406080251158933
480,3823.2699999999995,0.3981540550496303
481,3826.01,0.3911144725076927
482,3828.75,0.37516698996575515
483,3831.48,0.35012059385645244
484,3834.22,0.3513317113145149
485,3836.96,0.36308722877257726
486,3839.69,0.36939063266327454
487,3842.43,0.409495450121337
488,3845.1600000000003,0.42886815401203426
489,3847.9,0.44031277147009673
490,3850.6400000000003,0.44790698892815917
491,3853.37,0.4465649928188564
492,3856.1099999999997,0.4380429102769189
493,3858.84,0.4316131141676161
494,3861.58,0.44910813162567853
495,3864.32,0.46828074908374095
496,3867.05,0.4687265529744382
497,3869.79,0.46353227043250067
498,3872.53,0.4537175878905631
499,3875.2599999999998,0.4415122917812604
500,3878.0,0.43546540923932275
501,3880.73,0.43797381313002004
502,3883.47,0.4303593305880825
503,3886.21,0.4342957480461449
504,3888.94,0.43900425193684217
505,3891.6800000000003,0.45526176939490465
506,3894.41,0.47080627328560193
507,3897.1499999999996,0.47639279074366436
508,3899.89,0.4895700082017268
509,3902.62,0.4917209120924241
510,3905.36,0.4989850295504865
511,3908.1,0.5146373470085489
512,3910.83,0.5193186508992462
513,3913.57,0.5294978683573086
514,3916.2999999999997,0.5211981722480059
515,3919.04,0.5025000897060683
516,3921.78,0.47357130716413076
517,3924.5099999999998,0.451712711054828
518,3927.25,0.40945362851289047
519,3929.98,0.3645562324035877
520,3932.7200000000003,0.34611704986165015
521,3935.46,0.3373943673197126
522,3938.1899999999996,0.35981407121040987
523,3940.9300000000003,0.3965745886684723
524,3943.67,0.44382160612653476
525,3946.4,0.470807010017232
526,3949.14,0.5038683274752944
527,3951.87,0.5137474313659917
528,3954.61,0.5193338488240542
529,3957.35,0.4902950662821166
530,3960.0800000000004,0.4709942701728138
531,3962.82,0.41882608763087625
532,3965.5499999999997,0.35779309152157357
533,3968.29,0.33665590897963604
534,3971.0299999999997,0.34844442643769846
535,3973.76,0.38777253032839565
536,3976.5,0.4493758477864581
537,3979.24,0.5032562652445205
538,3981.9700000000003,0.5338996691352178
539,3984.71,0.5603601865932802
540,3987.44,0.5721371904839775
541,3990.18,0.58745940794204
542,3992.9199999999996,0.5924681254001024
543,3995.65,0.6034477292907996
544,3998.39,0.6083738467488621
545,4001.1200000000003,0.6150356506395593
546,4003.86,0.6139387680976218
547,4006.6000000000004,0.6215877855556842
548,4009.33,0.6247566894463815
549,4012.0699999999997,0.640216306904444
550,4014.81,0.6536681243625064
551,4017.54,0.6562321282532037
552,4020.2799999999997,0.6537326457112661
553,4023.01,0.6477159496019633
554,4025.75,0.6523121670600258
555,4028.4900000000002,0.6432670845180882
556,4031.22,0.6191538884087855
557,4033.9599999999996,0.6112090058668479
558,4036.69,0.6268640097575452
559,4039.43,0.6310476272156076
560,4042.17,0.62945584467367
561,4044.9,0.6184611485643673
562,4047.6400000000003,0.6182169660224297
563,4050.38,0.6217405834804922
564,4053.1099999999997,0.6270270873711895
565,4055.85,0.6251327048292519
566,4058.58,0.6080325087199492
567,4061.3199999999997,0.6042680261780116
568,4064.06,0.599871043636074
569,4066.79,0.6054876475267713
570,4069.53,0.6161893649848338
571,4072.2599999999998,0.615782968875531
572,4074.9999999999995,0.6097907863335935
573,4077.7400000000002,0.6082265037916559
574,4080.47,0.6187935076823531
575,4083.21,0.6315304251404156
576,4085.95,0.648585042598478
577,4088.6800000000003,0.6622875464891753
578,4091.42,0.6583028639472378
579,4094.1499999999996,0.635234767837935
580,4096.89,0.6108984852959973
581,4099.63,0.5839222027540599
582,4102.36,0.5799679066447572
583,4105.099999999999,0.5902846241028196
584,4107.83,0.6028868279935168
585,4110.57,0.6229393454515793
586,4113.31,0.6403514629096416
587,4116.04,0.6360948668003389
588,4118.780000000001,0.6391784842584014
589,4121.52,0.6406668017164638
590,4124.25,0.6352276056071611
