,lambda (Angstroms),Total Flux (erg/s/cm^2/Angstrom)
0,101.98,0.0010472297480122385
1,104.11999999999999,0.0012487446487947898
2,104.712855,0.0013045877867662336
3,106.05,0.0011997021378389538
4,108.03,0.0010444493111092376
5,110.03,0.000887851685894373
6,113.9,0.0005846518382681098
7,117.9,0.0002713877462383808
8,120.22644299999999,9.515277089165364e-05
9,120.92999999999999,9.454571863717483e-05
10,124.89,8.33625003464173e-05
11,126.92,7.742917076807444e-05
12,128.09,7.424390263671425e-05
13,131.08,6.559402074546045e-05
14,131.99,6.602898886551366e-05
15,134.13,6.00148543346498e-05
16,136.94,5.7095716002066815e-05
17,138.038426,5.4337329477929394e-05
18,140.13,5.6416077437502635e-05
19,143.06,0.00012369917968281182
20,147.07,0.00028664870258509505
21,150.84,0.00031121992311916184
22,155.07,0.0003417833148589768
23,158.489319,0.0003709263705339144
24,159.04999999999998,0.0003756664888678136
25,162.0,0.0004007220497124701
26,166.16,0.0004426350399205281
27,170.03,0.0004776342082150436
28,173.19,0.0005088520642384722
29,176.82,0.0005470934523286767
30,180.10999999999999,0.0005766428767961071
31,181.970086,0.0005963827668111423
32,182.19,0.0005987738845104538
33,186.01,0.0006422787555877372
34,191.22,0.0006984780192821469
35,193.88,0.0007391640907652813
36,197.94,0.0007842110893448022
37,202.08,0.0008375643637584024
38,204.89000000000001,0.0008765625524304354
39,208.929613,0.0008937804705760624
40,210.14999999999998,0.0008993748804616342
41,216.04000000000002,0.001020843035365014
42,220.05,0.0010843201141702012
43,223.11,0.0011128571518619402
44,226.74,0.001181530814221748
45,229.89,0.001794374529492656
46,234.17000000000002,0.0030462146410353496
47,239.88329199999998,0.0037518260458805092
48,240.17,0.003787034008067335
49,245.77,0.0036240995676250958
50,252.07,0.0038887949471275774
51,256.76,0.0033193973407572024
52,259.73,0.0038331946625226577
53,263.95,0.004039230234189399
54,268.86,0.00406535379980165
55,273.86,0.0040731687994067945
56,275.42287,0.004075552539577199
57,278.95,0.004083246978648354
58,284.14,0.004103770707709224
59,290.09,0.0039398599770564665
60,296.16,0.00402411491065945
61,300.96999999999997,0.0039889858695771364
62,307.98,0.0040467853398501044
63,316.227766,0.004118304004481185
64,318.07,0.004133196985656587
65,327.73999999999995,0.00412119677479078
66,337.7,0.004081101582420206
67,347.96,0.0040228959264240124
68,356.88,0.003993204874622253
69,363.078055,0.003991612987624129
70,366.03999999999996,0.003992161228606646
71,375.43,0.0039305152535606454
72,385.06,0.0037564897711652254
73,394.94,0.003827855718614161
74,405.07,0.0038035120959074523
75,413.55,0.0037363058362279962
76,416.86938299999997,0.003704609795323713
77,422.21000000000004,0.0036531996016915306
78,430.06,0.0035879430024018744
79,441.09000000000003,0.003540283012571949
80,451.36,0.0034458696884057363
81,459.76000000000005,0.0033692740152804984
82,470.46,0.0032944956697519225
83,478.630092,0.003258437077907384
84,480.32,0.003250524742506717
85,490.36999999999995,0.0031326451815361068
86,499.49,0.0031099133471030748
87,506.44,0.003038794207924394
88,512.3,0.0031725071783435203
89,519.4300000000001,0.003120982608222082
90,530.3100000000001,0.003028224560126535
91,540.1700000000001,0.002891731954039946
92,549.5408739999999,0.0028596684100639165
93,550.21,0.002857447698675509
94,560.4399999999999,0.0028898392821485696
95,569.54,0.0029093769145635113
96,580.13,0.002804225641736504
97,589.5600000000001,0.002816706905876384
98,600.52,0.002708898280740973
99,610.28,0.0024664161766057894
100,620.1899999999999,0.002757876632345578
101,630.27,0.0027074336559436674
102,630.957344,0.002706568239334913
103,640.51,0.0026956532438372877
104,649.42,0.0026901769572488074
105,658.46,0.0026540793623262638
106,664.55,0.0026910955334459217
107,675.35,0.0026613026103083693
108,684.7399999999999,0.0025490924160248866
109,694.27,0.002730220581997028
110,705.5500000000001,0.0025796467511644736
111,715.36,0.002756721637647864
112,724.43596,0.002751537510648535
113,725.3199999999999,0.0027510070764483205
114,735.41,0.0027513839068152124
115,745.6400000000001,0.0028216930628759966
116,754.27,0.002854469353863735
117,764.76,0.002752532400498888
118,775.4,0.00296123315323464
119,784.3799999999999,0.0029886697584571072
120,795.2900000000001,0.0030510727821739347
121,804.4999999999999,0.0031075531367506523
122,815.69,0.0031436678118552633
123,825.14,0.003290605296192937
124,831.763771,0.0029856415306784823
125,834.69,0.0028505615954447427
126,844.36,0.0033352276581534632
127,854.14,0.003372527598514506
128,864.03,0.003529400416527872
129,874.03,0.00368523311219356
130,884.15,0.0038832948562072364
131,894.3900000000001,0.004027113648568901
132,904.75,0.004017096489278555
133,915.22,0.00562417120764053
134,925.8199999999999,0.030866988145046157
135,934.39,0.06688035743123165
136,945.2099999999999,0.12741911012394194
137,953.9499999999999,0.18163888531195374
138,954.992586,0.18355344906904852
139,965.0,0.20193136767383227
140,973.93,0.0326904506204364
141,985.2099999999999,0.1652770027635153
142,994.32,0.1779138833507005
143,1005.84,0.2655728323478875
144,1015.14,0.25655951044457487
145,1024.54,0.11021108723047396
146,1034.02,0.17506626296774241
147,1045.99,0.34370220606638197
148,1055.6699999999998,0.3358679791820738
149,1065.43,0.260730951249135
150,1075.29,0.31274742200540784
151,1085.24,0.24277089158197127
152,1095.28,0.3282392599788252
153,1096.4782,0.3265777993557999
154,1105.42,0.3141785774329229
155,1115.6499999999999,0.30004565774409336
156,1125.97,0.2680300343629867
157,1133.78,0.3460762139553856
158,1144.27,0.31273748359997783
159,1154.8500000000001,0.3335771495522929
160,1165.54,0.3428964109918249
161,1176.32,0.23398576873907978
162,1184.48,0.3320221339726233
163,1195.44,0.22552088433532405
164,1203.72,0.16188094464583153
165,1214.86,0.11329508762397801
166,1226.1,0.22656122649959443
167,1234.6,0.3436933777845356
168,1246.03,0.37771950886534483
169,1254.6599999999999,0.35988145481699696
170,1258.92541,0.34124004204130665
171,1266.27,0.3091418012595368
172,1275.0500000000002,0.40195772688047987
173,1283.89,0.4208799526765092
174,1295.77,0.3304957873435712
175,1304.75,0.32670471354813485
176,1313.79,0.41130783992778475
177,1325.9499999999998,0.3937144754119155
178,1335.1399999999999,0.3476778022292808
179,1344.4,0.4160627292509133
180,1353.7099999999998,0.40286985641845097
181,1366.24,0.35907599298227977
182,1375.71,0.3777243206167139
183,1385.25,0.38209184845541516
184,1394.85,0.3274828764692026
185,1404.52,0.3358618046872573
186,1414.25,0.35578623308039814
187,1424.06,0.36488356170698716
188,1433.9299999999998,0.3648839905086624
189,1440.55,0.3838604098265033
190,1445.43977,0.38911920971990344
191,1447.1899999999998,0.3910015283819026
192,1453.87,0.3794686447421162
193,1463.95,0.35169236942938475
194,1474.1000000000001,0.3525215942880926
195,1484.3200000000002,0.36070951931823986
196,1494.6100000000001,0.36743074451982644
197,1504.97,0.3492812698928524
198,1511.9099999999999,0.31417638688984084
199,1515.4,0.33509189543731766
200,1525.9,0.3259607211532224
201,1536.48,0.28457594706505773
202,1543.57,0.30142516442941625
203,1554.2700000000002,0.28919499063514764
204,1565.05,0.30211201703680984
205,1575.89,0.32297654358542
206,1586.82,0.3389913703544522
207,1594.14,0.34607408828211145
208,1605.19,0.3397671153450397
209,1616.32,0.3413166426038987
210,1623.78,0.3274841608744367
211,1635.0300000000002,0.34767948842719176
212,1646.3700000000001,0.3525205162003688
213,1653.9699999999998,0.3335695348137855
214,1659.58691,0.34646418004809837
215,1665.43,0.3598781530773182
216,1673.12,0.3244666906173164
217,1676.9800000000002,0.3665720596555991
218,1684.72,0.37857779808987563
219,1696.4,0.3598793069932801
220,1704.2199999999998,0.3492867468584019
221,1716.04,0.3327965582657855
222,1723.96,0.33202079991946387
223,1735.9099999999999,0.35412681365197096
224,1743.9199999999998,0.34848165691535027
225,1756.01,0.36826337315183655
226,1764.1200000000001,0.34449741820377233
227,1776.34,0.3500905367653821
228,1784.54,0.3582495834270188
229,1796.9099999999999,0.3777261046714634
230,1805.2099999999998,0.37686595312165666
231,1813.54,0.3541269021084168
232,1826.11,0.36071102692997453
233,1834.54,0.35169327770529124
234,1843.01,0.3304992291960306
235,1855.78,0.3335729575947014
236,1864.35,0.3428966108739973
237,1872.9499999999998,0.36406086468986015
238,1885.94,0.3413188970233554
239,1894.6399999999999,0.33279835262777474
240,1903.39,0.35008890912647245
241,1905.46072,0.3485907904469285
242,1916.58,0.3405457898108853
243,1925.4299999999998,0.33357368577685353
244,1934.31,0.34687978105118095
245,1943.24,0.35907927517277366
246,1956.71,0.3389948646260609
247,1965.74,0.36657935644218437
248,1974.82,0.3759804471055732
249,1983.93,0.36154163707732123
250,1993.09,0.3549559258963347
251,2006.91,0.36488690728047934
252,2016.1699999999998,0.3582491937940234
253,2025.48,0.3708347791548329
254,2034.82,0.35578666382400165
255,2044.22,0.36657374710988877
256,2053.65,0.3289784297041351
257,2063.13,0.34131811114564675
258,2072.65,0.37858399166497075
259,2077.4300000000003,0.3657443814635389
260,2087.02,0.3777240603690344
261,2096.66,0.36322483812179523
262,2106.33,0.36657281518291523
263,2116.06,0.3725453908607537
264,2125.8199999999997,0.3759796658469514
265,2135.63,0.3615388396804145
266,2145.49,0.36657381236114284
267,2155.4,0.37771928388913667
268,2165.34,0.36743115472548965
269,2175.34,0.36911842417856106
270,2185.38,0.36488529270944475
271,2187.7616199999998,0.3681166877967732
272,2195.47,0.37857577949223564
273,2205.6,0.37340556569515054
274,2215.7799999999997,0.35987705281713217
275,2226.0099999999998,0.35658434085818047
276,2236.2799999999997,0.37169212963448217
277,2246.61,0.36322261951366386
278,2256.98,0.351688710128099
279,2267.39,0.3590775014777875
280,2272.62,0.3648865976121651
281,2283.1099999999997,0.3708056904323603
282,2293.65,0.3540703841716222
283,2304.24,0.3580803788299508
284,2314.87,0.34986547422353276
285,2325.56,0.3082006707199948
286,2336.29,0.33708406795171025
287,2347.08,0.33163236628630566
288,2352.4900000000002,0.3456299657293234
289,2363.3399999999997,0.3300031651667989
290,2374.25,0.33451336570715445
291,2385.21,0.3171931671665767
292,2396.22,0.3320774695450657
293,2407.28,0.3259640728426213
294,2412.83,0.3312192748590258
295,2423.97,0.3443603796270882
296,2435.1600000000003,0.3364761853142173
297,2446.4,0.34740399192041316
298,2457.69,0.34494179944567566
299,2463.35,0.34333860348402695
300,2474.73,0.3370032126636095
301,2486.15,0.33614542257844543
302,2497.62,0.3023132334123481
303,2503.38,0.3454415392888328
304,2511.88643,0.32410674505597764
305,2514.94,0.31644807392508406
306,2520.73,0.32754253273467515
307,2526.54,0.32300629140198506
308,2532.37,0.3282055499270137
309,2544.0600000000004,0.32588066676364924
310,2555.7999999999997,0.34115308324458177
311,2567.6,0.3340970992986707
312,2573.5200000000004,0.34499765718343395
313,2585.3900000000003,0.3417620727395387
314,2597.33,0.3377766877976591
315,2603.32,0.3323272451844382
316,2615.33,0.32845495974457445
317,2627.41,0.3383571738067265
318,2633.46,0.3502283307666619
319,2645.6200000000003,0.36663144425968913
320,2657.83,0.38029835739701334
321,2663.95,0.3508354138589645
322,2676.25,0.3589138263560233
323,2682.4199999999996,0.3638659824622715
324,2694.8,0.34740529439020545
325,2707.2400000000002,0.3570603058912958
326,2713.4799999999996,0.34250856149955977
327,2726.0099999999998,0.3385219723603847
328,2732.29,0.34477662768408623
329,2744.9,0.32242293797578636
330,2757.5699999999997,0.3283427478406428
331,2763.93,0.3367250025952196
332,2776.69,0.3444981118198107
333,2783.0899999999997,0.328949966289825
334,2795.93,0.29514507494529124
335,2802.3799999999997,0.30618292905960254
336,2815.32,0.3395180370036628
337,2821.7999999999997,0.3530203909045523
338,2834.83,0.34411109820834707
339,2847.9100000000003,0.33465080515643886
340,2854.48,0.32250525841706296
341,2867.6600000000003,0.3470701646537487
342,2874.27,0.35594981762981037
343,2884.0315,0.3534674856029548
344,2887.5299999999997,0.3525778476765616
345,2894.1899999999996,0.3591059467069265
346,2907.5499999999997,0.3829235447618328
347,2927.7,0.3697848418281772
348,2948.0,0.36206563887268306
349,2968.4300000000003,0.3652762358982621
350,2989.0099999999998,0.3642789329020024
351,3009.73,0.3633091298853601
352,3030.59,0.3656889268483351
353,3051.59,0.36721322379092725
354,3072.75,0.37219052071022496
355,3086.93,0.37036621864574676
356,3108.3300000000004,0.3797164155301027
357,3129.88,0.3700884123926199
358,3151.57,0.37077900923475443
359,3173.42,0.3757874060535945
360,3188.06,0.3579441039221445
361,3210.1600000000003,0.36527580070458676
362,3232.41,0.34950719746519043
363,3247.33,0.37960659529297497
364,3269.84,0.3936879920157251
365,3292.51,0.3908079887151806
366,3307.71,0.3826740865021997
367,3311.31121,0.38264890582671696
368,3322.9700000000003,0.3825673535298967
369,3330.63,0.38782333221107385
370,3338.31,0.36607831083658826
371,3346.0099999999998,0.38416848940644
372,3353.7200000000003,0.3693694679484603
373,3361.4500000000003,0.36845614643481794
374,3369.2,0.36419522486551287
375,3376.9700000000003,0.359132003240545
376,3384.7500000000005,0.36073818158774584
377,3392.5499999999997,0.38560835987928394
378,3400.38,0.39816753808732797
379,3408.2200000000003,0.37241091626754064
380,3416.07,0.3655513944199219
381,3423.9500000000003,0.3934369724888091
382,3431.8399999999997,0.395206650529865
383,3439.7499999999995,0.39152872851525805
384,3447.6800000000003,0.35130320644498847
385,3455.63,0.36864828431905616
386,3463.5899999999997,0.3471814621652925
387,3471.5800000000004,0.3762563399280347
388,3479.58,0.34707111766294557
389,3487.6000000000004,0.3592150953421937
390,3495.64,0.3633105729657791
391,3503.7000000000003,0.3847775505337019
392,3511.7799999999997,0.3759790280459618
393,3519.87,0.3759247055303904
394,3527.99,0.34756728293132494
395,3536.12,0.38101496030442816
396,3544.27,0.3907540376218686
397,3552.44,0.3961197148836463
398,3560.63,0.3852482920897613
399,3568.8399999999997,0.3561988692402136
400,3577.07,0.3504453463350031
401,3585.31,0.3254923234019613
402,3593.58,0.35357100038542544
403,3601.86,0.3903106773410582
404,3606.05,0.36720966567971774
405,3608.7799999999997,0.3281742580817561
406,3611.5000000000005,0.3542914505116258
407,3614.23,0.37694864291366414
408,3616.96,0.35658683531570246
409,3619.69,0.3547606277177408
410,3622.42,0.3535430201197791
411,3625.14,0.36615971254964885
412,3627.8700000000003,0.3612626049516871
413,3630.6,0.3601556973537255
414,3633.3300000000004,0.3573057897557638
415,3636.06,0.3362524821578021
416,3638.7799999999997,0.37661717458767185
417,3641.51,0.3883743669897102
418,3644.2400000000002,0.37611835939174854
419,3646.97,0.38140195179378683
420,3649.7000000000003,0.3750110441958252
421,3652.42,0.3872129366256949
422,3655.1499999999996,0.3892873290277332
423,3657.88,0.38759942142977155
424,3660.61,0.3999098138318099
425,3663.34,0.40425280623384824
426,3666.07,0.40345009863588654
427,3668.79,0.3610138910657562
428,3671.52,0.37741868346779456
429,3674.25,0.38945257586983295
430,3676.9800000000005,0.3672649682718712
431,3679.71,0.3688967606739096
432,3682.43,0.37631265310377926
433,3685.1600000000003,0.35263104550581764
434,3687.89,0.3479276379078559
435,3690.62,0.3946255303098943
436,3693.3500000000004,0.4115007227119326
437,3696.07,0.3906154151418023
438,3698.7999999999997,0.3883465075438406
439,3701.53,0.38527529994587895
440,3704.2599999999998,0.36945059234791733
441,3706.99,0.36947788474995563
442,3709.71,0.3729928771798253
443,3712.44,0.3757036695818637
444,3715.17,0.405609061983902
445,3717.9,0.4023441543859403
446,3720.6299999999997,0.4443114467879787
447,3723.36,0.5081889391900171
448,3726.08,0.5596756316198868
449,3728.8100000000004,0.578155224021925
450,3731.54,0.5079411164239633
451,3734.27,0.4108093088260017
452,3736.9999999999995,0.40048990122804
453,3739.7200000000003,0.4267732936579097
454,3742.45,0.39910798605994807
455,3745.1800000000003,0.3854687784619864
456,3747.91,0.3673478708640247
457,3750.64,0.4056079632660631
458,3753.36,0.40325815569593276
459,3756.09,0.43255484809797107
460,3758.82,0.4454186405000094
461,3761.55,0.4629577329020478
462,3764.2799999999997,0.4344901253040861
463,3767.0,0.40594171773395576
464,3769.73,0.4284052101359941
465,3772.46,0.42370180253803247
466,3775.19,0.4389446949400708
467,3777.92,0.4873023873421091
468,3780.6499999999996,0.5107063797441473
469,3783.37,0.5385947721740171
470,3786.1,0.49098296457605545
471,3788.8300000000004,0.4585038569780938
472,3791.56,0.44904194938013214
473,3794.29,0.3957313417821705
474,3797.01,0.3977802342120401
475,3799.74,0.4089288266140785
476,3801.8939600000003,0.4247097730544833
477,3802.47,0.4289301193501622
478,3805.2000000000003,0.47903081333532627
479,3807.93,0.49313940732049044
480,3810.65,0.5157991013276869
481,3813.38,0.500001895312851
482,3816.1099999999997,0.48959928929801516
483,3818.84,0.4794734832831793
484,3821.57,0.45147617726834344
485,3824.29,0.45327627127553993
486,3827.02,0.42652386526070407
487,3829.75,0.41733865924586816
488,3832.4799999999996,0.3803226532310323
489,3835.21,0.35636454721619637
490,3837.94,0.3796302412013605
491,3840.6600000000003,0.425804635208557
492,3843.39,0.46539272919372116
493,3846.12,0.5075812231788853
494,3848.85,0.5083553171640494
495,3851.58,0.5146347111492134
496,3854.2999999999997,0.52066790515641
497,3857.03,0.5217185991415741
498,3859.7599999999998,0.5355228931267383
499,3862.4900000000002,0.5623019871119024
500,3865.22,0.5577919810970665
501,3867.94,0.543629875104263
502,3870.67,0.5308481690894272
503,3873.4,0.5095456630745913
504,3876.1299999999997,0.5002774570597553
505,3878.86,0.4912028510449195
506,3881.58,0.44904344505211596
507,3884.3100000000004,0.42301023903728013
508,3887.04,0.4464974330224442
509,3889.77,0.4285700270076084
510,3892.5,0.4309212209927725
511,3895.23,0.4825987149779366
512,3897.95,0.48865930898513316
513,3900.6800000000003,0.5109844029702972
514,3903.41,0.5238480969554614
515,3906.1400000000003,0.5272226909406256
516,3908.87,0.5514841849257895
517,3911.5899999999997,0.5544742789329861
518,3914.32,0.5374598729181502
519,3917.05,0.5426879669033143
520,3919.7799999999997,0.5305978608884785
521,3922.51,0.5251750548736426
522,3925.23,0.5034879488808391
523,3927.9599999999996,0.44232024286600324
524,3930.69,0.40281433685116735
525,3933.42,0.3826739308363315
526,3936.15,0.41058732482149557
527,3938.87,0.4557659188286921
528,3941.6,0.4909552128138562
529,3944.33,0.5293260067990203
530,3947.06,0.5397828007841844
531,3949.7900000000004,0.5236813947693486
532,3952.52,0.5274155887545128
533,3955.24,0.5172923827617093
534,3957.9700000000003,0.49756677674687333
535,3960.7,0.44837817073203745
536,3963.43,0.3845825647172016
537,3966.1600000000003,0.3690621587023657
538,3968.88,0.3696999527095622
539,3971.6099999999997,0.3785800466947263
540,3974.34,0.41293944067989047
541,3977.0699999999997,0.45891803466505454
542,3979.8,0.4918941286502187
543,3982.52,0.5230468226574152
544,3985.25,0.5304883166425793
545,3987.98,0.5563268106277435
546,3990.71,0.5785411046129076
547,3993.4399999999996,0.5786512985980716
548,3996.1600000000003,0.5646827926052682
549,3998.89,0.5769930865904324
550,4001.6200000000003,0.5828297805755964
551,4004.35,0.5873109745607605
552,4007.08,0.5949735685459246
553,4009.81,0.5916532625310887
554,4012.53,0.6090568565382853
555,4015.2599999999998,0.6064834505234493
556,4017.9900000000002,0.6309386445086135
557,4020.72,0.6241325384937777
558,4023.4500000000003,0.6031896324789418
559,4026.17,0.5989869264861383
560,4028.9,0.6089458204713024
561,4031.63,0.5948361144564666
562,4034.36,0.5777939084416307
563,4037.0899999999997,0.5953882024267948
564,4039.81,0.6028600964339912
565,4042.54,0.5975478904191553
566,4045.2700000000004,0.5957767844043195
567,4048.0,0.5984320783894836
568,4050.73,0.5974908723746478
569,4053.4500000000003,0.5887234663818443
570,4056.18,0.5837985603670084
571,4058.91,0.5905759543521725
572,4061.6400000000003,0.5865086483373366
573,4064.37,0.5868953423225007
