,lambda (Angstroms),Total Flux (erg/s/cm^2/Angstrom)
0,100.1,4.581436e-09
1,101.96000000000001,6.123564e-09
2,104.09,7.482083e-09
3,104.712855,8.117955348440723e-09
4,106.03,9.462628e-09
5,108.0,1.20501e-08
6,110.01,1.861917e-08
7,113.86999999999999,2.760671e-08
8,117.88,3.854434e-08
9,120.22644299999999,1.0222249861794003e-07
10,120.9,1.205016e-07
11,124.86,1.64798e-07
12,126.89,1.887954e-07
13,128.06,2.041796e-07
14,131.05,2.465845e-07
15,131.96,2.870351e-07
16,134.1,3.236012e-07
17,136.91,4.206795e-07
18,138.038426,4.479129118596863e-07
19,140.1,4.976669e-07
20,143.03,1.02797e-06
21,147.04,2.084452e-06
22,151.16,2.517544e-06
23,155.03,3.055118e-06
24,158.489319,3.6214928303359303e-06
25,159.01,3.706741e-06
26,161.97,4.24597e-06
27,166.11999999999998,5.081714e-06
28,169.99,5.970406e-06
29,173.15,6.745106e-06
30,177.18,7.852422e-06
31,180.06,8.749876e-06
32,181.970086,9.360592640538766e-06
33,182.14999999999998,9.418117e-06
34,185.96,1.081462e-05
35,191.17,1.276385e-05
36,193.83,1.409322e-05
37,197.89000000000001,1.595779e-05
38,202.03,1.798896e-05
39,204.85,1.96321e-05
40,208.929613,2.1298517006165705e-05
41,210.10000000000002,2.177659e-05
42,215.99,2.648263e-05
43,220.0,2.94443e-05
44,223.06,3.147641e-05
45,227.21,3.491258e-05
46,229.84,5.55886e-05
47,234.11,9.247249e-05
48,239.88329199999998,0.00012484664275722466
49,240.11999999999998,0.000126174
50,246.28,0.0001297131
51,252.01000000000002,0.0001468975
52,257.28999999999996,0.0001282299
53,260.27000000000004,0.0001563054
54,263.89,0.0001717863
55,268.8,0.0001807054
56,273.8,0.0001892233
57,275.42287,0.00019177525510412572
58,278.89,0.0001972273
59,284.07,0.0002070075
60,290.02,0.0002084437
61,296.09,0.0002218042
62,300.9,0.0002218147
63,307.90999999999997,0.0002393245
64,316.227766,0.00025936817273080275
65,318.0,0.0002636388
66,327.66,0.0002805246
67,337.62,0.000294431
68,347.88,0.0003068759
69,356.8,0.0003221054
70,363.078055,0.0003352001877027868
71,365.95000000000005,0.0003411905
72,375.34,0.0003515445
73,384.97,0.0003515342
74,394.84,0.0003766896
75,404.96999999999997,0.0003935409
76,414.40999999999997,0.0004017692
77,416.86938299999997,0.00040325920281753246
78,422.11,0.0004064342
79,429.96,0.0004101763
80,440.99,0.0004265626
81,451.26,0.0004334987
82,459.65,0.0004364837
83,470.36,0.0004446027
84,478.630092,0.00045597525313910566
85,480.2,0.0004581341
86,490.26,0.0004581169
87,500.53000000000003,0.0004775075
88,506.32000000000005,0.0005571797
89,512.18,0.001122006
90,520.51,0.001158714
91,530.1800000000001,0.001205019
92,540.0400000000001,0.001164091
93,549.5408739999999,0.0015079753236904338
94,550.08,0.001527489
95,560.31,0.001811278
96,569.41,0.002032283
97,580.0,0.001967779
98,589.42,0.002371263
99,600.38,0.002426539
100,610.14,0.002844389
101,620.05,0.003303422
102,630.12,0.003564316
103,630.957344,0.0035724798586843753
104,640.36,0.003664153
105,649.27,0.004149341
106,658.3,0.004395289
107,664.39,0.004709724
108,675.1899999999999,0.004852723
109,684.58,0.004819379
110,695.7099999999999,0.006123092
111,705.38,0.005847647
112,715.2,0.007128192
113,724.43596,0.0073951183974974195
114,726.8199999999999,0.007464019
115,735.23,0.007780115
116,745.46,0.008749621
117,755.8299999999999,0.009353677
118,764.59,0.00993073
119,775.2199999999999,0.01086383
120,784.2,0.01177576
121,795.11,0.01233051
122,804.3100000000001,0.01291183
123,815.5,0.01342739
124,824.95,0.01475649
125,831.763771,0.013209678364935078
126,834.5,0.01258852
127,844.1600000000001,0.01573906
128,855.91,0.01636742
129,865.82,0.01761905
130,875.8399999999999,0.01887927
131,885.98,0.02051085
132,894.18,0.02167682
133,904.5400000000001,0.02197821
134,915.01,0.03396146
135,925.61,0.2306644
136,934.17,0.5104758
137,944.99,0.9953546
138,954.992586,1.3648910880696894
139,955.93,1.399523
140,964.77,1.651922
141,975.95,0.3061795
142,984.98,1.573904
143,994.0899999999999,1.603173
144,1005.6,2.18257
145,1014.91,2.032262
146,1024.3,0.8355724
147,1036.16,1.492722
148,1045.75,2.741524
149,1055.42,2.722624
150,1065.19,2.243773
151,1075.04,2.624252
152,1084.99,2.1577
153,1095.03,2.741551
154,1096.4782,2.728241284304047
155,1105.16,2.648451
156,1115.39,2.59402
157,1125.71,2.365764
158,1136.1200000000001,2.883979
159,1144.0,2.642273
160,1154.5900000000001,2.78592
161,1165.27,2.883904
162,1176.05,2.108556
163,1184.2,2.785966
164,1195.16,1.995198
165,1206.22,1.489284
166,1214.58,0.862946
167,1225.82,1.853466
168,1234.31,2.766833
169,1245.74,3.068837
170,1254.37,2.978323
171,1258.92541,2.829868034405678
172,1265.9799999999998,2.599968
173,1274.75,3.273293
174,1283.59,3.411865
175,1295.47,2.831224
176,1304.45,2.792309
177,1313.49,3.372761
178,1325.6399999999999,3.250785
179,1334.83,2.951098
180,1344.08,3.404049
181,1356.52,3.311144
182,1365.9199999999998,3.01976
183,1375.3899999999999,3.147706
184,1384.92,3.191477
185,1394.52,2.837834
186,1404.1899999999998,2.944288
187,1413.9199999999998,3.005928
188,1423.72,3.054849
189,1433.59,3.040807
190,1443.5300000000002,3.191473
191,1445.43977,3.2169348794864834
192,1446.8600000000001,3.23587
193,1453.5400000000002,3.162152
194,1463.61,2.957904
195,1473.76,2.944293
196,1483.97,2.978321
197,1494.26,3.026754
198,1504.6200000000001,2.890521
199,1511.5600000000002,2.62421
200,1518.54,2.779569
201,1525.55,2.71006
202,1536.12,2.409759
203,1546.77,2.624217
204,1553.91,2.483101
205,1564.68,2.517526
206,1575.53,2.672878
207,1586.45,2.773207
208,1593.77,2.844399
209,1604.8200000000002,2.76682
210,1615.9399999999998,2.773219
211,1623.4,2.642273
212,1634.65,2.785958
213,1645.99,2.818231
214,1653.5800000000002,2.618049
215,1659.58691,2.7401596260322822
216,1665.0400000000002,2.851012
217,1672.73,2.576185
218,1676.59,2.857578
219,1684.33,2.951076
220,1696.0,2.792341
221,1703.8300000000002,2.697522
222,1715.6399999999999,2.58808
223,1723.5600000000002,2.570223
224,1735.5100000000002,2.716238
225,1743.52,2.654377
226,1755.6,2.811887
227,1763.7,2.588092
228,1775.93,2.666707
229,1784.1299999999999,2.697524
230,1796.49,2.844411
231,1804.79,2.824846
232,1813.1200000000001,2.648427
233,1825.69,2.685199
234,1834.11,2.594028
235,1846.8300000000002,2.404222
236,1855.3500000000001,2.421036
237,1863.91,2.483093
238,1876.83,2.642284
239,1885.5,2.465863
240,1894.2,2.371293
241,1902.9399999999998,2.488834
242,1905.46072,2.4747806515602724
243,1916.13,2.415298
244,1924.98,2.376826
245,1933.8600000000001,2.426555
246,1942.79,2.534941
247,1956.26,2.387658
248,1965.2900000000002,2.570211
249,1974.36,2.630152
250,1983.47,2.500318
251,1997.22,2.432077
252,2006.4399999999998,2.48308
253,2015.7,2.421033
254,2025.0000000000002,2.50606
255,2034.3500000000001,2.404237
256,2043.74,2.471616
257,2053.17,2.3713
258,2062.65,2.387663
259,2072.17,2.529208
260,2076.95,2.426548
261,2086.54,2.488811
262,2096.17,2.376814
263,2105.84,2.393186
264,2115.56,2.409767
265,2125.33,2.443347
266,2135.14,2.296055
267,2144.99,2.33877
268,2154.8900000000003,2.404244
269,2164.84,2.338769
270,2174.83,2.317308
271,2184.87,2.290743
272,2187.7616199999998,2.3169283529256677
273,2194.96,2.382114
274,2205.09,2.317307
275,2215.27,2.228248
276,2225.49,2.167684
277,2235.7599999999998,2.291177
278,2246.08,2.198707
279,2256.4500000000003,2.134523
280,2266.87,2.164702
281,2277.33,2.215919
282,2282.58,2.257371
283,2293.12,2.146417
284,2303.7,2.151951
285,2314.33,2.079501
286,2325.02,1.726163
287,2335.75,1.973359
288,2346.53,1.911294
289,2357.36,2.034474
290,2362.79,1.90333
291,2373.7,1.952714
292,2384.6600000000003,1.831315
293,2395.66,1.927043
294,2406.72,1.862153
295,2412.27,1.892701
296,2423.4,1.973392
297,2434.59,1.902565
298,2445.83,1.988207
299,2457.1200000000003,1.957009
300,2462.7799999999997,1.948317
301,2474.15,1.887062
302,2485.57,1.936048
303,2497.04,1.832529
304,2502.8,1.995797
305,2511.88643,1.871333363301303
306,2514.3500000000004,1.837588
307,2520.15,1.87635
308,2525.96,1.80459
309,2537.62,1.813474
310,2543.47,1.788868
311,2555.21,1.882402
312,2567.0,1.852868
313,2572.92,1.931595
314,2584.79,1.918889
315,2596.7200000000003,1.897531
316,2602.7099999999996,1.841832
317,2614.72,1.821334
318,2626.79,1.881605
319,2632.85,1.908084
320,2645.0,2.031129
321,2657.21,2.045847
322,2663.34,1.918402
323,2675.63,1.977353
324,2687.98,1.973439
325,2694.18,1.897979
326,2706.6099999999997,1.933884
327,2712.85,1.859965
328,2725.37,1.856292
329,2737.9500000000003,1.9266
330,2744.26,1.737249
331,2756.9300000000003,1.761986
332,2763.29,1.807488
333,2776.04,1.871638
334,2782.44,1.804239
335,2795.28,1.51859
336,2808.19,1.609099
337,2814.66,1.856328
338,2827.65,1.900227
339,2834.1699999999996,1.840261
340,2847.25,1.803136
341,2853.82,1.766442
342,2866.99,1.867442
343,2873.6,1.859196
344,2884.0315,1.8597057746606336
345,2886.86,1.859844
346,2893.52,1.847333
347,2906.87,1.948509
348,2927.02,1.892038
349,2947.3100000000004,1.862757
350,2967.74,1.876668
351,2988.31,1.873361
352,3009.0299999999997,1.883001
353,3029.8799999999997,1.879695
354,3050.89,1.872078
355,3072.03,1.868794
356,3093.3300000000004,1.869828
357,3107.61,1.861917
358,3129.15,1.837386
359,3150.8399999999997,1.838408
360,3172.68,1.835227
361,3187.32,1.769516
362,3209.42,1.803424
363,3231.6600000000003,1.751251
364,3246.58,1.809344
365,3269.08,1.839796
366,3291.7400000000002,1.828192
367,3306.94,1.820495
368,3311.31121,1.817111752207733
369,3322.2000000000003,1.808684
370,3329.86,1.838436
371,3337.54,1.821939
372,3345.23,1.797312
373,3352.9399999999996,1.772992
374,3360.67,1.785644
375,3368.4199999999996,1.785977
376,3376.18,1.674802
377,3383.9700000000003,1.71811
378,3391.77,1.80774
379,3399.59,1.850228
380,3407.42,1.735055
381,3415.28,1.779922
382,3423.1499999999996,1.847085
383,3431.0400000000004,1.847466
384,3438.9500000000003,1.822492
385,3446.88,1.701195
386,3454.82,1.789959
387,3462.79,1.686279
388,3470.7700000000004,1.741876
389,3478.77,1.663838
390,3486.79,1.730592
391,3494.83,1.715081
392,3502.8900000000003,1.767572
393,3510.96,1.723708
394,3519.05,1.740034
395,3527.17,1.692949
396,3535.3,1.752823
397,3543.4500000000003,1.814801
398,3551.61,1.802666
399,3559.8,1.782411
400,3568.0099999999998,1.766448
401,3575.97,1.326535
402,3578.6299999999997,1.598971
403,3581.3,1.97807
404,3583.96,1.814634
405,3586.63,1.616098
406,3589.29,1.643095
407,3591.96,1.716289
408,3594.62,1.709089
409,3597.2900000000004,1.690402
410,3599.96,1.608677
411,3602.6200000000003,1.57
412,3605.29,1.628593
413,3607.95,1.747215
414,3610.62,1.944637
415,3613.2799999999997,1.763135
416,3615.95,1.677393
417,3618.6099999999997,1.773338
418,3621.28,1.76141
419,3623.94,1.929002
420,3626.61,1.770868
421,3629.27,1.545158
422,3631.94,1.520584
423,3634.6,1.683181
424,3637.2700000000004,1.822921
425,3639.94,1.881917
426,3642.6,1.678098
427,3645.27,1.880429
428,3647.93,1.871445
429,3650.6,1.720028
430,3653.2599999999998,1.80575
431,3655.93,1.739412
432,3658.5899999999997,1.927323
433,3661.26,1.826235
434,3663.92,1.944136
435,3666.59,1.77716
436,3669.25,1.819482
437,3671.92,1.688129
438,3674.5899999999997,1.657689
439,3677.2500000000005,1.696822
440,3679.92,1.672079
441,3682.58,1.670022
442,3685.25,1.607957
443,3687.91,1.621181
444,3690.58,1.718987
445,3693.24,1.762308
446,3695.91,1.666342
447,3698.5699999999997,1.72911
448,3701.2400000000002,1.771486
449,3703.9,1.80809
450,3706.57,1.786959
451,3709.24,1.859834
452,3711.9,1.856566
453,3714.5699999999997,1.919855
454,3717.2300000000005,2.066491
455,3719.9,2.478619
456,3722.56,3.908586
457,3725.23,5.72854
458,3727.89,6.401455
459,3730.56,5.547884
460,3733.22,3.869907
461,3735.89,2.326019
462,3738.5499999999997,1.997313
463,3741.2200000000003,1.951187
464,3743.8900000000003,1.975306
465,3746.55,1.983792
466,3749.22,1.865701
467,3751.88,1.863942
468,3754.5499999999997,2.160024
469,3757.2100000000005,2.17257
470,3759.88,2.236326
471,3762.54,2.246534
472,3765.21,2.141322
473,3767.87,2.169384
474,3770.54,1.927382
475,3773.2,1.933318
476,3775.87,2.138561
477,3778.5400000000004,2.325376
478,3781.2000000000003,2.55705
479,3783.87,2.708583
480,3786.53,2.439942
481,3789.2,2.607629
482,3791.86,2.34005
483,3794.5299999999997,2.201257
484,3797.1899999999996,1.892423
485,3799.86,1.98872
486,3801.8939600000003,1.9874399815639097
487,3802.52,1.987046
488,3805.19,2.459068
489,3807.85,2.628043
490,3810.52,2.556624
491,3813.19,2.569583
492,3815.85,2.812521
493,3818.5200000000004,2.62293
494,3821.1800000000003,2.812097
495,3823.85,2.349608
496,3826.51,2.395522
497,3829.18,2.094754
498,3831.84,1.968533
499,3834.5099999999998,1.855947
500,3837.1699999999996,1.983199
501,3839.84,1.967998
502,3842.5,2.045091
503,3845.17,2.175968
504,3847.84,2.585522
505,3850.5,2.719642
506,3853.17,2.80465
507,3855.83,2.818473
508,3858.5000000000005,2.975532
509,3861.1600000000003,3.022724
510,3863.83,2.960443
511,3866.4900000000002,2.945148
512,3869.16,3.002527
513,3871.82,2.958752
514,3874.49,2.775324
515,3877.1499999999996,2.606577
516,3879.8199999999997,2.587017
517,3882.48,2.275017
518,3885.15,2.23973
519,3887.82,2.02487
520,3890.48,2.107213
521,3893.15,2.133882
522,3895.81,2.213164
523,3898.4799999999996,2.603166
524,3901.1400000000003,2.729209
525,3903.81,2.743017
526,3906.4700000000003,2.739199
527,3909.14,2.794453
528,3911.8,2.770019
529,3914.47,2.967035
530,3917.1299999999997,3.023579
531,3919.7999999999997,2.83505
532,3922.4700000000003,3.050981
533,3925.13,2.775965
534,3927.8,2.610391
535,3930.46,2.658007
536,3933.13,2.266294
537,3935.79,2.401049
538,3938.4599999999996,2.832071
539,3941.1200000000003,2.687339
540,3943.79,2.878405
541,3946.4500000000003,2.952164
542,3949.12,2.778938
543,3951.7799999999997,2.856948
544,3954.45,2.761511
545,3957.12,2.789772
546,3959.7799999999997,2.691162
547,3962.4500000000003,2.181065
548,3965.11,1.962432
549,3967.78,1.877646
550,3970.44,1.943857
551,3973.11,2.166189
552,3975.77,2.222092
553,3978.4399999999996,2.327294
554,3981.1000000000004,2.517309
555,3983.77,2.756622
556,3986.4300000000003,2.742814
557,3989.1,3.029734
558,3991.77,2.988708
559,3994.43,3.213369
560,3997.1,2.987433
561,3999.7599999999998,2.911991
562,4002.4300000000003,3.072875
563,4005.09,2.950886
564,4007.76,2.88308
565,4010.42,3.040791
566,4013.09,2.890732
567,4015.75,2.959815
568,4018.4199999999996,3.044398
569,4021.0800000000004,2.978732
570,4023.75,3.043337
571,4026.42,3.109854
572,4029.08,3.012732
573,4031.75,3.043544
574,4034.41,3.016134
575,4037.08,3.291364
576,4039.74,3.150672
577,4042.4100000000003,3.060336
578,4045.07,3.092863
579,4047.7400000000002,3.082229
580,4050.4,2.975755
581,4053.0699999999997,3.153643
582,4055.73,3.083726
583,4058.3999999999996,3.096684
584,4061.07,2.948751
585,4063.73,2.990416
586,4066.4,2.897955
587,4069.06,2.973839
588,4071.73,2.935575
589,4074.39,2.768315
590,4077.06,2.810817
591,4079.72,2.869485
592,4082.3900000000003,2.701998
593,4085.05,2.752802
594,4087.7200000000003,2.756196
595,4090.38,2.465663
596,4093.0499999999997,2.422725
597,4095.72,2.410392
598,4098.38,2.24143
599,4101.05,2.360022
600,4103.71,2.390633
601,4106.38,2.197431
602,4109.04,2.241007
603,4111.71,2.403168
604,4114.37,2.503493
605,4117.04,2.592966
606,4119.7,2.743662
607,4122.37,2.751308
608,4125.03,2.696268
609,4127.7,2.791053
610,4130.37,2.780208
611,4133.03,2.79403
612,4135.7,2.817403
613,4138.36,2.864807
614,4141.03,2.844822
615,4143.69,2.790631
616,4146.36,2.938552
617,4149.0199999999995,2.980217
618,4151.6900000000005,2.900721
619,4154.35,2.811887
620,4157.02,2.877343
621,4159.68,2.891165
622,4162.35,2.95237
623,4165.01,2.898818
624,4167.68,2.809332
625,4170.349999999999,2.808264
626,4173.01,2.86842
627,4175.68,2.930049
628,4178.34,2.90434
629,4181.01,2.820168
630,4183.67,2.787019
631,4186.34,2.875429
632,4189.0,2.90838
633,4191.67,2.872667
634,4194.33,2.913057
635,4197.0,2.915388
636,4199.66,2.872038
637,4202.33,2.803381
638,4205.0,2.78616
639,4207.66,2.911139
640,4210.33,3.044394
641,4212.99,2.95216
642,4215.66,2.90157
643,4218.32,2.903703
644,4220.99,2.879254
645,4223.65,2.874161
646,4226.32,2.897959
647,4228.98,2.8765
648,4231.650000000001,2.794454
649,4234.31,2.856735
650,4236.9800000000005,2.924103
651,4239.65,2.910282
652,4242.31,2.898387
653,4244.98,2.813791
654,4247.639999999999,2.837177
655,4250.3099999999995,2.84971
656,4252.97,2.821025
657,4255.64,2.840997
658,4258.3,2.834629
659,4260.97,2.886907
660,4263.63,2.885639
661,4266.3,2.866292
662,4268.96,2.768106
663,4271.63,2.721767
664,4274.3,2.759167
665,4276.96,2.828037
666,4279.63,2.879465
667,4282.29,2.728994
668,4284.96,2.722187
669,4287.62,2.804659
670,4290.29,2.795089
671,4292.95,2.781706
672,4295.62,2.736004
673,4298.28,2.516459
674,4300.95,2.492224
675,4303.61,2.546003
676,4306.28,2.576178
677,4308.95,2.519212
678,4311.610000000001,2.483724
679,4314.28,2.639084
680,4316.9400000000005,2.667146
681,4319.61,2.592114
682,4322.2699999999995,2.598497
683,4324.94,2.541956
684,4327.599999999999,2.42039
685,4330.2699999999995,2.444615
686,4332.93,2.31646
687,4335.6,2.50115
688,4338.26,2.67969
689,4340.93,2.78659
690,4343.6,2.56767
691,4346.26,2.33686
692,4348.929999999999,2.404229
693,4351.59,2.307956
694,4354.26,2.416133
695,4356.92,2.578731
696,4359.59,2.601254
697,4362.25,2.696903
698,4364.92,2.838873
699,4365.15832,2.838702233864662
700,4367.58,2.836967
701,4370.25,2.715177
702,4372.91,2.666512
703,4375.58,2.556836
704,4378.25,2.642484
705,4380.91,2.683935
706,4383.58,2.645672
707,4386.24,2.598283
708,4388.91,2.504123
709,4391.570000000001,2.689251
710,4394.24,2.786162
711,4396.900000000001,2.689889
712,4399.57,2.690309
713,4402.23,2.677988
714,4404.9,2.596793
715,4407.5599999999995,2.67395
716,4410.23,2.765761
717,4412.889999999999,2.709233
718,4415.56,2.722829
719,4418.2300000000005,2.736001
720,4420.89,2.661194
721,4423.56,2.695407
722,4426.22,2.667996
723,4428.889999999999,2.677342
724,4431.55,2.578306
725,4434.22,2.55067
726,4436.88,2.655884
727,4439.55,2.762998
728,4442.21,2.738987
729,4444.88,2.825485
730,4447.54,2.734525
731,4450.21,2.72708
732,4452.88,2.754067
733,4455.54,2.738345
734,4458.21,2.703909
735,4460.87,2.604447
736,4463.54,2.582338
737,4466.2,2.750249
738,4468.87,2.788501
739,4471.530000000001,2.687127
740,4474.2,2.762784
741,4476.86,2.772356
742,4479.53,2.690735
743,4482.19,2.805088
744,4484.86,2.672883
745,4487.53,2.68648
746,4490.19,2.70944
747,4492.860000000001,2.744504
748,4495.52,2.676285
749,4498.1900000000005,2.808691
750,4500.85,2.683087
751,4503.5199999999995,2.793177
752,4506.18,2.798072
753,4508.849999999999,2.77745
754,4511.51,2.744513
755,4514.18,2.675857
756,4516.84,2.62613
757,4519.51,2.713265
758,4522.18,2.725161
759,4524.84,2.628888
760,4527.51,2.768733
761,4530.17,2.65078
762,4532.84,2.553858
763,4535.5,2.663109
764,4538.17,2.656089
765,4540.83,2.677987
766,4543.5,2.650989
767,4546.16,2.623365
768,4548.83,2.617409
769,4551.490000000001,2.644833
770,4554.16,2.491375
771,4556.83,2.534515
772,4559.49,2.545573
773,4562.16,2.688818
774,4564.82,2.653331
775,4567.49,2.531116
776,4570.15,2.689251
777,4572.820000000001,2.642274
778,4575.4800000000005,2.601473
779,4578.150000000001,2.590628
780,4580.81,2.719858
781,4583.48,2.616772
782,4586.14,2.628892
783,4588.8099999999995,2.712202
784,4591.48,2.682441
785,4594.14,2.746421
786,4596.81,2.861187
787,4599.47,2.718367
788,4602.14,2.63526
789,4604.8,2.592971
790,4607.47,2.682231
791,4610.13,2.714969
792,4612.8,2.670543
793,4615.46,2.731548
794,4618.13,2.584466
795,4620.79,2.594248
796,4623.46,2.712627
797,4626.13,2.642697
798,4628.79,2.589993
799,4631.46,2.532603
800,4634.12,2.520494
801,4636.79,2.630796
802,4639.45,2.696264
803,4642.12,2.636961
804,4644.78,2.631016
805,4647.45,2.573625
806,4650.11,2.627404
807,4652.780000000001,2.680108
808,4655.4400000000005,2.588297
809,4658.11,2.643977
810,4660.78,2.739827
811,4663.44,2.61486
812,4666.11,2.66884
813,4668.7699999999995,2.636327
814,4671.44,2.599128
815,4674.1,2.71348
816,4676.77,2.710074
817,4679.43,2.715181
818,4682.1,2.694772
819,4684.76,2.700942
820,4687.43,2.664167
821,4690.09,2.628892
822,4692.76,2.627399
823,4695.42,2.702644
824,4698.09,2.633989
825,4700.76,2.690944
826,4703.42,2.672034
827,4706.09,2.644824
828,4708.75,2.758325
829,4711.42,2.716662
830,4714.08,2.611037
831,4716.75,2.644613
