,lambda (Angstroms),Total Flux (erg/s/cm^2/Angstrom)
0,101.98,0.0038183303868157756
1,104.11,0.00454955337561426
2,104.712855,0.0047565117957641566
3,106.05,0.004373499481944149
4,108.02000000000001,0.003809211945284999
5,110.03,0.003233466793715374
6,113.9,0.0021249425467116017
7,117.9,0.0009791810512602517
8,120.22644299999999,0.00031279385050730246
9,120.92,0.00030360141299333535
10,124.88000000000001,0.0002511153834119481
11,126.91,0.00022420966662053482
12,128.09,0.00020856989051987253
13,131.07,0.000169072829656552
14,131.98,0.00015701164891531523
15,134.12,0.00012864798896572059
16,136.93,9.140412403275737e-05
17,138.038426,7.67129960368376e-05
18,140.12,7.573861489932417e-05
19,143.06,7.436248339335822e-05
20,147.06,7.249033662421137e-05
21,150.84,7.072106708053658e-05
22,155.06,6.874589440751763e-05
23,158.489319,6.714087667124383e-05
24,159.04000000000002,6.674485269563735e-05
25,162.0,6.461621514879626e-05
26,166.15,6.163190965514404e-05
27,170.02,5.8849091486976786e-05
28,173.18,5.657689613664642e-05
29,176.80999999999997,5.3966994172466313e-05
30,180.10000000000002,5.16015506665179e-05
31,181.970086,5.0257102492984454e-05
32,182.18,5.030575023698491e-05
33,185.99999999999997,5.1191314030647255e-05
34,191.20999999999998,5.239942315536738e-05
35,193.87,5.3016795321650594e-05
36,197.93,5.3959035681977605e-05
37,202.07,5.492036563019281e-05
38,204.88,5.557342939726643e-05
39,208.929613,5.651405144656453e-05
40,210.14000000000001,5.82162900024552e-05
41,216.03,6.650373034370412e-05
42,220.04,7.214654658679549e-05
43,223.1,7.645243259613705e-05
44,227.25,8.229403196462315e-05
45,229.88000000000002,8.602607989310955e-05
46,234.16,9.211880889231924e-05
47,239.88329199999998,0.00010023643819526442
48,240.16,9.991960682042185e-05
49,245.76000000000002,9.346657433348084e-05
50,252.06,8.623902139817225e-05
51,256.75,8.07958159241092e-05
52,259.71999999999997,7.743599509746376e-05
53,263.94,7.261218879159034e-05
54,268.84999999999997,6.69867773451832e-05
55,273.85,6.125922942827154e-05
56,275.42287,5.945892039068238e-05
57,278.94,6.385306243864159e-05
58,284.12,7.032957028161037e-05
59,290.07,7.774392205123666e-05
60,296.15,8.5374375566922e-05
61,300.96000000000004,9.139380327110738e-05
62,307.97,0.00010020638540859987
63,316.227766,0.00011060789843424232
64,318.06,0.00010899193011026542
65,327.72,0.00010047982790327432
66,337.68,9.170657122401647e-05
67,347.94,8.267979407249181e-05
68,356.87000000000006,7.485618134801659e-05
69,363.078055,6.943935252147044e-05
70,366.02000000000004,7.161504249516483e-05
71,375.40999999999997,7.852802001381e-05
72,385.03999999999996,8.556552470865063e-05
73,394.92,9.300094112869484e-05
74,405.05,0.00010055567327394255
75,413.53000000000003,0.00010688602083284686
76,416.86938299999997,0.00010934965196800062
77,422.19,0.00011177095983303336
78,430.04,0.00011539625236980125
79,441.07,0.00012054868151254643
80,451.34000000000003,0.00012527633422115868
81,459.73,0.00012917608654007363
82,470.44,0.00013413966855265754
83,478.630092,0.00013800137351032562
84,480.29,0.00013715750460252966
85,490.35,0.0001318953750750635
86,499.46999999999997,0.00012735037660483573
87,506.42,0.00012383886942631783
88,512.28,0.00012245076243119342
89,519.41,0.00011901137190128948
90,530.28,0.00011359766729258598
91,540.14,0.00010837833926665988
92,549.5408739999999,0.00010480585604229954
93,550.18,0.00010480263238176732
94,560.41,0.00010470854434601302
95,569.52,0.00010466275383714483
96,580.11,0.00010305560909632
97,589.53,0.00010390554864697441
98,600.49,0.00010293541784816043
99,610.25,0.00010289045939958154
100,620.16,0.00010522645065722329
101,630.24,0.00010568040291524838
102,630.957344,0.00010564999794033625
103,640.4799999999999,0.0001092918405903302
104,649.39,0.00011528742044284322
105,658.43,0.00011999872599466335
106,664.52,0.0001240853160622059
107,675.3199999999999,0.0001285564080046459
108,684.71,0.00013170204505460066
109,694.24,0.00014457543670380927
110,705.52,0.00014696758584369104
111,715.33,0.00015985159669140736
112,724.43596,0.0001658731305037785
113,725.28,0.00016634254312166465
114,735.37,0.0001718462601459551
115,745.6,0.0001831661243836648
116,754.24,0.0001915242609832554
117,764.73,0.00019947235433160092
118,775.37,0.00021219060255146715
119,784.34,0.00022387443186840323
120,795.26,0.000233385254515108
121,804.46,0.0002432221999683758
122,815.66,0.0002526181770419192
123,825.1,0.00027067882628962006
124,831.763771,0.00025659392647073547
125,834.65,0.0002492197996269772
126,844.3199999999999,0.0002841438706043058
127,854.1,0.0002906124648295668
128,865.9799999999999,0.00030464967560626423
129,876.01,0.00032094824084955335
130,884.11,0.00034249076183366525
131,894.35,0.00035803119873209797
132,904.7099999999999,0.00036162003371918434
133,915.1800000000001,0.000516821991954203
134,925.78,0.0031332310231185962
135,934.34,0.007048345486775879
136,945.1600000000001,0.013976444264436137
137,953.9100000000001,0.020302457250067123
138,954.992586,0.020632951950265304
139,964.9499999999999,0.023675313633838277
140,973.88,0.003965883643224609
141,985.1600000000001,0.021548517286659977
142,994.28,0.023083261211139634
143,1005.79,0.03387234085705639
144,1015.1,0.03287521569662938
145,1024.49,0.013906356710978502
146,1033.97,0.023780683421950777
147,1045.94,0.04661935107283033
148,1055.6200000000001,0.046726198220742955
149,1065.3899999999999,0.03773217106527872
150,1075.24,0.045663290084590635
151,1085.19,0.03679004432237272
152,1095.23,0.04937499425677796
153,1096.4782,0.049236710579837036
154,1105.37,0.0482507138871557
155,1115.6000000000001,0.047152842934639914
156,1125.92,0.04320651851333368
157,1133.72,0.05538545121816035
158,1144.21,0.05098346135580546
159,1154.8,0.05500162652812784
160,1165.49,0.05772120673512748
161,1176.27,0.04097348347333665
162,1184.42,0.05732197379953376
163,1195.38,0.03976446360016202
164,1203.67,0.02895376297490729
165,1214.81,0.018540245837954623
166,1226.05,0.04003507373567922
167,1234.55,0.06226255168324676
168,1245.97,0.06969541264339042
169,1254.6,0.0674828911360384
170,1258.92541,0.06413954015222417
171,1266.21,0.05851004136701186
172,1274.99,0.07676287482779652
173,1283.83,0.08131111892726535
174,1295.7099999999998,0.06534250538673252
175,1304.69,0.06519243097646443
176,1313.7299999999998,0.08243734720488052
177,1325.89,0.07964478664487386
178,1335.08,0.07147962447000039
179,1344.33,0.0857283129338111
180,1353.65,0.08397113214275335
181,1366.1799999999998,0.07588141552129912
182,1375.6499999999999,0.08056231632695182
183,1385.18,0.0824378977712887
184,1394.78,0.07297280996075711
185,1404.4499999999998,0.07676476289535708
186,1414.1899999999998,0.07872933657508857
187,1423.99,0.08149351089350425
188,1433.8600000000001,0.08168841595705147
189,1440.48,0.08672189642520572
190,1445.43977,0.08807381098173214
191,1447.13,0.08853452432119456
192,1453.8100000000002,0.08672240400043421
193,1463.8799999999999,0.0809384339659946
194,1474.03,0.08131366464627642
195,1484.25,0.0833959559519395
196,1494.54,0.08553483788298381
197,1504.9,0.08187556043940938
198,1511.8400000000001,0.0733147824414937
199,1515.33,0.07891062362121622
200,1525.83,0.0769395974284043
201,1536.41,0.06779490195031382
202,1543.4999999999998,0.07553690529250083
203,1554.2,0.0718079408864925
204,1564.97,0.07331467710586541
205,1575.82,0.07873080403995977
206,1586.74,0.08320352159943538
207,1594.07,0.08573095708578668
208,1605.12,0.08455712580668463
209,1616.24,0.08533558515296381
210,1623.6999999999998,0.08131480180073745
211,1634.96,0.08711952239777915
212,1646.29,0.0889463836202021
213,1653.89,0.08263403151873823
214,1659.58691,0.08679657167592349
215,1665.36,0.0910150990714015
216,1673.0400000000002,0.08169058014117536
217,1676.9,0.09207173198093148
218,1684.64,0.09662802696531293
219,1696.3200000000002,0.09122564900892734
220,1704.15,0.08813663986522019
221,1715.96,0.08436707039048441
222,1723.88,0.0845614671186887
223,1735.83,0.09060355677803732
224,1743.8400000000001,0.08895182937815302
225,1755.93,0.09552854817158606
226,1764.03,0.08773137664361316
227,1776.26,0.09081525457113063
228,1784.46,0.09293294956750375
229,1796.8300000000002,0.09957199662910565
230,1805.1200000000001,0.09934472749739016
231,1813.46,0.09250463162784771
232,1826.03,0.09488003173814163
233,1834.45,0.09165976108807598
234,1842.92,0.08476411370018333
235,1855.7,0.08574371751160388
236,1864.26,0.08875799599562265
237,1872.8700000000001,0.09620246774181442
238,1885.8500000000001,0.08937100460192698
239,1894.5500000000002,0.08634399222003017
240,1903.3,0.09166359310030638
241,1905.46072,0.09122130085229126
242,1916.4900000000002,0.08896199651571467
243,1925.3400000000001,0.08773813223473242
244,1934.22,0.0901963354307638
245,1943.1499999999999,0.09509787442181789
246,1956.6200000000001,0.08978484160093304
247,1965.6499999999999,0.09843605218203252
248,1974.73,0.1014278685581547
249,1983.8400000000001,0.09641338241129048
250,1993.0,0.09422502205944898
251,2006.81,0.0970857606447185
252,2016.0800000000002,0.09443809104192692
253,2025.3799999999999,0.09888201891614898
254,2034.7299999999998,0.09465294258539371
255,2044.1200000000001,0.09865842289065663
256,2053.56,0.09487277899094224
257,2063.04,0.095746501727246
258,2072.56,0.10259284109956793
259,2077.34,0.09865550910373797
260,2086.93,0.10235533258909169
261,2096.56,0.09729975271046355
262,2106.2400000000002,0.09842335862685811
263,2115.96,0.09979085117927083
264,2125.7200000000003,0.10141527036770172
265,2135.54,0.09486574451015983
266,2145.39,0.09796913612963158
267,2155.3,0.10164098270313056
268,2165.24,0.09864847675364316
269,2175.24,0.098188655758183
270,2185.28,0.097514461398741
271,2187.7616199999998,0.0987029462161408
272,2195.37,0.1023478628522565
273,2205.5,0.09978640208839754
274,2215.68,0.09530143467713553
275,2225.9100000000003,0.09291961061847046
276,2236.1800000000003,0.09978789924188294
277,2246.5,0.09574117121789237
278,2256.87,0.09227604654649876
279,2267.29,0.09442935522770209
280,2272.52,0.09729754590934252
281,2283.01,0.10024933928418157
282,2293.54,0.09506373534109817
283,2304.13,0.09591070542113111
284,2314.77,0.09198802885376099
285,2325.45,0.07390046496846843
286,2336.18,0.08619180443577282
287,2346.97,0.08323427792619352
288,2352.38,0.09061594067718298
289,2363.23,0.08338857819072001
290,2374.14,0.08648611972737341
291,2385.1,0.08013293461662374
292,2396.11,0.08563371285847102
293,2407.17,0.08250944445291523
294,2412.72,0.08460674659117612
295,2423.86,0.09041229354977545
296,2435.04,0.08711510319045233
297,2446.28,0.09224087685424555
298,2457.58,0.09115031454115512
299,2463.24,0.09072071405512928
300,2474.6099999999997,0.08761092643567456
301,2486.0299999999997,0.08961879216881678
302,2497.51,0.08516111192507533
303,2503.2700000000004,0.0946536181442434
304,2511.88643,0.08710159286302273
305,2514.8199999999997,0.08453013976390017
306,2520.62,0.08627960924887908
307,2526.4300000000003,0.08314754847434931
308,2532.25,0.0844810574403109
309,2543.94,0.08367544407469078
310,2555.6800000000003,0.09003594941152739
311,2567.4799999999996,0.08775053319131204
312,2573.4,0.09313857956218706
313,2585.2799999999997,0.09224955126590247
314,2597.2099999999996,0.09115914167207459
315,2603.2,0.08804781622638899
316,2615.21,0.08700665455649186
317,2627.28,0.09127688132954277
318,2633.34,0.09490112406729659
319,2645.49,0.10329601876427826
320,2657.7099999999996,0.10614270164469931
321,2663.83,0.09634497282540119
322,2676.13,0.10084432362975299
323,2682.3,0.10152416351291157
324,2694.68,0.09646863224119413
325,2707.12,0.09958598941242475
326,2713.36,0.09443374747902272
327,2725.88,0.09396111257418407
328,2732.1600000000003,0.09905109960274744
329,2744.78,0.08623906210282221
330,2757.4500000000003,0.08861337330535372
331,2763.8,0.09255755851735648
332,2776.56,0.09687611738431005
333,2782.96,0.09102244129876953
334,2795.7999999999997,0.07396122808965386
335,2802.25,0.07923111070657005
336,2815.18,0.09630623516187646
337,2828.1800000000003,0.10173567780062226
338,2834.7,0.09848596860097786
339,2847.7799999999997,0.09554169916365442
340,2854.35,0.09143716866646673
341,2867.52,0.10160295689356535
342,2874.1299999999997,0.10251958535834303
343,2884.0315,0.10213557999213109
344,2887.4,0.10200502661686851
345,2894.06,0.10221342307980702
346,2907.4100000000003,0.11125461598975131
347,2927.5699999999997,0.10715730528297057
348,2947.86,0.10561599450714809
349,2968.29,0.10775478365697296
350,2988.8700000000003,0.10842847272713428
351,3009.5899999999997,0.11011516172294296
352,3030.4500000000003,0.11054565064439899
353,3051.45,0.11097683949150239
354,3072.61,0.11192802825363132
355,3086.79,0.11290702072277066
356,3108.18,0.11360880936274882
357,3129.73,0.11223359791775255
358,3151.4199999999996,0.11292838639840362
359,3173.2700000000004,0.11388617479408024
360,3187.92,0.10846266701360713
361,3210.0099999999998,0.11270565528182207
362,3232.27,0.10755964345975166
363,3247.1800000000003,0.11545583554119508
364,3269.69,0.12024712358635209
365,3292.3599999999997,0.11960061154653465
366,3307.55,0.11926820347927278
367,3311.31121,0.11932108503032259
368,3322.82,0.11948278463987988
369,3330.48,0.12223290687248851
370,3338.16,0.1167051289020491
371,3345.8500000000004,0.12077465083008569
372,3353.57,0.11557257245355025
373,3361.2999999999997,0.11769069397549081
374,3369.05,0.11685011529438333
375,3376.81,0.11003843651175185
376,3384.6,0.11308635742454835
377,3392.3999999999996,0.12198177823582083
378,3400.22,0.12739759884404528
379,3408.06,0.11832221924922175
380,3415.91,0.12021123955287419
381,3423.79,0.1273004595519546
382,3431.68,0.126391079449511
383,3439.59,0.12548789914401934
384,3447.52,0.11310711863547972
385,3455.47,0.11922423792389206
386,3463.4300000000003,0.11253045711078039
387,3471.42,0.12082107599309669
388,3479.4199999999996,0.11169689477388899
389,3487.44,0.11800911335163325
390,3495.4800000000005,0.1171614317263295
391,3503.54,0.12293204989797774
392,3511.62,0.12065386786657796
393,3519.7099999999996,0.12118178573365415
394,3527.8199999999997,0.11463380339768234
395,3535.96,0.1222299207571385
396,3544.1099999999997,0.12707683801507064
397,3552.2799999999997,0.12850745506995478
398,3560.47,0.12642367192179088
399,3568.6800000000003,0.11768138857057897
400,3576.9,0.11418180511784304
401,3585.1499999999996,0.10876562136053508
402,3593.4100000000003,0.11438333750170314
403,3601.7,0.12682625333829914
404,3609.33,0.04973299587547979
405,3612.07,0.08500297805790115
406,3614.8,0.08938477034184651
407,3617.5299999999997,0.1218825926257919
408,3620.27,0.10551536480821325
409,3623.0,0.12722233709215863
410,3625.7400000000002,0.12826350927458
411,3628.47,0.12833318155852536
412,3631.2100000000005,0.1080496537409467
413,3633.94,0.11674362602489206
414,3636.67,0.14383909830883745
415,3639.4100000000003,0.13854047049125878
416,3642.14,0.13993644277520417
417,3644.8799999999997,0.13704041495762553
418,3647.61,0.12515268724157091
419,3650.35,0.11420865942399226
420,3653.0800000000004,0.14428303170793763
421,3655.81,0.155247803991883
422,3658.5499999999997,0.13804717617430434
423,3661.28,0.13846414845824973
424,3664.02,0.1286936206406711
425,3666.7499999999995,0.09397423292461646
426,3669.48,0.13370066520856183
427,3672.22,0.1448591373909832
428,3674.9500000000003,0.12190280967492854
429,3677.69,0.13689428185734992
430,3680.4199999999996,0.1261870541412953
431,3683.16,0.13219312632371663
432,3685.89,0.14608119860766203
433,3688.6200000000003,0.12879807089160739
434,3691.36,0.13455414307402874
435,3694.0899999999997,0.1238399153579741
436,3696.83,0.13081818754039545
437,3699.56,0.10720215982434085
438,3702.3,0.13235953200676218
439,3705.03,0.12745050429070756
440,3707.7599999999998,0.13669307657465296
441,3710.5,0.1327346487570743
442,3713.23,0.12788112104101967
443,3715.9700000000003,0.12453369322344103
444,3718.7,0.1300335655073864
445,3721.4399999999996,0.18051533768980774
446,3724.17,0.26818970997375313
447,3726.9,0.34271268225769846
448,3729.6400000000003,0.31769265444011985
449,3732.37,0.2816543267240652
450,3735.1099999999997,0.15916969890648658
451,3737.84,0.13450527119043196
452,3740.58,0.1431569433728533
453,3743.3100000000004,0.14881651565679868
454,3746.04,0.12988068794074406
455,3748.7799999999997,0.1292761601231654
456,3751.51,0.1429212324071108
457,3754.25,0.13835860458953214
458,3756.9799999999996,0.13436617687347752
459,3759.72,0.15855134905589885
460,3762.45,0.15264242133984424
461,3765.1800000000003,0.13719249362378963
462,3767.92,0.14755926580621095
463,3770.6499999999996,0.15860743809015634
464,3773.39,0.1566070102725777
465,3776.12,0.16982168255652308
466,3778.86,0.18188955473894441
467,3781.59,0.18504252702288979
468,3784.3199999999997,0.1876676993068352
469,3787.06,0.18763237148925652
470,3789.79,0.1770294437732019
471,3792.53,0.16205081595562323
472,3795.2599999999998,0.14335118823956863
473,3798.0000000000005,0.13973296042198996
474,3800.73,0.16026643270593535
475,3801.8939600000003,0.15792174498125378
476,3803.46,0.15476710830264043
477,3806.2000000000003,0.1716820862811856
478,3808.93,0.21158916434010097
479,3811.6699999999996,0.20292254231864612
480,3814.4,0.1988746203775615
481,3817.13,0.1758072984364769
482,3819.8700000000003,0.17386237641502203
483,3822.6,0.17814725447393745
484,3825.3399999999997,0.17439693245248256
485,3828.07,0.16116911051139796
486,3830.81,0.1408298884899431
487,3833.5399999999995,0.13812206654885847
488,3836.27,0.1268592446077739
489,3839.0099999999998,0.144808922586319
490,3841.7400000000002,0.17221690064523443
491,3844.48,0.18756937862377954
492,3847.2099999999996,0.18004255668269495
493,3849.95,0.19185353466124005
494,3852.68,0.18923611272015545
495,3855.4100000000003,0.18291059077907085
496,3858.15,0.19097886875761597
497,3860.8799999999997,0.1860837468165314
498,3863.62,0.19981132479507652
499,3866.35,0.20680430285399193
500,3869.09,0.22201768083253703
501,3871.82,0.19463825889145245
502,3874.5499999999997,0.17297363695036783
503,3877.29,0.17182731492891298
504,3880.02,0.16125209298782836
505,3882.76,0.1837429709663735
506,3885.49,0.17204974902528888
507,3888.2299999999996,0.165355327003834
508,3890.96,0.1873609050627494
509,3893.69,0.1864516831216648
510,3896.4300000000003,0.18510396110020996
511,3899.16,0.18811103915912533
512,3901.8999999999996,0.2022413171376705
513,3904.63,0.19369379519658586
514,3907.37,0.20605337317513098
515,3910.1000000000004,0.2109353512340464
516,3912.83,0.1988741292929618
517,3915.5699999999997,0.19161020727150693
518,3918.3,0.20522068533042231
519,3921.04,0.19935946330896745
520,3923.77,0.20233184136788285
521,3926.5099999999998,0.181825919346428
522,3929.24,0.14901619740534336
523,3931.9700000000003,0.14539177546425877
524,3934.71,0.1330242534428039
525,3937.44,0.15532843150171932
526,3940.18,0.18154120948026442
527,3942.91,0.1839996875391798
528,3945.65,0.17736076551772495
529,3948.38,0.19927614357664034
530,3951.1099999999997,0.19952652163555576
531,3953.85,0.18503399961410089
532,3956.58,0.1870619776730163
533,3959.32,0.1865267556515614
534,3962.0499999999997,0.1682576337104768
535,3964.7799999999997,0.1430584117693922
536,3967.52,0.1419747897479373
537,3970.25,0.15111326780685275
538,3972.9900000000002,0.14967544578539785
539,3975.72,0.18065262384431327
540,3978.4599999999996,0.2080458018228584
541,3981.19,0.1925612798817738
542,3983.92,0.2082271579406892
543,3986.6600000000003,0.20895563591923433
544,3989.39,0.2227745139781497
545,3992.1299999999997,0.2310092919566948
546,3994.86,0.21271257001561023
547,3997.6,0.22238474799415536
548,4000.3300000000004,0.23059292605307077
549,4003.06,0.22335780411198616
550,4005.7999999999997,0.2318287820905313
551,4008.53,0.23987026014944668
552,4011.27,0.23762663812799184
553,4014.0,0.24686261618690722
554,4016.74,0.2508129941654524
555,4019.47,0.24868167222436774
556,4022.2000000000003,0.25561925028328314
557,4024.94,0.23516862826182827
558,4027.67,0.23062080632074367
559,4030.41,0.2362932842992888
560,4033.14,0.2176701623582042
561,4035.88,0.23332804033674934
562,4038.61,0.2453831183956647
563,4041.34,0.2505637964545801
564,4044.08,0.24143877443312525
