,lambda (Angstroms),Total Flux (erg/s/cm^2/Angstrom)
0,100.04,0.01245817709977975
1,101.89999999999999,0.01498169003830394
2,104.03,0.017871519335614424
3,104.712855,0.018797967536515366
4,105.96,0.017386167366121353
5,107.94,0.015144756954784625
6,109.94,0.01288070744149301
7,114.07000000000001,0.008205445022688516
8,118.08000000000001,0.0036660283759123447
9,120.22644299999999,0.0012362490409165631
10,121.11,0.0011899885009488411
11,125.07000000000001,0.0009826046437161331
12,127.10000000000001,0.0008762955082178009
13,127.99,0.000829693021348582
14,130.97,0.0006736408976426554
15,131.87,0.00062654812936704
16,134.02,0.0005139681493919586
17,137.14000000000001,0.00035066522259649186
18,138.038426,0.0003036331778207885
19,140.01,0.00030004747338220833
20,142.94,0.0002957472697223244
21,146.95,0.0002914873029765448
22,151.06,0.0002848558141024415
23,154.94,0.00027887681932348265
24,158.489319,0.0002736058666708659
25,158.91,0.0002725636217027471
26,161.87,0.00026532954690394717
27,166.01999999999998,0.00025550185086846764
28,169.89000000000001,0.00024646329730044196
29,173.05,0.00023923652159631772
30,177.08,0.00023020921090403273
31,179.95000000000002,0.00022407754686262874
32,181.970086,0.00021979237727578818
33,182.04000000000002,0.00021990674461597862
34,185.85,0.00022648406398163056
35,191.06,0.0002355712395183882
36,194.16,0.00024153440889726515
37,198.23,0.00024930191769469384
38,201.91,0.0002573201673444574
39,205.19,0.0002640203109453337
40,208.929613,0.00027077606170090743
41,209.96999999999997,0.00027748299513310115
42,215.86,0.0003212157048421585
43,219.87,0.00035013630534017537
44,222.93,0.0003713696839496347
45,227.07000000000002,0.00040223318912713837
46,230.23,0.00046610695056697196
47,233.97,0.0005848100344229778
48,239.88329199999998,0.0006881126534950188
49,239.97,0.0006887490095441858
50,246.13,0.0006660090051095395
51,251.86,0.0006802285790688702
52,257.14,0.0006205020466963164
53,260.11,0.0006626309284867547
54,263.73,0.0006789695638676932
55,269.25,0.0006731951482054778
56,274.26,0.000668673372033793
57,275.42287,0.0006683766821448382
58,278.72,0.0006987297079991239
59,283.9,0.0007430706815125423
60,289.84,0.0007731874565453041
61,295.90999999999997,0.0008341702160484799
62,300.72,0.0008729062414537974
63,307.72,0.0009389817975530117
64,316.227766,0.0010228049840282794
65,317.80999999999995,0.0010250026467951163
66,328.21999999999997,0.0010247119093108915
67,338.19,0.0010205638337376234
68,347.67,0.0010148369362015571
69,357.41,0.0010077575748090163
70,363.078055,0.001008318832559042
71,365.73,0.0010254771237699887
72,375.11,0.0010728316717750642
73,384.74,0.0011014796033623647
74,394.6,0.001175090363845312
75,404.73,0.001230248362597062
76,414.15,0.0012724134199752935
77,416.86938299999997,0.0012828339735530784
78,421.85,0.0012963554976842297
79,429.7,0.0013196173232601926
80,440.72,0.0013607297273171498
81,450.99,0.0013842501251088875
82,460.43,0.0014085027679671157
83,470.07,0.001435266132496069
84,478.630092,0.001460950224174197
85,479.90999999999997,0.0014598339704003896
86,489.96,0.0014333858882938713
87,500.21999999999997,0.001428333941785127
88,506.01,0.00141120566612376
89,511.87000000000006,0.001431841902328317
90,520.19,0.0014181501841068014
91,529.86,0.0013923323518709773
92,539.71,0.0013548698644332453
93,549.5408739999999,0.0013332628837712354
94,549.75,0.0013331131576202844
95,559.97,0.0013461779931142896
96,570.38,0.0013571704662544651
97,579.65,0.0013389119135176185
98,590.42,0.0013405385632505378
99,600.02,0.0013129720390570396
100,609.76,0.0012109304057607195
101,619.67,0.0013242479114109734
102,629.74,0.0013054402066580016
103,630.957344,0.0013062284321195164
104,639.97,0.0013271957106630585
105,650.37,0.0013302479071725358
106,657.9,0.0013259716109914165
107,665.52,0.0013517954626647067
108,674.78,0.0013654328530183374
109,685.74,0.0013459229139552477
110,695.2800000000001,0.0013875210865225951
111,704.96,0.001357625600196801
112,716.41,0.0014173775550077156
113,724.43596,0.0014270326436392016
114,726.38,0.0014285636267377022
115,734.7900000000001,0.0014378687480242256
116,745.01,0.0014411024899443525
117,755.3700000000001,0.0014491910091510567
118,764.1199999999999,0.0013780552895621243
119,774.75,0.0014694421792500845
120,785.53,0.0014538300303165198
121,794.6300000000001,0.00148515655394403
122,805.6800000000001,0.0015058714754917213
123,815.01,0.0015183441332328937
124,824.45,0.0015410231159849485
125,831.763771,0.0014866807475158862
126,835.92,0.0014485510441653744
127,845.5899999999999,0.0015335920024524717
128,855.39,0.0015218465382553213
129,865.29,0.001532945518301057
130,875.31,0.0015418360314382563
131,885.4499999999999,0.001545521077666919
132,895.6999999999999,0.0015493796125627562
133,903.9899999999999,0.001536784440298024
134,914.46,0.0017162879525282108
135,925.0400000000001,0.003624416953425573
136,935.7600000000001,0.006099682576262975
137,944.41,0.009678324003272632
138,954.992586,0.01268519034174643
139,955.3499999999999,0.012787103372517018
140,964.19,0.014147732892123687
141,975.35,0.004141164005111292
142,984.38,0.011975297620727606
143,995.78,0.01263603338130634
144,1004.99,0.017845672982616002
145,1014.2900000000001,0.01768297557677234
146,1026.04,0.009108074198421476
147,1035.53,0.013481181888587459
148,1045.1100000000001,0.023529541571600116
149,1054.78,0.023209254247459444
150,1064.54,0.01870383991616545
151,1074.39,0.022073438577718128
152,1084.33,0.01779004023211748
153,1094.3700000000001,0.023414142989679806
154,1096.4782,0.023260785530474618
155,1104.49,0.02267475613329569
156,1114.71,0.021958621649312407
157,1125.03,0.019771948021650228
158,1135.44,0.02504447116467704
159,1145.94,0.023119551078392846
160,1153.88,0.02452586507028842
161,1164.56,0.025142098525382208
162,1175.34,0.017461152836797104
163,1186.21,0.024618903918900988
164,1194.4299999999998,0.017973802308495646
165,1205.49,0.013774211017609627
166,1213.8400000000001,0.01021544252042172
167,1225.07,0.018285350685281577
168,1236.41,0.026213523792094646
169,1244.98,0.028521885178813166
170,1253.61,0.02742953107932435
171,1258.92541,0.025991941481301857
172,1265.21,0.02429621173365433
173,1273.98,0.030750800674508222
174,1285.77,0.03226605666226961
175,1294.68,0.02596284149271524
176,1303.65,0.02584520884727162
177,1315.72,0.032119856614216485
178,1324.84,0.03096495027904972
179,1334.02,0.027808366467993704
180,1346.3600000000001,0.032864825593436925
181,1355.7,0.031974178513342895
182,1365.09,0.028912463536674482
183,1374.56,0.03026622192548707
184,1384.08,0.03054540241772527
185,1393.6799999999998,0.02590796627544447
186,1406.57,0.026629198538569515
187,1416.3200000000002,0.028782578706565577
188,1426.1399999999999,0.029449281819357506
189,1436.03,0.029652057876945307
190,1442.65,0.031183366370497505
191,1445.43977,0.03172686893308248
192,1445.98,0.03183211280623432
193,1456.0,0.031042006589094503
194,1466.1,0.028784103196568347
195,1476.26,0.02898295192250243
196,1486.49,0.02972194311997346
197,1493.35,0.030341175330594303
198,1503.7,0.028917980764985814
199,1510.65,0.025912246153297024
200,1517.6200000000001,0.027625492247761646
201,1524.62,0.027374459401456386
202,1535.1899999999998,0.023976792603535444
203,1545.83,0.026152138277151453
204,1556.55,0.024869526775381113
205,1563.73,0.025678110284456577
206,1574.5700000000002,0.02826675301960672
207,1585.49,0.02986180857937052
208,1596.48,0.031046726610671264
209,1603.85,0.030275146828204157
210,1614.96,0.030068289096425383
211,1626.16,0.02826826454233697
212,1633.66,0.03048508934986705
213,1644.99,0.03176659938577582
214,1656.39,0.028594141893221545
215,1659.58691,0.0301037562702879
216,1664.04,0.03220754297703156
217,1671.7199999999998,0.027444453229000357
218,1675.5700000000002,0.03513747593343784
219,1683.3000000000002,0.03670162907767206
220,1694.97,0.03364699813242152
221,1706.7199999999998,0.03281355781479566
222,1714.6,0.03259123963582615
223,1726.48,0.032668792838090384
224,1734.4499999999998,0.03572032786519863
225,1746.48,0.03491463974425914
226,1754.54,0.03826420797744514
227,1766.7,0.03374264337639574
228,1774.8500000000001,0.036141894815659506
229,1783.05,0.036559939147188684
230,1795.41,0.04118393611520097
231,1803.69,0.03970526107435483
232,1816.19,0.037845354140710295
233,1824.5800000000002,0.03793333746284809
234,1833.0,0.03615662852034513
235,1845.71,0.032699345734215374
236,1854.23,0.03478369257624325
237,1867.0800000000002,0.03717109588845668
238,1875.6999999999998,0.03864745851501541
239,1884.35,0.03683771887693339
240,1893.05,0.0374347421311168
241,1905.46072,0.037926812924238246
242,1906.17,0.037954516436861596
243,1914.97,0.03803847162071355
244,1923.81,0.03666916350994665
245,1937.15,0.033845119754558596
246,1946.0900000000001,0.04063654840724456
247,1955.07,0.039262963765311666
248,1968.6200000000001,0.04381835021317462
249,1977.71,0.04361505901103988
250,1982.2699999999998,0.04301778342449044
251,1996.01,0.04232935672291384
252,2005.22,0.04184414563692253
253,2014.4799999999998,0.041081957932657655
254,2023.78,0.040517956933773934
255,2033.12,0.04231713264027134
256,2047.2099999999998,0.04521968961077977
257,2056.66,0.04250331875707533
258,2066.15,0.042016554608752046
259,2075.69,0.04733088384215518
260,2085.27,0.058581249780939475
261,2094.9,0.05493271910145019
262,2104.57,0.05270754512734206
263,2114.28,0.055305727858615074
264,2124.04,0.05404772397161452
265,2133.8399999999997,0.0486324667899951
266,2143.69,0.05580654299010212
267,2153.59,0.05723004257193558
268,2163.5299999999997,0.05256705885915017
269,2173.5099999999998,0.05292752185174591
270,2183.5499999999997,0.057748134902413366
271,2187.7616199999998,0.05864947579701348
272,2193.63,0.059908890182057056
273,2203.75,0.05775068190619684
274,2213.92,0.04974967687996181
275,2224.14,0.05149475510335198
276,2234.41,0.06173444657636735
277,2244.7200000000003,0.05829466864908287
278,2255.08,0.0501040939714236
279,2265.49,0.049877972543389514
280,2275.95,0.053926514364980624
281,2286.45,0.0620334267862719
282,2297.0099999999998,0.05494009510711341
283,2307.61,0.060794354027655075
284,2312.93,0.05471317378777599
285,2323.61,0.04128105390771796
286,2334.33,0.0434293346273601
287,2345.11,0.03608659124655247
288,2355.93,0.051372268465445
289,2366.8,0.03762985893396273
290,2377.73,0.043684605302030693
291,2383.21,0.03304490746095223
292,2394.21,0.03800736237849547
293,2405.2599999999998,0.0371598605456639
294,2416.3599999999997,0.040924181962457534
295,2427.52,0.0556507192788014
296,2433.11,0.055024780586898366
297,2444.35,0.06215559910264255
298,2455.63,0.06405726821808688
299,2466.96,0.05927073058315642
300,2472.65,0.05458295839050379
301,2484.06,0.04619157195497363
302,2495.5299999999997,0.04706099141899372
303,2507.05,0.064442824132639
304,2511.88643,0.043931852222376104
305,2512.83,0.03992988897866765
306,2518.62,0.036777605161618876
307,2524.43,0.03720494929338858
308,2536.08,0.04530831448015572
309,2547.78,0.04711889453896907
310,2553.66,0.06676747149160348
311,2565.44,0.05546397334569077
312,2577.29,0.06558696802064276
313,2583.2300000000005,0.06095373881973261
314,2595.15,0.056656306315549285
315,2607.1299999999997,0.051351617657821425
316,2613.14,0.047946281277775976
317,2625.2,0.060175624415322045
318,2637.32,0.08414702139932358
319,2643.4,0.10934607784014282
320,2655.6000000000004,0.13668782661941828
321,2667.86,0.09466645924514919
322,2674.01,0.10718413850683314
323,2686.35,0.11726327292783799
324,2692.54,0.0947205480871589
325,2704.97,0.11101956327784693
326,2717.46,0.08765337231499042
327,2723.7200000000003,0.07905634029517603
328,2736.29,0.09265614112759345
329,2742.6,0.05749120397982526
330,2755.2599999999998,0.07053363558192587
331,2767.98,0.08556028103048191
332,2774.36,0.09294737670357843
333,2787.1600000000003,0.06409756394740843
334,2793.59,0.034768464492551145
335,2806.48,0.040448892506064316
336,2812.9500000000003,0.086041248948844
337,2825.94,0.1181695567064496
338,2832.4500000000003,0.11523798904686626
339,2845.53,0.09769866757415505
340,2852.0899999999997,0.0695557747866179
341,2865.2499999999995,0.12326892510918061
342,2871.86,0.1458168471936897
343,2884.0315,0.13521362530344608
344,2885.11,0.134274196632241
345,2891.7599999999998,0.15030768267459194
346,2911.8100000000004,0.19455514059175524
347,2931.99,0.17350359823606226
348,2952.3100000000004,0.165786055586524
349,2972.7799999999997,0.17770651262215162
350,2993.38,0.18026666938492292
351,3007.2,0.18664794037819957
352,3028.0499999999997,0.1928477966162472
353,3049.04,0.2001779525604496
354,3070.1699999999996,0.21261370821080675
355,3091.45,0.21419526354632973
356,3112.88,0.2338766185670185
357,3127.2499999999995,0.22343108840590312
358,3148.93,0.22405644290186824
359,3170.75,0.24018929710398812
360,3192.7299999999996,0.21224095097028486
361,3207.4700000000003,0.2354648200325785
362,3229.7,0.2019366733741516
363,3252.09,0.26505022637990155
364,3267.1,0.30229679487549366
365,3289.75,0.296941347335531
366,3311.31121,0.2894371499004292
367,3312.55,0.2890059523771259
368,3320.19,0.28772424583909134
369,3327.84,0.306225738899829
370,3335.5099999999998,0.3289239311581111
371,3343.2000000000003,0.29594242261393755
372,3350.9100000000003,0.2939524132673084
373,3358.63,0.3253296035194515
374,3366.38,0.2814811925679112
375,3374.14,0.23473708121514317
376,3381.9100000000003,0.26461846946114725
377,3389.71,0.319620356503468
378,3397.52,0.30180954314456093
379,3405.35,0.3249273289831983
380,3413.21,0.3068195136181523
381,3421.07,0.33032569825310626
382,3428.9599999999996,0.3147974816843769
383,3436.8700000000003,0.31053686431319183
384,3444.79,0.2302990465407791
385,3452.73,0.3328541279659107
386,3460.69,0.3022414085885867
387,3468.6699999999996,0.3043913884088072
388,3476.66,0.2934407678277999
389,3484.68,0.31016194604310915
390,3492.71,0.29355292385719056
391,3500.7599999999998,0.27718820086881646
392,3508.83,0.33251487707798677
393,3516.92,0.2863747524847015
394,3525.03,0.3054858270889606
395,3533.15,0.340442101291992
396,3541.3,0.36316587429133995
397,3549.46,0.3665899468894601
398,3557.6400000000003,0.3321199186851247
399,3565.84,0.36169708967833364
400,3574.0699999999997,0.2669999594678592
401,3582.2999999999997,0.27263772925738483
402,3590.56,0.23643819784322703
403,3598.8399999999997,0.34410196562661366
404,3607.14,0.3153446326075447
405,3615.4500000000003,0.31832549918724795
406,3619.9199999999996,0.3293752198384241
407,3622.66,0.31419900990200855
408,3625.3999999999996,0.337605499965593
409,3628.1400000000003,0.3672607900291775
410,3630.88,0.33599498009276196
411,3633.6099999999997,0.2928868705575742
412,3636.35,0.2756722606211587
413,3639.0899999999997,0.3653632506847431
414,3641.83,0.3629026407483276
415,3644.5699999999997,0.36104643081191207
416,3647.3100000000004,0.3444363208754965
417,3650.04,0.3674441113403088
418,3652.7799999999997,0.36804120140389324
419,3655.52,0.3977456914674777
420,3658.2599999999998,0.43472538153106216
421,3661.0,0.43857677159464664
422,3663.74,0.42152376165823113
423,3666.47,0.42776735212304334
424,3669.21,0.42610104218662787
425,3671.95,0.40303803225021234
426,3674.69,0.3536019223137968
427,3677.43,0.35358751237738123
428,3680.1699999999996,0.3818580024409657
429,3682.9,0.3563579929057779
430,3685.64,0.3619738829693624
431,3688.38,0.3816689730329469
432,3691.12,0.3695925630965313
433,3693.86,0.4005552531601158
434,3696.6,0.41085944322370027
435,3699.33,0.38521893368851257
436,3702.07,0.361143823752097
437,3704.81,0.3669072138156815
438,3707.55,0.3673989038792659
439,3710.29,0.4005335939428504
440,3713.0299999999997,0.42086128400643485
441,3715.77,0.40427917407001934
442,3718.5,0.38275776453483157
443,3721.2400000000002,0.38549165459841606
444,3723.98,0.41126684466200053
445,3726.7200000000003,0.407428534725585
446,3729.46,0.41535692478916947
447,3732.2,0.3336222148527539
448,3734.9300000000003,0.3291391053175662
449,3737.67,0.3273251953811506
450,3740.4100000000003,0.3511885854447351
451,3743.15,0.33682067550831957
452,3745.89,0.316513265571904
453,3748.63,0.3054139556354885
454,3751.36,0.34549514610030074
455,3754.1000000000004,0.39585133616388524
456,3756.84,0.3755578262274697
457,3759.58,0.37335031629105414
458,3762.32,0.4018598063546386
459,3765.06,0.37280119641822307
460,3767.79,0.38492788688303536
461,3770.53,0.39377007694661975
462,3773.2700000000004,0.42582236701020426
463,3776.01,0.46413755707378873
464,3778.75,0.4524406471373732
465,3781.4900000000002,0.4643263372009577
466,3784.22,0.4522804276657699
467,3786.9599999999996,0.41659311772935437
468,3789.7,0.41357010779293885
469,3792.44,0.39909669785652335
470,3795.1800000000003,0.35751218792010775
471,3797.92,0.36463217798369224
472,3800.6600000000003,0.3783665680472767
473,3801.8939600000003,0.38833085853737365
474,3803.39,0.40041147101907143
475,3806.1299999999997,0.44255058398921726
476,3808.87,0.443597396959363
477,3811.61,0.41133340992950884
478,3814.3500000000004,0.4035307228996546
479,3817.09,0.39208693586980037
480,3819.8199999999997,0.3553262491575734
481,3822.56,0.3405647621277192
482,3825.2999999999997,0.29092487509786497
483,3828.04,0.25105548806801076
484,3830.7799999999997,0.25831620103815656
485,3833.5200000000004,0.2661253140083023
486,3836.25,0.3132354272960753
487,3838.99,0.2942213402662211
488,3841.73,0.37853515323636683
489,3844.47,0.3805731662065126
490,3847.2099999999996,0.4299380791766584
491,3849.95,0.4109942921468042
492,3852.68,0.3837652054345772
493,3855.42,0.375969518404723
494,3858.16,0.38197893137486877
495,3860.9,0.37571564434501453
496,3863.64,0.38604095731516036
497,3866.3799999999997,0.4283205702853061
498,3869.11,0.4092662835730791
499,3871.85,0.3653760965432249
500,3874.59,0.40694580951337067
501,3877.33,0.3919242224835165
502,3880.0699999999997,0.38157003545366225
503,3882.81,0.375123848423808
504,3885.5499999999997,0.34911586139395384
505,3888.28,0.37988377468172685
506,3891.02,0.46012058765187264
507,3893.76,0.4429902006220184
508,3896.5,0.4389129135921642
509,3899.24,0.47011452656231
510,3901.98,0.48006023953245575
511,3904.71,0.47552845282022876
512,3907.4500000000003,0.5015637657903745
513,3910.19,0.5190798787605203
514,3912.93,0.515529591730666
515,3915.67,0.4789076047008119
516,3918.41,0.4429814176709577
517,3921.1400000000003,0.4367133309587307
518,3923.88,0.37629064392887646
519,3926.62,0.29370525689902227
520,3929.36,0.25877726986916805
521,3932.1,0.2520993828393138
522,3934.84,0.2623193958094596
523,3937.57,0.2970020090972326
524,3940.3100000000004,0.3638696220673784
525,3943.05,0.4192235350375242
526,3945.79,0.45095234800767
527,3948.53,0.45257566097781576
528,3951.27,0.5025660739479615
529,3954.01,0.46501628691810737
530,3956.7400000000002,0.45199320020588035
531,3959.48,0.36930941317602606
532,3962.2200000000003,0.32872992614617186
533,3964.96,0.27191343911631766
534,3967.7000000000003,0.26795575208646344
535,3970.44,0.3106781650566092
536,3973.1699999999996,0.3839438783443822
537,3975.9100000000003,0.466106691314528
538,3978.65,0.5367347042846737
539,3981.3900000000003,0.5459774172548195
540,3984.13,0.5654193302249654
541,3986.8700000000003,0.5925651431951111
542,3989.6,0.6141117564828842
543,3992.3399999999997,0.61603006945303
544,3995.08,0.6080865824231758
545,3997.82,0.6301995953933216
546,4000.5600000000004,0.6226849083634673
547,4003.3,0.6203999213336131
548,4006.0299999999997,0.6440975346213861
549,4008.77,0.6462408475915319
550,4011.5099999999998,0.6828969605616776
551,4014.2499999999995,0.6785031735318234
552,4016.99,0.6989922865019692
553,4019.7300000000005,0.681447099472115
554,4022.46,0.6910235127598879
555,4025.2,0.6954653257300337
556,4027.94,0.6624560387001796
557,4030.68,0.6379378516703254
558,4033.4199999999996,0.6280684646404711
559,4036.16,0.6669035776106169
560,4038.9,0.6663827905807627
561,4041.63,0.6433651038685357
562,4044.37,0.6549273168386816
563,4047.1099999999997,0.6379022298088273
564,4049.85,0.6449237427789731
565,4052.5899999999997,0.6492460557491189
566,4055.33,0.6239195687192647
567,4058.06,0.6196624820070376
568,4060.8,0.6093852949771834
569,4063.54,0.6013435079473292
