,lambda (Angstroms),Total Flux (erg/s/cm^2/Angstrom)
0,100.09,0.23110673746557395
1,101.94999999999999,0.23046421744035742
2,104.08000000000001,0.22972814217741588
3,104.712855,0.22950949414269223
4,106.02000000000001,0.2271363187321275
5,107.99,0.2235597938469448
6,110.0,0.21991173276527615
7,114.12,0.2124319245152239
8,118.13000000000001,0.2051516543122581
9,120.22644299999999,0.20135410084781993
10,120.89000000000001,0.20034682157430792
11,125.13,0.1938946192209327
12,126.87,0.19124685423690602
13,128.05,0.1894512347078535
14,131.03,0.18491614260566996
15,131.94,0.18353350914758707
16,134.07999999999998,0.18027671153286465
17,136.89,0.1760031361564768
18,138.038426,0.1742555308705904
19,140.07999999999998,0.17203519587208696
20,143.01,0.16887216547559938
21,147.02,0.16454751843726653
22,151.14000000000001,0.1600695949828198
23,155.02,0.1558543163398943
24,158.489319,0.15208545272851592
25,158.99,0.15167446154135275
26,161.95000000000002,0.14924466816809723
27,166.1,0.14583854269985044
28,169.97000000000003,0.14266137313042512
29,173.13,0.14006759350086856
30,177.16,0.1367594008464024
31,180.04,0.1343954311156673
32,181.970086,0.13281131538758434
33,182.13,0.13271125587243557
34,185.94,0.1303271886314799
35,191.15,0.12706600018413633
36,193.81,0.1254030952019993
37,197.87,0.1228618124134744
38,202.01,0.12027103372172729
39,204.82,0.11851340317104872
40,208.929613,0.11593570151607901
41,210.07999999999998,0.11539331731165275
42,215.96,0.11263683857124351
43,219.98,0.11074776709565765
44,223.04000000000002,0.10930766624707733
45,227.17999999999998,0.10736294599311574
46,229.81,0.10623800203371501
47,234.09,0.10444437747164846
48,239.88329199999998,0.10183687156747498
49,240.09,0.10176620684378535
50,246.25,0.09948822019309102
51,251.98999999999998,0.09742326197994403
52,257.26,0.09538628388738571
53,260.24,0.09439238117812124
54,263.86,0.09309944712592748
55,268.77000000000004,0.09130628795126688
56,273.76,0.08948118008374015
57,275.42287,0.08887306527949435
58,278.85,0.08790952696505151
59,284.03999999999996,0.08645381451142822
60,289.99,0.08475570910024159
61,296.06,0.0830619305589134
62,300.87,0.08169353793407177
63,307.88,0.07973611708996789
64,316.227766,0.07740343580029194
65,317.96,0.07704172311401436
66,327.62,0.07501129379552048
67,338.35999999999996,0.07275250306191551
68,347.84000000000003,0.07075586439594016
69,356.76,0.0688814019266891
70,363.078055,0.0675574376409174
71,365.90999999999997,0.06711220558838117
72,375.3,0.06562972864385289
73,384.91999999999996,0.06409727639120519
74,394.8,0.06255311146416159
75,404.93,0.060959822184814265
76,414.36,0.0594732199519174
77,416.86938299999997,0.059076610368317135
78,422.06,0.058447702152736807
79,429.91,0.05749829806601729
80,440.94,0.05617205518111076
81,451.21000000000004,0.05493255120268915
82,459.6,0.053919354808730335
83,470.3,0.05263130267269226
84,478.630092,0.051630614419293314
85,480.15000000000003,0.0514898611721508
86,490.2,0.05055305904041286
87,500.47,0.04960587424529359
88,506.26,0.04907580671357591
89,512.13,0.048603440086083194
90,520.45,0.047832219725480234
91,530.12,0.046934995748673686
92,539.98,0.046010504344401425
93,549.5408739999999,0.04515367908122616
94,550.02,0.04512115697979768
95,560.24,0.044426611604338466
96,569.35,0.04380001985987335
97,579.9300000000001,0.043041970820307945
98,589.35,0.042404976076195824
99,600.3100000000001,0.04162618814674054
100,610.06,0.04095136557719776
101,619.98,0.04030147048849369
102,630.0500000000001,0.03960321480641206
103,630.957344,0.039539939772458496
104,640.2900000000001,0.039024378951106185
105,650.69,0.03846834983964348
106,658.23,0.038054552833833015
107,664.32,0.03773749157913994
108,675.11,0.03714491507599738
109,684.5,0.03660570145324402
110,695.63,0.036065402629149805
111,705.3,0.0354941884303186
112,716.76,0.03493965755941834
113,724.43596,0.03452471693228808
114,726.73,0.03443348175145024
115,735.15,0.03410245939881673
116,745.3799999999999,0.0337212060376005
117,755.75,0.03331919756743311
118,764.5,0.032967067957986186
119,775.13,0.03258765948548095
120,784.1099999999999,0.03224982529704285
121,795.02,0.03183203880663531
122,804.2199999999999,0.03148201964698826
123,815.41,0.03104311233867842
124,824.85,0.030714205892257963
125,831.763771,0.03033822544588631
126,834.4,0.03022225834562501
127,844.0699999999999,0.03009016336870699
128,855.8100000000001,0.029753744030649346
129,865.7199999999999,0.029507307755338337
130,875.74,0.029253356972430526
131,885.88,0.029006555090326222
132,894.08,0.028800758978565343
133,904.43,0.02849358867286716
134,914.9,0.028601489267972475
135,925.4999999999999,0.03551143917228159
136,934.0600000000001,0.0450145307629312
137,944.88,0.06084218665204673
138,954.992586,0.07206160608797059
139,955.82,0.07298013119483245
140,964.66,0.0808584537197385
141,975.83,0.03643403550743089
142,984.86,0.07678881003230666
143,993.98,0.07639464603085228
144,1005.49,0.09254944560796413
145,1014.79,0.08697986455384946
146,1024.18,0.05047320497340466
147,1036.04,0.06991748139256597
148,1045.6200000000001,0.10460344381209086
149,1055.3,0.10282171675791561
150,1065.06,0.08859073212478022
151,1074.92,0.09809642801794467
152,1084.87,0.08457946538477899
153,1094.9,0.09909013517265317
154,1096.4782,0.09852478129386043
155,1105.03,0.09550794235544872
156,1115.26,0.09323070401750382
157,1125.5800000000002,0.08602003806954764
158,1135.99,0.09842729451158025
159,1143.8700000000001,0.09137010043504007
160,1154.45,0.09411819805816254
161,1165.13,0.0955841616701614
162,1175.92,0.07493354486992428
163,1184.07,0.09120591796335037
164,1195.02,0.07184649874531548
165,1206.0800000000002,0.05891482911504464
166,1214.44,0.042253037785111164
167,1225.68,0.06611048293481783
168,1234.17,0.08657737839042366
169,1245.59,0.09238805832010784
170,1254.23,0.08980654775902826
171,1258.92541,0.08621395789807065
172,1265.83,0.08097990958512663
173,1274.61,0.09476328427442753
174,1286.4,0.09691058673306735
175,1295.3200000000002,0.08376589224884913
176,1304.3,0.08238547383312274
177,1316.3600000000001,0.09403111359997568
178,1325.49,0.09071779035547878
179,1334.68,0.0838531531794737
180,1343.93,0.09230422207196042
181,1356.3600000000001,0.08966527259451285
182,1365.76,0.08315016665822908
183,1375.23,0.08503667113518573
184,1384.76,0.08518983168063422
185,1394.3600000000001,0.07627791263932314
186,1404.03,0.0776786540112525
187,1413.76,0.07971338145167367
188,1423.5600000000002,0.07984259930533527
189,1433.43,0.0793680175722373
190,1443.36,0.08163410190763117
191,1445.43977,0.0818865702476401
192,1446.6899999999998,0.08204497065547382
193,1453.37,0.08026800754994422
194,1463.44,0.07586669984445274
195,1473.59,0.07517842126344593
196,1483.8000000000002,0.07533538702580261
197,1494.09,0.075633801912644
198,1504.44,0.07258028114284887
199,1511.3899999999999,0.06728966758245505
200,1518.36,0.0698788788031824
201,1525.3700000000001,0.06837953958615209
202,1535.95,0.0621321487992504
203,1546.59,0.06467181235571223
204,1553.73,0.062029659215969514
205,1564.5,0.06280926884971894
206,1575.3500000000001,0.06540233760795304
207,1586.27,0.06674894810011124
208,1593.59,0.06754251799045904
209,1604.6299999999999,0.06565503716934425
210,1615.76,0.06527466286327471
211,1623.21,0.0627869188309101
212,1634.47,0.06492132060212816
213,1645.8,0.06502551410727032
214,1653.39,0.0616049235427539
215,1659.58691,0.0633958519366592
216,1664.85,0.06493623745462988
217,1672.5400000000002,0.060166240548895
218,1676.39,0.06483671915915777
219,1684.13,0.066016432884725
220,1695.8100000000002,0.06297437235689882
221,1703.6299999999999,0.061035999092549434
222,1715.44,0.05891020220610874
223,1723.36,0.058295370204363595
224,1735.31,0.06041984108556881
225,1743.32,0.05911427622016746
226,1755.4,0.061168940742758186
227,1763.5,0.05751723301370064
228,1775.73,0.058282749430197706
229,1783.9199999999998,0.058541848837483965
230,1796.2900000000002,0.06046930302162695
231,1804.5800000000002,0.05993962369151744
232,1817.0900000000001,0.05673435564330633
233,1825.4799999999998,0.057092427575801054
234,1833.8999999999999,0.05553075188707704
235,1846.61,0.0520945163640744
236,1855.14,0.05211764606421503
237,1863.7,0.052929278143136936
238,1876.62,0.055059249271603175
239,1885.28,0.0518591226131293
240,1893.98,0.05016318245969713
241,1905.46072,0.05165288481942727
242,1907.11,0.051870674349901454
243,1915.91,0.05046957619101051
244,1924.76,0.04938572338348951
245,1933.64,0.05007461178679047
246,1947.04,0.05161950595393382
247,1956.03,0.04900490213024865
248,1965.06,0.05160416658765942
249,1974.13,0.05233768932616614
250,1983.24,0.05023555034576881
251,1996.9899999999998,0.04902365197250172
252,2006.21,0.04961775076511826
253,2015.47,0.04853935783883076
254,2024.77,0.04950109319363919
255,2034.1200000000001,0.04778523389981758
256,2043.51,0.0485462428870919
257,2052.94,0.04625068015546217
258,2067.17,0.04659849115534649
259,2071.93,0.04892363660576457
260,2076.71,0.04751754619673063
261,2086.3,0.04846169658948471
262,2095.93,0.04641746526333474
263,2105.6,0.04662135221828072
264,2115.32,0.04673719452459663
265,2125.08,0.0468545651120085
266,2134.8900000000003,0.04470701105079031
267,2144.75,0.045155262340942054
268,2154.65,0.04595993191218975
269,2164.59,0.044604529764533385
270,2174.58,0.04428830296824697
271,2184.62,0.04380669152333049
272,2187.7616199999998,0.04415590591042156
273,2194.7,0.044941281229898336
274,2204.83,0.04388174273738038
275,2215.01,0.04228496136977597
276,2225.24,0.04137222712708508
277,2235.51,0.04308838258432503
278,2245.83,0.04175555516647851
279,2256.19,0.040393557448562815
280,2266.61,0.04065434428054336
281,2277.0699999999997,0.04122974081245474
282,2287.58,0.04173663446927965
283,2292.85,0.03993513743516616
284,2303.43,0.040129933066870016
285,2314.07,0.03898597324847011
286,2324.75,0.03390504313000104
287,2335.48,0.037013290136445505
288,2346.26,0.0359014942678035
289,2357.09,0.037729645524075026
290,2362.52,0.03559511728968485
291,2373.43,0.036167837945818036
292,2384.38,0.034184148301882045
293,2395.39,0.0354454532078423
294,2406.44,0.03450773781373338
295,2417.55,0.034800266969520696
296,2423.13,0.036178720109871124
297,2434.31,0.0350826412405374
298,2445.5499999999997,0.03619063692109991
299,2456.83,0.03575618230159325
300,2462.5,0.03540715226678803
301,2473.86,0.03439624704714302
302,2485.28,0.03449573637739426
303,2496.76,0.03277120025754173
304,2502.51,0.03543932962259818
305,2511.88643,0.03318607677026453
306,2514.0600000000004,0.032666104456903544
307,2519.8599999999997,0.03302379569690132
308,2525.67,0.03222518521489909
309,2537.32,0.032446609084894606
310,2543.17,0.03213682171489236
311,2554.9100000000003,0.033656270086887846
312,2566.71,0.032887648126883315
313,2572.62,0.034011560424881036
314,2584.5,0.033609884688876476
315,2596.4300000000003,0.03315095034287189
316,2602.41,0.03222001058686959
317,2614.42,0.031780872464864975
318,2626.4900000000002,0.03266897401086033
319,2632.55,0.033599290478858006
320,2644.7,0.03556291824885333
321,2656.8999999999996,0.03637802740884864
322,2663.03,0.033744821822846285
323,2675.3199999999997,0.034575395484841565
324,2687.6699999999996,0.03475686881483681
325,2693.87,0.03312309117483443
326,2706.2999999999997,0.03380758072882965
327,2712.54,0.032284666200827254
328,2725.0600000000004,0.03183865025682244
329,2737.64,0.032865303980817606
330,2743.95,0.029774577398815186
331,2756.6099999999997,0.030373987346810318
332,2762.9700000000003,0.031236992154807873
333,2775.72,0.032059886604802974
334,2782.1200000000003,0.03038748452480051
335,2794.96,0.026259463476795575
336,2807.8599999999997,0.027319652096790617
337,2814.34,0.031330376240788126
338,2827.33,0.03247240936278313
339,2833.84,0.031599648340780634
340,2846.92,0.0305664259647756
341,2853.4900000000002,0.029247124610773077
342,2866.66,0.03172841673676802
343,2873.27,0.032149608494765475
344,2884.0315,0.031881038972304473
345,2886.5299999999997,0.031821013386837925
346,2893.1800000000003,0.03200189515742198
347,2913.2400000000002,0.03404838403229662
348,2926.68,0.03273431392652967
349,2946.97,0.03208961752429669
350,2967.4,0.03226398747512863
351,2987.97,0.032124803779025504
352,3008.6800000000003,0.0321734264359873
353,3029.54,0.032159453042661525
354,3050.53,0.03214555840575318
355,3071.68,0.03219462531520475
356,3092.97,0.03205427857772125
357,3107.2499999999995,0.03229826659034387
358,3128.79,0.031590579769047736
359,3150.4700000000003,0.031451439300816536
360,3172.31,0.03168546037894525
361,3186.9500000000003,0.030210791870877687
362,3209.05,0.030977590461841266
363,3231.29,0.029588055405869777
364,3253.69,0.0315036818962582
365,3268.71,0.03258111206079544
366,3291.3599999999997,0.03217763846737123
367,3306.56,0.031719365371563384
368,3311.31121,0.03157882871576863
369,3321.8199999999997,0.03127485500466145
370,3329.48,0.03248870959498941
371,3337.1499999999996,0.031715568316636335
372,3344.85,0.031024339432240155
373,3352.56,0.030654444679162944
374,3360.2799999999997,0.0314617240574047
375,3368.03,0.03127256582960335
376,3375.79,0.028311401733120974
377,3383.58,0.02910488003059549
378,3391.38,0.03145988245938897
379,3399.19,0.032228799019501424
380,3407.0299999999997,0.03052697797357077
381,3414.88,0.031082241058959084
382,3422.76,0.0324243465383043
383,3430.65,0.03171276614896847
384,3438.55,0.03190520989095162
385,3446.48,0.028408346026891657
386,3454.43,0.031267660425469634
387,3462.3900000000003,0.02903292895536657
388,3470.37,0.030337635747901444
389,3478.37,0.028176210803074246
390,3486.39,0.029912984120884986
391,3494.43,0.029259895701333652
392,3502.48,0.030951401413101286
393,3510.56,0.030394549518825816
394,3518.6499999999996,0.029373371755869314
395,3526.7599999999998,0.02902146225555074
396,3534.89,0.030699811017870105
397,3543.04,0.0321632380428274
398,3551.21,0.03177351333042262
399,3559.39,0.031135632749336818
400,3567.6000000000004,0.030573454562207905
401,3575.82,0.02821066050639796
402,3584.0699999999997,0.027268348844544918
403,3592.3300000000004,0.027429501314010833
404,3600.61,0.031196282046114687
405,3606.07,0.029672567746270122
406,3608.8199999999997,0.028211803858985775
407,3611.57,0.030800629971701427
408,3614.31,0.028268541953098112
409,3617.0600000000004,0.029759618065813766
410,3619.8,0.02876504004721045
411,3622.5499999999997,0.033440026159926105
412,3625.3,0.03359842227264175
413,3628.04,0.032207544254038434
414,3630.79,0.02899152036675409
415,3633.5299999999997,0.02949817234815077
416,3636.28,0.026240608460866423
417,3639.0299999999997,0.03291961457358208
418,3641.7699999999995,0.028433156554978762
419,3644.52,0.02857103266769441
420,3647.2700000000004,0.029294778780410063
421,3650.01,0.031600620761806746
422,3652.7599999999998,0.0317341868745224
423,3655.5,0.030036278855919085
424,3658.25,0.028916914968634737
425,3661.0,0.029738071081350386
426,3663.74,0.03054936306274707
427,3666.4900000000002,0.02765421917546272
428,3669.23,0.03125119115685941
429,3671.98,0.031860817269575056
430,3674.73,0.02910797338229071
431,3677.47,0.028473415363687395
432,3680.2200000000003,0.02833244147640305
433,3682.96,0.029751093457799735
434,3685.71,0.03126031957051539
435,3688.46,0.027184825683231037
436,3691.2,0.030756007664627723
437,3693.95,0.030384393777343373
438,3696.69,0.03193913575874006
439,3699.44,0.03052325187145571
440,3702.19,0.02926685798417136
441,3704.9300000000003,0.027973839965568046
442,3707.68,0.029689826078283695
443,3710.4199999999996,0.03272335805968038
444,3713.17,0.03452241417239603
445,3715.9199999999996,0.03351860028511169
446,3718.66,0.040083672266508365
447,3721.41,0.06374313837922402
448,3724.15,0.1017282103606207
449,3726.9,0.13458454647333634
450,3729.65,0.11699398258605201
451,3732.39,0.07713857456744869
452,3735.1400000000003,0.046248580680164346
453,3737.88,0.03230496266156103
454,3740.6299999999997,0.032823868774276684
455,3743.38,0.031362144886992335
456,3746.12,0.029203446868389018
457,3748.8700000000003,0.029125972981104666
458,3751.62,0.02996479909382032
459,3754.36,0.032855561075217005
460,3757.11,0.03351866718793266
461,3759.8500000000004,0.03359987916932934
462,3762.6,0.033487065282044995
463,3765.35,0.03345399139476064
464,3768.09,0.031728863376157324
465,3770.8399999999997,0.03391133948887298
466,3773.5800000000004,0.03568622147026967
467,3776.33,0.037000137582985315
468,3779.0800000000004,0.038445363695700965
469,3781.82,0.03858294567709765
470,3784.5699999999997,0.03808621178981331
471,3787.31,0.037387223771209996
472,3790.06,0.03439083988392564
473,3792.81,0.03272952599664129
474,3795.5499999999997,0.03239436797803798
475,3798.3,0.03239424409075363
476,3801.04,0.03191440607215031
477,3801.8939600000003,0.032621642115792195
478,3803.7900000000004,0.03419278481646018
479,3806.54,0.0378877765864848
480,3809.2799999999997,0.04075880962280024
481,3812.03,0.03872917139282486
482,3814.77,0.03832223442914031
483,3817.52,0.03707377619916493
484,3820.27,0.03730505796918955
485,3823.01,0.03629457100550499
486,3825.76,0.03510340277552961
487,3828.5000000000005,0.03308731581184505
488,3831.25,0.03061457758186967
489,3834.0,0.031086529351894293
490,3836.7400000000002,0.031162312388209733
491,3839.49,0.03154401415823435
492,3842.23,0.03271612719454979
493,3844.98,0.035348228964574416
494,3847.7299999999996,0.03907712073459904
495,3850.47,0.03888984377091448
496,3853.22,0.0393861155409391
497,3855.9700000000003,0.04090136731096372
498,3858.71,0.03957193034727916
499,3861.46,0.04175518211730378
500,3864.2,0.044479635153619225
501,3866.9500000000003,0.043459886923643845
502,3869.7,0.04171911869366847
503,3872.4399999999996,0.0417968517299839
504,3875.19,0.039229073500008524
505,3877.93,0.037039676536323965
506,3880.6800000000003,0.03667599830634859
507,3883.43,0.03502406007637321
508,3886.17,0.03663737311268865
509,3888.92,0.03563101488271327
510,3891.6600000000003,0.03412917791902871
511,3894.41,0.03665097968905333
512,3897.16,0.03712387145907795
513,3899.9,0.0377626444953934
514,3902.6499999999996,0.038799446265418015
515,3905.3900000000003,0.04020458930173346
516,3908.14,0.04082932107175807
517,3910.8900000000003,0.041172322841782696
518,3913.63,0.04073196587809814
519,3916.3799999999997,0.04074407764812275
520,3919.12,0.0391524906844382
521,3921.87,0.03867756245446282
522,3924.62,0.036807404224487444
523,3927.3599999999997,0.033341177260802886
524,3930.11,0.032152899030827506
525,3932.85,0.03167431206714295
526,3935.6000000000004,0.033823683837167565
527,3938.35,0.035476935607192187
528,3941.0899999999997,0.03793922864350763
529,3943.84,0.037872080413532246
530,3946.58,0.039195573449847684
531,3949.33,0.03894697521987231
532,3952.08,0.04001050698989693
533,3954.82,0.03840365002621237
534,3957.57,0.035820121796236996
535,3960.32,0.03240530356626161
536,3963.06,0.02976703660257705
537,3965.81,0.029258218372601674
538,3968.55,0.030320971408917114
539,3971.2999999999997,0.030516933178941736
540,3974.05,0.032263304948966356
541,3976.79,0.034541277985281796
542,3979.54,0.03744745975530642
543,3982.28,0.04040731279162186
544,3985.0299999999997,0.04035973456164649
545,3987.78,0.0414571663316711
546,3990.52,0.04252854936798654
547,3993.27,0.041655391138011165
548,3996.0099999999998,0.0425233641743266
549,3998.76,0.043277965944351224
550,4001.5099999999998,0.043233247714375846
551,4004.2499999999995,0.04239133075069129
552,4007.0,0.04351312252071591
553,4009.74,0.045313155557031345
554,4012.4900000000002,0.045383987327055966
555,4015.24,0.04469847909708059
556,4017.98,0.04526039213339603
557,4020.73,0.04420673390342065
558,4023.4700000000003,0.043158056939736095
559,4026.22,0.04436101870976072
560,4028.9700000000003,0.04266085047978534
561,4031.71,0.042874183516100776
562,4034.4600000000005,0.044447195286125396
563,4037.2000000000003,0.04457172832244084
564,4039.95,0.04257598009246546
565,4042.7000000000003,0.043586041862490085
566,4045.44,0.04334050489880552
567,4048.19,0.04343808666883014
568,4050.93,0.042943299705145585
569,4053.68,0.0415721114751702
570,4056.43,0.04307207324519482
571,4059.1699999999996,0.041064126281510266
572,4061.92,0.04288925805153489
