,lambda (Angstroms),Total Flux (erg/s/cm^2/Angstrom)
0,100.05,31.122552220414942
1,101.91000000000001,31.0359924947641
2,104.04,30.93686074346541
3,104.712855,30.90554765796564
4,105.97,30.598181954638772
5,107.95,30.11408745100511
6,109.94999999999999,29.62513452227212
7,114.08,28.61539260801049
8,118.09,27.634992678844842
9,120.22644299999999,27.113137499723987
10,121.11999999999999,26.9301813079176
11,125.08,26.1186112975358
12,127.11999999999999,25.700508936127
13,128.0,25.520176034264377
14,130.98,24.909414921775056
15,131.89,24.72310266430348
16,134.03,24.28449895886483
17,137.15,23.645316430533715
18,138.038426,23.463243802112316
19,140.02,23.172999525016575
20,142.96,22.74546123579839
21,146.96,22.16577995134507
22,151.08,21.562782295148146
23,154.95,20.996547772167062
24,158.489319,20.478779502653076
25,158.93,20.430066137905555
26,161.88000000000002,20.10395925555106
27,166.04000000000002,19.644214346874907
28,169.9,19.21746669199751
29,173.05999999999997,18.868178625983894
30,177.09,18.422637521953867
31,179.97,18.104261237485755
32,181.970086,17.88317445320615
33,182.06,17.875597008266208
34,185.87,17.554498366212947
35,191.07,17.116171183253122
36,194.18,16.85421172582907
37,197.79000000000002,16.549981080812728
38,201.92999999999998,16.20110448314856
39,205.21,15.924654903743127
40,208.929613,15.610352560435071
41,209.99,15.54299222964172
42,215.88,15.171209548583178
43,219.89000000000001,14.917473596470312
44,222.95,14.723452728399154
45,227.09,14.461580676891106
46,230.25,14.276016943131344
47,233.99,14.0686690543777
48,239.88329199999998,13.712434403009743
49,240.0,13.707080682770274
50,246.15,13.400066877924992
51,251.89,13.123414202736065
52,257.15999999999997,12.848861862519051
53,260.14,12.715502221846055
54,263.76,12.542454087807045
55,269.28000000000003,12.271119378775177
56,274.28999999999996,12.024554734925612
57,275.42287,11.968771556539597
58,278.74,11.843202295799184
59,283.92,11.647734575429858
60,289.87,11.419188433248877
61,295.94,11.191105085460881
62,300.75,11.007518281546506
63,307.75,10.744487007804173
64,316.227766,10.425921682841217
65,317.84,10.380672461077168
66,328.25,10.08649033981577
67,338.21999999999997,9.803995675447263
68,347.70000000000005,9.535175126027656
69,356.62,9.283158190835374
70,363.078055,9.101326024097842
71,365.77,9.044503262830553
72,375.15,8.84509926091551
73,384.77,8.638318687736117
74,394.64,8.431316001989694
75,404.77,8.217214812373557
76,414.19,8.017215035247789
77,416.86938299999997,7.960125942558128
78,421.89,7.878091935121144
79,429.74,7.750215000607048
80,440.76,7.571905561722292
81,451.03,7.4049168169630875
82,460.46999999999997,7.251334426502824
83,470.10999999999996,7.094965695609082
84,478.630092,6.9571286256606415
85,479.96,6.940542498333043
86,490.01000000000005,6.814069941912333
87,500.27000000000004,6.686883830044025
88,506.06,6.61385362270314
89,511.92,6.543070690213054
90,520.24,6.4390132424796915
91,529.9100000000001,6.317736576868919
92,539.76,6.193483400874492
93,549.5408739999999,6.071249255011839
94,549.8,6.0687694834149974
95,560.02,5.972793823186719
96,570.4300000000001,5.874409274441475
97,579.7,5.785557106798019
98,590.48,5.683205900940793
99,600.0699999999999,5.59073124579508
100,609.82,5.494559321898239
101,619.73,5.404748789250271
102,629.8,5.308438207851175
103,630.957344,5.297515059403352
104,640.0300000000001,5.229593864332475
105,650.4300000000001,5.1508262216862475
106,657.9699999999999,5.0933159190177335
107,665.58,5.036639099706407
108,674.84,4.966982218100247
109,684.23,4.8950445955860085
110,695.35,4.81227711175658
111,705.02,4.738179392671097
112,716.48,4.653208888005157
113,724.43596,4.593351532355208
114,726.45,4.582073433615093
115,734.86,4.534957792422256
116,745.08,4.477440705051175
117,755.45,4.419333849157036
118,764.19,4.368503089213469
119,774.8199999999999,4.310865051879362
120,785.6,4.250004576022195
121,794.7,4.1995296356232865
122,805.76,4.137959050523076
123,815.09,4.0857947303888125
124,824.52,4.033177291239175
125,831.763771,3.991610329035171
126,834.0699999999999,3.9816036883030064
127,845.6700000000001,3.934429829370699
128,855.47,3.8932911771692673
129,865.37,3.8520388401494534
130,875.3900000000001,3.810252427347581
131,885.5300000000001,3.7678941687636507
132,895.7800000000001,3.7250881748795
133,904.07,3.690294685435636
134,914.54,3.648252030951046
135,925.13,3.619033160684396
136,935.84,3.591454284635689
137,944.5000000000001,3.57581061736381
138,954.992586,3.5467058074354343
139,955.44,3.5455047810893894
140,964.28,3.5169606242884144
141,975.45,3.4157086240998518
142,984.47,3.4220581135178616
143,995.87,3.3758591707202243
144,1005.09,3.3601660748259943
145,1014.39,3.31974946280687
146,1026.1299999999999,3.227582823978426
147,1035.63,3.2131191866470608
148,1045.21,3.215629403190801
149,1054.8799999999999,3.173217987844033
150,1064.64,3.1138910306067573
151,1074.49,3.0860813614789744
152,1084.43,3.025524050460683
153,1094.47,3.0071011817862727
154,1096.4782,2.9979408358559207
155,1104.6000000000001,2.9668591333668646
156,1114.82,2.9291817300536382
157,1125.13,2.884890491955851
158,1135.54,2.86810526854189
159,1146.05,2.824870329811751
160,1153.99,2.801550187707346
161,1164.67,2.7670649799397076
162,1175.45,2.702229426855892
163,1186.32,2.690112148987519
164,1194.55,2.6395434314662025
165,1205.6,2.586855864028711
166,1213.96,2.541060739596365
167,1225.19,2.534655672589756
168,1233.68,2.5307259612463806
169,1245.1,2.499009664139037
170,1253.73,2.4662162553530145
171,1258.92541,2.4443717971924235
172,1265.3300000000002,2.4235447085161126
173,1274.1,2.420352373240188
174,1285.89,2.395171185668562
175,1294.8000000000002,2.3548548365113784
176,1303.78,2.3323913104135676
177,1315.8400000000001,2.3201749089280876
178,1324.96,2.2939148889490184
179,1334.15,2.26219083202932
180,1346.49,2.2455386627813256
181,1355.8200000000002,2.22001011198037
182,1365.22,2.188488634238786
183,1374.69,2.168379369556572
184,1384.2099999999998,2.145862305631053
185,1393.81,2.1095307909162426
186,1403.47,2.0879456431094656
187,1416.46,2.062104463698489
188,1426.27,2.0394822381617925
189,1436.1599999999999,2.0158947618358067
190,1442.79,2.003176120173391
191,1445.43977,1.997391838089499
192,1446.12,1.996392839307394
193,1456.1399999999999,1.9770576123294485
194,1466.23,1.9545278506919759
195,1476.3999999999999,1.9371928137293306
196,1486.6299999999999,1.9208455927728054
197,1493.49,1.9098863861392017
198,1503.84,1.8885145071949165
199,1510.79,1.869618844570493
200,1517.76,1.8616407006147764
201,1524.77,1.8482804339964727
202,1535.33,1.8221290410736084
203,1545.98,1.8072728421599233
204,1556.69,1.7865825892523588
205,1563.8799999999999,1.7764109206524157
206,1574.72,1.7619089590914443
207,1585.63,1.7458978228709465
208,1596.6299999999999,1.728677230659629
209,1603.9999999999998,1.7146363600780468
210,1615.11,1.6958306005446155
211,1626.31,1.674201215020365
212,1633.82,1.664938525119729
213,1645.1399999999999,1.6465553916077185
214,1656.54,1.623423552770535
215,1659.58691,1.620109435048657
216,1664.19,1.6173797444488256
217,1671.8700000000001,1.6019288362367632
218,1675.73,1.6043411745051797
219,1683.46,1.597124787229236
220,1695.1299999999999,1.579632127719501
221,1706.88,1.5635588577075559
222,1714.76,1.5513686432399707
223,1726.65,1.53708058984916
224,1734.6100000000001,1.5310676948793664
225,1746.64,1.5156060981096902
226,1754.6999999999998,1.5094176750121349
227,1766.8600000000001,1.490443478676369
228,1775.02,1.4818250274510527
229,1783.21,1.4733178047874074
230,1795.57,1.4624523421961195
231,1803.86,1.4521338614047132
232,1816.36,1.4329338854345592
233,1824.75,1.4241778865153918
234,1833.17,1.4122999861578962
235,1845.88,1.3925826301194435
236,1854.3999999999999,1.3833331516341867
237,1862.9599999999998,1.3751608678978253
238,1875.8700000000001,1.3635845056038502
239,1884.5300000000002,1.3494698437397274
240,1893.23,1.3379481666245001
241,1905.46072,1.3259800040479526
242,1906.35,1.3253845711521286
243,1915.1499999999999,1.3160765328045356
244,1923.9899999999998,1.30679811782809
245,1932.87,1.2989229362227916
246,1946.27,1.2920611955571388
247,1955.25,1.2812538323797085
248,1968.81,1.2747627551986451
249,1977.8899999999999,1.2673272204490833
250,1982.45,1.2619074847598757
251,1996.1999999999998,1.2491198185917622
252,2005.41,1.241944739798429
253,2014.67,1.2329678302190297
254,2023.97,1.225210704010778
255,2033.3100000000002,1.2170483911736738
256,2042.69,1.2116339817077166
257,2056.85,1.1966074750938627
258,2066.35,1.1885565457413478
259,2075.88,1.184815883917193
260,2085.4700000000003,1.196257937149759
261,2095.09,1.182951847910686
262,2104.7599999999998,1.1737726678855473
263,2114.48,1.170087107074342
264,2124.2400000000002,1.1577539296342843
265,2134.04,1.145296005565374
266,2143.89,1.146574920710398
267,2153.79,1.1387181050693558
268,2163.73,1.123633472799461
269,2173.7200000000003,1.1153344997435002
270,2183.75,1.116235500058687
271,2187.7616199999998,1.1129836918426765
272,2193.83,1.1097280092645085
273,2203.96,1.1019017088369736
274,2214.13,1.0840351156930415
275,2224.35,1.0836100966536133
276,2234.62,1.0935302117186891
277,2244.93,1.0834660340673679
278,2255.29,1.06342355052055
279,2265.7,1.0546255110782363
280,2276.1600000000003,1.053083585740426
281,2286.67,1.06348489450712
282,2297.2200000000003,1.0450989905574166
283,2302.52,1.0532682056348173
284,2313.15,1.0363960862523198
285,2323.82,1.0158428041534258
286,2334.55,1.008749262979936
287,2345.33,0.9908334959109503
288,2356.15,1.0077134161255674
289,2367.0299999999997,0.9808858872655892
290,2372.48,0.9863308746565007
291,2383.43,0.9649211735428279
292,2394.44,0.9651501133545592
293,2405.4900000000002,0.9581511504498936
294,2416.59,0.956839391649732
295,2427.75,0.9752724537749751
296,2433.34,0.9721003366584969
297,2444.57,0.9785166065300451
298,2455.86,0.9765146473269979
299,2467.19,0.9578589354075536
300,2472.88,0.9463748965000833
301,2484.3,0.9175088359687457
302,2495.7599999999998,0.9179981527210115
303,2507.28,0.9379257003986812
304,2511.88643,0.9041794664021724
305,2513.06,0.8957535271140316
306,2518.86,0.8877902283071845
307,2524.6600000000003,0.8870949195003375
308,2536.31,0.9003911833624466
309,2542.16,0.9003294660314026
310,2553.9,0.9401452845499572
311,2565.6800000000003,0.9092439862491538
312,2577.53,0.9254509460144752
313,2583.47,0.9117707433398768
314,2595.3900000000003,0.898322761171322
315,2607.37,0.8828690587737313
316,2613.38,0.8742003941652572
317,2625.45,0.8900014564241119
318,2637.57,0.9459319301587694
319,2643.65,0.9935259336164195
320,2655.8500000000004,1.0677971537123618
321,2661.9700000000003,0.9617514703506543
322,2674.2599999999998,0.9804061451030426
323,2686.6,1.0081356613312336
324,2692.79,0.9416667760356504
325,2705.22,0.9772068469202867
326,2717.71,0.913604087575887
327,2723.9799999999996,0.8785444286415887
328,2736.5499999999997,0.9064699956584736
329,2742.8599999999997,0.8397345899048178
330,2755.52,0.8647700715781481
331,2761.8700000000003,0.8984579390051344
332,2774.62,0.9033366153349105
333,2787.42,0.8334093331404895
334,2793.85,0.7792759969287611
335,2806.75,0.783112577685946
336,2813.2200000000003,0.8674775346548597
337,2826.2,0.9287666617733298
338,2832.7200000000003,0.9130239102180464
339,2845.7900000000004,0.8498093919929619
340,2852.3500000000004,0.7884712336183213
341,2865.5199999999995,0.898991718344843
342,2872.1200000000003,0.9730461931508445
343,2884.0315,0.94389627277982
344,2885.38,0.9407654297360957
345,2892.0299999999997,0.9994479246201919
346,2912.0800000000004,1.1065746407744963
347,2932.27,1.044976121031624
348,2952.59,1.0097218822413727
349,2973.06,1.0201929907041467
350,2986.78,1.021386872780808
351,3007.48,1.0164880936982197
352,3028.3300000000004,1.0378338618686558
353,3049.3199999999997,1.0496809941419154
354,3070.46,1.0836803736681997
355,3091.7400000000002,1.0655527172973067
356,3113.17,1.1345032081794386
357,3127.54,1.0906632950192072
358,3149.22,1.0848061646563805
359,3171.05,1.1298583815465781
360,3193.03,1.0503783456898008
361,3207.77,1.0973648090870303
362,3230.0,1.008842251985294
363,3252.39,1.1841254252867843
364,3267.41,1.2848885168896598
365,3290.0600000000004,1.2644986520963926
366,3311.31121,1.2154608162232192
367,3312.86,1.2120232223527454
368,3320.5,1.1727216408739158
369,3328.15,1.230869122508334
370,3335.8199999999997,1.2630778303692471
371,3343.51,1.1978341644566557
372,3351.22,1.1876307247705595
373,3358.95,1.2673833113109585
374,3366.69,1.1506404609646048
375,3374.45,1.0173815368447467
376,3382.23,1.1128282389513835
377,3390.03,1.2313639672845158
378,3397.8399999999997,1.1438228587308958
379,3405.67,1.2696164764037707
380,3413.53,1.2070267834163886
381,3421.3900000000003,1.2570045904290061
382,3429.28,1.2215806867813668
383,3437.19,1.2314039093602227
384,3445.11,0.9727901950523261
385,3453.0499999999997,1.2685329069709248
386,3461.0099999999998,1.1272566451160186
387,3468.9900000000002,1.186835809487608
388,3476.99,1.1398740000856922
389,3484.9999999999995,1.202678653797024
390,3493.04,1.0958754968480986
391,3501.09,1.179813703012421
392,3509.16,1.2541203354032384
393,3517.25,1.1159909940205512
394,3525.36,1.131474678864359
395,3533.48,1.2672710268214147
396,3541.63,1.331333264118213
397,3549.79,1.328139464528259
398,3557.98,1.2208731542780478
399,3566.18,1.2706658071410843
400,3574.3999999999996,1.0466371862306159
401,3582.6400000000003,1.0352007915466426
402,3590.9,0.9647156230891646
403,3599.1800000000003,1.3107498808581817
404,3607.47,1.1600980017404465
405,3615.79,1.1916248119624542
406,3624.1299999999997,1.1000918484109572
407,3632.48,1.3778877479727076
408,3640.85,1.3153539737609532
409,3649.2400000000002,1.2089055257756942
410,3657.66,1.4419152671301778
411,3666.09,1.4697099715979092
412,3674.54,1.4327175022921357
413,3683.0099999999998,1.2694315592128576
414,3691.5,1.2377029423600743
415,3700.01,1.4007453517337867
416,3708.54,1.1474327873339938
417,3717.09,1.5039008491606964
418,3725.6600000000003,1.0643018372138942
419,3734.25,1.2795195514935873
420,3742.86,1.2397974919997754
421,3751.48,0.9517261956192113
422,3760.1299999999997,1.35168688857839
423,3768.7999999999997,1.2092394077640638
424,3777.4900000000002,1.3866093531762327
425,3786.2000000000003,1.510543824814897
426,3794.9300000000003,1.2566518226800563
427,3801.8939600000003,1.199301987404447
428,3803.67,1.1847859556581164
429,3812.44,1.3860924362103566
430,3821.23,1.1646337825107205
431,3830.04,0.9598237945592082
432,3838.87,0.9448532723558196
433,3847.7200000000003,1.2380423159005545
434,3856.5899999999997,1.2537008251934134
435,3865.48,1.2435250002343958
436,3874.39,1.128320241023502
437,3883.32,1.1498342475607317
438,3886.7000000000003,1.2531662589936363
439,3890.75,1.2762279229886846
440,3894.7999999999997,1.336685286983733
441,3898.85,1.391385450978781
442,3902.9,1.3351320149738293
443,3906.9500000000003,1.4305098789688775
444,3911.0099999999998,1.4008889258379877
445,3915.0600000000004,1.379937189833036
446,3919.11,1.3935292538280841
447,3923.16,1.1670361178231325
448,3927.21,1.1062636818181806
449,3931.2599999999998,0.948632145813229
450,3935.3100000000004,0.9649783098082771
451,3939.37,1.0840259566773873
452,3943.42,1.2128174206724356
453,3947.4700000000003,1.3259467846674837
454,3951.52,1.357940348662532
455,3955.5699999999997,1.2633812126575803
456,3959.62,1.1896988766526286
457,3963.67,1.1086986406476766
458,3967.7200000000003,1.119438404642725
459,3971.7799999999997,1.1428681515118353
460,3975.8300000000004,1.2617588155068833
461,3979.88,1.4185295795019315
462,3983.93,1.60376504349698
463,3987.98,1.611707607492028
464,3992.0299999999997,1.6855571714870765
465,3996.0800000000004,1.7654927354821246
466,4000.14,1.6749077823512346
467,4004.19,1.6977013463462831
468,4008.2400000000002,1.8938059103413314
469,4012.29,1.8317394743363795
470,4016.3399999999997,1.8354860383314278
471,4020.39,1.8799636023264759
472,4024.44,1.6883911663215243
473,4028.5,1.7658982131906342
474,4032.5499999999997,1.7430097771856827
475,4036.6000000000004,1.825683341180731
476,4040.65,1.756467905175779
477,4044.7,1.7768404691708275
478,4048.75,1.7929080331658755
479,4052.7999999999997,1.7325165971609238
480,4056.8500000000004,1.739000161155972
481,4060.91,1.7246052080250822
482,4064.96,1.7108107720201304
483,4069.01,1.6614493360151785
484,4073.06,1.782869900010227
485,4077.11,1.7119264640052752
486,4081.16,1.8022470280003233
487,4085.21,1.8616825919953714
488,4089.27,1.7761556388644817
489,4093.3199999999997,1.8226242028595299
490,4097.37,1.7519017668545784
491,4101.42,1.8358663308496266
492,4105.47,1.7288248948446747
493,4109.5199999999995,1.7437084588397231
494,4113.57,1.7403520228347713
495,4117.62,1.8549395868298195
496,4121.679999999999,1.7427176336989296
497,4125.7300000000005,1.7122431976939778
498,4129.78,1.783569761689026
499,4133.83,1.6560283256840744
500,4137.88,1.7275708896791224
501,4141.929999999999,1.6844444536741712
502,4145.9800000000005,1.712888017669219
503,4150.04,1.7291630645383291
504,4154.09,1.7057366285333775
505,4158.14,1.7604901925284255
506,4162.1900000000005,1.739216756523474
507,4166.24,1.7033003205185222
508,4170.29,1.7215208845135703
509,4174.34,1.7552364485086185
510,4178.39,1.729497012503667
511,4182.45,1.606090059372777
512,4186.5,1.6949516233678255
513,4190.55,1.6753991873628735
514,4194.6,1.7125587513579217
515,4198.65,1.7460063153529701
516,4202.7,1.8114678793480183
517,4206.75,1.8060674433430666
518,4210.8099999999995,1.7922034902121768
519,4214.860000000001,1.840985054207225
520,4218.91,1.6742726182022731
521,4222.96,1.6875421821973213
522,4227.01,1.7025337461923697
523,4231.0599999999995,1.7325853101874178
524,4235.110000000001,1.798154874182466
525,4239.16,1.8166974381775145
526,4243.219999999999,1.9045344850466246
527,4247.27,1.9203870490416726
528,4251.32,1.815544613036721
529,4255.37,1.7786671770317692
530,4259.42,1.8509627410268177
531,4263.469999999999,1.8177973050218659
532,4267.52,1.798083869016914
533,4271.58,1.8582109158860243
534,4275.63,1.8344554798810724
535,4279.68,1.7409190438761206
536,4283.7300000000005,1.7237886078711688
537,4287.78,1.6734051718662173
538,4291.83,1.6233437358612655
539,4295.88,1.6091122998563137
540,4299.93,1.523323863851362
541,4303.99,1.528730910720472
542,4308.04,1.5200474747155202
543,4312.09,1.6455030387105682
544,4316.14,1.7915606027056166
545,4320.19,1.856377166700665
546,4324.24,1.8771797306957132
547,4328.29,2.0279252946907613
548,4332.349999999999,1.8496353415598716
549,4336.400000000001,2.0279299055549194
550,4340.45,1.990129469549968
551,4344.5,1.9908090335450164
552,4348.55,1.9971385975400644
553,4352.599999999999,1.9543961615351129
554,4356.650000000001,2.051442725530161
555,4360.7,2.1806582895252093
556,4364.759999999999,2.1179983363943196
557,4365.15832,2.110031991863578
558,4368.81,2.0371625614807947
559,4372.86,1.9292276384836309
560,4376.91,1.9311637154864671
561,4380.96,1.8909097924893032
562,4385.009999999999,1.9032848694921398
563,4389.06,1.9002169464949756
564,4393.12,1.9682739545521402
565,4397.17,2.004109031554976
566,4401.22,1.9765061085578126
567,4405.27,2.057746185560649
568,4409.32,2.031758262563485
569,4413.37,2.0035633395663215
570,4417.42,2.0456944165691575
571,4421.47,2.121184493571994
572,4425.53,2.0546095016291583
573,4429.58,2.138009578631994
574,4433.63,2.1962276556348304
575,4437.68,2.1627067326376666
576,4441.73,2.118531809640503
577,4445.78,2.1905168866433393
578,4449.83,2.1782489636461757
579,4453.889999999999,2.06078097170334
580,4457.9400000000005,2.087038048706176
581,4461.99,2.1753881257090124
582,4466.04,2.1145332027118484
583,4470.09,2.1738742797146844
584,4474.139999999999,2.262116356717521
585,4478.1900000000005,2.232308433720357
586,4482.25,2.2854594417775216
587,4486.3,2.2626465187803575
588,4490.35,2.301216595783194
589,4494.4,2.3157446727860305
590,4498.45,2.361803749788866
591,4502.5,2.401082826791703
592,4506.549999999999,2.398554903794539
593,4510.6,2.3696599807973753
594,4514.66,2.3190099888545395
595,4518.71,2.2721450658573756
596,4522.76,2.245726142860212
597,4526.81,2.183257219863048
