,lambda (Angstroms),Total Flux (erg/s/cm^2/Angstrom)
0,102.07000000000001,0.0015900265889517383
1,103.97,0.0018594651857270748
2,104.712855,0.001964811102860058
3,105.9,0.0018243625808715815
4,108.12,0.0015617231920426891
5,109.87,0.0013547208222978414
6,114.0,0.0008661457274440015
7,118.0,0.000392964731241493
8,120.22644299999999,0.00013017306942135777
9,121.02999999999999,0.00012600305484378727
10,125.0,0.00010459618112250584
11,127.03,9.363364488215289e-05
12,127.91,8.892371790111322e-05
13,130.89,7.284536453350158e-05
14,132.1,6.658576643457195e-05
15,133.94,5.669485401967074e-05
16,137.06,4.032393935962088e-05
17,138.038426,3.5095056950690646e-05
18,139.93,3.4976262934449934e-05
19,142.86,4.0390838847986154e-05
20,146.85999999999999,5.347322029991273e-05
21,150.97,5.50669227417673e-05
22,154.84,5.721075029650627e-05
23,158.489319,5.926997597683716e-05
24,159.18,5.958806686177291e-05
25,162.14,6.115836646500866e-05
26,165.92,6.397574670157325e-05
27,170.17999999999998,6.622578633325713e-05
28,172.94,6.841070285519317e-05
29,176.97,7.098823194338238e-05
30,179.84,7.314590916003326e-05
31,181.93,7.470921235961526e-05
32,181.970086,7.473643475434485e-05
33,186.16,7.922712662897736e-05
34,190.94,8.528865309850941e-05
35,194.04000000000002,8.950956859130216e-05
36,198.10999999999999,9.43977578028075e-05
37,201.79,9.972884232328406e-05
38,205.07000000000002,0.00010385610613501316
39,208.929613,0.0001065303328236829
40,209.84,0.0001076026255799079
41,216.22,0.00012283021374113475
42,220.23999999999998,0.00013104203612485446
43,222.79,0.0001355945902488558
44,226.93,0.00014442925106194032
45,230.09,0.00020581205303521255
46,233.83,0.0003254702857504145
47,239.83,0.0003992991072186529
48,239.88329199999998,0.0003992178495441338
49,245.98,0.00038346649258734
50,252.29000000000002,0.000405980831175311
51,256.97999999999996,0.0003500412357676381
52,259.95,0.0003972666314263185
53,264.18,0.00041598413130383314
54,269.09,0.0004163300207597662
55,274.09,0.0004157203676599017
56,275.42287,0.0004155512556854702
57,279.19,0.00041879841515729413
58,283.72,0.00042294492933721295
59,290.33,0.0004111732897630989
60,295.72999999999996,0.0004227769252093598
61,301.23,0.00042112652057129215
62,308.25,0.0004309300266514312
63,316.227766,0.0004429332401417959
64,318.34000000000003,0.00044424279203234647
65,328.02,0.00044060517342940186
66,337.98,0.00043324483486686797
67,348.25,0.00042486405634907444
68,357.19,0.0004196910976393302
69,363.078055,0.00041692201564509976
70,366.35,0.0004175620191335
71,374.88,0.0004155959543595461
72,385.39,0.00040220013492528385
73,395.27,0.00041106922379202887
74,405.41,0.0004114579044710566
75,413.90000000000003,0.0004071507640336745
76,416.86938299999997,0.0004051277523992857
77,421.6,0.00040135248238215354
78,430.41999999999996,0.000396391442929807
79,441.46999999999997,0.00039351044690390794
80,450.71,0.0003872633627157353
81,460.15,0.00038121380484383604
82,469.78,0.00037612772197239644
83,478.630092,0.00037369106388142565
84,479.62,0.0003730178462265973
85,489.66,0.0003605911241226136
86,499.92,0.0003560947848012119
87,505.7,0.0003533746597254125
88,511.56,0.0003996958647523702
89,519.87,0.0003961800916762641
90,529.54,0.0003899300303470288
91,539.38,0.0003735650329861523
92,549.41,0.0003975827071193239
93,549.5408739999999,0.0003978258525769887
94,559.62,0.00041811256853990444
95,570.03,0.00043437225310058095
96,580.63,0.0004191812375715869
97,590.0600000000001,0.00045259976470003835
98,599.65,0.0004509105338582408
99,609.39,0.000460880092419335
100,619.29,0.0005178572930101802
101,629.36,0.0005352999882576358
102,630.957344,0.0005359115716777262
103,639.58,0.0005407260659004093
104,649.98,0.0005818668769498531
105,657.5,0.0006018950526317587
106,665.12,0.0006307341024583705
107,674.37,0.0006385965608436933
108,685.3299999999999,0.0006286786871034918
109,694.86,0.0007542309530939918
110,704.53,0.0007214114228870805
111,715.9699999999999,0.0008419121050414688
112,724.43596,0.0008683114374006289
113,725.9300000000001,0.0008729054146010505
114,734.34,0.0009045667652500674
115,744.56,0.0009905753628283017
116,754.9100000000001,0.0010474311118434413
117,765.41,0.0010785429586703946
118,774.28,0.0011867303759423068
119,785.0500000000001,0.0012522876988305244
120,794.14,0.0013184917262264297
121,805.1899999999999,0.0013853030983633661
122,814.51,0.0014392883090707188
123,825.84,0.0015673107304563744
124,831.763771,0.0014200845526225205
125,835.4,0.0013290488993688773
126,845.08,0.0016635093104384326
127,854.86,0.0017152462257545742
128,864.76,0.0018459291461666194
129,874.78,0.0019691690716745684
130,884.91,0.002124850251853762
131,895.15,0.002236958686704201
132,905.52,0.0022610488770752023
133,916.0,0.0031913083221174476
134,924.48,0.01948639468222797
135,935.1800000000001,0.0427838976366127
136,946.01,0.08224270434651801
137,954.7700000000001,0.11669256971851896
138,954.992586,0.11700372116142696
139,965.82,0.132140428056416
140,974.7599999999999,0.021855511485736313
141,986.05,0.11272902850106364
142,995.17,0.11859034837526962
143,1004.38,0.1721896664719184
144,1016.01,0.16443863677202972
145,1025.4099999999999,0.06984565111605781
146,1034.9,0.11429766368252871
147,1044.47,0.21927417466894877
148,1054.1399999999999,0.21477788368030531
149,1063.8899999999999,0.16943189111161105
150,1076.21,0.201368447783784
151,1086.17,0.15885955106745633
152,1096.22,0.21037285257357144
153,1096.4782,0.21006699598448372
154,1103.82,0.20136979363388768
155,1114.03,0.19275196249341645
156,1124.3400000000001,0.1729789251713539
157,1134.74,0.21927148228585916
158,1145.24,0.19860403321877318
159,1155.8400000000001,0.2103693779700959
160,1163.8500000000001,0.21676008282463313
161,1174.62,0.1499664170672506
162,1185.49,0.20891844512827681
163,1193.71,0.14387943700147235
164,1204.75,0.10375865455379335
165,1215.9,0.06856158530636393
166,1224.33,0.1399557441982177
167,1235.6499999999999,0.2113343444420831
168,1244.22,0.23225351467970912
169,1255.7299999999998,0.221295103178551
170,1258.92541,0.2100085781219725
171,1264.44,0.19053082989860604
172,1276.14,0.24488248134263443
173,1284.98,0.2558385202114559
174,1293.89,0.20228805938806213
175,1305.8600000000001,0.19951431201926043
176,1314.9099999999999,0.2482959518114362
177,1324.03,0.23711829191139683
178,1336.28,0.21036464577373426
179,1345.54,0.2488637864892644
180,1354.87,0.24041202751257937
181,1364.26,0.21476966879970985
182,1373.72,0.22488461039462512
183,1386.4299999999998,0.22696956627954828
184,1396.04,0.19587300853400239
185,1405.71,0.202290651052272
186,1415.46,0.20891589392229568
187,1425.27,0.21377893705613488
188,1435.15,0.21230878049775886
189,1441.77,0.2233423096054057
190,1445.43977,0.22505174428030017
191,1448.43,0.22644463677594018
192,1455.1100000000001,0.21977356142710705
193,1465.2,0.202755598662178
194,1475.36,0.20228863615556958
195,1485.58,0.2055764738703788
196,1495.8799999999999,0.2084374118804116
197,1506.25,0.197230350148765
198,1513.2,0.17578677579631138
199,1516.69,0.187488188675439
200,1523.69,0.1819640145075001
201,1534.25,0.15848255347700946
202,1544.8899999999999,0.17139079274174238
203,1555.6000000000001,0.16217333226479586
204,1566.3799999999999,0.16633157204617
205,1573.61,0.17700319872699882
206,1584.52,0.18491613898811124
207,1595.5,0.18835547950754425
208,1606.56,0.18406902032220082
209,1613.9800000000002,0.1840677477041856
210,1625.1599999999999,0.1745750889616775
211,1636.43,0.18534273055129588
212,1643.9799999999998,0.18748915841301897
213,1655.3799999999999,0.17377200048237565
214,1659.58691,0.17927907025889966
215,1666.85,0.18878701174396983
216,1670.69,0.1690381152301628
217,1678.4099999999999,0.18965692328052988
218,1686.1499999999999,0.19677753186988756
219,1693.9399999999998,0.1849171418067217
220,1705.68,0.17741405819419703
221,1713.5500000000002,0.16826097028699355
222,1725.43,0.167106190447403
223,1733.3899999999999,0.17741590496565715
224,1745.41,0.1729732288990007
225,1753.46,0.18322534584271252
226,1765.62,0.1686540735489902
227,1773.77,0.17218429318765494
228,1786.06,0.17498212439737146
229,1794.3100000000002,0.18534724673098915
230,1806.75,0.18364598198313503
231,1815.08,0.16982240647271507
232,1823.46,0.1729756323097716
233,1836.1,0.1663386729518234
234,1844.5800000000002,0.15311110148383283
235,1853.09,0.15381643082432817
236,1865.94,0.15775997712578116
237,1874.5500000000002,0.1694301091612294
238,1883.1999999999998,0.15631374227465886
239,1896.26,0.149622794235513
240,1905.01,0.1584895300438954
241,1905.46072,0.15817779162676474
242,1913.8,0.15240945249865007
243,1927.07,0.14893609152216203
244,1935.9599999999998,0.15346458269917948
245,1944.8999999999999,0.15958927213928475
246,1953.88,0.1489350601898603
247,1967.42,0.1621783898340466
248,1976.5,0.16633767441079783
249,1985.62,0.15739645759801932
250,1994.79,0.15275803904832866
251,2004.0,0.15703091910910824
252,2013.25,0.15205369778035813
253,2027.2,0.15812141318186468
254,2036.56,0.14996598803190778
255,2045.96,0.15487906149242117
256,2055.4,0.14621593356340482
257,2064.89,0.1475702038974763
258,2074.42,0.15848337284201805
259,2079.2,0.1510031067932153
260,2084.0,0.15594994004964766
261,2093.62,0.1479096058677475
262,2103.2799999999997,0.14893067029631765
263,2112.99,0.15030783298797562
264,2122.74,0.15204979429010385
265,2137.46,0.14222638294316312
266,2147.32,0.1448737404240846
267,2157.23,0.1496148961680939
268,2167.19,0.14487355017519105
269,2177.19,0.1438755027927585
270,2187.2400000000002,0.14125095367341375
271,2187.7616199999998,0.1415595538338451
272,2197.34,0.14722690084125026
273,2207.48,0.14321278168418083
274,2212.57,0.13676952265957693
275,2222.78,0.1330438054412654
276,2233.04,0.14027708960778093
277,2243.35,0.13489587515912355
278,2253.7,0.12971656181832786
279,2264.11,0.1321277501393246
280,2274.56,0.13489653956818304
281,2285.06,0.13740003038186852
282,2295.6,0.13004152230341567
283,2306.2,0.13038081588675532
284,2316.85,0.12541481085492204
285,2327.54,0.10221160693095041
286,2332.9,0.11763555538441273
287,2343.67,0.11420375367616444
288,2354.49,0.12156365335274319
289,2365.36,0.11322905441414904
290,2376.28,0.11563425686038196
291,2387.25,0.10819946069144196
292,2392.75,0.11410051302242008
293,2403.79,0.11000611879223796
294,2414.89,0.11208832622384834
295,2426.04,0.1174062350402858
296,2437.23,0.11319654496458492
297,2442.85,0.11854950061914801
298,2454.13,0.11669211303613586
299,2465.46,0.11565952683795078
300,2476.83,0.11176784174762737
301,2482.54,0.1136024998948792
302,2494.0,0.10532531729724451
303,2505.52,0.11739733636140232
304,2511.29,0.10635209617044664
305,2511.88643,0.10663494824234462
306,2517.08,0.10909775701810799
307,2522.88,0.10516989484622165
308,2534.5299999999997,0.10617286996648441
309,2546.23,0.10451184455078265
310,2552.1,0.11072308162854595
311,2563.88,0.1079892553553009
312,2575.71,0.11285162854609135
313,2587.6,0.11160010109372434
314,2593.56,0.11008893720675146
315,2605.54,0.10662730878964828
316,2617.56,0.10520347994377346
317,2623.6,0.10891721519925734
318,2635.71,0.11174918538864637
319,2647.87,0.11923015504207084
320,2653.98,0.12146808954720437
321,2666.23,0.11132795823589269
322,2672.37,0.11526169241944748
323,2684.71,0.11530186014339962
324,2697.1,0.11015102733138724
325,2703.32,0.11247536065739878
326,2715.7999999999997,0.10745142688065022
327,2722.06,0.10673025977789012
328,2734.62,0.11077342514359831
329,2747.2400000000002,0.09876513986614904
330,2753.58,0.1006158219058457
331,2766.29,0.10370708566366027
332,2772.6600000000003,0.10737031738177819
333,2785.46,0.1021039801748566
334,2791.88,0.08593062135700998
335,2804.77,0.09084455318535221
336,2817.71,0.1055473344777299
337,2824.2099999999996,0.10952696480234005
338,2837.25,0.10559862502278868
339,2843.79,0.10297985491862717
340,2856.91,0.09928868428153254
341,2863.5,0.10739234364140648
342,2876.72,0.10768030193238277
343,2883.35,0.10695913086348512
344,2884.0315,0.1069485093621953
345,2896.66,0.10675182078794031
346,2910.03,0.1139036178549273
347,2930.2,0.10958941343017992
348,2950.51,0.10740350897472037
349,2970.9600000000005,0.10870710448854864
350,2991.55,0.10827519997166472
351,3012.2900000000004,0.10858589542187491
352,3033.17,0.10839549084137291
353,3047.17,0.10793998777015511
354,3068.29,0.10825198313700367
355,3089.56,0.10806717847094631
356,3110.98,0.10813027377198307
357,3132.54,0.10597346904230764
358,3147.0,0.10601956587017838
359,3168.82,0.10608266108346605
360,3190.7799999999997,0.10113395626604156
361,3212.9,0.10379255141351741
362,3227.7299999999996,0.09916138816022024
363,3250.1000000000004,0.10461794325285292
364,3272.63,0.10736923831038599
365,3287.7400000000002,0.10642883499566448
366,3310.5299999999997,0.10527522999616062
367,3311.31121,0.10531473001104102
368,3325.81,0.10604776902322453
369,3333.4700000000003,0.10754823690054743
370,3341.1600000000003,0.10248930465206355
371,3348.86,0.10958977236164402
372,3356.58,0.10516523998735328
373,3364.32,0.09593093752919132
374,3372.0699999999997,0.09617329502909376
375,3379.85,0.10498614240318935
376,3387.64,0.10549380973534934
377,3395.45,0.10311757698363812
378,3403.27,0.10701094418999128
379,3411.1200000000003,0.10081051127053761
380,3418.98,0.10247177830914833
381,3426.86,0.10416184526388783
382,3434.77,0.10808931209282051
383,3442.6800000000003,0.1006660789217532
384,3450.62,0.10279444562487905
385,3458.57,0.10141021228606928
386,3466.5499999999997,0.10003687882145268
387,3474.54,0.10381494531490049
388,3482.5499999999997,0.10008311172447705
389,3490.58,0.10409757805018241
390,3498.62,0.09784521433395216
391,3506.69,0.10319211049191508
392,3514.77,0.09857199660794239
393,3522.8700000000003,0.10347474264009847
394,3530.99,0.09816246858838334
395,3539.14,0.1037567744108614
396,3547.29,0.10619714023333943
397,3555.47,0.10452440593001064
398,3563.67,0.10311067154281063
399,3571.88,0.09736641711367502
400,3580.12,0.09605075255873258
401,3588.3700000000003,0.08843184796185452
402,3596.64,0.09698563328110524
403,3604.9300000000003,0.10134609851648474
404,3613.24,0.09526091366799302
405,3617.0299999999997,0.10204984777439692
406,3619.77,0.10735033628403985
407,3622.5099999999998,0.10420082479368277
408,3625.2400000000002,0.08973530334526131
409,3627.98,0.09815627185490422
410,3630.7200000000003,0.12594579036454714
411,3633.45,0.09942536891612569
412,3636.19,0.10182466742576861
413,3638.9300000000003,0.08287689593541153
414,3641.66,0.08766456448699007
415,3644.3999999999996,0.09268247299663299
416,3647.14,0.09733699150627592
417,3649.87,0.11615231005785447
418,3652.61,0.12091059856749738
419,3655.35,0.10326058707714031
420,3658.0800000000004,0.09797753562871883
421,3660.82,0.10965156413836176
422,3663.56,0.10486985264800468
423,3666.29,0.10539504119958322
424,3669.0299999999997,0.10691182970922614
425,3671.77,0.10492171821886907
426,3674.5,0.09482243677044759
427,3677.24,0.10049209528009052
428,3679.98,0.10617908378973344
429,3682.71,0.10260907234131199
430,3685.4500000000003,0.0866491008509549
431,3688.19,0.09697347936059783
432,3690.9199999999996,0.08790664791217635
433,3693.6600000000003,0.09125186642181929
434,3696.4,0.09857115493146221
435,3699.13,0.08976389348304074
436,3701.87,0.09366858199268367
437,3704.6099999999997,0.10307008050232659
438,3707.34,0.10169186905390513
439,3710.08,0.10696355756354806
440,3712.82,0.10350264607319098
441,3715.55,0.09985192462476951
442,3718.2900000000004,0.10872282313441244
443,3721.03,0.13366301164405536
444,3723.7599999999998,0.21441440019563388
445,3726.5,0.27754958870527685
446,3729.24,0.2875909772149197
447,3731.9799999999996,0.22714866572456266
448,3734.71,0.1554601542761412
449,3737.45,0.12254244278578412
450,3740.19,0.11573033129542705
451,3742.92,0.09453940984700558
452,3745.6600000000003,0.09690984835664851
453,3748.4,0.09509277686629143
454,3751.1299999999997,0.10542348541786996
455,3753.8700000000003,0.09770001392751289
456,3756.61,0.11609936243715581
457,3759.3399999999997,0.09981698098873436
458,3762.08,0.09534667949837727
459,3764.8199999999997,0.09986853800802019
460,3767.55,0.11434061655959872
461,3770.29,0.10526170506924165
462,3773.03,0.10220449357888457
463,3775.76,0.12065068213046312
464,3778.5,0.12483217064010603
465,3781.2400000000002,0.10664575914974897
466,3783.97,0.10017454770132748
467,3786.7099999999996,0.11694163621097042
468,3789.45,0.12458392472061333
469,3792.18,0.11688411327219188
470,3794.92,0.1132675017818348
471,3797.66,0.10569399029147773
472,3800.3900000000003,0.11698217884305626
473,3801.8939600000003,0.11661480011713016
474,3803.13,0.11631286843272419
475,3805.87,0.13252045933651985
476,3808.6,0.11130075027351333
477,3811.3399999999997,0.12886964117730898
478,3814.0800000000004,0.11815843208110462
479,3816.81,0.12146962301809809
480,3819.5499999999997,0.13525461392189375
481,3822.29,0.1014891048256894
482,3825.02,0.11011249576268288
483,3827.76,0.09031111666647852
484,3830.5,0.09910699757027418
485,3833.2300000000005,0.08802715850726765
486,3835.9700000000003,0.0895728094110633
487,3838.71,0.08510251031485896
488,3841.44,0.10099344125185243
489,3844.18,0.11769133215564807
490,3846.9199999999996,0.12771572305944373
491,3849.65,0.1210081139964372
492,3852.39,0.11098320490023286
493,3855.13,0.1258064958040285
494,3857.86,0.12195398674102198
495,3860.6000000000004,0.12957897764481763
496,3863.34,0.11704506854861328
497,3866.0699999999997,0.13500675948560678
498,3868.81,0.12145195038940242
499,3871.55,0.13044964129319805
500,3874.2799999999997,0.13242853223019155
501,3877.02,0.1143631231339872
502,3879.7599999999998,0.11882161403778284
503,3882.4900000000002,0.10525000497477631
504,3885.23,0.09463689587857196
505,3887.9700000000003,0.11530888678236761
506,3890.7000000000003,0.11743767771936109
507,3893.44,0.11532636862315675
508,3896.1800000000003,0.1157068595269524
509,3898.91,0.11237335046394588
510,3901.6499999999996,0.12989034136774152
511,3904.39,0.12659083227153717
512,3907.12,0.11241372320853064
513,3909.86,0.1160358141123263
514,3912.6,0.12840770501612195
515,3915.34,0.12040169591991759
516,3918.07,0.12430118685691106
517,3920.81,0.13222027776070672
518,3923.55,0.11947876866450238
519,3926.2799999999997,0.10916615960149585
520,3929.0199999999995,0.1069741505052915
521,3931.76,0.09528247140908715
522,3934.49,0.08970521234608063
523,3937.23,0.10146002324987628
524,3939.97,0.11077501415367193
525,3942.7000000000003,0.1151475050906654
526,3945.44,0.11762749599446107
527,3948.18,0.1153777868982567
528,3950.9100000000003,0.11332477783525018
529,3953.65,0.11650846873904583
530,3956.3900000000003,0.12033235964284149
531,3959.12,0.11905805057983496
532,3961.8599999999997,0.10759124148363061
533,3964.6,0.09973519238742626
534,3967.33,0.09642475332441973
535,3970.07,0.10216941422821538
536,3972.81,0.10563000513201104
537,3975.54,0.10408449606900451
538,3978.28,0.10849678697280017
539,3981.02,0.12525237787659582
540,3983.75,0.1314186688135893
541,3986.49,0.12789425971738494
542,3989.2300000000005,0.1337138506211806
543,3991.96,0.1407511415581741
544,3994.7,0.14706093246196972
545,3997.44,0.14377882336576536
546,4000.17,0.13337391430275886
547,4002.91,0.1418987052065545
548,4005.65,0.14061219611035014
549,4008.38,0.13332198704734363
550,4011.1200000000003,0.13793607795113927
551,4013.86,0.13965466885493494
552,4016.5899999999997,0.1445117597919284
553,4019.33,0.14849715069572406
554,4022.0699999999997,0.14222714159951969
555,4024.8,0.14087793253651318
556,4027.54,0.14379632344030882
557,4030.28,0.13656311434410448
558,4033.01,0.13468320528109795
559,4035.75,0.1393953961848936
560,4038.4900000000002,0.14462078708868928
561,4041.22,0.13579057802568273
562,4043.9599999999996,0.13489636892947837
563,4046.7,0.14617235983327403
564,4049.43,0.1406010507702675
565,4052.17,0.14180634167406314
566,4054.91,0.14180033257785882
567,4057.6400000000003,0.1325490235148523
568,4060.38,0.13489061441864794
569,4063.12,0.13972380532244358
570,4065.85,0.14192759625943707
571,4068.59,0.13855888716323272
572,4071.3300000000004,0.13554207806702837
573,4074.06,0.13155106900402183
574,4076.7999999999997,0.1278190599078175
575,4079.54,0.12938195081161313
