,lambda (Angstroms),Total Flux (erg/s/cm^2/Angstrom)
0,102.03,0.0014521723924043597
1,103.92,0.0016978338367028942
2,104.712855,0.0018009001073157394
3,106.1,0.0016506688067609882
4,108.07000000000001,0.0014373963688099805
5,110.08,0.001220135537453878
6,113.95,0.0008013899262607836
7,117.95,0.0003686105577511256
8,120.22644299999999,0.00012780774277840057
9,120.97999999999999,0.0001259954415774236
10,124.94,0.00010882671046963589
11,126.97,9.986519944720934e-05
12,127.85,9.632174920103432e-05
13,131.13,8.172214646529096e-05
14,132.04,8.002161393799632e-05
15,133.88,7.223925069599394e-05
16,137.0,6.199016345955512e-05
17,138.038426,5.780185313744239e-05
18,139.87,5.9276180710395425e-05
19,143.13,9.89739488022681e-05
20,147.13,0.00017855461885364567
21,150.91,0.00019246405805219743
22,155.14,0.00020895508763152916
23,158.489319,0.00022438493969203282
24,159.12,0.0002272304684980606
25,162.07,0.00024087569749080512
26,165.85,0.0002629285339628642
27,170.1,0.0002824846553930893
28,172.87,0.0002990432731252596
29,176.9,0.0003198368696814495
30,180.18,0.00033601088598524684
31,181.85,0.00034816417934724114
32,181.970086,0.00034882086122731755
33,186.09,0.0003728324226963991
34,190.85999999999999,0.00040471128374971105
35,193.96,0.000426845984643897
36,198.02,0.0004532865632343469
37,202.17,0.00048247272410882163
38,204.98,0.0005033789265322611
39,208.929613,0.0005155727752737974
40,210.24,0.0005202005814785446
41,216.13,0.0005879834446210757
42,220.15,0.0006221048271054517
43,223.21,0.0006403852227278872
44,226.84,0.0006785386792995999
45,229.98999999999998,0.0010196321424403424
46,234.27,0.0017072133088664938
47,239.73000000000002,0.0021577532716437805
48,239.88329199999998,0.0021559213436854797
49,245.88,0.002078440487167666
50,252.18,0.0022168712924520552
51,256.87,0.0018641464808304335
52,259.85,0.002183577864917335
53,264.07,0.0023041039725840208
54,268.97999999999996,0.002317584773210426
55,273.97999999999996,0.0023208471424837505
56,275.42287,0.002321758769270977
57,279.07,0.0023273669674604303
58,284.26,0.002345607645445344
59,290.21000000000004,0.0022541728215552163
60,296.28999999999996,0.002298427806554884
61,301.1,0.002254399735477318
62,308.12,0.0022987144155262765
63,316.227766,0.002344841662150158
64,318.21000000000004,0.0023545127530583358
65,327.88,0.0023458555997092996
66,337.84000000000003,0.002316013086021978
67,348.11,0.0022812623595592483
68,357.04,0.002267901746383768
69,363.078055,0.0022691848883086637
70,366.2,0.002271752792173136
71,374.73,0.0022432477341406943
72,385.23,0.0021414414587197523
73,395.10999999999996,0.0021883463938474753
74,405.23999999999995,0.002181093179560414
75,413.73,0.0021442294254343376
76,416.86938299999997,0.0021259864578693425
77,422.39,0.0020933156222988146
78,430.24,0.0020572810630888716
79,441.28000000000003,0.002035845302110812
80,450.52000000000004,0.0019875387521617843
81,459.96000000000004,0.0019404212898761972
82,469.59000000000003,0.001903145310870879
83,478.630092,0.0018835859517896411
84,480.52,0.0018787961295288179
85,489.46000000000004,0.0018106955232242454
86,499.71000000000004,0.0018004323470920452
87,505.48999999999995,0.0017592734741121315
88,512.53,0.0018385625492369426
89,519.66,0.0018002176920835194
90,530.54,0.0017421749900036817
91,540.4,0.001655964853743829
92,549.5408739999999,0.001623828902052211
93,550.4499999999999,0.0016207617467529287
94,559.39,0.0016459566520323446
95,569.79,0.001645239595534126
96,580.38,0.0015933555303114207
97,589.81,0.0015819918867750556
98,599.4,0.0015115202885233328
99,610.54,0.001362012566466587
100,620.4599999999999,0.00151352537411444
101,630.54,0.001472413227046936
102,630.957344,0.0014722248927236624
103,639.32,0.0014697954372564785
104,649.7,0.0014445104012091572
105,658.74,0.0014099686973683301
106,664.84,0.0014264986626969756
107,675.64,0.0014115283881968724
108,685.04,0.0013443179085393755
109,694.57,0.0013943824265036364
110,704.23,0.0013133409420896555
111,715.6700000000001,0.0013745757328043609
112,724.43596,0.001361914555466828
113,725.63,0.00136014243676993
114,735.73,0.0013485107856777774
115,744.24,0.0013429946440149834
116,754.6,0.0013345166454689734
117,765.0999999999999,0.0012514039982939632
118,775.74,0.0013297127024899527
119,784.72,0.0013095812404298013
120,795.64,0.0013189076473677907
121,804.85,0.0013194322625599958
122,814.1700000000001,0.0013140166538294154
123,825.5,0.0013323015897824758
124,831.763771,0.001239032987082192
125,835.06,0.0011894011672619656
126,844.73,0.001307611205677811
127,854.51,0.00129490465197636
128,864.4,0.0013141395061576128
129,874.4100000000001,0.0013307346234836326
130,884.5400000000001,0.00135057200395442
131,894.78,0.0013615447923079112
132,905.14,0.0013421758438061696
133,915.62,0.0017061761584491958
134,924.09,0.007183473565417367
135,934.7900000000001,0.0146987846958258
136,945.6199999999999,0.026966074944641063
137,954.3699999999999,0.037212073298947025
138,954.992586,0.03750584684523095
139,965.4200000000001,0.04242713335983211
140,974.3499999999999,0.008144967784090552
141,985.63,0.03721202768841701
142,994.7499999999999,0.03834240267489372
143,1003.96,0.05365051603294751
144,1015.5799999999999,0.050767655785454016
145,1024.98,0.02182202570572607
146,1034.46,0.03619807417851107
147,1044.04,0.06660818084193727
148,1056.1299999999999,0.06524131209045739
149,1065.9,0.052308055316101845
150,1075.76,0.061311196913323374
151,1085.71,0.04904429688212198
152,1095.76,0.06346427504156178
153,1096.4782,0.06328189165976457
154,1105.8999999999999,0.06088890849346236
155,1116.13,0.05855100917209064
156,1123.8700000000001,0.05266883085856013
157,1134.27,0.06538892191014704
158,1144.76,0.05922708786506501
159,1155.35,0.06244782815701746
160,1166.05,0.06419504221970784
161,1174.13,0.0452443446520946
162,1184.99,0.06144718965404017
163,1195.96,0.043008978426723674
164,1204.25,0.03145043896688286
165,1215.3899999999999,0.019850158112525006
166,1223.81,0.04078943129082902
167,1235.14,0.0608812596768367
168,1243.7,0.06675206492698901
169,1255.21,0.06389562311965875
170,1258.92541,0.06015706112816843
171,1263.91,0.0551417127953518
172,1275.6000000000001,0.06989564988302684
173,1284.44,0.07285408549081532
174,1296.33,0.05854269338409644
175,1305.3200000000002,0.057475059596089485
176,1314.36,0.07054388600948405
177,1326.53,0.06736782503061366
178,1335.72,0.060045112048212786
179,1344.98,0.07021910934777403
180,1354.3,0.0678361768890171
181,1363.6899999999998,0.060880254712222276
182,1376.31,0.06345441554596556
183,1385.8500000000001,0.06404276397337533
184,1395.45,0.05578104264246688
185,1405.1299999999999,0.057740231633800876
186,1414.8700000000001,0.0589492208668167
187,1424.67,0.060045160341514345
188,1434.55,0.05949543013845441
189,1441.1699999999998,0.06244194680401548
190,1445.43977,0.06299921072237272
191,1447.82,0.0633098620495855
192,1454.51,0.06144308466636512
193,1464.5900000000001,0.056817368743665345
194,1474.74,0.0564265730576135
195,1484.9599999999998,0.05721205760820957
196,1495.26,0.057874902429260404
197,1505.6200000000001,0.05476366745315231
198,1512.57,0.04903549094890991
199,1516.06,0.05217926274749898
200,1526.57,0.05064084827849357
201,1533.61,0.04431304207851278
202,1544.24,0.048141298015189515
203,1554.95,0.045448984222321014
204,1565.7299999999998,0.046186470666100425
205,1576.58,0.048922697346527766
206,1583.86,0.050991661957911265
207,1594.8300000000002,0.051940489044020745
208,1605.89,0.050641446434391835
209,1613.3,0.05052448148526433
210,1624.48,0.04781026928131756
211,1635.74,0.05052477734782557
212,1643.3,0.05111026290580074
213,1654.69,0.047261911411797725
214,1659.58691,0.04900559081890273
215,1666.1599999999999,0.05134626024647953
216,1673.8500000000001,0.04597451010109293
217,1677.7,0.05146377515184216
218,1685.45,0.05327227648776594
219,1693.23,0.05006336856434491
220,1704.97,0.048031328407408806
221,1716.78,0.04576551997866814
222,1724.71,0.04534598575852305
223,1736.6599999999999,0.04814357078617326
224,1744.68,0.046831238787993744
225,1756.77,0.04960582727203484
226,1764.88,0.04545238749582088
227,1773.03,0.046617168707147175
228,1785.32,0.04726519212888953
229,1793.56,0.05006601556218139
230,1805.99,0.04949368244031463
231,1814.3300000000002,0.04597820834245712
232,1826.8999999999999,0.046618528676981234
233,1835.34,0.044829157047974355
234,1843.81,0.04117047615962267
235,1856.59,0.0414563416787331
236,1865.1599999999999,0.04261727325923204
237,1873.77,0.04555839582727123
238,1886.75,0.04213146628408293
239,1895.46,0.04060882132097275
240,1904.21,0.042716137345402826
241,1905.46072,0.04249648117671244
242,1913.0,0.04117197829557941
243,1926.26,0.040234766312531124
244,1935.1499999999999,0.04088792339931097
245,1944.09,0.04311114889490285
246,1953.0600000000002,0.04041935343578194
247,1966.6,0.04391137254208105
248,1975.6699999999998,0.04472778390058421
249,1984.79,0.04261599366789942
250,1993.9599999999998,0.041454441844026656
251,2003.1599999999999,0.042224399065441114
252,2017.04,0.040980987351662064
253,2026.3600000000001,0.04232142075422541
254,2035.71,0.04060469320207597
255,2045.1,0.042127524376976165
256,2054.54,0.04004675396068839
257,2064.03,0.04023005195321265
258,2073.56,0.04290806867278655
259,2078.33,0.04261313687345469
260,2083.13,0.044517094119410065
261,2092.74,0.04212595829308321
262,2107.25,0.042125376530335795
263,2116.97,0.04280904720339542
264,2126.75,0.042808375967029494
265,2136.56,0.039952073775950774
266,2146.42,0.041641519993684095
267,2156.33,0.04280792462022946
268,2166.2799999999997,0.04097614797382444
269,2176.2799999999997,0.04069230973623146
270,2186.33,0.041069399907450524
271,2187.7616199999998,0.041287899866849845
272,2196.42,0.04260987403565582
273,2206.56,0.04135300131630632
274,2216.7400000000002,0.03859489961187064
275,2226.98,0.038066049429805675
276,2237.26,0.04154532026265452
277,2247.58,0.039768092110417166
278,2252.76,0.03711501354175539
279,2263.16,0.037457857419345666
280,2273.61,0.03859605256557819
281,2284.1,0.040788278726724525
282,2294.64,0.037895676156513125
283,2305.2400000000002,0.03906068510867244
284,2315.88,0.03680795507574555
285,2326.57,0.029865406311460934
286,2337.31,0.03328911881581858
287,2342.69,0.03114561532172585
288,2353.51,0.03544482985591111
289,2364.37,0.031170955405010175
290,2375.2799999999997,0.0328036822227515
291,2386.25,0.029317180562863542
292,2397.2599999999998,0.03149754991788939
293,2402.79,0.03043643022972345
294,2413.88,0.03144435161457692
295,2425.02,0.035212874268072646
296,2436.21,0.034188408190210635
297,2447.46,0.03664845363471934
298,2453.1,0.036656366737566365
299,2464.42,0.03534424395817423
300,2475.7999999999997,0.03361448270115282
301,2487.23,0.03211680271277365
302,2492.96,0.031105488099176754
303,2504.47,0.036389390140625213
304,2510.2400000000002,0.029724616541942122
305,2511.88643,0.029707178860234433
306,2516.03,0.029663147626867666
307,2527.64,0.02893324361714229
308,2533.47,0.030795146366780626
309,2545.1600000000003,0.030735781571458523
310,2556.91,0.035957946186938865
311,2562.81,0.03318198824918007
312,2574.63,0.036230022177263274
313,2586.52,0.03501514541794935
314,2592.4799999999996,0.033835036890993
315,2604.45,0.03210483934608234
316,2616.4700000000003,0.031099051310173726
317,2622.5,0.03402634209582024
318,2634.6000000000004,0.0397162132743149
319,2646.77,0.04603797376541242
320,2652.87,0.052503323863661785
321,2665.11,0.04201675366736216
322,2677.41,0.045041442881865
323,2683.59,0.047499382194517645
324,2695.97,0.041202200623423745
325,2702.19,0.045079399543278026
326,2714.66,0.03910408708838781
327,2727.19,0.03667866404430004
328,2733.48,0.04041029227675718
329,2746.1000000000004,0.0315325583488731
330,2752.4300000000003,0.03458052618853187
331,2765.13,0.03845991147505105
332,2777.89,0.04038136617237269
333,2784.3,0.033522603226434744
334,2797.15,0.024639107039960056
335,2803.6,0.02671191370122374
336,2816.54,0.03835204663095273
337,2823.03,0.04517023289941805
338,2836.0600000000004,0.043357834945350726
339,2842.6,0.03830015072281808
340,2855.72,0.03216956188495444
341,2862.2999999999997,0.04420442726962344
342,2875.51,0.04973325754796347
343,2882.1400000000003,0.04739787244163451
344,2884.0315,0.04800003157980386
345,2895.45,0.05163522157243242
346,2908.81,0.062248998887504264
347,2928.9700000000003,0.05694421483599592
348,2949.28,0.05429623075434241
349,2969.7200000000003,0.0561165666465631
350,2990.31,0.056545272508638646
351,3011.03,0.0571107583445884
352,3031.9,0.05888890415039299
353,3052.92,0.060444039926052434
354,3067.01,0.06317817709441788
355,3088.27,0.06264737282184508
356,3109.6800000000003,0.06779683851912713
357,3131.23,0.06450004418827371
358,3152.94,0.06454775982526545
359,3167.4900000000002,0.06840599690118576
360,3189.45,0.06158219248793559
361,3211.56,0.06634075804454026
362,3226.3799999999997,0.0590227350661993
363,3248.74,0.07367861057256206
364,3271.2599999999998,0.08235101604676999
365,3286.3599999999997,0.08107728301215807
366,3309.14,0.0778488384341144
367,3311.31121,0.07745462555072295
368,3324.42,0.0750744976373683
369,3332.08,0.07666680820973329
370,3339.7599999999998,0.06962085870526373
371,3347.46,0.08276295912395962
372,3355.18,0.07942359946582093
373,3362.91,0.05971778976926498
374,3370.66,0.07001724999587447
375,3378.43,0.0771457001456494
376,3386.22,0.07610718021858978
377,3394.03,0.0768330802146956
378,3401.8500000000004,0.08864413017238415
379,3409.69,0.07687534005323814
380,3417.56,0.07094392981884028
381,3425.43,0.08128555958444243
382,3433.33,0.09039103923479275
383,3441.25,0.0771375188083085
384,3449.18,0.072842188343407
385,3457.13,0.07970857780167093
386,3465.1,0.0723824571831003
387,3473.0899999999997,0.08467000648769511
388,3481.09,0.07531363575387265
389,3489.12,0.08203205490479834
390,3497.1600000000003,0.07500907401730678
391,3505.22,0.08774493305298064
392,3513.2999999999997,0.07913186201181995
393,3521.4,0.08942511089382471
394,3529.52,0.06848741969899491
395,3537.6600000000003,0.08584406842733056
396,3545.81,0.08786928711724892
397,3553.98,0.09056312573033272
398,3562.18,0.0837695542281647
399,3570.39,0.0706692826875794
400,3578.6200000000003,0.07609303107015954
401,3586.87,0.062444859375905125
402,3595.14,0.08046098760481615
403,3603.4300000000003,0.09390756575689262
404,3611.73,0.07258519387055182
405,3620.06,0.08609118186895917
406,3628.4,0.09751517982894925
407,3629.2200000000003,0.08892470667873247
408,3631.96,0.09184252615239827
409,3634.7000000000003,0.07637843562606407
410,3637.45,0.0817000950613126
411,3640.1899999999996,0.0915664045349784
412,3642.93,0.08652799400864421
413,3645.6699999999996,0.08385173348231002
414,3648.4100000000003,0.08275406295597583
415,3651.16,0.08821937239122435
416,3653.9,0.08552588186489016
417,3656.64,0.08742449133855595
418,3659.3799999999997,0.09612986081222177
419,3662.12,0.08223097028588758
420,3664.8599999999997,0.09042291975955338
421,3667.61,0.09577325919480192
422,3670.35,0.09716802866846773
423,3673.09,0.08653939814213353
424,3675.83,0.08936716761579933
425,3678.5699999999997,0.09039793708946513
426,3681.32,0.08970209652471367
427,3684.06,0.08388206599837948
428,3686.8,0.08008890547204528
429,3689.54,0.09014680494571109
430,3692.28,0.0905683544193769
431,3695.03,0.09210631385462542
432,3697.7700000000004,0.09911237332829123
433,3700.51,0.08619822280195703
434,3703.25,0.07531287227562285
435,3705.9900000000002,0.08447418174928865
436,3708.73,0.08096455122295446
437,3711.4799999999996,0.08769429065820297
438,3714.22,0.09249338013186878
439,3716.96,0.09930021960553459
440,3719.7000000000003,0.1012984790792004
441,3722.44,0.1275293685528662
442,3725.19,0.16005485798811475
443,3727.93,0.18045214746178054
444,3730.6699999999996,0.14858343693544634
445,3733.41,0.11071442640911215
446,3736.1499999999996,0.08111765588277796
447,3738.9,0.0811479453180265
448,3741.64,0.07667852479169229
449,3744.38,0.07832040426535809
450,3747.12,0.0751230237390239
451,3749.8599999999997,0.06867076321268971
452,3752.6,0.08833821268635551
453,3755.35,0.08800448212160406
454,3758.09,0.09304304159526985
455,3760.83,0.09425772106893567
456,3763.57,0.08673072054260147
457,3766.31,0.08721549001626727
458,3769.0600000000004,0.09324786945151581
459,3771.8,0.0995757489251816
460,3774.54,0.10514116839884742
461,3777.28,0.11133495787251323
462,3780.02,0.11722604734617903
463,3782.7699999999995,0.11382313678142755
464,3785.51,0.10701462625509336
465,3788.2500000000005,0.10233831572875916
466,3790.9900000000002,0.09277866520242498
467,3793.73,0.08844717467609078
468,3796.4700000000003,0.09093202414975658
469,3799.22,0.09311176358500511
470,3801.8939600000003,0.10324324136770993
471,3801.9599999999996,0.10349346311153394
472,3804.7,0.10383065477848683
473,3807.44,0.10827734644543971
474,3810.1800000000003,0.10180973811239259
475,3812.93,0.10242232974893291
476,3815.67,0.10121362141588577
477,3818.41,0.09314634308283867
478,3821.1499999999996,0.09459475474979155
479,3823.89,0.08552746641674444
480,3826.64,0.07730652805328475
481,3829.38,0.07655943972023764
482,3832.12,0.0682488713871905
483,3834.86,0.06664350305414339
484,3837.6,0.07475687472109628
485,3840.3399999999997,0.07691602638804917
486,3843.09,0.08758845802458948
487,3845.83,0.09540488969154237
488,3848.57,0.10177302135849525
489,3851.31,0.10191301302544813
490,3854.05,0.09927502469240101
491,3856.8,0.09775538632894133
492,3859.5400000000004,0.09979960799589421
493,3862.28,0.0992498796628471
494,3865.02,0.10900507132979999
495,3867.76,0.10787676299675286
496,3870.5099999999998,0.10259075463329317
497,3873.2499999999995,0.10039344630024606
498,3875.9900000000002,0.10044333796719894
499,3878.73,0.09871729963415182
500,3881.4700000000003,0.09707748130110472
501,3884.21,0.09514646296805761
502,3886.96,0.0964679346045979
503,3889.7,0.09838570627155079
504,3892.4399999999996,0.10087628793850367
505,3895.18,0.10472137960545656
506,3897.92,0.10439387127240944
507,3900.67,0.10441836290894975
508,3903.41,0.10990715457590262
509,3906.15,0.11146664624285552
510,3908.89,0.1118115379098084
511,3911.6299999999997,0.11767012957676129
512,3914.38,0.12084982121330158
513,3917.12,0.11370411288025448
514,3919.86,0.10538210454720735
515,3922.6,0.09776886621416024
516,3925.34,0.09459641788111313
517,3928.08,0.08382597954806602
518,3930.8300000000004,0.07317393118460631
519,3933.57,0.06825046285155921
520,3936.31,0.07761291451851209
521,3939.05,0.08549257618546498
522,3941.79,0.09527077785241786
523,3944.5400000000004,0.10205222948895816
524,3947.28,0.10906592115591104
525,3950.02,0.10805071282286394
526,3952.76,0.10764650448981682
527,3955.5,0.1031272961567697
528,3958.25,0.09917656779331002
529,3960.99,0.08810156946026289
530,3963.7299999999996,0.08019907112721578
531,3966.4700000000003,0.07272378279416866
532,3969.21,0.07020076446112156
533,3971.96,0.08062609609766186
534,3974.7,0.09178362776461475
535,3977.44,0.10568842943156763
536,3980.18,0.11956822109852051
537,3982.9199999999996,0.1212504127654734
538,3985.66,0.12593080443242627
539,3988.41,0.13062579606896657
540,3991.15,0.13707638773591946
541,3993.89,0.13433887940287234
542,3996.63,0.13688307106982522
543,3999.37,0.14462866273677813
544,4002.1200000000003,0.14057435437331842
545,4004.86,0.1428752460402713
546,4007.6,0.1438160377072242
547,4010.34,0.1443238293741771
548,4013.08,0.14668042104112997
549,4015.8300000000004,0.1487967126776703
550,4018.57,0.14762250434462315
551,4021.31,0.14905949601157603
552,4024.05,0.15028948767852893
553,4026.79,0.1506229793454818
554,4029.53,0.1476536710124347
555,4032.2799999999997,0.14420466264897502
556,4035.0200000000004,0.14287715431592787
557,4037.76,0.14664374598288077
558,4040.5,0.14919953764983365
559,4043.2400000000002,0.14224342931678655
560,4045.99,0.14579472095332688
561,4048.73,0.15081601262027974
562,4051.47,0.14818200428723263
563,4054.2099999999996,0.1474981959541855
564,4056.95,0.14520128762113838
565,4059.7,0.1396602792576787
566,4062.44,0.1440781709246316
567,4065.18,0.14261846259158448
568,4067.92,0.14417995425853736
569,4070.66,0.14402114592549023
570,4073.3999999999996,0.14312463759244312
571,4076.15,0.14933502922898345
