,lambda (Angstroms),Total Flux (erg/s/cm^2/Angstrom)
0,100.00999999999999,0.007188300937942106
1,102.10000000000001,0.008829737042706969
2,104.0,0.010321534709765915
3,104.712855,0.010881472180189441
4,105.94,0.010079519796108114
5,107.89999999999999,0.00879907312905245
6,109.91000000000001,0.007490669959061674
7,114.03999999999999,0.00479424574062296
8,118.04,0.0021830654958154634
9,120.22644299999999,0.0007978596117808026
10,121.07,0.0007900210120997744
11,125.03999999999999,0.0006924102148387937
12,127.07,0.0006422214749295265
13,127.95,0.0006225856788112232
14,130.93,0.0005503481896833333
15,132.14,0.0005340374575206672
16,133.98,0.0004920860474551244
17,137.1,0.0004373296521265954
18,138.038426,0.00041763451750508344
19,139.97,0.0004335302359493512
20,142.9,0.0006405564698432207
21,146.91,0.0009813774848310762
22,151.02,0.0010787933351054117
23,154.9,0.0011935798042208429
24,158.489319,0.0013114012354341735
25,158.86999999999998,0.0013236788554518782
26,161.82,0.0014258185710595858
27,165.97,0.0015749361031856832
28,169.84,0.0017178538114574896
29,173.0,0.0018454403949559155
30,177.03,0.0020087771454301738
31,179.89999999999998,0.0021390393399366553
32,181.970086,0.0022297973714097215
33,181.99,0.002230713714079771
34,185.79999999999998,0.0024262357224650827
35,191.0,0.0026812808651431974
36,194.11,0.0028531566620141465
37,198.17000000000002,0.003071329888797444
38,201.85999999999999,0.0033057744323517217
39,205.14000000000001,0.0034880521377333015
40,208.929613,0.0036420365291035105
41,209.91,0.0036845031145353387
42,215.79000000000002,0.004201711160245199
43,219.81,0.004503954364965207
44,222.86,0.00468726417949158
45,227.01,0.005000825910732382
46,230.17,0.007517083016930199
47,233.91,0.012525227933759259
48,239.88329199999998,0.016861579535887405
49,239.91,0.016880811947847827
50,246.06,0.016598560859692336
51,251.79,0.018082620967801125
52,257.06,0.014856428100389832
53,260.04,0.018185083898324246
54,264.27,0.019594602564519736
55,269.18,0.019989692151049256
56,274.18,0.020298303624093572
57,275.42287,0.020328899404234088
58,279.28000000000003,0.02044495043339365
59,283.82,0.020978764385478334
60,289.76,0.020474932860232303
61,295.83000000000004,0.021013518540662707
62,301.33,0.020275014165434903
63,308.35,0.021143653271962326
64,316.227766,0.02212224252656776
65,317.72,0.02230030786498598
66,328.13,0.02263770972949298
67,338.1,0.022669051947469418
68,348.37,0.02264825346989851
69,357.31,0.022993866742587517
70,363.078055,0.02346287203906163
71,365.63,0.02367977349668664
72,375.01,0.0236404499292237
73,384.63,0.022703983903744646
74,395.4,0.023728514850271734
75,404.60999999999996,0.02418068677390354
76,414.04,0.024030763944353908
77,416.86938299999997,0.023875439503731045
78,421.74,0.023604911544574402
79,429.58000000000004,0.023292537221295134
80,440.6,0.023570113797502075
81,450.86,0.02331355405810854
82,460.3,0.022797899872935543
83,469.94,0.022600539455025825
84,478.630092,0.022654723017057395
85,479.78,0.022659318015783362
86,489.82,0.021887834310017753
87,500.08,0.02222528114057998
88,505.87,0.02166950616484464
89,511.73,0.023191862268849967
90,520.04,0.022763916163779027
91,529.7099999999999,0.022087262465098404
92,539.56,0.020899660114322382
93,549.5408739999999,0.020418696421405806
94,549.59,0.02041637120452413
95,559.8100000000001,0.02121866574133806
96,570.22,0.021408831722574174
97,579.48,0.020922403171781317
98,590.26,0.020727816176365876
99,599.85,0.019754111186937855
100,609.59,0.01758256417994839
101,619.5,0.019927056886389297
102,629.56,0.019297187575268767
103,630.957344,0.01932687470206498
104,639.79,0.019523102339613914
105,650.1899999999999,0.01900105832744144
106,657.72,0.018408454845551172
107,665.3299999999999,0.018751935948182655
108,674.59,0.018713756606575236
109,685.5500000000001,0.01768465468605501
110,695.09,0.018096751390273714
111,704.76,0.016908710544340264
112,716.21,0.017661461704015755
113,724.43596,0.017501526885172456
114,726.17,0.017467395932005594
115,734.5799999999999,0.017271972659339847
116,744.8000000000001,0.01684941331966756
117,755.16,0.0165496483726025
118,765.67,0.015082820989045186
119,774.53,0.016074570406902675
120,785.3100000000001,0.0153651886376593
121,794.4,0.015508100986228667
122,805.45,0.015441654831299235
123,814.78,0.01523608328148099
124,824.2099999999999,0.015101573440667912
125,831.763771,0.014244116393554562
126,835.6800000000001,0.013795621490460949
127,845.36,0.01459058998642376
128,855.15,0.014289722442567966
129,865.05,0.014218488858893569
130,875.0600000000001,0.014052059235400568
131,885.2,0.013823519746667397
132,895.45,0.01366091421811562
133,905.8199999999999,0.01334747573703446
134,914.2,0.01331177288539896
135,924.7800000000001,0.021602369237391374
136,935.4899999999999,0.030009575724143617
137,944.15,0.03738053931660621
138,954.992586,0.04111953953440712
139,955.0799999999999,0.04114973459950977
140,963.9200000000001,0.04397837872817866
141,975.0799999999999,0.024977459370253877
142,984.1,0.03841197383185947
143,995.5,0.036858338251183606
144,1004.71,0.04180969195311127
145,1014.0,0.04200186691412191
146,1025.75,0.02871229309193407
147,1035.24,0.03779472620065215
148,1044.8200000000002,0.04645795947583858
149,1054.48,0.04509193401010798
150,1064.24,0.04020489761823111
151,1074.0900000000001,0.04267472139282258
152,1084.03,0.03634487533388241
153,1094.06,0.04296705944141057
154,1096.4782,0.04252901022336495
155,1104.18,0.04113206145159071
156,1114.3999999999999,0.04028769653251588
157,1124.71,0.036753310836267206
158,1135.1200000000001,0.0409328409431587
159,1145.62,0.03918350027287635
160,1156.22,0.039180005405734165
161,1164.23,0.03881956623726163
162,1175.01,0.030229719815771747
163,1185.8799999999999,0.03724150261710801
164,1194.1,0.033050681635229825
165,1205.1499999999999,0.0289976128822184
166,1216.3,0.021672809932347138
167,1224.73,0.03214338713706331
168,1236.06,0.03612993263284435
169,1244.63,0.03679687196195676
170,1256.15,0.035875162483704114
171,1258.92541,0.03548678528539527
172,1264.85,0.034659897490381536
173,1273.6200000000001,0.03696116081188778
174,1285.4099999999999,0.03704655759188306
175,1294.32,0.03295370431874971
176,1306.29,0.03302978547706552
177,1315.3500000000001,0.03604056585253263
178,1324.46,0.034661367444199884
179,1333.64,0.03250450073854735
180,1345.98,0.03474157089674427
181,1355.3100000000002,0.03395372783969218
182,1364.71,0.03191335648532031
183,1374.17,0.031840246590388616
184,1383.6899999999998,0.03169496815489709
185,1396.5,0.02650265974537542
186,1406.1799999999998,0.026081195201724378
187,1415.9199999999998,0.029929222117513518
188,1425.74,0.0292502609792229
189,1435.62,0.02979255130037246
190,1442.25,0.030067252568512295
191,1445.43977,0.029935166071788522
192,1445.57,0.02992977281511793
193,1455.59,0.02918428737227613
194,1465.68,0.027939793358476357
195,1475.84,0.027876170773718605
196,1486.07,0.027940129618002876
197,1496.37,0.02755887989132917
198,1503.28,0.026505290958191763
199,1513.7,0.024800573681304384
200,1517.1899999999998,0.02543393492925669
201,1524.19,0.02525969783345903
202,1534.76,0.022784553618804555
203,1545.4,0.021714430833192105
204,1556.11,0.02136941947662168
205,1563.29,0.022628956055503507
206,1574.1299999999999,0.023528407352868267
207,1585.04,0.02374538007927505
208,1596.03,0.02379979443887272
209,1603.39,0.02315455469243403
210,1614.5100000000002,0.022891071705966888
211,1625.6999999999998,0.022423820148541763
212,1633.1999999999998,0.023048963260187127
213,1644.52,0.02289180435669719
214,1655.9199999999998,0.02237321708639814
215,1659.58691,0.02267218585439239
216,1663.57,0.022997445769264577
217,1671.24,0.02156980925957954
218,1675.1,0.023370884731889287
219,1686.7099999999998,0.02331921562140125
220,1694.4899999999998,0.02242994551118618
221,1706.24,0.02187364727275083
222,1714.1200000000001,0.02103946207114482
223,1726.0,0.020849773213901246
224,1733.96,0.021728029939182488
225,1745.98,0.021335441953991598
226,1754.04,0.021981163587881897
227,1766.2,0.020951646474743693
228,1774.3500000000001,0.02085725152638215
229,1786.6499999999999,0.02124399528529663
230,1794.9,0.022037855245544146
231,1803.18,0.021988429678374385
232,1815.68,0.020625993254506987
233,1824.0600000000002,0.021055922595946283
234,1836.71,0.02062901853499248
235,1845.1899999999998,0.018870322785040833
236,1853.7,0.019396941507671912
237,1866.55,0.020305957263936227
238,1875.1699999999998,0.02096783238603727
239,1883.82,0.019849751980721028
240,1896.8799999999999,0.019851719045064373
241,1905.46072,0.020484807695447336
242,1905.64,0.020497973858175474
243,1914.43,0.02012507465197191
244,1923.27,0.019006295837086875
245,1936.6,0.018154674162605248
246,1945.54,0.021012526130357256
247,1954.52,0.020163460411164083
248,1968.0700000000002,0.02224455645848396
249,1977.15,0.021789941521927834
250,1986.28,0.022088826976690235
251,1995.45,0.02213775474450745
252,2004.66,0.022035074825379485
253,2013.9099999999999,0.02228710721930634
254,2023.21,0.020997570004551717
255,2037.2299999999998,0.02269427573026572
256,2046.63,0.024085029298148146
257,2056.08,0.02248360325734909
258,2065.5699999999997,0.02248171952960486
259,2075.11,0.02503561619317915
260,2079.89,0.03349893760323
261,2084.68,0.038355387091544554
262,2094.31,0.03571920645949219
263,2103.97,0.034827010062230934
264,2113.68,0.0385261540562882
265,2123.44,0.034983248441664005
266,2133.2400000000002,0.03371977514009462
267,2143.09,0.04014586222984375
268,2152.98,0.039960281632647705
269,2162.92,0.03562417142677019
270,2172.9,0.03603339353394749
271,2182.93,0.04320048603244331
272,2187.7616199999998,0.04329476632016997
273,2193.0099999999998,0.04339899167191254
274,2203.13,0.04222042224411613
275,2213.3,0.03449649047724958
276,2223.52,0.03932182637131288
277,2233.7799999999997,0.04970578839412008
278,2244.09,0.04747508807785714
279,2254.4500000000003,0.037561025422524055
280,2264.85,0.03538651889593486
281,2275.31,0.037737341562461495
282,2285.81,0.049033810357732015
283,2296.36,0.041383066813932404
284,2306.96,0.04941321093106264
285,2317.61,0.043074412709122746
286,2322.95,0.03569218089643176
287,2333.67,0.03257950339979366
288,2344.45,0.024195315096271403
289,2355.27,0.040931892921493025
290,2366.14,0.02612388840764451
291,2377.06,0.032573301554725854
292,2382.54,0.02152041119263847
293,2393.54,0.02574353659720759
294,2404.58,0.0257575481305206
295,2415.68,0.029706528856949438
296,2426.83,0.04812113724430814
297,2432.43,0.048133895268452416
298,2443.66,0.05708031591329889
299,2454.94,0.06021132421907523
300,2466.27,0.052364610185781424
301,2477.65,0.045860753813417476
302,2483.36,0.028666178691607442
303,2494.82,0.03477210457673127
304,2506.34,0.05294694965497093
305,2511.88643,0.026259654565848372
306,2512.12,0.025135755620580128
307,2517.91,0.020277492275716204
308,2523.71,0.022532138337855973
309,2535.3599999999997,0.03655319749715395
310,2547.07,0.038463793098474065
311,2552.94,0.06861573500963966
312,2564.72,0.05104753645998559
313,2576.56,0.06530014435235366
314,2582.5,0.05769882211254508
315,2594.42,0.051702135260942673
316,2606.39,0.04435356544435871
317,2612.4,0.04001175905357594
318,2624.46,0.05470132390002518
319,2636.58,0.09654939518849656
320,2642.65,0.13082351523973595
321,2654.8500000000004,0.18356399178423682
322,2667.1,0.11808896536375615
323,2673.25,0.13343200067102504
324,2685.59,0.15646516891357756
325,2697.9900000000002,0.11137693359815226
326,2704.21,0.13893486475444697
327,2716.69,0.09867792469505116
328,2722.9500000000003,0.07682587347936064
329,2735.52,0.09966785808299801
330,2748.1499999999996,0.056137339128657544
331,2754.4800000000005,0.07835710376199284
332,2767.2000000000003,0.10474392947068556
333,2773.58,0.11148185113903931
334,2786.38,0.06438856210376155
335,2792.7999999999997,0.028907861400130054
336,2805.69,0.034747337027885496
337,2812.1600000000003,0.09682761335927245
338,2825.14,0.14356819365006107
339,2838.1800000000003,0.1328404203828719
340,2844.72,0.09154594256328465
341,2857.85,0.05004751395912864
342,2864.4399999999996,0.12996266317455987
343,2877.6600000000003,0.18279017923343704
344,2884.0315,0.16704183312270546
345,2884.3,0.16637820107999135
346,2897.61,0.20762738492723737
347,2910.99,0.28409796868953274
348,2931.16,0.24767044421161788
349,2951.48,0.2271268195516659
350,2971.94,0.2358531947218127
351,2992.5400000000004,0.24100736972205825
352,3013.2799999999997,0.24066664455240255
353,3027.19,0.25981042767150037
354,3048.18,0.27480600219844964
355,3069.31,0.30019767655549756
356,3090.58,0.29027265074264436
357,3111.9999999999995,0.34133182474775403
358,3133.57,0.3130360985708267
359,3148.0399999999995,0.31251048101031953
360,3169.8599999999997,0.3493376545299971
361,3191.83,0.3045620278676376
362,3206.56,0.33879010999159964
363,3228.7900000000004,0.28732198301370926
364,3251.17,0.40994785585378185
365,3273.71,0.48207952849968155
366,3288.82,0.473589410162483
367,3311.31121,0.4408312314395678
368,3311.6200000000003,0.4403814757039802
369,3319.2500000000005,0.4026943986957577
370,3326.8999999999996,0.41031562122355564
371,3334.57,0.45524824328737395
372,3342.26,0.4250081648872127
373,3349.96,0.4597555862550616
374,3357.69,0.47387330692694113
375,3365.43,0.3249819273668308
376,3373.1800000000003,0.3243429475747307
377,3380.96,0.4306260670866611
378,3388.76,0.45314478613461195
379,3396.5699999999997,0.39029980495057304
380,3404.4,0.5170218233025544
381,3412.2400000000002,0.43418394142254607
382,3420.11,0.4475204588465682
383,3427.9900000000002,0.46768427603860063
384,3435.9,0.48427749253466357
385,3443.82,0.3469577087987368
386,3451.7599999999998,0.4617274245988303
387,3459.7099999999996,0.4770148401669341
388,3467.69,0.4684648550390684
389,3475.68,0.4707827696792129
390,3483.69,0.4753026838553778
391,3491.73,0.48429859733557334
392,3499.78,0.410464510583779
393,3507.8399999999997,0.5399988235999948
394,3515.93,0.4411250359202413
395,3524.03,0.49510654800849796
396,3532.16,0.5126733594007852
397,3540.3,0.5444804705610825
398,3548.46,0.5756073812574004
399,3556.64,0.5026805914897385
400,3564.84,0.5277521012580971
401,3573.06,0.3816096105624761
402,3581.3,0.4253573194028755
403,3589.55,0.30686702801128507
404,3597.16,0.4422593514670422
405,3599.8999999999996,0.4168908879018352
406,3602.64,0.5016281243366282
407,3605.37,0.341185861003411
408,3608.11,0.37476709743820397
409,3610.85,0.438131333872997
410,3613.5899999999997,0.41063017030779
411,3616.32,0.6496757069745728
412,3619.06,0.5186392434093657
413,3621.8,0.48114297984415877
414,3624.54,0.4431742162789517
415,3627.2700000000004,0.47177175294573453
416,3630.01,0.5018136893805275
417,3632.75,0.4997840258153205
418,3635.4900000000002,0.5449680622501135
419,3638.22,0.5502270989168963
420,3640.9599999999996,0.5558925353516893
421,3643.7000000000003,0.5156293717864823
422,3646.44,0.48886600822127524
423,3649.17,0.5291303448880581
424,3651.91,0.5702795813228511
425,3654.6499999999996,0.5978544177576439
426,3657.39,0.696592554192437
427,3660.1299999999997,0.67324699062723
428,3662.86,0.5880560272940127
429,3665.6,0.5383454637288058
430,3668.34,0.6182583001635988
431,3671.08,0.6494411365983919
432,3673.81,0.6568218732651746
433,3676.55,0.5622549096999676
434,3679.29,0.5425697461347605
435,3682.03,0.5688647825695535
436,3684.76,0.5603131192363363
437,3687.5,0.5763596556711293
438,3690.2400000000002,0.5881118921059223
439,3692.98,0.5992933285407154
440,3695.71,0.623447465207498
441,3698.45,0.6406813016422911
442,3701.1899999999996,0.596700238077084
443,3703.93,0.5458369745118771
444,3706.66,0.48906831117865984
445,3709.4,0.5403164476134528
446,3712.14,0.5674415840482459
447,3714.8799999999997,0.5163132204830388
448,3717.62,0.5697455569178319
449,3720.35,0.5708775935846147
450,3723.09,0.5768138300194077
451,3725.83,0.5522867664542005
452,3728.57,0.5645635028889936
453,3731.3,0.5838467395557764
454,3734.04,0.4913146759905693
455,3736.78,0.42052501242536233
456,3739.52,0.4191006488601553
457,3742.2499999999995,0.48383338552693816
458,3744.9900000000002,0.4257419219617311
459,3747.73,0.41985625839652413
460,3750.4700000000003,0.47262599483131706
461,3753.2,0.5283034314980999
462,3755.94,0.5220659679328928
463,3758.68,0.5171139043676859
464,3761.4199999999996,0.49740564080247884
465,3764.15,0.49389147746926165
466,3766.89,0.5550539139040547
467,3769.63,0.6546281503388476
468,3772.37,0.6134714867736406
469,3775.1099999999997,0.5737963232084337
470,3777.84,0.6721518598752164
471,3780.58,0.6886361963100094
472,3783.32,0.6271323327448024
473,3786.06,0.5543943691795954
474,3788.7900000000004,0.5934138058463782
475,3791.53,0.5475134422811712
476,3794.27,0.5512650787159641
477,3797.01,0.5564462151507571
478,3799.74,0.5672042518175399
479,3801.8939600000003,0.5630394337150154
480,3802.4799999999996,0.5619062910851236
481,3805.2200000000003,0.6194082407644844
482,3807.96,0.5485032904438453
483,3810.69,0.5208895403068581
484,3813.43,0.4801941899862189
485,3816.1699999999996,0.4533846396655797
486,3818.91,0.44218438934494053
487,3821.64,0.4127890392079533
488,3824.38,0.3689235888873141
489,3827.12,0.3594814385666749
490,3829.86,0.4129717882460357
491,3832.6,0.31340803792539657
492,3835.33,0.3186602877884093
493,3838.07,0.3810159374677702
494,3840.81,0.46476788714713096
495,3843.55,0.5146901368264918
496,3846.28,0.46069958668950456
497,3849.0200000000004,0.5744191363688653
498,3851.76,0.5287954860482261
499,3854.5,0.447889935727587
500,3857.23,0.5301686855905998
501,3859.97,0.4778414352699606
502,3862.7099999999996,0.5416378849493214
503,3865.4500000000003,0.5368414346286823
504,3868.18,0.5508560844916951
505,3870.92,0.45553993417105587
506,3873.66,0.4724915838504166
507,3876.3999999999996,0.5205174335297774
508,3879.13,0.5643152833927904
509,3881.87,0.5222998330721511
510,3884.61,0.5936414827515119
511,3887.35,0.5702212324308726
512,3890.09,0.5463858821102335
513,3892.82,0.5864947319732463
514,3895.56,0.6347395816526071
515,3898.3,0.7010259313319679
516,3901.04,0.6399255810113287
517,3903.7699999999995,0.6689216308743416
518,3906.51,0.6774515805537024
519,3909.25,0.6769320302330631
520,3911.9900000000002,0.7183749799124239
521,3914.72,0.6539348297754367
522,3917.46,0.6592369794547976
523,3920.2,0.6508205291341584
524,3922.9399999999996,0.5196057788135192
525,3925.67,0.45768372867653206
526,3928.41,0.38078407835589284
527,3931.15,0.34525362803525367
528,3933.89,0.37284007771461447
529,3936.6200000000003,0.42698962757762726
530,3939.36,0.509998077256988
531,3942.1,0.592199426936349
532,3944.84,0.6482256766157097
533,3947.58,0.6690333262950705
534,3950.3100000000004,0.6745116761580833
535,3953.05,0.6485723258374442
536,3955.79,0.639637175516805
537,3958.53,0.6221712251961657
538,3961.2599999999998,0.4790792750591785
539,3963.9999999999995,0.37316302473853935
540,3966.7400000000002,0.41757497441790015
541,3969.48,0.469007424097261
542,3972.21,0.5648722739602737
543,3974.95,0.6671904236396345
544,3977.69,0.7511149733189955
545,3980.43,0.8049507229983562
546,3983.16,0.857752972861369
547,3985.9,0.8995419225407298
548,3988.64,0.9090514722200906
549,3991.38,0.9330290218994515
550,3994.11,0.9216195717624642
551,3996.85,0.924212221441825
552,3999.59,0.9251332711211858
553,4002.33,0.9271495208005468
554,4005.07,0.9711285704799075
555,4007.8,0.9738990203429203
556,4010.5400000000004,1.0083668700222812
557,4013.28,1.056149819701642
558,4016.02,1.0439287693810027
559,4018.75,1.0153427192440154
560,4021.49,1.0439896689233765
561,4024.2299999999996,1.0017376186027374
562,4026.9700000000003,0.998738668282098
563,4029.7,0.9832369181451108
564,4032.44,0.9412153678244716
565,4035.18,0.9722250175038324
566,4037.9199999999996,1.0080763671831932
567,4040.65,0.985312117046206
568,4043.39,0.9619660667255668
569,4046.13,0.9537799164049277
570,4048.87,0.9368322660842884
571,4051.6000000000004,0.9559149159473012
572,4054.34,0.9393131656266621
573,4057.08,0.9154485153060229
574,4059.82,0.9111244649853837
575,4062.5499999999997,0.9053636148483964
576,4065.29,0.9204068645277573
577,4068.03,0.9417328142071182
578,4070.7700000000004,0.9151015638864789
579,4073.51,0.9288190135658397
