,lambda (Angstroms),Total Flux (erg/s/cm^2/Angstrom)
0,102.06,0.04526279919409194
1,103.96000000000001,0.0529395812670208
2,104.712855,0.055981425382155864
3,105.89,0.05201298784747602
4,108.11,0.04452883658896894
5,110.11999999999999,0.037752645949233235
6,113.98,0.02473966310302688
7,117.99000000000001,0.011220995146956028
8,120.22644299999999,0.003681423799308922
9,121.02,0.003557639603519482
10,124.98,0.00293992200616416
11,127.01,0.0026232644180521148
12,127.89,0.0024859960072409325
13,130.87,0.0020211521744455648
14,132.07999999999998,0.0018324164470114423
15,133.92,0.0015454032058880606
16,137.04,0.0010587478146584135
17,138.038426,0.0009030120914861396
18,139.91,0.000892722263047434
19,142.84,0.000876950341229426
20,146.84,0.0008560259138884596
21,150.96,0.0008337305214542641
22,154.83,0.0008129290789226291
23,158.489319,0.0007933050165558806
24,159.17000000000002,0.000787642865930109
25,162.12,0.0007632153915719509
26,165.9,0.0007321241768350564
27,170.16,0.0006970311960839533
28,172.92,0.0006745318817522526
29,176.95,0.0006416585136121244
30,179.82000000000002,0.0006184085374230007
31,181.91,0.0006015179931319667
32,181.970086,0.000601033173344985
33,186.14,0.0006140438266927469
34,190.92000000000002,0.0006294640169014471
35,194.01999999999998,0.0006396805770367966
36,198.07999999999998,0.0006530660172140608
37,202.23000000000002,0.0006671411873952546
38,205.04000000000002,0.0006770358175179424
39,208.929613,0.0006899368828312609
40,209.82,0.0007051937540569716
41,216.20000000000002,0.0008174339401457896
42,220.22,0.000888294463762881
43,222.77,0.0009333681235946185
44,226.91,0.0010070911634390862
45,230.05999999999997,0.0010870532844077026
46,233.8,0.0012075435534942515
47,239.8,0.0013534118648630454
48,239.88329199999998,0.0013548916976650518
49,245.95,0.001279650051269454
50,252.26,0.0012235968832483447
51,256.95,0.0011407429750044454
52,259.92,0.001138364015412893
53,264.15000000000003,0.0011057213759946213
54,269.06,0.0010560971522254226
55,274.06,0.0010050330084686004
56,275.42287,0.0009913038749354403
57,279.16,0.0010589526474230697
58,283.69,0.0011433548142827966
59,290.3,0.001246432373210567
60,295.7,0.0013533149237718312
61,301.19,0.0014495597485091169
62,308.21000000000004,0.0015827943342387612
63,316.227766,0.0017377547930218008
64,318.31,0.001725515595194837
65,327.98,0.0016623508114192755
66,337.95,0.00159318959226288
67,348.21999999999997,0.0015195744377256505
68,357.15,0.0014584607278894804
69,363.078055,0.0014196055673260219
70,366.30999999999995,0.0014597428403167075
71,374.84000000000003,0.0015611060039373962
72,385.34,0.0016610113082770471
73,395.23,0.0017993308888407762
74,405.36999999999995,0.00192235670046021
75,413.84999999999997,0.0020185999178697575
76,416.86938299999997,0.0020503415606548166
77,421.54999999999995,0.002083975350173582
78,430.38,0.0021492529668173375
79,441.42,0.002240161512768307
80,450.66,0.0023068995534011832
81,460.1,0.0023707816057360696
82,469.73,0.0024403096691878665
83,478.630092,0.0025106048169727894
84,479.57,0.0025071887001764754
85,489.60999999999996,0.002448189955825991
86,499.86,0.0024131867416235537
87,505.65,0.002375294429991153
88,511.5,0.002394394555543908
89,519.81,0.0023573516056880793
90,529.48,0.0023015825653624625
91,540.56,0.002221606298888024
92,549.5408739999999,0.0021854135808722845
93,550.61,0.0021858233034885884
94,559.56,0.00221368923415531
95,569.96,0.0022322203826395455
96,580.5600000000001,0.002206853630133093
97,589.99,0.0022316043984221645
98,599.5799999999999,0.0022026444459186854
99,609.32,0.00210509106767219
100,620.65,0.0022519157765497275
101,629.29,0.0022487868537520157
102,630.957344,0.0022498158855079426
103,639.51,0.0022978571720876817
104,649.9000000000001,0.0023660211041303374
105,657.43,0.002400675561135264
106,665.04,0.0024689926538055823
107,674.2900000000001,0.0025159452776164154
108,685.25,0.002523617363774981
109,694.78,0.0027031927124146833
110,704.4499999999999,0.0026797479234688193
111,715.89,0.0028674188236197315
112,724.43596,0.002929775708094641
113,725.85,0.00293834394076835
114,734.2600000000001,0.0029972171044928587
115,744.47,0.0031122320178849196
116,754.8299999999999,0.003200669910415943
117,765.33,0.0031907074501433324
118,774.19,0.003418139551284729
119,784.9599999999999,0.0035014180534622503
120,795.8800000000001,0.0036297205347787347
121,805.1,0.003743706585853642
122,814.42,0.003844635956354524
123,825.75,0.004043688047317507
124,831.763771,0.003830577451268641
125,835.31,0.0036864915696524832
126,844.98,0.004160163119321984
127,854.77,0.00421207441624695
128,864.66,0.004380300669218136
129,874.6800000000001,0.004554270065049408
130,884.8100000000001,0.004766654812531523
131,895.0500000000001,0.00493503591166448
132,905.42,0.004924407153657523
133,915.9000000000001,0.0065462897473014085
134,924.37,0.032942456824416266
135,935.0799999999999,0.07050039451696645
136,945.91,0.13494166495677212
137,954.66,0.19729571111081637
138,954.992586,0.19776116167052657
139,965.71,0.21279219564021135
140,974.65,0.034096124577190697
141,985.93,0.1646160166587485
142,995.06,0.1892978786715697
143,1004.26,0.30225910129128
144,1015.89,0.3022548564072833
145,1025.29,0.13611066647524814
146,1034.78,0.20274992589492752
147,1044.35,0.42169734029390876
148,1054.02,0.4178071984170173
149,1066.22,0.3156988327605461
150,1076.09,0.3917789783319092
151,1086.04,0.29671327888257415
152,1096.09,0.42456912315736633
153,1096.4782,0.42405461809935446
154,1106.24,0.41110501091456864
155,1113.9,0.39174421910427487
156,1124.21,0.3492042597616993
157,1134.6100000000001,0.4729271418991594
158,1145.1100000000001,0.42742064790332585
159,1155.71,0.4675042777741986
160,1163.72,0.4839044694973771
161,1174.49,0.31918689994165067
162,1185.35,0.47611057186595995
163,1196.32,0.30692625004364626
164,1204.61,0.21155704859360244
165,1215.76,0.16321780973136019
166,1224.19,0.3341094616947053
167,1235.51,0.5316052234058638
168,1244.0800000000002,0.5909332287825977
169,1255.5900000000001,0.5591657558404983
170,1258.92541,0.5264344483509406
171,1264.2900000000002,0.47380035316204644
172,1275.99,0.6448743189668414
173,1284.84,0.6862149277166222
174,1293.7399999999998,0.515902842730526
175,1305.71,0.5111968423615854
176,1314.76,0.6768078761678584
177,1323.88,0.6478518187439037
178,1336.13,0.5591703534540522
179,1345.3899999999999,0.7021843135696421
180,1354.71,0.6814822812021795
181,1364.1000000000001,0.5991357576044892
182,1373.56,0.6404408427765713
183,1386.27,0.650834135116652
184,1395.8799999999999,0.5604564390811031
185,1405.5500000000002,0.584152450562502
186,1415.3,0.6046684720664979
187,1425.11,0.6316687010874412
188,1434.9899999999998,0.630238238878157
189,1441.6100000000001,0.6736983682480494
190,1445.43977,0.6827447072005339
191,1448.26,0.6894063445934047
192,1454.95,0.6675239480354226
193,1465.03,0.6116869079301223
194,1475.19,0.6159014762366846
195,1485.41,0.636051650852144
196,1495.71,0.6538580338794662
197,1506.08,0.6159040242671681
198,1513.03,0.5402175550477398
199,1516.52,0.5882213220152498
200,1523.52,0.5669470580532358
201,1534.08,0.48377376841911157
202,1544.71,0.5427047861453673
203,1555.42,0.5147636122834858
204,1566.2,0.529153345781984
205,1573.43,0.5695939060040751
206,1584.34,0.6088655531718503
207,1595.3200000000002,0.6230277077000053
208,1606.38,0.615913670640023
209,1613.79,0.6216036497888051
210,1624.98,0.5868794263980998
211,1636.24,0.6331660103677742
212,1643.79,0.6478919042373161
213,1655.19,0.5964088029277502
214,1659.58691,0.6207625498910354
215,1666.66,0.6599438965271155
216,1670.51,0.5761598528582984
217,1678.22,0.6690992731994466
218,1685.96,0.7071073165769417
219,1693.74,0.661473690669566
220,1705.48,0.6361046055599783
221,1713.36,0.5991994564404256
222,1725.23,0.5992157711550078
223,1733.2,0.6479383911444956
224,1745.21,0.63469921336203
225,1753.2700000000002,0.6863272024605583
226,1765.42,0.6245488321810447
227,1773.57,0.6420604903886139
228,1785.86,0.6600349276120524
229,1794.1,0.7137397549286622
230,1806.5400000000002,0.7104676073338352
231,1814.88,0.6509793114382678
232,1823.26,0.6707552462578297
233,1835.89,0.6435844445598662
234,1844.37,0.589736356167251
235,1852.88,0.5938150908109826
236,1865.7299999999998,0.6175016580462297
237,1874.34,0.6770083694777842
238,1882.99,0.620341411624468
239,1896.04,0.5993422324353608
240,1904.7900000000002,0.6391918513698674
241,1905.46072,0.6373237023720629
242,1913.59,0.6146670200106982
243,1926.85,0.6048639952152135
244,1935.74,0.624626295861378
245,1944.68,0.6585400470173635
246,1953.65,0.6160635684792415
247,1967.2,0.6848003566407183
248,1976.28,0.7055772692242024
249,1985.3999999999999,0.6691933422155433
250,1994.56,0.6509650756147408
251,2003.77,0.6738119595237594
252,2013.02,0.6509446038406347
253,2026.9699999999998,0.6847459960806791
254,2036.3300000000002,0.6494513315191606
255,2045.73,0.6815594273654987
256,2055.17,0.6420154836196936
257,2064.6600000000003,0.6479147903837095
258,2074.19,0.7071019575555821
259,2078.97,0.6815302262944647
260,2083.76,0.7152659851353115
261,2093.38,0.6768432632248619
262,2103.04,0.679960501722269
263,2112.75,0.692566190729497
264,2127.3900000000003,0.7005732000050705
265,2137.21,0.6508205801339045
266,2147.08,0.6752486107725597
267,2156.9900000000002,0.7037808018190714
268,2166.94,0.6799025532734401
269,2176.95,0.6767654453395938
270,2186.9900000000002,0.6720902077116401
271,2187.7616199999998,0.6746323520485084
272,2197.0899999999997,0.7053818055716586
273,2207.23,0.6861826076843829
274,2217.42,0.6478168492552566
275,2222.53,0.6316329818781383
276,2232.79,0.6846183786904213
277,2243.1,0.6553325149608539
278,2253.45,0.6201342827978061
279,2263.85,0.6360337900929078
280,2274.2999999999997,0.6584099368461591
281,2284.7999999999997,0.6847336230575599
282,2295.3399999999997,0.6406154408354802
283,2305.94,0.65109140596318
284,2316.58,0.6161545026573996
285,2327.27,0.48181143880976857
286,2332.64,0.5646926766150279
287,2343.41,0.544327975900436
288,2354.22,0.6023662067523639
289,2365.09,0.5431779849540711
290,2376.01,0.564915702613928
291,2386.97,0.5176683518403044
292,2392.48,0.5572448001283823
293,2403.52,0.535941612487798
294,2414.61,0.5548164643053632
295,2425.76,0.6027612634727079
296,2436.96,0.582356102098202
297,2442.57,0.6211503293025791
298,2453.85,0.6183723310611124
299,2465.17,0.6071641643861655
300,2476.5499999999997,0.583938345060998
301,2482.26,0.5852977511816739
302,2493.7200000000003,0.5450890949895457
303,2505.23,0.6330216782555669
304,2511.01,0.5426899396176522
305,2511.88643,0.544603887051661
306,2516.79,0.5553069335818109
307,2522.6,0.5365138590517862
308,2534.24,0.5566577038831994
309,2545.94,0.5490824303890012
310,2557.69,0.6118137416234604
311,2563.58,0.583008142659287
312,2575.42,0.6246851264053294
313,2587.3,0.6119587979342974
314,2593.2699999999995,0.5994529745359758
315,2605.24,0.5765168185765269
316,2617.27,0.5647639442914668
317,2623.3,0.603732702567534
318,2635.4100000000003,0.6558852038483255
319,2647.57,0.7325083898577742
320,2653.68,0.786694323699693
321,2665.92,0.6682291852749935
322,2672.0699999999997,0.712694306899838
323,2684.4,0.7260228409867217
324,2696.79,0.6699139567479939
325,2703.01,0.7095965569929586
326,2715.49,0.650286445265814
327,2728.02,0.6369908182673266
328,2734.31,0.6794266971324116
329,2746.9300000000003,0.5626911426455072
330,2753.26,0.590553909293518
331,2765.97,0.6298994273181969
332,2772.35,0.6626193786948649
333,2785.14,0.5975126722853953
334,2798.0,0.47045764449604593
335,2804.45,0.5064159744928342
336,2817.4,0.6492746192150679
337,2823.89,0.720105936994782
338,2836.92,0.6973599572828673
339,2843.46,0.6614330597912386
340,2856.59,0.6033611495366384
341,2863.17,0.7303360398279355
342,2876.39,0.7647874020849186
343,2883.02,0.743997177104873
344,2884.0315,0.7454534357651589
345,2896.33,0.7631632912922439
346,2909.7000000000003,0.8721753077213287
347,2929.87,0.8216804816461335
348,2950.1699999999996,0.8012768547583566
349,2970.62,0.8314377269329853
350,2991.22,0.8354214981700194
351,3011.95,0.8530463685944719
352,3032.8300000000004,0.8630262380813298
353,3046.83,0.8711221505725182
354,3067.95,0.8936016185592252
355,3089.21,0.902002585670844
356,3110.6299999999997,0.9295630517823621
357,3132.19,0.9064757170187921
358,3146.64,0.9107385266971971
359,3168.46,0.9342664903084635
360,3190.42,0.8641181530446418
361,3212.53,0.9196625148432256
362,3227.36,0.8427686221463915
363,3249.73,0.9654509823198117
364,3272.26,1.039399341493131
365,3287.3599999999997,1.0252812471086272
366,3310.15,1.016058104656783
367,3311.31121,1.0160663049037253
368,3325.43,1.0161644103731353
369,3333.1,1.061651493900515
370,3340.7799999999997,0.972822076233015
371,3348.4799999999996,1.114367656175756
372,3356.2,1.064285733728738
373,3363.94,0.8712626088919607
374,3371.69,0.9123434828603039
375,3379.46,1.069408954438888
376,3387.25,1.054797023627713
377,3395.06,1.0027930904267788
378,3402.89,1.1486681548360855
379,3410.73,1.0029022180505127
380,3418.6,0.9937868776803013
381,3426.48,1.0478573361152101
382,3434.38,1.13058339216036
383,3442.29,0.9871201470106304
384,3450.23,1.033659498276262
385,3458.1800000000003,1.052941548347014
386,3466.15,1.021986596028007
387,3474.14,1.0850616413192409
388,3482.15,1.0387046842207157
389,3490.18,1.0876897247324313
390,3498.2200000000003,0.9807508640492673
391,3506.2900000000004,1.1182647997814645
392,3514.37,1.0223578343187825
393,3522.47,1.115857866466341
394,3530.59,1.0084598962241407
395,3538.73,1.1237249235921813
396,3546.89,1.1526019485704626
397,3555.07,1.1579879711589849
398,3563.2599999999998,1.1161909925526277
399,3571.48,0.9972323103616316
400,3579.71,1.0205040269757562
401,3587.96,0.8910069412001215
402,3596.2300000000005,1.0589130530347277
403,3604.52,1.1373120624795747
404,3612.8300000000004,0.9838597695346627
405,3617.7799999999997,1.084931478069282
406,3620.5,0.9938000530620423
407,3623.21,0.9686467292496824
408,3625.92,1.0643295054373225
409,3628.63,1.0978811816249625
410,3631.34,1.0971658578126025
411,3634.0499999999997,1.0902375340002424
412,3636.76,1.2005312101878824
413,3639.48,1.141330885180643
414,3642.19,1.071104561368283
415,3644.8999999999996,1.052578237555923
416,3647.61,1.1858409137435628
417,3650.32,1.190059589931203
418,3653.0299999999997,1.108573266118843
419,3655.7400000000002,1.133539942306483
420,3658.45,1.184337618494123
421,3661.17,1.1286762934868835
422,3663.88,1.2148699696745233
423,3666.59,1.2039506458621636
424,3669.2999999999997,1.2254523220498035
425,3672.01,1.1098879982374434
426,3674.7200000000003,0.9922531744250835
427,3677.43,1.0293443506127236
428,3680.1499999999996,1.096102025605484
429,3682.86,1.1011857017931241
430,3685.57,0.898449677980764
431,3688.2799999999997,0.935841854168404
432,3690.9900000000002,1.2271827303560439
433,3693.7,1.1914854065436842
434,3696.41,0.9939831827313241
435,3699.1200000000003,1.092866758918964
436,3701.84,1.1046094339117245
437,3704.5499999999997,1.1609431100993644
438,3707.26,1.1899377862870046
439,3709.9700000000003,1.2183684624746447
440,3712.68,1.2056791386622845
441,3715.39,1.3504278148499245
442,3718.1,1.1934044910375647
443,3720.82,1.3720731660303251
444,3723.5299999999997,1.5158798422179651
445,3726.2400000000002,1.805638518405605
446,3728.95,2.087641194593245
447,3731.66,1.7557468707808852
448,3734.3700000000003,1.5734575469685252
449,3737.08,1.346433223156165
450,3739.79,1.3122048993438051
451,3742.51,1.0893545743365656
452,3745.2200000000003,1.1860162505242058
453,3747.93,0.9824895267118455
454,3750.64,1.0565576028994856
455,3753.35,1.0252662790871256
456,3756.06,1.2859189552747656
457,3758.77,1.2091766314624057
458,3761.48,1.2690873076500457
459,3764.2,1.1851099826428062
460,3766.91,1.299808658830446
461,3769.6200000000003,1.2803413350180861
462,3772.33,1.2624180112057262
463,3775.04,1.3604736873933663
464,3777.7500000000005,1.4736663635810061
465,3780.46,1.418389039768646
466,3783.18,1.5773257147614066
467,3785.89,1.4355913909490468
468,3788.6,1.4804020671366867
469,3791.31,1.3436007433243267
470,3794.02,1.2617754195119666
471,3796.73,1.1840180956996067
472,3799.44,1.1707637718872468
473,3801.8939600000003,1.3256020160265323
474,3802.15,1.3417574544494477
475,3804.8700000000003,1.3826821971613366
476,3807.58,1.464658940819138
477,3810.29,1.6158836844769393
478,3812.9999999999995,1.5342104281347404
479,3815.71,1.4535151717925416
480,3818.42,1.4708749154503429
481,3821.1299999999997,1.4636086591081443
482,3823.85,1.2717854018200332
483,3826.56,1.2850401454778344
484,3829.27,1.1735058891356356
485,3831.98,1.1228976327934368
486,3834.69,1.0410733764512383
487,3837.4,1.0467971201090394
488,3840.11,1.1301668637668407
489,3842.82,1.2693796074246417
490,3845.54,1.396837350136531
491,3848.2499999999995,1.5089750937943323
492,3850.96,1.5279548374521335
493,3853.67,1.5331145811099347
494,3856.3799999999997,1.5511893247677357
495,3859.09,1.562751068425537
496,3861.8,1.5847798120833385
497,3864.5099999999998,1.6343735557411396
498,3867.23,1.7042542984530287
499,3869.94,1.5839840421108298
500,3872.65,1.5594707857686312
501,3875.36,1.4478225294264324
502,3878.07,1.3887422730842336
503,3880.7799999999997,1.3588070167420347
504,3883.49,1.289219760399836
505,3886.21,1.3248365031117253
506,3888.92,1.3380912467695263
507,3891.6299999999997,1.2924909904273276
508,3894.34,1.4284277340851288
509,3897.05,1.40726647774293
510,3899.7599999999998,1.4100532214007313
511,3902.4700000000003,1.5717849650585327
512,3905.18,1.5327747087163337
513,3907.9,1.6289014514282227
514,3910.61,1.636810195086024
515,3913.32,1.7117449387438253
516,3916.0299999999997,1.7459366824016265
517,3918.74,1.7768154260594278
518,3921.4500000000003,1.633311169717229
519,3924.16,1.4862679133750303
520,3926.8799999999997,1.3751396560869193
521,3929.59,1.3386143997447206
522,3932.3,1.1997041434025217
523,3935.0099999999998,1.169730887060323
524,3937.7200000000003,1.2437626307181244
525,3940.43,1.3096973743759255
526,3943.14,1.4616381180337268
527,3945.8500000000004,1.5409788616915279
528,3948.57,1.5619466044034171
529,3951.2799999999997,1.5735823480612183
530,3953.99,1.6074350917190197
531,3956.7000000000003,1.5786678353768206
532,3959.41,1.572568579034622
533,3962.12,1.4779403226924233
534,3964.83,1.2630410663502245
535,3967.54,1.1153568100080258
536,3970.2599999999998,1.0773575527199146
537,3972.9700000000003,1.130188296377716
538,3975.68,1.2416870400355173
539,3978.39,1.5074597836933186
540,3981.1000000000004,1.6910685273511197
541,3983.81,1.740435271008921
542,3986.52,1.8296050146667222
543,3989.24,1.8523407573786113
544,3991.9500000000003,1.9134565010364126
545,3994.66,1.8432672446942138
546,3997.37,1.912779988352015
547,4000.08,1.9715237320098162
548,4002.79,1.9173004756676175
549,4005.5,1.9653502193254186
550,4008.21,1.97002096298322
551,4010.93,2.029243705695109
552,4013.64,2.03086444935291
553,4016.3500000000004,2.1062131930107117
554,4019.06,2.1092269366685126
555,4021.77,2.106516680326314
556,4024.4799999999996,2.0412614239841154
557,4027.19,1.9476881676419164
558,4029.91,2.0336099103538055
559,4032.62,2.046149654011607
560,4035.33,2.130950397669408
561,4038.04,2.0261571413272095
562,4040.75,2.0185888849850104
563,4043.46,2.0305266286428116
564,4046.17,1.945050372300613
565,4048.88,1.9857191159584142
566,4051.6000000000004,2.0062318586703034
567,4054.31,2.0259266023281044
568,4057.02,2.0233303459859058
569,4059.7299999999996,1.9553250896437069
570,4062.44,1.9243358333015081
571,4065.15,1.9188765769593092
572,4067.8599999999997,1.9764903206171107
573,4070.58,1.9447010633289996
574,4073.29,1.8941688069868008
575,4076.0,1.882496550644602
576,4078.71,1.8615232943024036
577,4081.42,1.9445540379602047
578,4084.13,1.995503781618006
579,4086.8399999999997,1.999533525275807
580,4089.55,1.9973502689336082
581,4092.27,1.9153660116454976
582,4094.9799999999996,1.8133957553032987
583,4097.69,1.6943684989610999
584,4100.400000000001,1.642819242618901
585,4103.11,1.6813409862767024
586,4105.82,1.7551087299345036
587,4108.530000000001,1.7611724735923049
588,4111.24,1.769269217250106
589,4113.96,1.808573959961995
590,4116.67,1.8065417036197964
