,lambda (Angstroms),Total Flux (erg/s/cm^2/Angstrom)
0,100.03,0.1907384597399388
1,101.89,0.19020790833807072
2,104.02,0.18960032510787986
3,104.712855,0.18940269232251766
4,105.96,0.18753395011598628
5,107.93,0.18458207997304008
6,109.92999999999999,0.18158533424269827
7,114.05999999999999,0.17539691662926687
8,118.07,0.16938830588941794
9,120.22644299999999,0.1661579001353484
10,121.1,0.1650608253169075
11,125.06,0.16008631116638966
12,127.10000000000001,0.157523660028729
13,127.98,0.15641824588116948
14,130.96,0.15267476780054748
15,131.87,0.15153191877878708
16,134.01,0.1488436570297901
17,137.13,0.14492472267189724
18,138.038426,0.14378359317650174
19,140.0,0.14202239393473184
20,142.93,0.13939554114476244
21,146.94,0.13580216896265415
22,151.05,0.1321128598690145
23,154.93,0.12863040776399703
24,158.489319,0.12543584750642367
25,158.9,0.12515722816919547
26,161.85999999999999,0.12314906892431073
27,166.01000000000002,0.12033378491661753
28,169.88,0.11770842091546753
29,173.04,0.11556469689876624
30,177.07,0.11283084713816298
31,179.94,0.11088399829609565
32,181.970086,0.10950694499786276
33,182.03,0.1094759476922834
34,185.84,0.10750481897889895
35,191.04,0.10481443633664195
36,194.15,0.10320563375009977
37,198.20999999999998,0.1011051957264145
38,201.9,0.09919652115077443
39,205.18,0.09749970655242769
40,208.929613,0.09555879795215544
41,209.96,0.0951578861126009
42,215.84,0.09287385278159341
43,219.85000000000002,0.09131518216405259
44,222.91,0.09012523641383445
45,227.06,0.08851240849079346
46,230.22,0.0873124472666466
47,233.96,0.08591805642971327
48,239.88329199999998,0.08364590142627627
49,239.96,0.08362332807858441
50,246.11,0.08177118442414712
51,251.85,0.08005822154667232
52,257.12,0.0784479027281545
53,260.09999999999997,0.07757798372242719
54,263.71,0.07650260760575747
55,269.24,0.07484326166526345
56,274.24,0.07334252696572094
57,275.42287,0.07298747488670676
58,278.7,0.07223247566718524
59,283.88,0.07103918394583437
60,289.82,0.0696622615727023
61,295.89,0.0682678437828182
62,300.7,0.06715594516299239
63,307.7,0.06554565790711285
64,316.227766,0.0635832895677947
65,317.79,0.06331484911685516
66,328.20000000000005,0.06152222901296433
67,338.17,0.05980406550760493
68,347.64000000000004,0.05817156390512211
69,357.38,0.05649308733308595
70,363.078055,0.0555116779940485
71,365.71,0.05517203597568069
72,375.09000000000003,0.053959920454359135
73,384.71,0.05271290477534919
74,394.58,0.05144192975291384
75,404.7,0.050135480387053066
76,414.13,0.04891689983704643
77,416.86938299999997,0.048562687576374046
78,421.83,0.048072274366480115
79,429.66999999999996,0.047297695227268115
80,440.69,0.04621006063771247
81,450.96,0.04519566642984165
82,460.4,0.04426334210303537
83,470.03999999999996,0.0433114462277798
84,478.630092,0.04246388208250844
85,479.88000000000005,0.04236894647739052
86,489.93,0.04160432002504495
87,500.19,0.0408258798116056
88,505.97999999999996,0.0403878500414483
89,511.84,0.039961121484259746
90,520.16,0.039329809754258246
91,529.83,0.03859547001722524
92,539.6800000000001,0.037844623299254705
93,549.5408739999999,0.0371048007580587
94,549.71,0.03709514620684546
95,559.9300000000001,0.036510968043502394
96,570.34,0.03591342798152575
97,579.61,0.03537298181135058
98,590.38,0.034759191083541884
99,599.98,0.03420285259468734
100,609.73,0.033640819470069444
101,619.63,0.03308578780968818
102,629.6999999999999,0.032507589582108476
103,630.957344,0.03243516413671304
104,639.93,0.032025645811722736
105,650.3299999999999,0.03155792356505329
106,657.86,0.031216599197128197
107,665.4799999999999,0.030874944198510786
108,674.74,0.030453815340610868
109,685.7,0.029947390602966906
110,695.24,0.029539801349579748
111,704.91,0.029086679651859217
112,716.3700000000001,0.0285926007437023
113,724.43596,0.028229173774720243
114,726.33,0.028166165367042664
115,734.74,0.027887123423420902
116,744.96,0.027557854233668886
117,755.33,0.027217237623519342
118,765.8299999999999,0.02686505619569193
119,774.6999999999999,0.026588918289517736
120,785.48,0.026236219923614922
121,794.57,0.025942276687524336
122,805.63,0.025580536483546135
123,814.96,0.025274873114819494
124,824.39,0.024981603632494492
125,831.763771,0.024698233174662094
126,835.8599999999999,0.0245759455059591
127,845.5400000000001,0.024402137516004077
128,855.3299999999999,0.024165794648890484
129,865.24,0.023941692261240256
130,875.25,0.0237125983398095
131,885.3900000000001,0.02348616845446406
132,895.6400000000001,0.02324934849196003
133,906.01,0.022992128908919385
134,914.4,0.022970659014733167
135,924.98,0.025942663720753406
136,935.7,0.030173637619480907
137,944.35,0.03750431409746532
138,954.992586,0.04320752937498689
139,955.2900000000001,0.04336707252064051
140,964.13,0.04672448214465339
141,975.2900000000001,0.02571280621297734
142,984.32,0.04417583299406741
143,995.71,0.04422303077885324
144,1004.93,0.05252145271702052
145,1014.23,0.050119317773957145
146,1025.97,0.03232523295335886
147,1035.46,0.04137641916737269
148,1045.04,0.05892703014000203
149,1054.71,0.05795776587124689
150,1064.47,0.050523326361107256
151,1074.32,0.05544820160958315
152,1084.26,0.04838064161667455
153,1094.3,0.056081548022227645
154,1096.4782,0.05569253689691925
155,1104.42,0.05430993748293453
156,1114.6399999999999,0.053017748637511075
157,1124.95,0.0494459396848383
158,1135.36,0.056129677279666265
159,1145.87,0.05246499142199499
160,1153.81,0.05398897529355445
161,1164.49,0.05482124256663444
162,1175.26,0.043930709732465115
163,1186.1399999999999,0.052733020100546604
164,1194.36,0.04228932030510817
165,1205.4099999999999,0.035465773803940934
166,1213.76,0.02744232052025347
167,1225.0,0.03972271045933766
168,1236.3300000000002,0.050790980291172516
169,1244.9,0.05399174341198671
170,1256.42,0.052337039684072995
171,1258.92541,0.05094567024705833
172,1265.1299999999999,0.04753620072938329
173,1273.9,0.05534219954321377
174,1285.6799999999998,0.056618244962475237
175,1294.6,0.04907722935464946
176,1303.57,0.04838473893960493
177,1315.63,0.05511842543844137
178,1324.75,0.053299670601740574
179,1333.93,0.04932777599637728
180,1346.28,0.05429269861334495
181,1355.61,0.052944019586325386
182,1365.0100000000002,0.04920972582919956
183,1374.47,0.05034992230341123
184,1383.99,0.05047341900896041
185,1393.5900000000001,0.04552124602295956
186,1406.48,0.04626175072196469
187,1416.23,0.04739602331430759
188,1426.0500000000002,0.04757951117654423
189,1435.93,0.04727278927011837
190,1442.56,0.04867643983291154
191,1445.43977,0.048929840428371646
192,1445.8899999999999,0.04897142862800568
193,1455.91,0.04793780145910859
194,1466.0,0.045410815996616394
195,1476.16,0.04507428224052912
196,1486.3999999999999,0.04528208900604746
197,1496.7,0.04549272866277
198,1503.61,0.04380288996645473
199,1510.55,0.04065108771574158
200,1517.52,0.042262591910630525
201,1524.52,0.04133962255112158
202,1535.0900000000001,0.03773526021826307
203,1545.7299999999998,0.03935643959180946
204,1556.45,0.03776887948696147
205,1563.63,0.03832953880106514
206,1574.47,0.039800454478625576
207,1585.38,0.04065406186259091
208,1596.3700000000001,0.04110706976816186
209,1603.7399999999998,0.040189296571078864
210,1614.86,0.04000785907425894
211,1626.05,0.03847742328384392
212,1633.56,0.03988758349957074
213,1644.8799999999999,0.03998115230676484
214,1656.28,0.037909771635564554
215,1659.58691,0.03878249917377946
216,1663.93,0.03994185201183352
217,1671.6100000000001,0.03708200519145344
218,1675.46,0.04000026091300769
219,1683.2,0.0407295788830934
220,1694.86,0.038961166496943436
221,1706.6100000000001,0.037804796296492145
222,1714.49,0.036524182110998005
223,1726.3700000000001,0.03618949062322257
224,1734.3400000000001,0.037542668623427096
225,1746.3600000000001,0.036807564980071816
226,1754.4199999999998,0.03813205516597502
227,1766.5800000000002,0.035842479367039895
228,1774.74,0.03635129087038606
229,1787.04,0.036583812915871095
230,1795.29,0.03791034660491593
231,1803.58,0.03751486682093796
232,1816.08,0.03561634150130892
233,1824.46,0.03587148390302962
234,1837.1100000000001,0.034908925559565034
235,1845.59,0.0328442092787287
236,1854.11,0.03289666952486955
237,1866.96,0.0333818938162909
238,1875.57,0.03482199624813043
239,1884.23,0.03285513433869143
240,1892.9299999999998,0.03189273895622962
241,1905.46072,0.03288408972383127
242,1906.05,0.032931825594734725
243,1914.85,0.03208906415510978
244,1923.69,0.03143389498166835
245,1937.0200000000002,0.031806657687327364
246,1945.9599999999998,0.03289877917934474
247,1954.94,0.03132678293754565
248,1968.5,0.03301614117375993
249,1977.58,0.033444345597419635
250,1982.14,0.03219269394234125
251,1995.8799999999999,0.03150078737638139
252,2005.09,0.03190254666513754
253,2014.3500000000001,0.0312383862866231
254,2023.6499999999999,0.031862078174292194
255,2032.99,0.030811682328144796
256,2047.08,0.03134616809129076
257,2056.53,0.029938260977148048
258,2066.02,0.03015499612918887
259,2075.56,0.0316495916139591
260,2080.34,0.030895627422890086
261,2085.14,0.03159985936491284
262,2094.7599999999998,0.03032787938205011
263,2104.43,0.03038644973191678
264,2114.14,0.030554442347966976
265,2123.9,0.03061424529674657
266,2133.7,0.029171350511709694
267,2143.5499999999997,0.029592706059402223
268,2153.4500000000003,0.030131701939824146
269,2163.39,0.029277860086429602
270,2173.37,0.029069020499218574
271,2183.41,0.028861169311282832
272,2187.7616199999998,0.02918055445680241
273,2193.48,0.029609858028574472
274,2203.61,0.02893859576194087
275,2213.7799999999997,0.027832932953286996
276,2224.0,0.027305824467107782
277,2234.26,0.028519845438908297
278,2244.58,0.027675205597678408
279,2254.94,0.026716085214428247
280,2265.35,0.026918109153652746
281,2275.8,0.027319222550856975
282,2286.31,0.0277777151350308
283,2296.86,0.026523687177184355
284,2307.46,0.026742403541812565
285,2312.78,0.02593234145311654
286,2323.46,0.02257458673370421
287,2334.18,0.02455111147227161
288,2344.9500000000003,0.023767110533313672
289,2355.78,0.02516606878132533
290,2366.65,0.023597336487316718
291,2377.58,0.024076443380277694
292,2383.06,0.022677929123500584
293,2394.06,0.023580840067926087
294,2405.11,0.022987205334826254
295,2416.21,0.023246454924201083
296,2427.36,0.02431709883605057
297,2432.96,0.023666002953212643
298,2444.19,0.024500965781021594
299,2455.47,0.024259192931305202
300,2466.8,0.023977144404063472
301,2472.49,0.02329088230167994
302,2483.9,0.023267042690397664
303,2495.37,0.022157632266084987
304,2506.89,0.024154116164246973
305,2511.88643,0.022291804528901185
306,2512.66,0.022004165831428838
307,2518.46,0.022191082050742453
308,2524.2599999999998,0.02168141827005607
309,2535.9100000000003,0.021972959814022204
310,2547.62,0.021802884284395033
311,2553.49,0.022990977251183122
312,2565.2799999999997,0.02240768229009821
313,2577.12,0.023211146434352205
314,2583.06,0.02291343614861477
315,2594.98,0.022612080861411022
316,2606.96,0.021957748500613973
317,2612.97,0.02163945496235101
318,2625.0299999999997,0.022411883170096215
319,2637.1499999999996,0.02322311430424811
320,2643.2299999999996,0.024757227513459622
321,2655.43,0.025491759216153775
322,2667.68,0.02339911002418684
323,2673.83,0.024135069980872823
324,2686.1800000000003,0.02430067899958371
325,2692.37,0.023070904240540823
326,2704.8,0.023702003827793965
327,2717.28,0.022457572520386018
328,2723.55,0.02224566832988539
329,2736.1200000000003,0.02301831141208748
330,2742.42,0.0205960886847902
331,2755.08,0.02110349615660233
332,2767.8,0.02182646655482115
333,2774.18,0.022468334396066124
334,2786.98,0.021059875362827205
335,2793.41,0.01803722230941109
336,2806.2999999999997,0.018822737665782206
337,2812.77,0.02196962989663722
338,2825.75,0.023080409642618375
339,2832.27,0.0224786209788123
340,2845.34,0.021766305114403497
341,2851.9,0.020591651734868547
342,2865.06,0.022733620260069785
343,2878.29,0.023104265532745492
344,2884.0315,0.022836149925207754
345,2884.92,0.02279534218536539
346,2898.2400000000002,0.02296098535011881
347,2911.62,0.024673317583181933
348,2931.8,0.023697807558011062
349,2952.12,0.023199628692229496
350,2972.59,0.02350170249722218
351,2993.19,0.02344915595021921
352,3007.0099999999998,0.023623334684220135
353,3027.8500000000004,0.023615384410455968
354,3048.8399999999997,0.02369806680746605
355,3069.9700000000003,0.023782330363865435
356,3091.25,0.023774396591039068
357,3112.68,0.023950595488986953
358,3127.05,0.023486387349160125
359,3148.72,0.02343281252034681
360,3170.5499999999997,0.023698221873692697
361,3192.53,0.022525703897812832
362,3207.26,0.023227610167844203
363,3229.49,0.02203507997658809
364,3251.8799999999997,0.023667773967491177
365,3266.89,0.024612212556301152
366,3289.5299999999997,0.024363054331827987
367,3311.31121,0.02408158635347216
368,3312.3399999999997,0.02406884660780762
369,3319.97,0.02392901450861869
370,3327.6299999999997,0.02416779312201486
371,3335.2999999999997,0.025400228639606063
372,3342.9900000000002,0.023791717965587336
373,3350.69,0.024804874195763642
374,3358.4199999999996,0.024609421138525055
375,3366.1600000000003,0.023238674985481496
376,3373.92,0.02174138264082801
377,3381.69,0.023470827200369554
378,3389.49,0.024519422472496204
379,3397.2999999999997,0.023660274648817887
380,3405.14,0.02413518753772467
381,3412.98,0.023756160426631458
382,3420.85,0.024090924028123344
383,3428.7400000000002,0.0240924214380053
384,3436.6400000000003,0.02409402575208229
385,3444.57,0.021489080778744382
386,3452.5099999999998,0.02487957270960151
387,3460.46,0.02329717154465367
388,3468.44,0.023391181092290936
389,3476.44,0.022932784448318266
390,3484.4500000000003,0.023580094708540632
391,3492.48,0.023117528777153066
392,3500.54,0.022396453558350606
393,3508.6,0.02372525833954814
394,3516.69,0.02235414383333078
395,3524.8,0.023166933135503484
396,3532.9300000000003,0.024063816246066263
397,3541.07,0.024553726260824076
398,3549.23,0.02510567008397195
399,3557.41,0.0239723977155099
400,3565.61,0.024908399155437914
401,3573.83,0.021918954403756
402,3582.07,0.022313563460464148
403,3590.33,0.020259726325562367
404,3598.6099999999997,0.02359803299905066
405,3606.9,0.02276459657673398
406,3607.6000000000004,0.022948919870386372
407,3610.35,0.019095598524020766
408,3613.0899999999997,0.026108990273460128
409,3615.84,0.024748168927094524
410,3618.58,0.022354950676533883
411,3621.33,0.021031529330168282
412,3624.0699999999997,0.02193304107960764
413,3626.81,0.029441032829047004
414,3629.56,0.019953421482681397
415,3632.3,0.02211520323212076
416,3635.05,0.013834351885755153
417,3637.79,0.020104993635194517
418,3640.54,0.021104972288828912
419,3643.2799999999997,0.014726954038268273
420,3646.03,0.018499042691902667
421,3648.77,0.02379833444134203
422,3651.52,0.02474306309497642
423,3654.2599999999998,0.031115694844415787
424,3657.0000000000005,0.025518676593855146
425,3659.75,0.02320266524748954
426,3662.49,0.019493926996928902
427,3665.2400000000002,0.0213063256505633
428,3667.98,0.021753187400002656
429,3670.73,0.025539696053637057
430,3673.47,0.028189287803076415
431,3676.2200000000003,0.02189699645671081
432,3678.96,0.023629628206150173
433,3681.71,0.02376958685978457
434,3684.4500000000003,0.019579858609223927
435,3687.19,0.02494460035866329
436,3689.94,0.017646129012297687
437,3692.68,0.02566740076173705
438,3695.4300000000003,0.018821019415371443
439,3698.17,0.029312711164810802
440,3700.9199999999996,0.027391839818445198
441,3703.66,0.020306801567884558
442,3706.41,0.024723880221518956
443,3709.15,0.021953341970958315
444,3711.89,0.02528278372039768
445,3714.6400000000003,0.020524402374032073
446,3717.38,0.030542754123471436
447,3720.1299999999997,0.03038355277710583
448,3722.87,0.04176332452654519
449,3725.62,0.04602992318017959
450,3728.36,0.05056446492961895
451,3731.11,0.036363733583253344
452,3733.8500000000004,0.030433605332692702
453,3736.6,0.0243342139863271
454,3739.3399999999997,0.02270498573576646
455,3742.08,0.023221527485205822
456,3744.83,0.023749856138840217
457,3747.57,0.021187517888279574
458,3750.3199999999997,0.016893996541913973
459,3753.06,0.020418038291353333
460,3755.81,0.026635016944987728
461,3758.5499999999997,0.029710368694427093
462,3761.3,0.027407947348061488
463,3764.04,0.025521229097500847
464,3766.79,0.026135377751135242
465,3769.5299999999997,0.024048939500574604
466,3772.27,0.025250451250013965
467,3775.02,0.025957229903648363
468,3777.76,0.02955947165308772
469,3780.51,0.030963930306722117
470,3783.25,0.03354555205616148
471,3786.0,0.030583660709795873
472,3788.74,0.028389312459235233
473,3791.4900000000002,0.02645061111286963
474,3794.23,0.02263565286230899
475,3796.98,0.022141651515943384
476,3799.72,0.02096112326538275
477,3801.8939600000003,0.025055778313417362
478,3802.4599999999996,0.026122130006637906
479,3805.21,0.027407823157999386
480,3807.95,0.026015035606992278
481,3810.7000000000003,0.03052492875835376
482,3813.44,0.030215661207346655
483,3816.19,0.028616224358708132
484,3818.93,0.028280606807701024
485,3821.6800000000003,0.027198719959062506
486,3824.42,0.0250419424080554
487,3827.16,0.020963724857048293
488,3829.9100000000003,0.022760178008409775
489,3832.65,0.02179738045740267
490,3835.4,0.01789837360876415
491,3838.14,0.018186496057757046
492,3840.8900000000003,0.023318469209118523
493,3843.63,0.026075321658111418
494,3846.3799999999997,0.0287011748094729
495,3849.12,0.029268917258465792
496,3851.87,0.03033194040982727
497,3854.61,0.028081702858820168
498,3857.35,0.03227816530781306
499,3860.1000000000004,0.03253980845917454
500,3862.84,0.03173001090816743
501,3865.5899999999997,0.03220156405952891
502,3868.33,0.03065412650852181
503,3871.08,0.028789539659883293
504,3873.82,0.028666382108876187
505,3876.5699999999997,0.029223775260237665
506,3879.3100000000004,0.02684435770923056
507,3882.06,0.02646442086059204
508,3884.7999999999997,0.022541733309584932
509,3887.54,0.025020695758577825
510,3890.29,0.026230758909939308
511,3893.03,0.0267407113589322
512,3895.7799999999997,0.03050870451029368
513,3898.52,0.02900205695928658
514,3901.27,0.03197037011064805
515,3904.0099999999998,0.02894934255964095
516,3906.76,0.03032171571100243
517,3909.5,0.030582668159995326
518,3912.25,0.0318318113113568
519,3914.99,0.029646153760349698
520,3917.73,0.03366415620934259
521,3920.48,0.031126509360704074
522,3923.2200000000003,0.029372561809696968
523,3925.97,0.02812835496105845
524,3928.71,0.025175297410051343
525,3931.46,0.02191959056141282
526,3934.2,0.026514593010405714
527,3936.9500000000003,0.027480766161767197
528,3939.69,0.032698688610760085
529,3942.4300000000003,0.03171637105975299
530,3945.18,0.030077834211114464
531,3947.9199999999996,0.03195089666010736
532,3950.67,0.03106189981146884
533,3953.41,0.029605382260461735
534,3956.1600000000003,0.027343095411823212
535,3958.9,0.024165687860816108
536,3961.65,0.024044951012177587
537,3964.39,0.022514483461170482
538,3967.1400000000003,0.02141816661253196
539,3969.88,0.024752029061524856
540,3972.62,0.02200037151051775
541,3975.37,0.029439594661879228
542,3978.11,0.03126081711087213
543,3980.86,0.026321600262233603
544,3983.6,0.0309234127112265
545,3986.3500000000004,0.03304701586258798
546,3989.09,0.03593985831158087
547,3991.8399999999997,0.034278381462942355
548,3994.58,0.035164813911935246
549,3997.33,0.033386057063296726
550,4000.07,0.03386796951228962
551,4002.81,0.032148011961282516
552,4005.5600000000004,0.03330622511264399
553,4008.3,0.03057072756163689
554,4011.0499999999997,0.03573582071299837
555,4013.79,0.03632057316199126
556,4016.54,0.033267936313352744
557,4019.28,0.03705903876234564
558,4022.0299999999997,0.034971801913707114
559,4024.7699999999995,0.03574945436270001
560,4027.52,0.032399387514061496
561,4030.2599999999998,0.03370477996305439
562,4033.0,0.03260433241204728
563,4035.75,0.03367076556340876
564,4038.4900000000002,0.03336745801240165
565,4041.24,0.034983711163763136
566,4043.98,0.034048983612756024
567,4046.73,0.03169575676411751
568,4049.47,0.0337668292131104
569,4052.2200000000003,0.03214189236447188
570,4054.96,0.03133123481346478
