,lambda (Angstroms),Total Flux (erg/s/cm^2/Angstrom)
0,101.98,0.047142759694991994
1,104.11,0.056170755244840706
2,104.712855,0.05872595349660189
3,106.05,0.053997117752099005
4,108.02000000000001,0.04703017970809227
5,110.03,0.03992178111698041
6,113.9,0.02623546145947435
7,117.9,0.012089394847124714
8,120.22644299999999,0.003861894200012515
9,120.92,0.0037484016252081562
10,124.89,0.003098753761832247
11,126.91,0.0027682027510456996
12,128.09,0.0025751087387193977
13,131.07,0.002087465082333997
14,131.98,0.0019385567300945622
15,134.13,0.0015867341784395223
16,136.93,0.0011285531845920277
17,138.038426,0.0009471734379708738
18,140.12,0.000935149462734522
19,143.06,0.0009182461494280828
20,147.07,0.0008953023321024971
21,150.84,0.0008736104141133555
22,155.06,0.0008493442807058815
23,158.489319,0.0008296573957098255
24,159.04000000000002,0.0008247886847513156
25,162.0,0.0007986357938790123
26,166.15,0.0007620027252773029
27,170.02,0.0007278764015648655
28,173.19,0.0006999417335756082
29,176.80999999999997,0.0006681089395500211
30,180.10000000000002,0.0006391642441510751
31,181.970086,0.0006227380340958887
32,182.18,0.0006233580711849771
33,185.99999999999997,0.000634705995100713
34,191.20999999999998,0.0006502211030276723
35,193.87,0.0006582707445239701
36,197.93,0.0006705018384920036
37,202.07,0.0006830647931441361
38,204.89000000000001,0.0006917165510086325
39,208.929613,0.0007038854048565368
40,210.14000000000001,0.000725077023690353
41,216.03,0.0008290743876097286
42,220.05,0.000900010657872189
43,223.11,0.0009539389543107785
44,227.25,0.0010272127655512225
45,229.89,0.0010801999470668676
46,234.16,0.0011697943672834615
47,239.88329199999998,0.0012814004391111457
48,240.17,0.0012779175309075564
49,245.76000000000002,0.0012005870640479077
50,252.06,0.0011188683580701292
51,256.75,0.0010468142820644496
52,259.71999999999997,0.0010152876612463542
53,263.94,0.0009621431347977465
54,268.84999999999997,0.0008972324783610969
55,273.85,0.0008310526158390493
56,275.42287,0.0008102569603710754
57,278.94,0.0008677104839202226
58,284.13,0.0009527392735325727
59,290.08,0.0010461628247259219
60,296.15,0.0011475712388004811
61,300.96000000000004,0.0012251607726223327
62,307.97,0.0013423724925997068
63,316.227766,0.0014807996915429473
64,318.06,0.001463068294641773
65,327.72999999999996,0.001367909316282116
66,337.69,0.0012685437594607933
67,347.95,0.0011656267352653346
68,356.87000000000006,0.0010777143253410167
69,363.078055,0.0010168604464644367
70,366.03,0.0010466784915067588
71,375.42,0.0011392270169892993
72,385.04999999999995,0.0012285289626119676
73,394.92,0.0013329091283747659
74,405.05,0.001434883207622703
75,413.53000000000003,0.0015179949859072546
76,416.86938299999997,0.0015498545963077135
77,422.19,0.0015820475231873806
78,430.04,0.0016310163151969463
79,441.07,0.0017020030519951008
80,451.35,0.0017643139640789655
81,459.74,0.00181565139388282
82,470.45,0.0018814251268028776
83,478.630092,0.001933777791380984
84,480.3,0.0019242623799853834
85,490.36,0.0018603756245974535
86,499.46999999999997,0.0018115050701656406
87,506.42,0.0018013869210656295
88,512.29,0.0020520961246315197
89,519.41,0.0020410152848340983
90,530.29,0.0020148533801998365
91,540.15,0.0019437207197500362
92,549.5408739999999,0.0021277089998892763
93,550.1899999999999,0.0021434320076361116
94,560.42,0.0023171621551550357
95,569.52,0.0024761156158023684
96,580.11,0.0024301915573688793
97,589.54,0.0027551688292264996
98,600.5,0.0028448232257863642
99,610.26,0.0031823433088542723
100,620.1700000000001,0.0035309763061086748
101,630.25,0.0037941075394411048
102,630.957344,0.0037989659571573795
103,640.4899999999999,0.003914440861256469
104,649.4,0.004438817398710794
105,658.43,0.004780150276736893
106,664.53,0.005075672422468811
107,675.3199999999999,0.0052400329622142834
108,684.72,0.005326237973670024
109,694.24,0.006696161325697541
110,705.52,0.0066037303394444295
111,715.34,0.007852736042901385
112,724.43596,0.008255200876520735
113,725.29,0.008291880732714758
114,735.3800000000001,0.008710397553869877
115,745.61,0.009892535231810102
116,754.24,0.010674295689349118
117,764.74,0.011456995948232048
118,775.38,0.012584255063900082
119,784.35,0.013715653030774353
120,795.26,0.014467564727385092
121,804.47,0.015292503877319548
122,815.66,0.016001655287500496
123,825.11,0.01772470562049513
124,831.763771,0.0158888930375109
125,834.66,0.015074027884686163
126,844.3299999999999,0.019059360506469808
127,854.11,0.01981367227907002
128,865.99,0.02145993056725924
129,874.0,0.02322331327672015
130,884.12,0.0254726051518443
131,894.36,0.027108998827859245
132,904.7099999999999,0.02743079165469076
133,915.19,0.0428633289324873
134,925.79,0.31134951801117466
135,934.35,0.7021040464747185
136,945.1700000000001,1.352300433855039
137,953.9200000000001,1.857770752669993
138,954.992586,1.880684172324899
139,964.97,2.09386085641918
140,973.89,0.3357242905117424
141,985.17,1.7060479313821582
142,994.2900000000001,1.8238245474050476
143,1005.8000000000001,2.654077752495339
144,1015.11,2.6296972563520384
145,1024.5,1.2390717129808688
146,1033.98,1.9497061164783458
147,1045.95,3.5146100500083883
148,1055.63,3.3796543354361916
149,1065.3999999999999,2.697123567732642
150,1075.26,3.21273374689774
151,1085.2,2.599683878834968
152,1095.25,3.4345369458338757
153,1096.4782,3.4049640018736373
154,1105.3799999999999,3.19061277305889
155,1115.61,3.0752448712565235
156,1125.93,2.6723838031626403
157,1133.74,3.4742453727543823
158,1144.23,3.1832089905543013
159,1154.81,3.3639994420627044
160,1165.5,3.4265356903259203
161,1176.28,2.2125997722976205
162,1184.4399999999998,3.410704695200131
163,1195.3999999999999,2.7093804445887986
164,1203.68,1.9050601457692875
165,1214.8200000000002,1.3962715625749216
166,1226.0600000000002,2.6906567946122038
167,1234.56,3.60444208930232
168,1245.98,3.7830059887565697
169,1254.62,3.621073024770993
170,1258.92541,3.531426507703176
171,1266.2300000000002,3.379346029738152
172,1275.0,3.9338981823312045
173,1283.84,4.016317344123974
174,1295.72,3.168429905447288
175,1304.7,3.31005708563949
176,1313.75,3.9978682750314087
177,1325.9,3.7655238718393433
178,1335.09,3.4421760796306953
179,1344.35,3.915873296621763
180,1353.6699999999998,3.835542521498303
181,1366.1899999999998,3.4740711669333106
182,1375.6599999999999,3.5386294115235284
183,1385.2,3.5631746653134626
184,1394.8,2.856617926988868
185,1404.4699999999998,3.0397691978639894
186,1414.1999999999998,3.310038476624583
187,1424.01,3.3483327658991375
188,1433.8799999999999,3.4263840630591638
189,1440.49,3.5549979317752505
190,1445.43977,3.548869055085878
191,1447.14,3.546763769837302
192,1453.8200000000002,3.4580705066630237
193,1463.8999999999999,3.2051626185198026
194,1474.0500000000002,3.2646917380978087
195,1484.27,3.279696865397043
196,1494.55,3.287290999314472
197,1504.91,3.053913142056161
198,1511.86,2.709310908663762
199,1515.3500000000001,2.8632022936221104
200,1525.85,2.909777451806255
201,1536.43,2.5111406188146597
202,1543.52,2.5815054008647156
203,1554.22,2.5053805811095105
204,1564.99,2.665981769075533
205,1575.84,2.8501009658658156
206,1586.7600000000002,2.9366801703773255
207,1594.09,2.963762978900162
208,1605.1399999999999,2.984322197751095
209,1616.26,2.9843524243232555
210,1623.7199999999998,2.8896652471855147
211,1634.98,3.0892294892001306
212,1646.31,3.110577738935974
213,1653.91,2.9912445772406877
214,1659.58691,3.0862586454502448
215,1665.37,3.1830538618400914
216,1673.0600000000002,2.9912630563196254
217,1676.92,3.234839165642253
218,1684.66,3.279742400397987
219,1696.3400000000001,3.103487808918268
220,1704.17,3.0120321161711616
221,1715.98,2.8501376294095624
222,1723.8999999999999,2.843608009159616
223,1735.85,3.012077635171376
224,1743.8600000000001,2.9367550874185895
225,1755.95,3.067985826203709
226,1764.05,2.9165343509480817
227,1776.28,2.876542202506561
228,1784.48,2.950334807803334
229,1796.8500000000001,3.0964677721351723
230,1805.14,3.1251694499291047
231,1813.48,2.8110911679992365
232,1826.05,2.9435702934358745
233,1834.47,2.837162075947927
234,1842.94,2.6054498987361785
235,1855.7199999999998,2.5935631933328556
236,1864.2800000000002,2.6723600886182672
237,1872.89,2.8965070241798787
238,1885.8700000000001,2.605486479881355
239,1894.58,2.448575495995366
240,1903.32,2.684715536275097
241,1905.46072,2.65846073748613
242,1916.51,2.5229267878842205
243,1925.3600000000001,2.4541145986690838
244,1934.2500000000002,2.5995753679207714
245,1943.1699999999998,2.6846941060225773
246,1956.64,2.4597621197256405
247,1965.6699999999998,2.7094507436112134
248,1974.7500000000002,2.817562315580316
249,1983.8600000000001,2.635658856399537
250,1993.02,2.581632345302288
251,2006.84,2.6907229955900633
252,2016.1000000000001,2.6294923806598747
253,2025.4,2.7661747241965107
254,2034.75,2.5520290158166774
255,2044.15,2.635561255520374
256,2053.58,2.540228464074189
257,2063.06,2.569663620711534
258,2072.58,2.7470037358157033
259,2077.36,2.5111967726012
260,2086.95,2.6476398150223117
261,2096.58,2.5053998159102475
262,2106.26,2.581494764881714
263,2115.98,2.6052706723200045
264,2125.75,2.6414905278418255
265,2135.56,2.5519143418304706
266,2145.42,2.499561103902646
267,2155.32,2.6112508244416457
268,2165.27,2.5814514930641757
269,2175.2599999999998,2.56367412015353
270,2185.3,2.4937526953264144
271,2187.7616199999998,2.515137201363918
272,2195.3900000000003,2.5814204545256207
273,2205.52,2.5460068406689964
274,2215.7,2.4766532682049847
275,2225.9300000000003,2.4090977371335858
276,2236.21,2.4766672474547997
277,2246.5299999999997,2.448111790890104
278,2256.9,2.3692353757180213
279,2267.31,2.417593993660029
280,2272.54,2.4336963233273394
281,2283.03,2.4604940074975277
282,2293.57,2.327023733060329
283,2304.1600000000003,2.3635965000157433
284,2314.79,2.282150300085248
285,2325.48,1.8798821498258875
286,2336.21,2.167053032680618
287,2346.99,2.155942956927961
288,2352.4,2.220859435608678
289,2363.26,2.1392914260842018
290,2374.17,2.1479564579523385
291,2385.13,2.083516531213088
292,2396.14,2.1455356458664507
293,2407.2,2.0763128019124264
294,2412.75,2.099755396492459
295,2423.88,2.1425616104880927
296,2435.07,2.0686828741548617
297,2446.31,2.1302481792142434
298,2457.6,2.1192625256662385
299,2463.27,2.0943602195885425
300,2474.64,2.050256632268718
301,2486.06,2.072826086341507
302,2497.54,1.9068125900854302
303,2503.2900000000004,2.080505350235915
304,2511.88643,1.9830805589353393
305,2514.8500000000004,1.9494905172802381
306,2520.6499999999996,2.0173836589566436
307,2526.46,1.961815797429043
308,2532.28,1.961269932697436
309,2543.97,1.9198081872141914
310,2555.71,1.986039425710916
311,2567.51,1.9621466449836031
312,2573.43,2.0118107482119343
313,2585.31,1.996803941852572
314,2597.2400000000002,1.9817961194731786
315,2603.2300000000005,1.9405722002734664
316,2615.24,1.9215743522620234
317,2627.31,1.9425804850265433
318,2633.37,1.9599025433987878
319,2645.52,2.022800650531258
320,2657.7400000000002,2.040230735235685
321,2663.86,1.9300067743838922
322,2676.1600000000003,1.9736608334562695
323,2682.33,1.9684338565844457
324,2694.71,1.9004318900247736
325,2707.1499999999996,1.9079789042410642
326,2713.39,1.868190904941197
327,2725.9100000000003,1.858412893525438
328,2732.2000000000003,1.8967438782055401
329,2744.81,1.7730598379537252
330,2757.48,1.7841677784778733
331,2763.83,1.8083977439339378
332,2776.5899999999997,1.8492856556220303
333,2782.9900000000002,1.8023936050580638
334,2795.84,1.6428064879101003
335,2802.2799999999997,1.6999264245301093
336,2815.22,1.8118182785460901
337,2828.21,1.8272641165420398
338,2834.7299999999996,1.756587027529999
339,2847.81,1.747370836689893
340,2854.38,1.7187977316578216
341,2867.5499999999997,1.7902565119816594
342,2874.1699999999996,1.781461390929557
343,2884.0315,1.7744384199489212
344,2887.4300000000003,1.7720192090146403
345,2894.09,1.763237165344548
346,2907.45,1.8071360777420808
347,2927.6000000000004,1.7682389456171026
348,2947.8900000000003,1.7301268125741345
349,2968.33,1.7322386785476054
350,2988.9,1.7184555436686575
351,3009.62,1.7007904078061487
352,3030.48,1.7029022710256498
353,3051.4900000000002,1.6892291332615907
354,3072.64,1.6795649945795414
355,3086.82,1.6591209016002764
356,3108.22,1.6572287612789594
357,3129.77,1.6288836199740817
358,3151.46,1.6195494777512143
359,3173.31,1.6065433344792153
360,3187.95,1.5543262384836976
361,3210.0499999999997,1.570439093572431
362,3232.3,1.525873947677604
363,3247.2200000000003,1.5601048498461063
364,3269.73,1.5763297022464406
365,3292.39,1.5563225536632144
366,3307.59,1.5408744539957369
367,3311.31121,1.554630721886919
368,3322.86,1.5973219820016034
369,3330.52,1.603991021851731
370,3338.1899999999996,1.5383170604483993
371,3345.8900000000003,1.5698780952846896
372,3353.6,1.5547651288675206
373,3361.33,1.5328731599434327
374,3369.08,1.5077581885124263
375,3376.85,1.462631214574501
376,3384.63,1.5098672393831163
377,3392.44,1.5550852604313536
378,3400.2599999999998,1.5979772802261316
379,3408.1,1.5045182975139908
380,3415.95,1.5143033135483905
381,3423.83,1.5740863258224125
382,3431.72,1.5661923368429747
383,3439.63,1.5618633453566184
384,3447.56,1.4738473513633432
385,3455.5099999999998,1.4800663548631496
386,3463.4700000000003,1.4325073571094964
387,3471.46,1.485620355595465
388,3479.4599999999996,1.4346163528279745
389,3487.48,1.4571773475535652
390,3495.5199999999995,1.4768403397722372
391,3503.58,1.4728413294839904
392,3511.65,1.4552843179422843
393,3519.75,1.4613973026401998
394,3527.8599999999997,1.4275042860846563
395,3536.0000000000005,1.4769462657687347
396,3544.1499999999996,1.4968382441993535
397,3552.3199999999997,1.5100612201230537
398,3560.51,1.4955021935398354
399,3568.71,1.4276111657031576
400,3576.94,1.3817061341061017
401,3585.1899999999996,1.3403651000021268
402,3593.4500000000003,1.3804870646446927
403,3601.73,1.4515010267803399
404,3610.04,1.4080399851556091
405,3618.36,1.4336029422774188
406,3626.7,1.48671689689231
407,3635.06,1.4322678490002823
408,3643.44,1.4990497986013358
409,3651.84,1.4178197456954706
410,3659.1800000000003,1.315575825656298
411,3661.86,1.0803254897291887
412,3664.54,1.2694641538020792
413,3667.23,1.5224938166215105
414,3669.9100000000003,1.0759364806944012
415,3672.6,1.2839051435138324
416,3675.28,1.2984658075867233
417,3677.97,1.4016964704061545
418,3680.6499999999996,1.5059361344790452
419,3683.3300000000004,1.4297067985519358
420,3686.02,1.3289104613713671
421,3688.7,1.3323581254442576
422,3691.39,1.1906687882636888
423,3694.0699999999997,1.2677924523365796
424,3696.76,1.493485115156011
425,3699.44,1.5417167792289017
426,3702.13,1.2565634420483327
427,3704.81,1.3796931061212236
428,3707.49,1.099046770194114
429,3710.1800000000003,1.2959024330135454
430,3712.86,1.314019097086436
431,3715.55,1.5787167599058674
432,3718.23,1.359468423978758
433,3720.9199999999996,1.8428600867981892
434,3723.6000000000004,2.4438337508710797
435,3726.28,4.044722414943971
436,3728.97,5.740268077763402
437,3731.65,5.787065741836293
438,3734.3399999999997,4.586333404655724
439,3737.02,2.5434030687286144
440,3739.71,2.0589977315480454
441,3742.39,1.7017323956209365
442,3745.08,1.3959090584403675
443,3747.7599999999998,1.8649747225132585
444,3750.44,1.539268386586149
445,3753.13,1.3609060494055802
446,3755.81,1.2681187134784708
447,3758.5,1.790517376297902
448,3761.1800000000003,1.8467500403707928
449,3763.8700000000003,1.623714703190224
450,3766.55,1.6490553672631147
451,3769.23,1.3404610313360052
452,3771.92,1.5771556941554368
453,3774.6000000000004,1.6070513582283272
454,3777.29,1.3886840210477585
455,3779.9700000000003,1.4967016851206492
456,3782.66,1.6290473479400804
457,3785.3399999999997,1.7319540120129713
458,3788.03,1.5601476748324024
459,3790.71,1.537926338905293
460,3793.39,1.6333870029781836
461,3796.08,1.4355776657976151
462,3798.7599999999998,1.5851563298705056
463,3801.4500000000003,1.5919299926899368
464,3801.8939600000003,1.6099159493697168
465,3804.13,1.7005037151621962
466,3806.82,1.6828284482372144
467,3809.5,1.6367151823045185
468,3812.1899999999996,1.8781859153795366
469,3814.8700000000003,1.8434076494468408
470,3817.55,1.9021973835141448
471,3820.24,2.097440116589163
472,3822.92,1.6233808506564669
473,3825.6099999999997,1.734056583731485
474,3828.29,1.5821513177987891
475,3830.98,1.7383890508738074
476,3833.66,1.5016947849411113
477,3836.3399999999997,1.4319105190084156
478,3839.0299999999997,1.3511172520834334
479,3841.71,1.3431189861507375
480,3844.4,1.1168627192257556
481,3847.08,1.7471714532930598
482,3849.77,1.816731186368078
483,3852.45,1.811400920435382
484,3855.1400000000003,2.0010866535104
485,3857.82,1.9421943875777041
486,3860.5,1.7531731216450082
487,3863.19,1.8458468547200264
488,3865.8700000000003,2.0145395887873305
489,3868.56,2.2432303218623484
490,3871.2400000000002,2.112329055929653
491,3873.93,2.1983337890046704
492,3876.6099999999997,1.9743085230719748
493,3879.2900000000004,1.7451712571392788
494,3881.98,1.653708990214297
495,3884.66,1.959308724281601
496,3887.35,1.8367314573566191
497,3890.0299999999997,1.4455721914239232
498,3892.7200000000003,1.598809924498941
499,3895.4,1.7533896585662454
500,3898.09,1.7030433916412635
501,3900.77,1.7021581257085676
502,3903.45,1.5521418597758716
503,3906.1400000000003,1.7889465928508896
504,3908.82,2.1182163269181937
505,3911.51,1.8748450599932118
506,3914.19,1.9887527940605159
507,3916.8799999999997,2.057200527135534
508,3919.5600000000004,1.8808472612028382
509,3922.2400000000002,1.9389709952701424
510,3924.93,1.9790817283451603
511,3927.61,1.7516104624124647
512,3930.2999999999997,1.7484931954874825
513,3932.98,1.9216319295547866
514,3935.67,1.7804966626298047
515,3938.35,1.619367396697109
516,3941.04,1.8059421297721268
517,3943.72,1.989192863839431
518,3946.4,2.0972115979067354
519,3949.09,1.825613330981753
520,3951.77,1.8581770650490572
521,3954.46,2.1193167981240753
522,3957.1400000000003,1.8934025321913794
523,3959.83,1.7582682652663975
524,3962.51,1.8781769993337014
525,3965.19,1.6098107334010059
526,3967.8799999999997,1.7989424664760236
527,3970.5600000000004,1.7260472005433278
528,3973.25,1.660588933618346
529,3975.93,1.6359226676856502
530,3978.62,1.399997400760668
531,3981.2999999999997,1.6469221348279721
532,3983.9900000000002,1.7365958679029903
533,3986.67,1.7988296019702943
534,3989.35,1.9721903360375985
535,3992.04,2.1533190691126163
536,3994.72,2.1342108031799207
537,3997.4100000000003,2.057305536254939
538,4000.09,1.9655192703222428
539,4002.78,2.201322003397261
540,4005.46,2.080643737464565
541,4008.1499999999996,1.9648454705395828
542,4010.8300000000004,2.070529204606887
543,4013.51,2.338903938674191
544,4016.2,2.1986556717492096
545,4018.88,2.2837834058165134
546,4021.5699999999997,2.1344231388915316
547,4024.2499999999995,2.0246348729588357
548,4026.94,2.0108496060338537
549,4029.62,2.1030883401011575
550,4032.2999999999997,2.116205074168462
551,4034.99,2.0448568072434803
552,4037.67,1.861836541310784
553,4040.36,2.0036272743858023
554,4043.04,2.043081008453106
555,4045.73,1.977621741528124
556,4048.41,1.9089504755954285
557,4051.1000000000004,1.9563952086704464
558,4053.78,2.118309942737751
559,4056.46,2.256776676805055
560,4059.15,2.033407409880073
561,4061.8300000000004,2.077084143947377
562,4064.52,2.1337528770223946
563,4067.2000000000003,2.113087611089699
564,4069.89,2.073298344164717
565,4072.5699999999997,2.0579670782320214
566,4075.2500000000005,2.0980878122993256
567,4077.94,2.0883025453743436
568,4080.62,2.1843192794416475
569,4083.31,2.1467530125166654
570,4085.99,2.0893057465839697
571,4088.6800000000003,2.198536479658988
572,4091.36,2.097526213726292
573,4094.05,1.98917294680131
574,4096.7300000000005,1.9866216808686141
575,4099.41,2.153092414935918
576,4102.1,2.127527148010936
577,4104.78,1.9570638820782404
578,4107.469999999999,1.9750606151532584
579,4110.150000000001,2.0019573492205627
580,4112.84,2.1535270822955805
581,4115.5199999999995,1.9975108163628847
582,4118.2,2.078636550430189
583,4120.889999999999,2.036514283505207
584,4123.57,2.058299017572511
