,lambda (Angstroms),Total Flux (erg/s/cm^2/Angstrom)
0,100.04,0.01510009148229705
1,101.89999999999999,0.01815874688056816
2,104.04,0.021677845025745542
3,104.712855,0.022784313619340874
4,105.97,0.02105940151264085
5,107.94,0.018356390456324905
6,109.94999999999999,0.015598495970331572
7,114.07000000000001,0.009945498310725434
8,118.08000000000001,0.004443430282580329
9,120.22644299999999,0.001498325595136646
10,121.11,0.0014422304047550481
11,125.08,0.0011901819723971695
12,127.11,0.0010613008420858258
13,127.99,0.0010054313830073667
14,130.98,0.0008156018662040677
15,131.88,0.0007584637126649841
16,134.03,0.0006219644847848956
17,137.15,0.0004238843908525396
18,138.038426,0.0003674805166315839
19,140.02,0.0003630396846705078
20,142.95000000000002,0.00035650289868256963
21,146.96,0.00034758887819262725
22,151.07,0.0003384060179674991
23,154.95,0.0003297505762702979
24,158.489319,0.000321864125412384
25,158.92,0.0003203863894125053
26,161.88000000000002,0.00031023716924520676
27,166.03,0.000296021724025177
28,169.9,0.00028278352017637804
29,173.05999999999997,0.0002719675536153433
30,177.09,0.00025824091211155514
31,179.97,0.00024844186062175123
32,181.970086,0.00024164129511879836
33,182.04999999999998,0.00024173349320265731
34,185.85999999999999,0.0002461774094280281
35,191.07,0.00025229922377164536
36,194.17000000000002,0.0002559980355691912
37,197.78,0.00026039556492052677
38,201.92000000000002,0.0002654816740630556
39,205.21,0.0002695639356159349
40,208.929613,0.0002742541308450167
41,209.99,0.0002815548465781994
42,215.86999999999998,0.0003226182932621494
43,219.88,0.00035075990320987746
44,222.94000000000003,0.00037224704359642327
45,227.07999999999998,0.0004017227788841022
46,230.23999999999998,0.00042727218122445653
47,233.99,0.000462517629492282
48,239.88329199999998,0.0005125724005936256
49,239.99,0.0005121684813300321
50,246.14000000000001,0.0004845165365750548
51,251.88,0.00046609325813707617
52,257.15,0.00044258802279419334
53,260.13,0.00043806025614869204
54,263.75,0.00045313981720348584
55,269.27,0.00044796597361853083
56,274.28000000000003,0.00044906054764740284
57,275.42287,0.00044368723449618854
58,278.72999999999996,0.00046606249895446645
59,283.92,0.0005662830769170311
60,289.86,0.0006641182910013532
61,295.93,0.00073170736734678
62,300.74,0.0007740719710076537
63,307.74,0.0009286536081440603
64,316.227766,0.0010996473461641326
65,317.83,0.001115489445190197
66,328.24,0.00127751389685817
67,338.21,0.0013973302952375835
68,347.69,0.0015414820979092825
69,356.60999999999996,0.002237897705486451
70,363.078055,0.0033061574475157915
71,365.75000000000006,0.0037680872223186026
72,375.14,0.004401081084879799
73,384.76000000000005,0.004251796490400429
74,394.63,0.007193704138268267
75,404.74999999999994,0.010287356028483317
76,414.18,0.011723444289820067
77,416.86938299999997,0.011823864546268109
78,421.88000000000005,0.01200417404422649
79,429.72,0.012842006633833366
80,440.75000000000006,0.017198777930180795
81,451.01000000000005,0.01986388540076326
82,460.46,0.019618127807878694
83,470.1,0.022406456094078982
84,478.630092,0.027152337896856792
85,479.94,0.02787498210662071
86,489.99,0.026443040266521736
87,500.25,0.03559541922379383
88,506.04,0.032645111208453224
89,511.9,0.05258535679223631
90,520.22,0.053775331716651886
91,529.89,0.05436561176702431
92,539.74,0.04870282250085766
93,549.5408739999999,0.05100793612160886
94,549.78,0.051064606799434614
95,560.0,0.07161065908751711
96,570.41,0.08560960670189467
97,579.68,0.0898200523585018
98,590.46,0.09753540929250662
99,600.0500000000001,0.0881708476039265
100,609.8,0.08979510724275275
101,619.71,0.12015638820898539
102,629.7800000000001,0.1193185605026244
103,630.957344,0.12152855299649883
104,640.01,0.13853971599509796
105,650.41,0.1404726659507816
106,657.94,0.13448316298600255
107,665.5600000000001,0.15614246516507074
108,674.82,0.17157018329868906
109,685.79,0.15473439916540532
110,695.3299999999999,0.18595644441321513
111,704.9999999999999,0.158715741535471
112,716.45,0.2086224181693727
113,724.43596,0.2172899863448637
114,726.42,0.2194423666907311
115,734.83,0.22766785687136912
116,745.0500000000001,0.22872445017055107
117,755.42,0.23512024317568972
118,764.17,0.21846485935649623
119,774.8,0.2513416251852931
120,785.58,0.2384040907200467
121,794.67,0.2637832329010217
122,805.73,0.2787398845535611
123,815.06,0.2885221862640667
124,824.5,0.30071676109227397
125,831.763771,0.26096477784765704
126,834.0400000000001,0.2485029909045537
127,845.65,0.31124646695970865
128,855.4399999999999,0.3133895803602227
129,865.34,0.3326843343607424
130,875.36,0.3419779144703594
131,885.5,0.3507214206890735
132,895.75,0.3596884675077935
133,904.04,0.36050705454459236
134,914.51,0.3563730825633238
135,925.0999999999999,0.8444906366911525
136,935.81,1.3819842169280785
137,944.47,1.9654496678012603
138,954.992586,2.3846315463124323
139,955.41,2.401260324012958
140,964.25,2.657254299285816
141,975.4100000000001,0.97845394318232
142,984.44,2.220492674937287
143,995.84,2.2204890638638233
144,1005.05,2.9002219543913146
145,1014.35,2.9677868243050676
146,1026.1000000000001,1.9206721330670682
147,1035.59,2.55523295946293
148,1045.17,3.7793847652450547
149,1054.84,3.701882550413441
150,1064.6,3.12196031496809
151,1074.46,3.5351870566185855
152,1084.3999999999999,3.0508667799457583
153,1094.43,3.718921482659194
154,1096.4782,3.695072120505726
155,1104.56,3.6009632200290587
156,1114.78,3.5433268937348807
157,1125.09,3.1799765029234353
158,1135.5,3.858444040426136
159,1146.01,3.6510195062429847
160,1153.95,3.753348814386255
161,1164.6299999999999,3.787984158337153
162,1175.41,2.651059430602198
163,1186.28,3.6847856383499753
164,1194.51,3.0089347386042724
165,1205.56,2.520108817317514
166,1213.92,1.9880668243802022
167,1225.15,3.0088917740589087
168,1233.64,3.8583646879299875
169,1245.05,4.096459508574159
170,1253.68,3.993932322085044
171,1258.92541,3.8772991314707266
172,1265.28,3.736007885886645
173,1274.06,4.399444333576026
174,1285.8400000000001,4.543578934234444
175,1294.76,3.85831238906238
176,1303.7299999999998,3.8672528464397997
177,1315.8,4.554062461885224
178,1324.92,4.3893179269110965
179,1334.1,4.068171394996349
180,1346.44,4.564552024208987
181,1355.78,4.460636500452589
182,1365.18,4.11527597975557
183,1374.64,4.211119462117932
184,1384.17,4.230572948049573
185,1393.76,3.422971437040594
186,1403.4199999999998,3.430915929600892
187,1416.4099999999999,4.021634591956821
188,1426.23,4.012311092675469
189,1436.11,4.1058055964534965
190,1442.7400000000002,4.2403579345150675
191,1445.43977,4.272128608809104
192,1446.0700000000002,4.2795450991462385
193,1456.09,4.162929527953281
194,1466.18,3.930085959755984
195,1476.35,3.9664553949822947
196,1486.5800000000002,4.040174832776312
197,1493.44,4.058832126350796
198,1503.7900000000002,3.8761905692802276
199,1510.7400000000002,3.5514408667062707
200,1517.7099999999998,3.7273581649882166
201,1524.71,3.6678204645540156
202,1535.28,3.2019249168983728
203,1545.93,3.157955372666338
204,1556.6399999999999,3.093219831002011
205,1563.83,3.3296881386988817
206,1574.6699999999998,3.551440602597919
207,1585.5800000000002,3.684728069492615
208,1596.57,3.735980539810919
209,1603.94,3.6593818552109108
210,1615.0600000000002,3.6509263310925806
211,1626.25,3.551463809969908
212,1633.76,3.7445931313612153
213,1645.09,3.7705336162298586
214,1656.49,3.6257931040941602
215,1659.58691,3.7093117107864613
216,1664.13,3.8318326564546457
217,1671.82,3.5026980597696378
218,1675.6699999999998,3.930090262989757
219,1683.3999999999999,3.9848046788057374
220,1695.07,3.805461325969061
221,1706.82,3.6932039981343605
222,1714.7,3.518927460829047
223,1726.5900000000001,3.4785991767478053
224,1734.56,3.6847306675697156
225,1746.5800000000002,3.6258454241166858
226,1754.64,3.770599943065819
227,1766.8,3.576085743366249
228,1774.9599999999998,3.5760922935678527
229,1783.15,3.650978853145198
230,1795.51,3.788007715950569
231,1803.8000000000002,3.7966823067803843
232,1816.3000000000002,3.5351962133392143
233,1824.6899999999998,3.6091668354215005
234,1833.1100000000001,3.518955466879528
235,1845.82,3.2840554390685464
236,1854.34,3.2992611017790447
237,1862.89,3.368330773865284
238,1875.81,3.5597108116844907
239,1884.47,3.3068465181484474
240,1893.16,3.179956233988146
241,1905.46072,3.3564262261238698
242,1906.29,3.3683227441934087
243,1915.0900000000001,3.2390551991325607
244,1923.93,3.1507756379578
245,1932.8100000000002,3.3068270606691255
246,1946.1999999999998,3.3916636665367665
247,1955.19,3.150782044934832
248,1968.74,3.407336586346821
249,1977.83,3.5108379244601036
250,1982.3899999999999,3.3373950874740275
251,1996.13,3.26147855234493
252,2005.34,3.3605618421164745
253,2014.6,3.284071111745627
254,2023.8999999999999,3.4151593652608674
255,2033.24,3.216729602662194
256,2047.33,3.2992499265363584
257,2056.78,3.022811119624425
258,2066.28,3.1218502925701
259,2075.81,3.3916134534303404
260,2085.4,3.2991975901197113
261,2095.02,3.1434487147236476
262,2104.69,3.1945318191851926
263,2114.41,3.2315259035043464
264,2124.17,3.253909971709587
265,2133.9700000000003,3.121824023800915
266,2143.8199999999997,3.114615055749852
267,2153.7200000000003,3.216668067556398
268,2163.66,3.1434070632490303
269,2173.64,3.129004042827751
270,2183.6800000000003,3.057787998235601
271,2187.7616199999998,3.1012936696900537
272,2193.7599999999998,3.16523428056888
273,2203.88,3.107445530986948
274,2214.0499999999997,3.008893797464394
275,2224.27,2.940445080001218
276,2234.54,3.0297313785974196
277,2244.86,2.953978693252999
278,2255.22,2.873516020756081
279,2265.6299999999997,2.9268543643185403
280,2276.08,2.960612720728502
281,2286.59,2.980923096409717
282,2297.14,2.8269554849384346
283,2302.44,2.8464621872324822
284,2313.07,2.7623266014562042
285,2323.74,2.3564210285274285
286,2334.47,2.6498134748699056
287,2345.25,2.619331937271761
288,2356.07,2.6987404125211185
289,2366.95,2.58896390704173
290,2372.4,2.6008886575139107
291,2383.35,2.4951141745176506
292,2394.35,2.5885247075807682
293,2405.41,2.5177932599151394
294,2416.51,2.5409578250970126
295,2427.6600000000003,2.5939704063382636
296,2433.2599999999998,2.511566204988578
297,2444.49,2.5877278119248333
298,2455.77,2.552017434920467
299,2467.11,2.5401080771873534
300,2472.8,2.482201904744548
301,2484.21,2.5165575694945637
302,2495.6800000000003,2.2479182535158326
303,2507.2,2.5219859535964795
304,2511.88643,2.3986832693540796
305,2512.98,2.3699103228799347
306,2518.77,2.45306360313638
307,2524.5800000000004,2.3916108809066645
308,2536.23,2.391447432717993
309,2542.07,2.3477557067590364
310,2553.8100000000004,2.413330247382641
311,2565.6,2.3909737817908434
312,2577.4399999999996,2.452119309983644
313,2583.38,2.4351555715938833
314,2595.2999999999997,2.41264008984204
315,2607.28,2.362987600631715
316,2613.29,2.341229853540392
317,2625.36,2.3735983531423432
318,2637.48,2.378905846528892
319,2643.55,2.451081091979086
320,2655.7599999999998,2.4452425741779114
321,2668.02,2.329649050161335
322,2674.17,2.372839285666886
323,2686.5099999999998,2.361760751705666
324,2692.7000000000003,2.2973319822388953
325,2705.13,2.3130234370899516
326,2717.62,2.260197884482526
327,2723.88,2.265338106314193
328,2736.46,2.301925542519043
329,2742.76,2.168112759378388
330,2755.42,2.1679371856385954
331,2768.14,2.19281760444032
332,2774.52,2.2437948113550217
333,2787.33,2.2026822189690227
334,2793.76,1.9767054196683225
335,2806.65,2.06013981733768
336,2813.12,2.2124980130646583
337,2826.11,2.217395398303212
338,2832.6200000000003,2.1370955890578682
339,2845.69,2.122203964351779
340,2852.25,2.1075331488910334
341,2865.42,2.15643551175414
342,2872.0299999999997,2.1267526900779923
343,2884.0315,2.1265428702705154
344,2885.28,2.12652119501887
345,2891.93,2.1021061781013226
346,2911.98,2.1507661270942817
347,2932.16,2.106442075756522
348,2952.49,2.0724780240371636
349,2972.96,2.067391971961646
350,2986.68,2.048285937058075
351,3007.38,2.0385908843974394
352,3028.23,2.0242728313552045
353,3049.2200000000003,2.0008297779568114
354,3070.35,1.9822467242022592
355,3091.64,1.963763670040668
356,3113.07,1.945520615522918
357,3127.44,1.9186075789657524
358,3149.11,1.9095635238374442
359,3170.94,1.8831154683020976
360,3192.92,1.8357754123851522
361,3207.66,1.8398133748867092
362,3229.8900000000003,1.8101363183337655
363,3252.28,1.8140102613737832
364,3267.29,1.8055152231884626
365,3289.94,1.7887171655670422
366,3311.31121,1.776924063400958
367,3312.75,1.7761300412285848
368,3320.39,1.8173986696852364
369,3328.04,1.8131352976555748
370,3335.71,1.8172329246532868
371,3343.4,1.735362550678372
372,3351.11,1.8003691757308307
373,3358.83,1.7074238002969762
374,3366.5699999999997,1.7350764238904952
375,3374.34,1.699393046025074
376,3382.1200000000003,1.6993326676733398
377,3389.91,1.7508962888352921
378,3397.73,1.7629009085383047
379,3405.5600000000004,1.699041527755004
380,3413.41,1.706842145999077
381,3421.2799999999997,1.742458763270523
382,3429.17,1.7303873795693425
383,3437.0699999999997,1.742285995381849
384,3444.99,1.6791856102217289
385,3452.94,1.7460942236026686
386,3460.89,1.6597848369836086
387,3468.87,1.6597304489056086
388,3476.8700000000003,1.6444240598549822
389,3484.88,1.6405586703180424
390,3492.92,1.6747882793221627
391,3500.97,1.64794388783997
392,3509.04,1.6066654953851502
393,3517.13,1.5955241019577044
394,3525.2400000000002,1.6288287075576315
395,3533.3599999999997,1.6476033126712457
396,3541.5099999999998,1.6550999163259201
397,3549.6699999999996,1.6703515194942808
398,3557.86,1.643554121203702
399,3566.06,1.66249072242681
400,3574.28,1.5912453226772911
401,3582.52,1.544248921955146
402,3590.78,1.5159575202603741
403,3599.0499999999997,1.565559118079289
404,3607.35,1.5654347144392637
405,3615.67,1.5835033098266125
406,3624.0,1.6017549047276476
407,3629.87,1.5701126192617503
408,3632.5800000000004,1.6541144874708504
409,3635.28,1.527681356166264
410,3637.99,1.7295782243753643
411,3640.7000000000003,1.7732800925844647
412,3643.4100000000003,1.8329179607935648
413,3646.11,1.7831568294889786
414,3648.8199999999997,1.5704016976980788
415,3651.53,1.6490915659071792
416,3654.23,1.6489824346025925
417,3656.94,1.598923302811693
418,3659.6499999999996,1.6092551710207932
419,3662.36,1.6340780392298933
420,3665.06,1.790892907925307
421,3667.77,1.5773287761344073
422,3670.48,1.4740386443435076
423,3673.18,1.490845513038921
424,3675.89,1.5160733812480214
425,3678.6000000000004,1.5212092494571217
426,3681.31,1.454061117666222
427,3684.0099999999998,1.5898589863616355
428,3686.72,1.5137618545707356
429,3689.4300000000003,1.454639722779836
430,3692.13,1.4605915914752496
431,3694.8399999999997,1.5851814596843499
432,3697.55,1.4764643278934502
433,3700.26,1.4886441961025503
434,3702.96,1.333284064797964
435,3705.6699999999996,1.3260659330070643
436,3708.38,1.5091408012161645
437,3711.09,1.6304966694252647
438,3713.79,1.6056765381206783
439,3716.5,1.8978704063297784
440,3719.21,2.948236274538879
441,3721.91,5.385762143234293
442,3724.6200000000003,8.791537011443392
443,3727.33,10.905199879652494
444,3730.04,9.603837747861593
445,3732.74,6.341849616557007
446,3735.4500000000003,3.391933484766107
447,3738.16,2.2515503529752072
448,3740.8599999999997,1.970216221670621
449,3743.57,1.743603089879721
450,3746.28,1.5445309580888213
451,3748.99,1.5841348262979218
452,3751.6899999999996,1.6831556949933353
453,3754.4,1.7882305632024356
454,3757.11,1.7614384314115359
455,3759.81,1.8822273001069494
456,3762.5199999999995,1.8773171683160497
457,3765.23,1.52253303652515
458,3767.94,1.5554399047342502
459,3770.6400000000003,1.5225367734296638
460,3773.35,1.581365641638764
461,3776.06,1.7691745098478642
462,3778.77,1.7873583780569646
463,3781.4700000000003,1.8629402467523781
464,3784.18,1.9055461149614783
465,3786.89,1.8920909831705786
466,3789.5899999999997,1.8622488518659923
467,3792.3,1.7162917200750927
468,3795.0099999999998,1.6063045882841929
469,3797.72,1.610863456493293
470,3800.42,1.6766873251887064
471,3801.8939600000003,1.757576655397386
472,3803.13,1.8254092059224967
473,3805.8399999999997,1.9062931015918003
474,3808.5400000000004,2.1062939976460884
475,3811.25,1.965937893315392
476,3813.96,2.0792097889846954
477,3816.6699999999996,2.009578684653999
478,3819.3700000000003,2.0289275807082867
479,3822.08,2.0273074763775902
480,3824.79,1.915530372046894
481,3827.4900000000002,1.8274912681011817
482,3830.2000000000003,1.7127691637704854
483,3832.91,1.547934059439789
484,3835.6200000000003,1.6662879551090926
485,3838.32,1.7340168511633802
486,3841.03,1.667561746832684
487,3843.74,1.8291006425019878
488,3846.4500000000003,1.9374665381712912
489,3849.15,1.9204414342255791
490,3851.8599999999997,2.066046329894883
491,3854.57,1.9987242255641864
492,3857.27,1.944461121618474
493,3859.98,2.0278270172877777
494,3862.6899999999996,2.327467912957081
495,3865.4,2.449111808626385
496,3868.1,2.3798967046806725
497,3870.81,2.321753600349976
498,3873.5199999999995,2.08977149601928
499,3876.2200000000003,2.0095853920735673
500,3878.93,1.9258092877428712
501,3881.64,1.955193183412175
502,3884.35,1.9784570790814784
503,3887.05,1.9369529751357661
504,3889.7599999999998,2.13168987080507
505,3892.4700000000003,2.021702766474373
506,3895.18,1.808542662143677
507,3897.88,1.8342995581979646
508,3900.5899999999997,1.9094094538672683
509,3903.3,1.9242443495365722
510,3906.0,1.9547932455908599
511,3908.71,2.0358501412601635
512,3911.42,2.158765036929467
513,3914.13,2.1066269325987705
514,3916.83,2.0468208286530585
515,3919.5400000000004,2.031056724322362
516,3922.25,1.9907546199916657
517,3924.95,2.1046725160459534
518,3927.66,1.9559444117152571
519,3930.3700000000003,1.9218783073845607
520,3933.08,1.8507462030538642
521,3935.7799999999997,1.733897099108152
522,3938.4900000000002,1.9215329947774558
523,3941.2000000000003,1.8314058904467592
524,3943.9,1.9881637865010469
525,3946.6099999999997,1.9256326821703507
526,3949.32,1.9361385778396543
527,3952.03,2.059341473508958
528,3954.73,1.9654143695632456
529,3957.44,1.8688782652325493
530,3960.15,1.899591160901853
531,3962.86,1.7495350565711567
532,3965.5600000000004,1.8329109526254443
533,3968.27,1.8676648482947478
534,3970.98,1.9568617439640514
535,3973.68,1.7990796400183393
536,3976.3900000000003,1.912698535687643
537,3979.1,1.8805954313569464
538,3981.81,1.88977232702625
539,3984.51,1.9031162230805378
540,3987.2200000000003,2.0145991187498415
541,3989.93,1.980475014419145
542,3992.6299999999997,2.186711910473433
543,3995.34,2.1954268061427364
544,3998.05,2.1087637018120398
545,4000.7599999999998,2.1882615974813437
546,4003.4599999999996,2.0495894935356316
547,4006.17,2.034748389204935
548,4008.88,2.1113022848742387
549,4011.58,2.173605180928526
550,4014.29,2.18266707659783
551,4017.0,2.1255639722671336
552,4019.71,2.056394867936437
553,4022.4100000000003,2.1346907639907253
554,4025.12,2.1607256596600286
555,4027.83,2.0842815553293326
556,4030.5400000000004,2.060261450998636
557,4033.2400000000002,2.1184073470529237
558,4035.95,2.2785032427222274
559,4038.66,2.249979138391531
560,4041.36,2.089599034445819
561,4044.07,2.152122930115122
562,4046.7799999999997,2.008417825784426
563,4049.4900000000002,2.1692067214537296
564,4052.19,2.116790617508017
565,4054.9,2.2351445131773207
566,4057.6099999999997,2.233986408846625
567,4060.31,2.279316304900912
568,4063.02,2.089076200570216
569,4065.73,2.0849160962395197
570,4068.44,2.135950991908823
571,4071.14,2.127586887963111
572,4073.85,1.9782807836324143
573,4076.5600000000004,2.077582679301718
574,4079.26,1.9914485753560058
575,4081.97,1.9622324710253096
576,4084.68,2.000450366694613
577,4087.3900000000003,1.8251062623639167
578,4090.09,1.8281151584182045
579,4092.7999999999997,1.9087680540875083
580,4095.5099999999998,1.8704869497568117
581,4098.22,1.9591648454261152
582,4100.92,2.324749741480403
583,4103.63,2.2909136371497065
584,4106.34,2.0481935328190106
585,4109.04,1.8896604288732979
586,4111.75,1.8564023245426018
587,4114.46,1.8719882202119054
588,4117.17,1.8819731158812087
589,4119.87,1.9105590119354965
