,lambda (Angstroms),Total Flux (erg/s/cm^2/Angstrom)
0,102.07000000000001,0.8796380782949891
1,103.97,0.8771310328567707
2,104.712855,0.8761508652310698
3,105.9,0.8679222609583692
4,108.12,0.8525345324068495
5,109.88,0.840335880673825
6,114.0,0.8117786282696082
7,118.01,0.7839837753262054
8,120.22644299999999,0.7686264766951729
9,121.02999999999999,0.7639589093163337
10,125.0,0.7408896751292781
11,127.03,0.7290934230243605
12,127.91,0.7239799932060712
13,130.89,0.7066632539595913
14,132.1,0.6996336616844434
15,133.94,0.6889415584198383
16,137.06,0.6708135843968123
17,138.038426,0.6651281247044316
18,139.93,0.6572718024396416
19,142.86,0.6451250888483553
20,146.85999999999999,0.6285517803935962
21,150.98,0.6114434682934942
22,154.85,0.5953746885286897
23,158.489319,0.5802644579466315
24,158.82,0.5792266252835894
25,162.15,0.5687748621341779
26,165.92,0.55694422580046
27,170.17999999999998,0.5435732589705823
28,172.94,0.5349120188962952
29,176.97,0.5222634322809414
30,179.85000000000002,0.5132249052382071
31,181.93,0.5066971440851213
32,181.970086,0.5065713312614089
33,186.17000000000002,0.49651674758209846
34,190.94,0.4850983995604387
35,194.04999999999998,0.47765431380900014
36,198.10999999999999,0.46793491552159155
37,201.79,0.459126709528571
38,205.07000000000002,0.4512748543717482
39,208.929613,0.4420297883531419
40,209.85,0.4403724244499619
41,216.23,0.4289005138125138
42,220.25,0.421668632019639
43,222.8,0.4170793501189349
44,226.94,0.40963240926955635
45,230.09,0.4040845684863335
46,233.83,0.39757821849196745
47,239.83,0.3869016868667811
48,239.88329199999998,0.38680535364107543
49,245.98,0.378303703945674
50,251.70999999999998,0.37037808130411376
51,256.97999999999996,0.3629427441320331
52,259.96,0.35889740066888304
53,264.18,0.35306428563583164
54,269.1,0.3462285124100941
55,274.1,0.33927861057662095
56,275.42287,0.3374399326992645
57,279.19,0.3334198926813175
58,283.72999999999996,0.3285772482085702
59,289.67,0.32221123593938095
60,295.74,0.3157481153412364
61,301.24,0.30986568146235755
62,308.25,0.30239825973945916
63,316.227766,0.2938976227444394
64,318.35,0.2922084787157417
65,328.02,0.2844990146988902
66,337.99,0.2765457748729326
67,348.26000000000005,0.26835462393786896
68,357.20000000000005,0.2612273662865088
69,363.078055,0.25654404423383587
70,366.36,0.25458486477939546
71,374.89000000000004,0.2494862488819707
72,385.39,0.2431979907077667
73,395.28000000000003,0.23730501841215934
74,405.42,0.2312540199433566
75,413.90999999999997,0.22618196905764312
76,416.86938299999997,0.22441325946562293
77,421.60999999999996,0.22224755754449518
78,430.43,0.21822169329581068
79,441.46999999999997,0.21319203728453212
80,450.72,0.2089729700403902
81,460.16,0.20466575280755783
82,469.79,0.20027808688603493
83,478.630092,0.19625728587348898
84,479.63,0.19590755081483446
85,489.66999999999996,0.19238171968261655
86,499.93,0.18880532016084803
87,505.71999999999997,0.186782913831312
88,511.57,0.18487231638644394
89,519.88,0.18196932021296477
90,529.5500000000001,0.17858911245862735
91,539.39,0.17512251924418268
92,549.42,0.1716690677978534
93,549.5408739999999,0.17162795187307311
94,559.64,0.1690308379682179
95,570.04,0.16632738122800556
96,580.64,0.1635046597697121
97,590.0699999999999,0.16107447045219261
98,599.66,0.15850235854020828
99,609.41,0.15594182863375913
100,619.31,0.1535007867887493
101,629.3700000000001,0.15085906494927454
102,630.957344,0.15045108806138813
103,639.6,0.1487079714660832
104,649.99,0.1465921257201576
105,657.5200000000001,0.14501695999957817
106,665.13,0.14355020950905908
107,674.38,0.14169924023477498
108,685.34,0.13932547675302862
109,694.8699999999999,0.1376209447839554
110,704.5400000000001,0.13543858896748756
111,715.99,0.1334311095198602
112,724.43596,0.1317465909023014
113,725.95,0.1315271961396884
114,734.36,0.1303178878818246
115,744.5699999999999,0.12884282798613028
116,754.9300000000001,0.12734511887061672
117,765.43,0.12566554348327194
118,774.29,0.12461099556595052
119,785.0699999999999,0.1229651376349432
120,794.16,0.12178004591389897
121,805.1999999999999,0.12022912633520501
122,814.53,0.11890757286245004
123,825.86,0.1173643577921056
124,831.763771,0.11612089129322366
125,835.4200000000001,0.1154958517021409
126,845.1,0.11511404183843055
127,854.88,0.11406931353811164
128,864.78,0.11319243931386243
129,874.79,0.11222551640934376
130,884.92,0.11126538758089483
131,895.17,0.11026741082851556
132,905.54,0.10910836215220604
133,916.02,0.10874624979562705
134,924.5,0.12583783817121963
135,935.2,0.14843931745410177
136,946.0300000000001,0.18486955156939278
137,954.79,0.21398592412248135
138,954.992586,0.21429363412007973
139,965.84,0.2307973989326037
140,974.78,0.12628908107169295
141,986.07,0.21640891663660544
142,995.1899999999999,0.21621003895299185
143,1004.4,0.25643402135802673
144,1016.03,0.24557037503561152
145,1025.43,0.1604989587389045
146,1034.92,0.204517342530846
147,1044.49,0.2877280652904751
148,1054.1599999999999,0.28297049925971374
149,1063.91,0.24697574219663992
150,1076.23,0.27031752322053026
151,1086.1899999999998,0.23609613969763646
152,1096.24,0.2727903162633911
153,1096.4782,0.27253326561468094
154,1103.84,0.26474216486614066
155,1114.05,0.2587789648476538
156,1124.36,0.2406105583647351
157,1134.77,0.2727048454173846
158,1145.27,0.25542976665204553
159,1155.86,0.2619757220687178
160,1163.8700000000001,0.2651113642677305
161,1174.64,0.21186898804842558
162,1185.51,0.25454340536468884
163,1193.73,0.20602469398839482
164,1204.78,0.17445407966868082
165,1215.92,0.13625038953097818
166,1224.35,0.19396393457937738
167,1235.68,0.24448598215925432
168,1244.25,0.258858548157449
169,1255.76,0.2517267641013487
170,1258.92541,0.24356802446477333
171,1264.46,0.22945227727468026
172,1276.16,0.26531720898100286
173,1285.01,0.271748653476811
174,1293.92,0.2363493745454721
175,1305.89,0.23279630082963293
176,1314.94,0.26410443390161753
177,1324.05,0.25532424354645505
178,1336.31,0.23670722326607174
179,1345.5700000000002,0.2597431743430416
180,1354.9,0.25280803142167324
181,1364.29,0.2356385650731578
182,1373.74,0.24035747529749532
183,1386.4599999999998,0.24033670874231788
184,1396.0700000000002,0.2150862898275965
185,1405.74,0.21773724748572812
186,1415.49,0.22583784057433032
187,1425.3,0.22596301023578544
188,1435.18,0.2249076858989023
189,1441.8,0.230847867770343
190,1445.43977,0.23149444590586782
191,1448.46,0.23209212839847848
192,1455.14,0.22692575990374755
193,1465.2299999999998,0.215638180695389
194,1475.39,0.21404232502076825
195,1485.61,0.21468396094649428
196,1495.91,0.21532965233934928
197,1506.2800000000002,0.2074822672659421
198,1513.23,0.19308646097277143
199,1516.72,0.2003076057262728
200,1523.72,0.19590595910005776
201,1534.2900000000002,0.178701212694473
202,1544.9199999999998,0.184270057889235
203,1555.63,0.17740785855112595
204,1566.41,0.18050128274675475
205,1573.64,0.18766167058853547
206,1584.5500000000002,0.19172620991824885
207,1595.53,0.19355327278170012
208,1606.59,0.1883902911122803
209,1614.01,0.18738728568849236
210,1625.2,0.18082331915315714
211,1636.46,0.18666417615155978
212,1644.02,0.1869628177952475
213,1655.4099999999999,0.17755788992773475
214,1659.58691,0.18082845394890318
215,1666.89,0.18664926803459825
216,1670.73,0.17306328263766133
217,1678.4399999999998,0.1872598283641239
218,1686.1899999999998,0.19035516278436837
219,1693.97,0.18219191372494925
220,1705.71,0.17677284534993895
221,1713.5900000000001,0.17077191802497463
222,1725.46,0.1689105879047555
223,1733.43,0.17524791014080046
224,1745.44,0.17151419044881805
225,1753.5,0.17738356224587226
226,1765.66,0.167007925155572
227,1773.8100000000002,0.16909304651363555
228,1786.1,0.16988144767812643
229,1794.3500000000001,0.17541749077064475
230,1806.78,0.1737700023633723
231,1815.1200000000001,0.1650994950168999
232,1823.5000000000002,0.16599097636420945
233,1836.14,0.16153750359929203
234,1844.62,0.1522438066810563
235,1853.13,0.152492626283157
236,1865.9800000000002,0.1544747691605946
237,1874.59,0.1602774104971501
238,1883.24,0.15150604052748745
239,1896.3,0.14692839904728008
240,1905.0500000000002,0.15158645081207223
241,1905.46072,0.15140180158808428
242,1913.84,0.14770808515060962
243,1927.11,0.14459119087288097
244,1936.0,0.14640382032811775
245,1944.94,0.15062444859918825
246,1953.92,0.14344591592292577
247,1967.46,0.15088373525069923
248,1976.54,0.1528297002061042
249,1985.6699999999998,0.1470135639773429
250,1994.83,0.14346860703808179
251,2004.04,0.14528414891465444
252,2013.2900000000002,0.14226892984389405
253,2027.2399999999998,0.1447280994615041
254,2036.6000000000001,0.13997133778557794
255,2046.0,0.14223941516231875
256,2055.4500000000003,0.1349311913548933
257,2064.9300000000003,0.13613044683696807
258,2074.47,0.14307626089804332
259,2079.25,0.1391903276917477
260,2084.04,0.1415781542486188
261,2093.66,0.13616114641502802
262,2103.3199999999997,0.13616997763410424
263,2113.0299999999997,0.13666520766901416
264,2122.79,0.1371631365197578
265,2132.58,0.1307460446600017
266,2147.37,0.13178493438361835
267,2157.28,0.1341519596818632
268,2167.23,0.130378924032775
269,2177.24,0.12944440696268733
270,2187.29,0.1278321589452666
271,2187.7616199999998,0.12798273851902695
272,2197.38,0.13112844954735178
273,2207.53,0.12818021967861026
274,2212.62,0.1238504009464039
275,2222.83,0.12130877588632005
276,2233.09,0.12573203816678427
277,2243.4,0.12204919778779656
278,2253.75,0.11828455728124732
279,2264.15,0.11915924411524613
280,2274.61,0.12068305575790264
281,2285.1,0.12201887980488799
282,2295.65,0.11678350866053103
283,2306.25,0.11706068485672214
284,2316.89,0.11387753092535169
285,2327.59,0.09981727180263894
286,2332.95,0.10844275470939219
287,2343.72,0.10535526786344673
288,2354.54,0.11025872835804934
289,2365.41,0.10434835619320001
290,2376.33,0.10583778136889879
291,2387.29,0.10020697641703599
292,2392.7999999999997,0.10380866134543347
293,2403.8399999999997,0.1011948361384476
294,2414.94,0.10192023574011941
295,2426.0899999999997,0.10537147268233929
296,2437.28,0.10251091949699764
297,2442.9,0.10552432657460084
298,2454.18,0.10409200060224573
299,2465.5099999999998,0.10303648197043866
300,2476.89,0.10040071067917969
301,2482.6,0.10102933496976943
302,2494.06,0.09543696342338735
303,2505.5699999999997,0.10305185921755336
304,2511.34,0.09553474831680077
305,2511.88643,0.09563703303241389
306,2517.13,0.09664028742897286
307,2522.94,0.09444186830122622
308,2534.5800000000004,0.09482500784563742
309,2546.28,0.0938992107897621
310,2552.15,0.09767028506172892
311,2563.93,0.09570717920547153
312,2575.76,0.09848768784897534
313,2587.65,0.09734678989219264
314,2593.62,0.09610389316368188
315,2605.5899999999997,0.09383902640651712
316,2617.62,0.09242847304906582
317,2623.65,0.09482632972026853
318,2635.7599999999998,0.09656706756243517
319,2647.93,0.10138846880431526
320,2654.03,0.10280370777518368
321,2666.2799999999997,0.09628433021668173
322,2672.4300000000003,0.09848313368731135
323,2684.7599999999998,0.09854710732842736
324,2697.1600000000003,0.09464902326920904
325,2703.37,0.09628810013955214
326,2715.8500000000004,0.09248811727995176
327,2722.1099999999997,0.09177812865005608
328,2734.68,0.09413531589002591
329,2747.2999999999997,0.08609430762975698
330,2753.63,0.08739304129952696
331,2766.3399999999997,0.08928801313882823
332,2772.7200000000003,0.09146826130835944
333,2785.5200000000004,0.08739644324723086
334,2791.94,0.07649472701657106
335,2804.83,0.07927406905501269
336,2817.77,0.08943750559321552
337,2824.27,0.09214037056217367
338,2837.31,0.08973630609989892
339,2843.85,0.08762012666866606
340,2856.97,0.08459692340600927
341,2863.56,0.0899742084745376
342,2876.7799999999997,0.09017251421140325
343,2883.4100000000003,0.08946587487974056
344,2884.0315,0.08945245336714439
345,2896.72,0.08922357919522596
346,2910.09,0.09380248130050026
347,2930.26,0.09065890591257075
348,2950.57,0.08907450316448706
349,2971.02,0.08944377305624918
350,2991.62,0.08899907006213179
351,3012.35,0.08903885523358551
352,3033.24,0.08859607199343444
353,3047.24,0.08834999597801485
354,3068.36,0.08806722564618188
355,3089.6299999999997,0.08778271242846943
356,3111.04,0.08749740185060276
357,3132.61,0.0859336028611313
358,3147.07,0.08569189266234793
359,3168.88,0.08572186105546928
360,3190.85,0.08219666103698584
361,3212.97,0.08358732813262289
362,3227.8,0.08048563348200344
363,3250.17,0.08383290243450801
364,3272.7000000000003,0.08559040297540778
365,3287.8,0.08470520913020524
366,3310.59,0.08394256600224721
367,3311.31121,0.08390887571037886
368,3318.2299999999996,0.08360293422371079
369,3325.88,0.08357592102361062
370,3333.54,0.08512972724416394
371,3341.23,0.08167475172667764
372,3348.93,0.0865338856298448
373,3356.65,0.0836264483743189
374,3364.39,0.07675841996009991
375,3372.1400000000003,0.0772950309665344
376,3379.92,0.08323294023492926
377,3387.71,0.08289417892397762
378,3395.52,0.08118010645433288
379,3403.35,0.08457260282599506
380,3411.19,0.07977306861831072
381,3419.06,0.08094295267258678
382,3426.94,0.08183303614751627
383,3434.84,0.08511082846375272
384,3442.76,0.07966062962129608
385,3450.69,0.08129118019949293
386,3458.6499999999996,0.08020270903965014
387,3466.6200000000003,0.07927571730046083
388,3474.61,0.08135904440257845
389,3482.6200000000003,0.07922211034600299
390,3490.65,0.08145493513073446
391,3498.7000000000003,0.07697326875677286
392,3506.7599999999998,0.08078991180346473
393,3514.84,0.07734865369146351
394,3522.9500000000003,0.08073121384142269
395,3531.07,0.07919648341203533
396,3539.21,0.08113308182395491
397,3547.3700000000003,0.08297105907718141
398,3555.54,0.08153885575106137
399,3563.7400000000002,0.08058681068690172
400,3571.96,0.07627711446404901
401,3580.1899999999996,0.07553801766184975
402,3588.44,0.07049557970095743
403,3596.71,0.07661639058137204
404,3605.01,0.07892994972374703
405,3613.3199999999997,0.07484857828677549
406,3621.65,0.07481780569111088
407,3630.0,0.08380633193675319
408,3638.36,0.07926400760304897
409,3646.7500000000005,0.07878365153130513
410,3655.16,0.07965828430086823
411,3663.5800000000004,0.0838552964910848
412,3672.03,0.08066753694326174
413,3680.4900000000002,0.07881190681609217
414,3680.58,0.09657805160197334
415,3683.3199999999997,0.08280974286102244
416,3686.06,0.07845491412007152
417,3688.81,0.08900997479977407
418,3691.55,0.07100576605882318
419,3694.29,0.06711982731787228
420,3697.04,0.06256761799757483
421,3699.7799999999997,0.06196398925662393
422,3702.5200000000004,0.07434386051567302
423,3705.27,0.08110831119537557
424,3708.0099999999998,0.07608757245442468
425,3710.75,0.08288003371347376
426,3713.49,0.08269016497252288
427,3716.2400000000002,0.08235408565222542
428,3718.98,0.10020712691127451
429,3721.7200000000003,0.1721575681703236
430,3724.47,0.29778630885002616
431,3727.21,0.35862501010907527
432,3729.9500000000003,0.31313331136812433
433,3732.7,0.22259385204782692
434,3735.44,0.132981753306876
435,3738.18,0.0952048445659251
436,3740.9300000000003,0.09437222524562766
437,3743.67,0.07459093650467676
438,3746.41,0.07030308776372585
439,3749.15,0.06536505902277495
440,3751.9,0.0848174997024775
441,3754.6400000000003,0.0872440409615266
442,3757.38,0.0869675022205757
443,3760.1299999999997,0.09186813290027826
444,3762.87,0.09550436415932735
445,3765.6099999999997,0.08153112541837644
446,3768.36,0.08004840609807899
447,3771.1,0.07907835735712809
448,3773.84,0.09087900861617719
449,3776.59,0.08846633929587974
450,3779.3300000000004,0.09487658055492884
451,3782.07,0.09123498181397793
452,3784.81,0.09825601307302703
453,3787.56,0.10099334375272959
454,3790.2999999999997,0.09096837501177868
455,3793.04,0.09239013627082777
456,3795.79,0.08063488695053034
457,3798.5299999999997,0.07466844820957944
458,3801.27,0.07108985946862853
459,3801.8939600000003,0.07409627814954194
460,3804.02,0.08434388556130124
461,3806.76,0.09979418094968853
462,3809.5,0.09876591633807584
463,3812.25,0.0975992587169317
464,3814.99,0.101204854105319
465,3817.7299999999996,0.09787542949370631
466,3820.4700000000003,0.1062843548820936
467,3823.22,0.10085814726094948
468,3825.96,0.08969527264933677
469,3828.7,0.08684260803772408
470,3831.4500000000003,0.08476183041657993
471,3834.19,0.08067976580496725
472,3836.93,0.07273614119335454
473,3839.68,0.0792493135722104
474,3842.4199999999996,0.08510877896059772
475,3845.1600000000003,0.09147655434898501
476,3847.91,0.10675694672784089
477,3850.65,0.11186383211622818
478,3853.39,0.10489352750461549
479,3856.1299999999997,0.11158445289300278
480,3858.88,0.11150923527185864
481,3861.62,0.10314797066024596
482,3864.36,0.10780960604863325
483,3867.11,0.11476788842748913
484,3869.8500000000004,0.11292400381587642
485,3872.59,0.10052388920426372
486,3875.3399999999997,0.1065838315831196
487,3878.08,0.0947589969715069
488,3880.8199999999997,0.09323031235989421
489,3883.57,0.09222523473875006
490,3886.31,0.08923466012713736
491,3889.05,0.09059030551552466
492,3891.8,0.09605922789438054
493,3894.5400000000004,0.07853270328276783
494,3897.28,0.09890450867115513
495,3900.02,0.09943662405954243
496,3902.77,0.0976946764383983
497,3905.5099999999998,0.1076600218267856
498,3908.25,0.11207735721517291
499,3911.0,0.11245921959402878
500,3913.74,0.11395673498241607
501,3916.48,0.10689974037080338
502,3919.23,0.10548482274965926
503,3921.9700000000003,0.10363697813804655
504,3924.71,0.09702128352643385
505,3927.46,0.09373472590528971
506,3930.2,0.08790711129367702
507,3932.9399999999996,0.08034177668206431
508,3935.68,0.08582690207045163
509,3938.43,0.0888370744493075
510,3941.17,0.09706863983769479
511,3943.91,0.0978805252260821
512,3946.6600000000003,0.09436542760493795
513,3949.4,0.09912554299332527
514,3952.14,0.10291634838171256
515,3954.89,0.10824731076056843
516,3957.6299999999997,0.09570140614895573
517,3960.37,0.08913692153734303
518,3963.12,0.0831670139161989
519,3965.86,0.0841719493045862
520,3968.6,0.0818906346929735
521,3971.3399999999997,0.0773317700813608
522,3974.09,0.08566144246021667
523,3976.83,0.09827075784860397
524,3979.57,0.10181330323699128
525,3982.3199999999997,0.09768743561584714
526,3985.0600000000004,0.10900826100423444
527,3987.8,0.10935125639262175
528,3990.5499999999997,0.10556423877147761
529,3993.29,0.10492214415986492
530,3996.0299999999997,0.10765298954825221
531,3998.78,0.09983894192710809
532,4001.52,0.1102810573154954
533,4004.26,0.11081713270388269
534,4007.0,0.10566332809227
535,4009.7500000000005,0.11064754047112585
536,4012.4900000000002,0.11507671585951315
537,4015.23,0.10708976124790046
538,4017.98,0.11356740362675632
539,4020.72,0.11580961901514364
540,4023.46,0.11214133440353093
541,4026.21,0.11249560678238679
542,4028.95,0.10880370217077409
543,4031.69,0.1012305075591614
544,4034.44,0.12066000993801726
545,4037.1800000000003,0.11363062532640457
546,4039.92,0.11442684071479187
547,4042.6600000000003,0.10629408610317917
548,4045.41,0.10749556848203504
549,4048.1499999999996,0.11129031387042233
550,4050.89,0.10697974925880963
551,4053.64,0.1060455416376655
552,4056.38,0.10719236702605281
553,4059.12,0.10313002241444011
554,4061.8700000000003,0.11237773479329598
555,4064.61,0.11100272018168326
556,4067.35,0.11392276557007058
557,4070.1,0.10931214794892645
558,4072.8399999999997,0.11064023333731375
559,4075.58,0.10996661872570106
560,4078.3199999999997,0.10069511411408835
561,4081.07,0.10144347649294422
562,4083.81,0.09999754188133153
563,4086.5499999999997,0.10398534726971882
564,4089.3,0.09745192964857469
565,4092.04,0.10051768503696198
566,4094.78,0.09913480042534929
567,4097.53,0.09660480280420515
568,4100.2699999999995,0.09878790819259246
569,4103.01,0.10217680358097976
570,4105.76,0.09805882595983563
571,4108.5,0.09154557134822294
572,4111.24,0.09279874673661023
573,4113.98,0.10137709212499754
574,4116.7300000000005,0.1059003145038534
575,4119.47,0.1002815398922407
576,4122.21,0.098930165280628
577,4124.96,0.10362283765948387
578,4127.7,0.10645217304787116
579,4130.4400000000005,0.10303605843625847
580,4133.19,0.10696427081511435
581,4135.93,0.10588085620350164
