,lambda (Angstroms),Total Flux (erg/s/cm^2/Angstrom)
0,100.04,0.02516681911532087
1,101.89999999999999,0.030264578101145974
2,104.04,0.03612974166426186
3,104.712855,0.03797385598065486
4,105.97,0.035099002457781116
5,107.94,0.0305939840038601
6,109.94999999999999,0.02599749313756922
7,114.07000000000001,0.016575830260636724
8,118.08000000000001,0.007405716717569614
9,120.22644299999999,0.0024972078856906094
10,121.11,0.0024037154820677462
11,125.08,0.0019836338197452823
12,127.11,0.0017688314156737092
13,127.99,0.0016757152960489442
14,130.98,0.001359331784889446
15,131.88,0.0012641004557916399
16,134.03,0.0010366008640768259
17,137.15,0.0007064644282075658
18,138.038426,0.0006124572566655738
19,140.02,0.0006050542764041795
20,142.95000000000002,0.0005941375911442827
21,146.96,0.0005792292375210453
22,151.07,0.0005639025595458317
23,154.95,0.0005494471147171631
24,158.489319,0.0005362699264151094
25,158.92,0.0005338030048875088
26,161.88000000000002,0.0005168552745420112
27,166.03,0.0004931081343086282
28,169.9,0.00047098133776062994
29,173.05999999999997,0.00045290750222557206
30,177.09,0.0004299247809859251
31,179.97,0.00041351096283625204
32,181.970086,0.00040211661185077436
33,182.04999999999998,0.00040226787500442877
34,185.85999999999999,0.0004095277923800468
35,191.07,0.0004195003589527422
36,194.17000000000002,0.00042549040528198527
37,197.78,0.0004325561142008779
38,201.92000000000002,0.0004407021301050926
39,205.21,0.0004472160566932247
40,208.929613,0.00045465544732558065
41,209.99,0.0004667156602969989
42,215.86999999999998,0.000534171210770249
43,219.88,0.0005803115173497957
44,222.94000000000003,0.0006155333239940387
45,227.07999999999998,0.0006635912548068369
46,230.23999999999998,0.0007033241687074273
47,233.99,0.00075540131582047
48,239.88329199999998,0.000831907851228727
49,239.99,0.0008311093888833867
50,246.14000000000001,0.0007807183809584244
51,251.88,0.0007410719768951268
52,257.15,0.0006980813979903223
53,260.13,0.0006825353535811534
54,263.75,0.0006842302953391431
55,269.27,0.0006586467560308846
56,274.28000000000003,0.0006412173127456713
57,275.42287,0.0006316183421757449
58,278.72999999999996,0.000667048498257444
59,283.92,0.0007877565948617184
60,289.86,0.000909039951668922
61,295.93,0.0010005903455779666
62,300.74,0.0010619424183460893
63,307.74,0.001244156546906767
64,316.227766,0.001448655730813442
65,317.83,0.0014598650753169947
66,328.24,0.0015917896947636166
67,338.21,0.0016827784920626391
68,347.69,0.0017995194965154705
69,356.60999999999996,0.0024701435091440847
70,363.078055,0.003519701294372419
71,365.75000000000006,0.003987660703864338
72,375.14,0.004641844474799665
73,384.76000000000005,0.004514268817334048
74,394.63,0.007478449563780446
75,404.74999999999994,0.01059493871413886
76,414.18,0.01205230714970011
77,416.86938299999997,0.012158796392234729
78,421.88000000000005,0.012345890073710817
79,429.72,0.013194337723055609
80,440.75000000000006,0.01756604321696799
81,451.01000000000005,0.020245042334605435
82,460.46,0.02001207967979782
83,470.1,0.022813460156798304
84,478.630092,0.02757089137745238
85,479.94,0.02829121017770118
86,489.99,0.026841427110869558
87,500.25,0.035975592039656376
88,506.04,0.033015005347422036
89,511.9,0.05294484798706052
90,520.22,0.054120052861086475
91,529.89,0.05469316627837386
92,539.74,0.04901289083476276
93,549.5408739999999,0.05130060548882619
94,549.78,0.05135713799905769
95,560.0,0.07189728514586186
96,570.41,0.08589021783649113
97,579.68,0.09009530726416966
98,590.46,0.09780443548751103
99,600.0500000000001,0.08843433267321082
100,609.8,0.09005295873792125
101,619.71,0.12040851368164232
102,629.7800000000001,0.11956486750437402
103,630.957344,0.12177417972597317
104,640.01,0.13879239332516327
105,650.41,0.14073344325130266
106,657.94,0.1347498049766709
107,665.5600000000001,0.15641504194178457
108,674.82,0.17184997216448175
109,685.79,0.15502273194234223
110,695.3299999999999,0.18625220735535855
111,704.9999999999999,0.15901903589245164
112,716.45,0.2089346302822878
113,724.43596,0.21760841826932312
114,726.42,0.2197616778178852
115,734.83,0.22799089478561518
116,745.0500000000001,0.22905201695091845
117,755.42,0.23545240529281622
118,764.17,0.21880089892749371
119,774.8,0.25168237530882187
120,785.58,0.2387496178667445
121,794.67,0.26413278816836944
122,805.73,0.27909434092260177
123,815.06,0.2888807771067779
124,824.5,0.3010795351537899
125,831.763771,0.26133077075911376
126,834.0400000000001,0.24886678484092284
127,845.65,0.3115990449328478
128,855.4399999999999,0.3137327006003711
129,865.34,0.3330178906012373
130,875.36,0.3423017907839323
131,885.5,0.3510355011484559
132,895.75,0.35999264584632246
133,904.04,0.36080322424098726
134,914.51,0.3566591376055397
135,925.0999999999999,0.8447664611519209
136,935.81,1.3822496948801306
137,944.47,1.9657067796687673
138,954.992586,2.384878492724499
139,955.41,2.4015072066882635
140,964.25,2.657499832143027
141,975.4100000000001,0.9786977719705334
142,984.44,2.2207351248954783
143,995.84,2.220729773106372
144,1005.05,2.9004612573188577
145,1014.35,2.968024707175113
146,1026.1000000000001,1.9209082217784468
147,1035.59,2.555467599104884
148,1045.17,3.7796179420750913
149,1054.84,3.7021142506890685
150,1064.6,3.1221905249468165
151,1074.46,3.535415761030976
152,1084.3999999999999,3.051093966576264
153,1094.43,3.7191471377653227
154,1096.4782,3.695297462863278
155,1104.56,3.6011847000484316
156,1114.78,3.5435434895581346
157,1125.09,3.1801881715390583
158,1135.5,3.8586507340435605
159,1146.01,3.651221177071641
160,1153.95,3.7535466906437582
161,1164.6299999999999,3.7881769305619217
162,1175.41,2.6512470510036636
163,1186.28,3.684968063916626
164,1194.51,3.0091132310071207
165,1205.56,2.5202820288625234
166,1213.92,1.9882360406336705
167,1225.15,3.009055623431515
168,1233.64,3.8585244798833127
169,1245.05,4.0966138476235985
170,1253.68,3.9940825368084063
171,1258.92541,3.8774468393828205
172,1265.28,3.7361558098110748
173,1274.06,4.3995925559600435
174,1285.8400000000001,4.543727557057406
175,1294.76,3.858461315103966
176,1303.7299999999998,3.8674020773996665
177,1315.8,4.55421210314204
178,1324.92,4.38946787818516
179,1334.1,4.068321658327248
180,1346.44,4.564702707014979
181,1355.78,4.460787500754313
182,1365.18,4.115427299592617
183,1374.64,4.211271103529888
184,1384.17,4.230724913415955
185,1393.76,3.4231237284009897
186,1403.4199999999998,3.43106854933482
187,1416.4099999999999,4.021787653261368
188,1426.23,4.012464487792448
189,1436.11,4.105959327422494
190,1442.7400000000002,4.240511890858446
191,1445.43977,4.272282656926086
192,1446.0700000000002,4.27969916524373
193,1456.09,4.163083879922136
194,1466.18,3.9302405995933065
195,1476.35,3.966610324970491
196,1486.5800000000002,4.040330054627188
197,1493.44,4.058987543917993
198,1503.7900000000002,3.8763462821337122
199,1510.7400000000002,3.5515967778437845
200,1517.7099999999998,3.727514274980361
201,1524.71,3.667976774256693
202,1535.28,3.202081528163954
203,1545.93,3.1581122877772305
204,1556.6399999999999,3.0933770516700183
205,1563.83,3.3298455644981364
206,1574.6699999999998,3.5515983376631985
207,1585.5800000000002,3.684886115821025
208,1596.57,3.7361388996848657
209,1603.94,3.6595404253515182
210,1615.0600000000002,3.6510852184876343
211,1626.25,3.5516230166165133
212,1633.76,3.744752552268692
213,1645.09,3.7706933603830977
214,1656.49,3.625953173490267
215,1659.58691,3.7094718685376464
216,1664.13,3.8319937607577423
217,1671.82,3.5028607662827294
218,1675.6699999999998,3.930253771649595
219,1683.3999999999999,3.9849697980095624
220,1695.07,3.8056288766151014
221,1706.82,3.693373996890601
222,1714.7,3.519099101381745
223,1726.5900000000001,3.4787732945796757
224,1734.56,3.6849064459495255
225,1746.5800000000002,3.626023706861143
226,1754.64,3.770779905109699
227,1766.8,3.576268238943748
228,1774.9599999999998,3.576276489279755
229,1783.15,3.6511647552419966
230,1795.51,3.788196193250948
231,1803.8000000000002,3.7968725113006405
232,1816.3000000000002,3.5353890222320237
233,1824.6899999999998,3.6093613923691676
234,1833.1100000000001,3.519151778132547
235,1845.82,3.2842543984475774
236,1854.34,3.299461836298408
237,1862.89,3.3685332897754736
238,1875.81,3.559916019474151
239,1884.47,3.3070535302474124
240,1893.16,3.18016505664691
241,1905.46072,3.3566376116352377
242,1906.29,3.368533906989015
243,1915.0900000000001,3.2392639985542675
244,1923.93,3.1509820632629992
245,1932.8100000000002,3.307031101115209
246,1946.1999999999998,3.3918641108946104
247,1955.19,3.150980074891386
248,1968.74,3.407530977244701
249,1977.83,3.5110298741001724
250,1982.3899999999999,3.3375858124567124
251,1996.13,3.2616655872415503
252,2005.34,3.3607464035274575
253,2014.6,3.284253186242712
254,2023.8999999999999,3.415338942101445
255,2033.24,3.2169066711036565
256,2047.33,3.2994232108939303
257,2056.78,3.0229818660407077
258,2066.28,3.122018487616833
259,2075.81,3.391779089050567
260,2085.4,3.2993606501995187
261,2095.02,3.143609191206079
262,2104.69,3.1946896986419873
263,2114.41,3.231681172507244
264,2124.17,3.2540626195159787
265,2133.9700000000003,3.121974039668192
266,2143.8199999999997,3.1147624262497535
267,2153.7200000000003,3.2168127792606636
268,2163.66,3.143549105415051
269,2173.64,3.1291434047129174
270,2183.6800000000003,3.0579246637260016
271,2187.7616199999998,3.101429238999298
272,2193.7599999999998,3.1653711342814663
273,2203.88,3.1075845516449134
274,2214.0499999999997,3.00903499577399
275,2224.27,2.9405884666686966
276,2234.54,3.029876964329033
277,2244.86,2.9541264887549983
278,2255.22,2.873666034593468
279,2265.6299999999997,2.9270066071975673
280,2276.08,2.96076720121417
281,2286.59,2.9810798273495283
282,2297.14,2.827114474897391
283,2302.44,2.846622312054137
284,2313.07,2.762489002427007
285,2323.74,2.3565857142123807
286,2334.47,2.6499804581165094
287,2345.25,2.6195012287862682
288,2356.07,2.698912020868531
289,2366.95,2.5891378450695495
290,2372.4,2.601063762523184
291,2383.35,2.495291624196084
292,2394.35,2.5887045126346133
293,2405.41,2.5179754331918986
294,2416.51,2.5411423751616873
295,2427.6600000000003,2.5941573438971055
296,2433.2599999999998,2.5117543416476296
297,2444.49,2.5879183532080554
298,2455.77,2.5522103915341114
299,2467.11,2.5403034619789224
300,2472.8,2.4823985079075803
301,2484.21,2.5167566158242725
302,2495.6800000000003,2.248119755859721
303,2507.2,2.5221899226607993
304,2511.88643,2.3988882419003987
305,2512.98,2.370115204799891
306,2518.77,2.4532680052273
307,2524.5800000000004,2.391814801511108
308,2536.23,2.3916503878633213
309,2542.07,2.3479581779317273
310,2553.8100000000004,2.413531745637735
311,2565.6,2.391174302984739
312,2577.4399999999996,2.4523188499727397
313,2583.38,2.435354619323139
314,2595.2999999999997,2.412838149736734
315,2607.28,2.3631846677195254
316,2613.29,2.3414264225673196
317,2625.36,2.373793921903905
318,2637.48,2.3791004108814864
319,2643.55,2.451275153298477
320,2655.7599999999998,2.4454356236298525
321,2668.02,2.329841083602225
322,2674.17,2.3730308094448103
323,2686.5099999999998,2.361951252842777
324,2692.7000000000003,2.2975219703981593
325,2705.13,2.31321239514992
326,2717.62,2.2603858074708767
327,2723.88,2.2655255105236543
328,2736.46,2.302111904198405
329,2742.76,2.16829859896398
330,2755.42,2.1681219760643256
331,2768.14,2.1930013407338667
332,2774.52,2.243978018925036
333,2787.33,2.202864364948371
334,2793.76,1.9768870327805372
335,2806.65,2.060320362229467
336,2813.12,2.21267802177443
337,2826.11,2.2175743305053532
338,2832.6200000000003,2.137273981763114
339,2845.69,2.1223812739196317
340,2852.25,2.107709914818389
341,2865.42,2.1566111862569
342,2872.0299999999997,2.1269278167966537
343,2884.0315,2.126717002400545
344,2885.28,2.12669532503145
345,2891.93,2.102280296835538
346,2911.98,2.1509402118238032
347,2932.16,2.10661612626087
348,2952.49,2.0726520400619393
349,2972.96,2.0675659532694097
350,2986.68,2.0484598950967916
351,3007.38,2.0387648073290654
352,3028.23,2.0244467189253412
353,3049.2200000000003,2.001003629928019
354,3070.35,1.9824205403370985
355,3091.64,1.9639374500677802
356,3113.07,1.9456943592048637
357,3127.44,1.9187812982762538
358,3149.11,1.9097372063957405
359,3170.94,1.8832891138368293
360,3192.92,1.8359490206419202
361,3207.66,1.8399869581445152
362,3229.8900000000003,1.8103098638896093
363,3252.28,1.8141837689563054
364,3267.29,1.8056887053141042
365,3289.94,1.7888906092784036
366,3311.31121,1.7770974708668605
367,3312.75,1.7763034020476414
368,3320.39,1.8175717828087274
369,3328.04,1.8133081627592913
370,3335.71,1.8174055410888112
371,3343.4,1.7355349177972867
372,3351.11,1.8005412928847178
373,3358.83,1.7075956671616268
374,3366.5699999999997,1.7352480398174919
375,3374.34,1.69956441004179
376,3382.1200000000003,1.6995037794555663
377,3389.91,1.7510671480588202
378,3397.73,1.763071514230508
379,3405.5600000000004,1.6992118795916733
380,3413.41,1.707012243331795
381,3421.2799999999997,1.7426286054508717
382,3429.17,1.7305569659489044
383,3437.0699999999997,1.742455325636415
384,3444.99,1.6793546837028812
385,3452.94,1.7462630393377812
386,3460.89,1.659953394972681
387,3468.87,1.6598987481760143
388,3476.8700000000003,1.6445920997583034
389,3484.88,1.6407264505300705
390,3492.92,1.674955798870271
391,3500.97,1.6481111463999498
392,3509.04,1.6068324923085837
393,3517.13,1.595690836596174
394,3525.2400000000002,1.6289951792627193
395,3533.3599999999997,1.6477695211187429
396,3541.5099999999998,1.6552658605432
397,3549.6699999999996,1.6705171991571348
398,3557.86,1.6437195353395033
399,3566.06,1.66265587071135
400,3574.28,1.5914102044621519
401,3582.52,1.5444135365919098
402,3590.78,1.5161218671006234
403,3599.0499999999997,1.5657231967988148
404,3607.35,1.5655985240654398
405,3615.67,1.5836668497110207
406,3624.0,1.601918174546079
407,3629.87,1.5702756987695838
408,3632.5800000000004,1.6542774791180843
409,3635.28,1.5278442602771067
410,3637.99,1.7297410406256073
411,3640.7000000000003,1.7734428209741078
412,3643.4100000000003,1.8330806013226082
413,3646.11,1.783319382481631
414,3648.8199999999997,1.5705641628301312
415,3651.53,1.649253943178632
416,3654.23,1.6491447243376542
417,3656.94,1.599085504686155
418,3659.6499999999996,1.6094172850346553
419,3662.36,1.6342400653831557
420,3665.06,1.7910548465421783
421,3667.77,1.5774906268906788
422,3670.48,1.4742004072391792
423,3673.18,1.4910071883982017
424,3675.89,1.5162349687467023
425,3678.6000000000004,1.5213707490952026
426,3681.31,1.4542225294437032
427,3684.0099999999998,1.5900203106027258
428,3686.72,1.5139230909512262
429,3689.4300000000003,1.4548008712997267
430,3692.13,1.4607526524587493
431,3694.8399999999997,1.5853424328072498
432,3697.55,1.4766252131557502
433,3700.26,1.4888049935042507
434,3702.96,1.3334447746632732
435,3705.6699999999996,1.3262265550117738
436,3708.38,1.509301335360274
437,3711.09,1.6306571157087746
438,3713.79,1.6058368968677972
439,3716.5,1.8980306772162976
440,3719.21,2.948396457564798
441,3721.91,5.385922238723821
442,3724.6200000000003,8.791697019072322
443,3727.33,10.905359799420822
444,3730.04,9.603997579769322
445,3732.74,6.342009360928345
446,3735.4500000000003,3.3920931412768454
447,3738.16,2.2517099216253453
448,3740.8599999999997,1.9703757027843682
449,3743.57,1.7437624831328686
450,3746.28,1.544690263481369
451,3748.99,1.5842940438298696
452,3751.6899999999996,1.683314824988892
453,3754.4,1.7883896053373927
454,3757.11,1.761597385685893
455,3759.81,1.8823861668449156
456,3762.5199999999995,1.877475947193416
457,3765.23,1.5226917275419165
458,3767.94,1.5555985078904169
459,3770.6400000000003,1.5226952890494396
460,3773.35,1.5815240693979402
461,3776.06,1.7693328497464405
462,3778.77,1.787516630094941
463,3781.4700000000003,1.8630984112539635
464,3784.18,1.905704191602464
465,3786.89,1.8922489719509643
466,3789.5899999999997,1.862406753109987
467,3792.3,1.7164495334584875
468,3795.0099999999998,1.606462313806988
469,3797.72,1.6110210941554883
470,3800.42,1.6768448753145109
471,3801.8939600000003,1.7577341577361019
472,3803.13,1.8255666765374947
473,3805.8399999999997,1.9064505026530005
474,3808.5400000000004,2.106451329410147
475,3811.25,1.9660951555256532
476,3813.96,2.0793669816411593
477,3816.6699999999996,2.009735807756665
478,3819.3700000000003,2.0290846345138114
479,3822.08,2.0274644606293175
480,3824.79,1.9156872867448234
481,3827.4900000000002,1.8276481135019695
482,3830.2000000000003,1.7129259396174756
483,3832.91,1.5480907657329817
484,3835.6200000000003,1.6664445918484878
485,3838.32,1.734173418605634
486,3841.03,1.66771824472114
487,3843.74,1.8292570708366462
488,3846.4500000000003,1.937622896952152
489,3849.15,1.9205977237092984
490,3851.8599999999997,2.0662025498248044
491,3854.57,1.9988803759403104
492,3857.27,1.9446172026974566
493,3859.98,2.0279830288129626
494,3862.6899999999996,2.3276238549284685
495,3865.4,2.449267681043975
496,3868.1,2.3800525078011208
497,3870.81,2.321909333916627
498,3873.5199999999995,2.089927160032133
499,3876.2200000000003,2.009740986789279
500,3878.93,1.9259648129047853
501,3881.64,1.9553486390202914
502,3884.35,1.9786124651357975
503,3887.05,1.9371082918929436
504,3889.7599999999998,2.13184511800845
505,3892.4700000000003,2.0218579441239557
506,3895.18,1.808697770239462
507,3897.88,1.834454596996608
508,3900.5899999999997,1.909564423112114
509,3903.3,1.92439924922762
510,3906.0,1.9549480759847664
511,3908.71,2.0360049021002724
512,3911.42,2.1589197282157784
513,3914.13,2.1067815543312847
514,3916.83,2.046975381088431
515,3919.5400000000004,2.031211207203937
516,3922.25,1.9909090333194428
517,3924.95,2.104826860076589
518,3927.66,1.956098686192095
519,3930.3700000000003,1.9220325123076012
520,3933.08,1.850900338423107
521,3935.7799999999997,1.7340511651802533
522,3938.4900000000002,1.9216869912957595
523,3941.2000000000003,1.8315598174112655
524,3943.9,1.9883176441684116
525,3946.6099999999997,1.9257864702839178
526,3949.32,1.9362922963994238
527,3952.03,2.05949512251493
528,3954.73,1.9655679492720761
529,3957.44,1.8690317753875823
530,3960.15,1.899744601503088
531,3962.86,1.7496884276185942
532,3965.5600000000004,1.8330642543757405
533,3968.27,1.8678180804912463
534,3970.98,1.9570149066067524
535,3973.68,1.7992327333638987
536,3976.3900000000003,1.9128515594794047
537,3979.1,1.8807483855949108
538,3981.81,1.8899252117104168
539,3984.51,1.903269038467563
540,3987.2200000000003,2.014751864583069
541,3989.93,1.9806276906985751
542,3992.6299999999997,2.1868645174557213
543,3995.34,2.1955793435712274
544,3998.05,2.1089161696867333
545,4000.7599999999998,2.1884139958022395
546,4003.4599999999996,2.049741822559386
547,4006.17,2.034900648674892
548,4008.88,2.111454474790398
549,4011.58,2.173757301547544
550,4014.29,2.18281912766305
551,4017.0,2.125715953778556
552,4019.71,2.056546779894062
553,4022.4100000000003,2.1348426066512087
554,4025.12,2.1608774327667146
555,4027.83,2.0844332588822208
556,4030.5400000000004,2.0604130849977262
557,4033.2400000000002,2.118558911754873
558,4035.95,2.278654737870379
559,4038.66,2.2501305639858846
560,4041.36,2.0897503907430313
561,4044.07,2.1522742168585367
562,4046.7799999999997,2.008569042974043
563,4049.4900000000002,2.169357869089549
564,4052.19,2.116941695846695
565,4054.9,2.2352955219622013
566,4057.6099999999997,2.2341373480777076
567,4060.31,2.2794671748348536
568,4063.02,2.0892270009503595
569,4065.73,2.085066827065866
570,4068.44,2.1361016531813717
571,4071.14,2.127737479938518
572,4073.85,1.978431306054024
573,4076.5600000000004,2.0777331321695303
574,4079.26,1.9915989589266763
575,4081.97,1.9623827850421824
576,4084.68,2.0006006111576884
577,4087.3900000000003,1.8252564372731945
578,4090.09,1.8282652640303407
579,4092.7999999999997,1.908918090145847
580,4095.5099999999998,1.870636916261353
581,4098.22,1.9593147423768589
582,4100.92,2.324899569134005
583,4103.63,2.291063395249511
584,4106.34,2.0483432213650175
585,4109.04,1.8898100481221634
586,4111.75,1.8565518742376697
587,4114.46,1.8721377003531754
588,4117.17,1.8821225264686814
589,4119.87,1.9107083532258278
