,lambda (Angstroms),Total Flux (erg/s/cm^2/Angstrom)
0,101.98,4.817962295214827
1,104.11999999999999,4.8024974278117
2,104.712855,4.798213133996034
3,106.05,4.747454650185799
4,108.03,4.672293227976249
5,110.03,4.596372822893641
6,113.9,4.449466655615958
7,117.9,4.2976257766091415
8,120.22644299999999,4.209319451877494
9,120.92999999999999,4.186930113492081
10,124.89,4.060903019580975
11,126.92,3.996298020921493
12,128.09,3.959062862039575
13,131.08,3.8639058351446733
14,131.99,3.834948068413182
15,134.13,3.7668425469850577
16,136.94,3.677419246774298
17,138.038426,3.642462156893161
18,140.13,3.594884154774784
19,143.06,3.5282984593362907
20,147.07,3.437240096931425
21,150.84,3.351502985865752
22,155.07,3.255307576824959
23,158.489319,3.1775524891874802
24,159.04999999999998,3.167914553168131
25,162.0,3.117205065189664
26,166.16,3.0457026727142664
27,170.03,2.979180830019124
28,173.19,2.924865892761851
29,176.82,2.862474848371059
30,180.10999999999999,2.80592248313643
31,181.970086,2.773952184330219
32,182.19,2.7710691364867994
33,186.01,2.720991335613474
34,191.22,2.652688371806923
35,193.88,2.6178278345066492
36,197.94,2.5646025932009686
37,202.08,2.5103359973178363
38,204.89000000000001,2.47350565803484
39,208.929613,2.420520080596425
40,210.14999999999998,2.408486906907462
41,216.04000000000002,2.3505052126210924
42,220.05,2.311011188615092
43,223.11,2.280853702381087
44,226.74,2.2451134660838843
45,229.89,2.2146524623135853
46,234.17000000000002,2.1736833286987016
47,239.88329199999998,2.11802895145322
48,240.17,2.115884828520685
49,245.77,2.073155056006507
50,252.07,2.0255320585530576
51,256.76,1.9893129340599343
52,259.73,1.9672511047604506
53,263.95,1.9353799873551243
54,268.86,1.898084115395372
55,273.86,1.8600858249719994
56,275.42287,1.848208488315688
57,278.95,1.8276382692806181
58,284.14,1.7973793956155382
59,290.09,1.7625021102230098
60,296.16,1.7271728888208837
61,300.96999999999997,1.6990753510195291
62,307.98,1.6582355443755583
63,316.227766,1.6101881065222938
64,318.07,1.6021762760078817
65,327.73999999999995,1.560031508622853
66,337.7,1.516595098947062
67,347.96,1.4718334609015191
68,356.88,1.4329387974408714
69,363.078055,1.4059319099750043
70,366.03999999999996,1.3962665788526456
71,375.43,1.3655620251862755
72,385.06,1.3339618867041512
73,394.94,1.3017913007889501
74,405.07,1.268709166440672
75,413.55,1.240968705950702
76,416.86938299999997,1.2301046833005167
77,422.21000000000004,1.2167440839167858
78,430.06,1.1971160810763275
79,441.09000000000003,1.1695808935654666
80,451.36,1.1438929256047645
81,459.76000000000005,1.122882945418796
82,470.46,1.0961430225152413
83,478.630092,1.07574652614467
84,480.32,1.072500093489082
85,490.36999999999995,1.0531225091288674
86,499.49,1.0356223138348215
87,506.44,1.0222322943618372
88,512.3,1.0111359705040404
89,519.4300000000001,0.9974205956634103
90,530.3100000000001,0.9764775303301627
91,540.1700000000001,0.9574454467469072
92,549.5408739999999,0.9394551476854279
93,550.21,0.9384746768725173
94,560.4399999999999,0.9235509936082518
95,569.54,0.910266495941114
96,580.13,0.89467895633617
97,589.5600000000001,0.8809049482734107
98,600.52,0.8647738180127702
99,610.28,0.8502623925543895
100,620.1899999999999,0.8360656123707264
101,630.27,0.8212783918317429
102,630.957344,0.820272641927339
103,640.51,0.8091894394228994
104,649.42,0.7988565650069666
105,658.46,0.788342388950846
106,664.55,0.7813206111143667
107,675.35,0.7687727598526296
108,684.7399999999999,0.7577767933806195
109,694.27,0.7469118941422535
110,705.5500000000001,0.7336869038244394
111,715.36,0.7224934090533616
112,724.43596,0.7119684659672147
113,725.3199999999999,0.7112073389551924
114,735.41,0.70252663860554
115,745.6400000000001,0.6937954195602529
116,754.27,0.686403250750788
117,764.76,0.67727609084218
118,775.4,0.6683305139739635
119,784.3799999999999,0.6606318779254126
120,795.2900000000001,0.6513077049299012
121,804.4999999999999,0.643440228809951
122,815.69,0.6338488654231704
123,825.14,0.6258653589678469
124,831.763771,0.6198615381880832
125,834.69,0.6178449247041343
126,844.36,0.6121118855168182
127,854.14,0.6058607513987261
128,864.03,0.5996584613498577
129,874.03,0.5933844023702134
130,884.15,0.5870754137388132
131,894.3900000000001,0.5806350234556572
132,904.75,0.5739636385207457
133,915.22,0.5688386166550581
134,925.8199999999999,0.587265748416635
135,934.39,0.6177687005370797
136,945.2099999999999,0.6713503104371046
137,953.9499999999999,0.7199503603008952
138,954.992586,0.7211945525537706
139,965.0,0.7332761254290329
140,973.93,0.5584167371737236
141,985.2099999999999,0.6839062730617539
142,994.32,0.6908114321876364
143,1005.84,0.7712223645839227
144,1015.14,0.7563577792788412
145,1024.54,0.6040951758521999
146,1034.02,0.6629858379283105
147,1045.99,0.8240906387775766
148,1055.6699999999998,0.8101660646105672
149,1065.43,0.7288883559463096
150,1075.29,0.7747012291604922
151,1085.24,0.6984644760652706
152,1095.28,0.7776159966606451
153,1096.4782,0.7752006668109532
154,1105.42,0.7581955054455278
155,1115.6499999999999,0.738793091863157
156,1125.97,0.7014616154046946
157,1133.78,0.7754848480461104
158,1144.27,0.7367426972661425
159,1154.8500000000001,0.7521325836100832
160,1165.54,0.7559454042165793
161,1176.32,0.641481961946984
162,1184.48,0.7353150945147114
163,1195.44,0.6231683264929337
164,1203.72,0.5552633418925396
165,1214.86,0.5009392481185795
166,1226.1,0.6084156400378512
167,1234.6,0.7211694239625672
168,1246.03,0.7493079386989797
169,1254.6599999999999,0.7270245540248976
170,1258.92541,0.7061860198466214
171,1266.27,0.67139055303857
172,1275.0500000000002,0.7609821129003962
173,1283.89,0.7766579385471553
174,1295.77,0.6819109639638404
175,1304.75,0.6748220764421091
176,1313.79,0.7561053547053107
177,1325.9499999999998,0.7340463537850153
178,1335.1399999999999,0.6846347465105487
179,1344.4,0.7496190326518368
180,1353.7099999999998,0.7330071569472358
181,1366.24,0.684611778367359
182,1375.71,0.699782344755912
183,1385.25,0.7006464045602196
184,1394.85,0.6425119301494602
185,1404.52,0.6473396491544555
186,1414.25,0.6636908339443837
187,1424.06,0.6691855397808888
188,1433.9299999999998,0.6655613114023268
189,1440.55,0.6821066030065739
190,1445.43977,0.6855696845676327
191,1447.1899999999998,0.6870033525028512
192,1453.87,0.6737581299962334
193,1463.95,0.6433979660940317
194,1474.1000000000001,0.6416253586925089
195,1484.3200000000002,0.6471935077916655
196,1494.6100000000001,0.6512770133915013
197,1504.97,0.6304718754920162
198,1511.9099999999999,0.5935880057022067
199,1515.4,0.6136088940932103
200,1525.9,0.6017861691950834
201,1536.48,0.55768933744059
202,1543.57,0.572721117295093
203,1554.2700000000002,0.5577481252560494
204,1565.05,0.5679018263606392
205,1575.89,0.5859876473229539
206,1586.82,0.5992006980718563
207,1594.14,0.6044070207143051
208,1605.19,0.5952675111786574
209,1616.32,0.5939639947866431
210,1623.78,0.57821923043045
211,1635.0300000000002,0.5955307537538855
212,1646.3700000000001,0.5974649068639086
213,1653.9699999999998,0.5765657555090741
214,1659.58691,0.5880205724043908
215,1665.43,0.6003854103494912
216,1673.12,0.5635931974993916
217,1676.9800000000002,0.6050054980713833
218,1684.72,0.6156215085447551
219,1696.4,0.5948258569076728
220,1704.2199999999998,0.5828292046985988
221,1716.04,0.5642167183672364
222,1723.96,0.5620189128051052
223,1735.9099999999999,0.5819792871147684
224,1743.9199999999998,0.5748959235348857
225,1756.01,0.5925068631502688
226,1764.1200000000001,0.5672847462173289
227,1776.34,0.5706837464737378
228,1784.54,0.5773704715230463
229,1796.9099999999999,0.5946259417498693
230,1805.2099999999998,0.5922755134461206
231,1813.54,0.5680407991364549
232,1826.11,0.5723679626571634
233,1834.54,0.5618365949944405
234,1843.01,0.5391217459904947
235,1855.78,0.5399026028050887
236,1864.35,0.5476875004480857
237,1872.9499999999998,0.5673076120851654
238,1885.94,0.5422332715230336
239,1894.6399999999999,0.5321506298070562
240,1903.39,0.5478701114145502
241,1905.46072,0.5460001920265818
242,1916.58,0.5364925374234799
243,1925.4299999999998,0.5283562853862976
244,1934.31,0.5404942863930572
245,1943.24,0.5515191091397197
246,1956.71,0.5296628258695677
247,1965.74,0.556059492096036
248,1974.82,0.5642661800624074
249,1983.93,0.5486290210727203
250,1993.09,0.5408383838229363
251,2006.91,0.5489514527321048
252,2016.1699999999998,0.5410956589621265
253,2025.48,0.5524565869320512
254,2034.82,0.5361798679459178
255,2044.22,0.5457304550476676
256,2053.65,0.5068946951933594
257,2063.13,0.5179873570789539
258,2072.65,0.554000956356471
259,2077.4300000000003,0.5405325746911906
260,2087.02,0.5512507644045717
261,2096.66,0.5354834758578557
262,2106.33,0.5375594403550815
263,2116.06,0.5422521109401908
264,2125.8199999999997,0.5444025345692418
265,2135.63,0.5286712799381957
266,2145.49,0.5324092470470526
267,2155.4,0.5422511358958124
268,2165.34,0.530655477788514
269,2175.34,0.531027325769099
270,2185.38,0.5254735111416065
271,2187.7616199999998,0.5283916228202046
272,2195.47,0.5381644479818424
273,2205.6,0.5320923741327562
274,2215.7799999999997,0.5176575497710882
275,2226.0099999999998,0.5134540748968384
276,2236.2799999999997,0.527647539612523
277,2246.61,0.5182583637131093
278,2256.98,0.5058012274036303
279,2267.39,0.5122632306840857
280,2272.62,0.5176067070680225
281,2283.1099999999997,0.522591889528347
282,2293.65,0.5049182214760894
283,2304.24,0.5079854029112502
284,2314.87,0.49882412393634534
285,2325.56,0.4562076043463423
286,2336.29,0.4841357243462738
287,2347.08,0.477723403731107
288,2352.4900000000002,0.491239358269749
289,2363.3399999999997,0.47464659703948403
290,2374.25,0.4781854951941208
291,2385.21,0.45988954283617567
292,2396.22,0.47379363996564866
293,2407.28,0.46669558658253973
294,2412.83,0.4714566796859526
295,2423.97,0.48360600548271276
296,2435.1600000000003,0.474725580766891
297,2446.4,0.4846527055384875
298,2457.69,0.481185379797502
299,2463.35,0.47907828177323475
300,2474.73,0.471729745109602
301,2486.15,0.4698552480359036
302,2497.62,0.4350019004496235
303,2503.38,0.4776174014001925
304,2511.88643,0.4555252913329697
305,2514.94,0.44766412858517096
306,2520.73,0.4583746346896068
307,2526.54,0.45345311439025837
308,2532.37,0.45826576768712546
309,2544.0600000000004,0.4551656846751833
310,2555.7999999999997,0.4696595856537803
311,2567.6,0.46182110742102433
312,2573.5200000000004,0.47232909190086203
313,2585.3900000000003,0.46830637125486085
314,2597.33,0.4635292081956145
315,2603.32,0.45768255026220706
316,2615.33,0.45301384478971557
317,2627.41,0.46211499690397895
318,2633.46,0.47358495975921844
319,2645.6200000000003,0.4891817062583445
320,2657.83,0.5020389367480097
321,2663.95,0.47217015719000405
322,2676.25,0.4794329188626397
323,2682.4199999999996,0.48397592329517325
324,2694.8,0.4666942793526716
325,2707.2400000000002,0.47552435619881694
326,2713.4799999999996,0.4605588182181054
327,2726.0099999999998,0.4557413262472213
328,2732.29,0.4615795354589409
329,2744.9,0.4383896378729195
330,2757.5699999999997,0.4434692610755451
331,2763.93,0.4514297646721274
332,2776.69,0.4583567190577235
333,2783.0899999999997,0.44238416984673723
334,2795.93,0.4077278186171959
335,2802.3799999999997,0.41833795339674884
336,2815.32,0.45081497014828587
337,2821.7999999999997,0.46388761532216227
338,2834.83,0.4541142632566698
339,2847.9100000000003,0.44378659518171654
340,2854.48,0.4312053715385634
341,2867.6600000000003,0.4548962714446885
342,2874.27,0.46333759499396676
343,2884.0315,0.4602079478839725
344,2887.5299999999997,0.45915444777454484
345,2894.1899999999996,0.4653706067909011
346,2907.5499999999997,0.4885624513041923
347,2927.7,0.4744799658957206
348,2948.0,0.4658099547894191
349,2968.4300000000003,0.4680636547449985
350,2989.0099999999998,0.466102429002748
351,3009.73,0.4641621459425231
352,3030.59,0.46556490556432356
353,3051.59,0.4661056078681496
354,3072.75,0.4700918160942905
355,3086.93,0.4676033534594455
356,3108.3300000000004,0.4759512205690587
357,3129.88,0.46531386198084207
358,3151.57,0.46498854607465095
359,3173.42,0.46897353609077475
360,3188.06,0.45044452798258494
361,3210.1600000000003,0.45674110850232563
362,3232.41,0.4399303633242366
363,3247.33,0.4693309405800977
364,3269.84,0.48235801752577034
365,3292.51,0.4784162003937578
366,3307.71,0.46957036301366994
367,3311.31121,0.46937650944061243
368,3322.9700000000003,0.4689081957897814
369,3330.63,0.4739100664570288
370,3338.31,0.45191027360121433
371,3346.0099999999998,0.4697450172223378
372,3353.7200000000003,0.45469022908193024
373,3361.4500000000003,0.4535204774184607
374,3369.2,0.4490024622319292
375,3376.9700000000003,0.44368148352233555
376,3384.7500000000005,0.44502957305121094
377,3392.5499999999997,0.4696409990570244
378,3400.38,0.4819404297782447
379,3408.2200000000003,0.4559237287379341
380,3416.07,0.44880379593609243
381,3423.9500000000003,0.4764279678496578
382,3431.8399999999997,0.47793590800169206
383,3439.7499999999995,0.4739955846306644
384,3447.6800000000003,0.43350699773657464
385,3455.63,0.45058834731942293
386,3463.5899999999997,0.4288574651407402
387,3471.5800000000004,0.45766728767746445
388,3479.58,0.42821667845265765
389,3487.6000000000004,0.4400946057047888
390,3495.64,0.443923369433858
391,3503.7000000000003,0.4651229696398652
392,3511.7799999999997,0.45605640632281036
393,3519.87,0.45573371124422446
394,3527.99,0.4271069208810456
395,3536.12,0.46028489875633577
396,3544.27,0.4697536131085639
397,3552.44,0.4748482639377299
398,3560.63,0.463705151243834
399,3568.8399999999997,0.4343833750268761
400,3577.07,0.42835683528685603
401,3585.31,0.40313046378530504
402,3593.58,0.43093479699916104
403,3601.86,0.46739979845148605
404,3606.05,0.4441597903699935
405,3608.7799999999997,0.4050338194720282
406,3611.5000000000005,0.43106078033559386
407,3614.23,0.4536274094376286
408,3616.96,0.43317503853966327
409,3619.69,0.43125826764169795
410,3622.42,0.42995009674373263
411,3625.14,0.4424765576072983
412,3627.8700000000003,0.43748888670933295
413,3630.6,0.43629141581136766
414,3633.3300000000004,0.4333509449134023
415,3636.06,0.41220707401543705
416,3638.7799999999997,0.4524815348790028
417,3641.51,0.4641481639810374
418,3644.2400000000002,0.4518015930830721
419,3646.97,0.45699462218510684
420,3649.7000000000003,0.45051315128714153
421,3652.42,0.46262481215070717
422,3655.1499999999996,0.46460864125274187
423,3657.88,0.4628301703547766
424,3660.61,0.47504999945681126
425,3663.34,0.47930242855884597
426,3666.07,0.47840915766088066
427,3668.79,0.4358827185244463
428,3671.52,0.452196947626481
429,3674.25,0.4641402767285157
430,3676.9800000000005,0.44186210583055036
431,3679.71,0.4434033349325851
432,3682.43,0.4507289957961508
433,3685.1600000000003,0.4269568248981854
434,3687.89,0.42216285400022013
435,3690.62,0.4687701831022548
436,3693.3500000000004,0.4855548122042895
437,3696.07,0.4645792730678552
438,3698.7999999999997,0.4622198021698899
439,3701.53,0.45905803127192457
440,3704.2599999999998,0.4431427603739593
441,3706.99,0.44307948947599396
442,3709.71,0.44650425033955965
443,3712.44,0.44912447944159434
444,3715.17,0.478939308543629
445,3717.9,0.4755838376456637
446,3720.6299999999997,0.5174605667476984
447,3723.36,0.5812474958497331
448,3726.08,0.6326439567132989
449,3728.8100000000004,0.6510329858153334
450,3731.54,0.5807283149173682
451,3734.27,0.48350594401940283
452,3736.9999999999995,0.47309597312143753
453,3739.7200000000003,0.49928913398500324
454,3742.45,0.4715332630870379
455,3745.1800000000003,0.45780349218907257
456,3747.91,0.4395920212911073
457,3750.64,0.477761550393142
458,3753.36,0.47532151125670763
459,3756.09,0.5045276403587423
460,3758.82,0.517300869460777
461,3761.55,0.5347493985628118
462,3764.2799999999997,0.5061912276648464
463,3767.0,0.4775525885284121
464,3769.73,0.4999255176304468
465,3772.46,0.4951315467324815
466,3775.19,0.5102838758345162
467,3777.92,0.5585510049365509
468,3780.6499999999996,0.5818644340385855
469,3783.37,0.6096625949021512
470,3786.1,0.5619602240041859
471,3788.8300000000004,0.5293905531062206
472,3791.56,0.5198380822082553
473,3794.29,0.46643691131028997
474,3797.01,0.46839557217385563
475,3799.74,0.4794536012758904
476,3801.8939600000003,0.495163093604326
477,3802.47,0.4993698730766767
478,3805.2000000000003,0.5494062704371516
479,3807.93,0.5634505677976267
480,3810.65,0.5860462006989058
481,3813.38,0.5701846980593809
482,3816.1099999999997,0.5597177954198559
483,3818.84,0.549527692780331
484,3821.57,0.5214660901408059
485,3824.29,0.5232021230420851
486,3827.02,0.4963854204025601
487,3829.75,0.4871359177630351
488,3832.4799999999996,0.45005561512351017
489,3835.21,0.4260332124839852
490,3837.94,0.4492346098444602
491,3840.6600000000003,0.4953449427457393
492,3843.39,0.5348687401062143
493,3846.12,0.5769929374666893
494,3848.85,0.5777027348271644
495,3851.58,0.5839178321876394
496,3854.2999999999997,0.5898869650889186
497,3857.03,0.5908733624493936
498,3859.7599999999998,0.6046133598098686
499,3862.4900000000002,0.6313281571703436
500,3865.22,0.6267538545308187
501,3867.94,0.6125276874320977
502,3870.67,0.5996816847925729
503,3873.4,0.5783148821530478
504,3876.1299999999997,0.5689823795135228
505,3878.86,0.5598434768739978
506,3881.58,0.517620009775277
507,3884.3100000000004,0.491522507135752
508,3887.04,0.514945404496227
509,3889.77,0.49695370185670207
510,3892.5,0.4992405992171771
511,3895.23,0.5508537965776521
512,3897.95,0.5568503294789313
513,3900.6800000000003,0.5791111268394062
514,3903.41,0.5919105241998813
515,3906.1400000000003,0.5952208215603564
516,3908.87,0.6194180189208314
517,3911.5899999999997,0.6223440518221105
518,3914.32,0.6052653491825855
519,3917.05,0.6104291465430605
520,3919.7799999999997,0.5982747439035355
521,3922.51,0.5927876412640105
522,3925.23,0.5710364741652898
523,3927.9599999999996,0.5098044715257647
524,3930.69,0.47023426888623976
525,3933.42,0.45002956624671475
526,3936.15,0.4778786636071898
527,3938.87,0.5229931965084689
528,3941.6,0.5581181938689439
529,3944.33,0.596424691229419
530,3947.06,0.606817188589894
531,3949.7900000000004,0.590651485950369
532,3952.52,0.594321383310844
533,3955.24,0.5841341162121232
534,3957.9700000000003,0.5643442135725981
535,3960.7,0.5150913109330733
536,3963.43,0.45123140829354824
537,3966.1600000000003,0.43564670565402325
538,3968.88,0.43622043855530235
539,3971.6099999999997,0.4450362359157774
540,3974.34,0.47933133327625244
541,3977.0699999999997,0.5252456306367275
542,3979.8,0.5581574279972025
543,3982.52,0.5892460608984816
544,3985.25,0.5966232582589567
545,3987.98,0.6223974556194317
546,3990.71,0.6445474529799067
547,3993.4399999999996,0.6445933503403817
548,3996.1600000000003,0.6305607832416609
549,3998.89,0.6428067806021359
550,4001.6200000000003,0.6485791779626109
551,4004.35,0.6529960753230859
552,4007.08,0.6605943726835609
553,4009.81,0.6572097700440359
554,4012.53,0.6745493029453151
555,4015.2599999999998,0.6719116003057901
556,4017.9900000000002,0.6963024976662651
557,4020.72,0.6894320950267402
558,4023.4500000000003,0.6684248923872151
559,4026.17,0.6641581252884943
560,4028.9,0.6740527226489693
561,4031.63,0.6598787200094444
562,4034.36,0.6427722173699194
563,4037.0899999999997,0.6603022147303944
564,4039.81,0.6677100476316735
565,4042.54,0.6623335449921485
566,4045.2700000000004,0.6604981423526235
567,4048.0,0.6630891397130986
568,4050.73,0.6620836370735736
569,4053.4500000000003,0.6532521699748528
570,4056.18,0.6482629673353277
571,4058.91,0.6549760646958027
572,4061.6400000000003,0.6508444620562778
573,4064.37,0.6511668594167529
574,4067.1000000000004,0.6537578567772279
575,4069.82,0.6533640896785069
576,4072.5499999999997,0.638055887038982
577,4075.28,0.6317387843994571
578,4078.01,0.630678081759932
579,4080.74,0.6474610791204071
580,4083.46,0.6415067120216862
581,4086.19,0.6387307093821613
582,4088.9199999999996,0.6304771067426362
583,4091.65,0.6105212041031112
584,4094.38,0.5895418014635863
585,4097.1,0.5599335343648654
586,4099.83,0.5675873317253405
587,4102.56,0.5809124290858155
588,4105.29,0.5859102264462904
