,lambda (Angstroms),Total Flux (erg/s/cm^2/Angstrom)
0,100.03,0.0008346670298471594
1,101.89,0.0010039634009191833
2,104.02,0.0011969143723242425
3,104.712855,0.0012599031006638604
4,105.95,0.0011679522475338956
5,107.92,0.001021967633413259
6,109.92999999999999,0.0008767290447419506
7,114.05,0.0005720374260226498
8,118.06,0.00027522329981769926
9,120.22644299999999,0.0001563356970856352
10,121.09,0.0001708473550358647
11,125.06,0.00017062559330451575
12,127.09,0.0001692977995476799
13,127.97,0.00017041599634274614
14,130.95000000000002,0.00016744165821694763
15,131.85999999999999,0.00018082942308457304
16,134.0,0.0001786334789271204
17,137.12,0.0001942163584732643
18,138.038426,0.0001942606836560212
19,139.98999999999998,0.0002009022173314082
20,142.93,0.00039945941096933583
21,146.93,0.0007530630097964482
22,151.05,0.000788948069588374
23,154.92000000000002,0.0008341502357036053
24,158.489319,0.0008770037265400238
25,158.9,0.0008819073301497925
26,161.85000000000002,0.0009179031120205038
27,166.0,0.0009749252322793012
28,169.86999999999998,0.0010194190935808786
29,173.03,0.001058846744669505
30,177.06,0.001104804211089494
31,179.92999999999998,0.0011400825904009995
32,181.970086,0.001165198664430997
33,182.01999999999998,0.0011658256206794478
34,185.82999999999998,0.0012148799997834779
35,191.02999999999997,0.0012748197927863534
36,194.14000000000001,0.0013191596612938427
37,198.20000000000002,0.00136854022275378
38,201.89,0.0014195253143269744
39,205.17000000000002,0.0014590095068364804
40,208.929613,0.001461864835887544
41,209.95,0.0014629541421617082
42,215.83,0.0015939396715771521
43,219.84,0.0016508555496308817
44,222.9,0.0016708310700409596
45,227.04,0.0017343258917722414
46,230.2,0.002573842291934283
47,233.94000000000003,0.004296857594657711
48,239.88329199999998,0.005190459069369095
49,239.94000000000003,0.005198947238076095
50,246.1,0.004885081825810058
51,251.83,0.005054270047841812
52,257.11,0.004186841980185208
53,260.08,0.004803448692128369
54,263.7,0.004970186933621379
55,269.22,0.004889656953798565
56,274.23,0.004809719912328947
57,275.42287,0.0047860330222170636
58,278.68,0.004723401966274173
59,283.86,0.004660400096986976
60,289.81,0.004382329976859791
61,295.88,0.0043844047786796205
62,300.68,0.00422834965656021
63,307.69,0.004201383346964988
64,316.227766,0.004163659163140148
65,317.77,0.004155978168052209
66,328.18,0.0040225629900102824
67,338.15,0.0038670353459105706
68,347.62,0.0037087604903815563
69,357.35999999999996,0.0035892664890243655
70,363.078055,0.0035265587025984173
71,365.69,0.0034990193147166567
72,375.07,0.0033747765471760466
73,384.69000000000005,0.003152901280252734
74,394.56,0.0031329723681391064
75,404.67999999999995,0.003043123810835164
76,414.11,0.002935776314256491
77,416.86938299999997,0.0028962155439598083
78,421.8,0.0028251604851468213
79,429.65000000000003,0.0027311007929562378
80,440.67,0.0026406077613714955
81,450.93,0.002530043180240873
82,460.37,0.0024351803746002227
83,470.01,0.002343977818840067
84,478.630092,0.0022807858117194603
85,479.86,0.0022714533988642204
86,489.9,0.002159510918103435
87,500.15999999999997,0.002104798347126776
88,505.95,0.002042828790990825
89,511.80999999999995,0.0020699380243316408
90,520.13,0.0020085824307131414
91,529.8,0.001918037919860871
92,539.65,0.0018148941533774315
93,549.5408739999999,0.001741865361385726
94,549.6800000000001,0.00174085181972961
95,559.9,0.0017206656188276032
96,570.31,0.0016854083975565769
97,579.58,0.0016100782984996686
98,590.35,0.0015663779860031312
99,599.9399999999999,0.0014862556947457689
100,609.69,0.001314539807388179
101,619.6,0.0014193883239303625
102,629.67,0.0013621002443723186
103,630.957344,0.001358578147238729
104,639.9000000000001,0.001335108406064997
105,650.3000000000001,0.001288205946953202
106,657.8299999999999,0.001240059824153989
107,665.44,0.0012349698209000695
108,674.7,0.001205248408267837
109,685.66,0.001139809785973099
110,695.1999999999999,0.001132722291749395
111,704.8699999999999,0.0010689591167867933
112,716.33,0.0010696624916501423
113,724.43596,0.0010470531977722925
114,726.29,0.0010418307340460482
115,734.6999999999999,0.0010167103486433619
116,744.9200000000001,0.000983486766739027
117,755.28,0.0009556527823428523
118,765.79,0.0008704414595625629
119,774.66,0.0009044311231152587
120,785.44,0.0008672852312435632
121,794.53,0.0008560922051662244
122,805.58,0.0008395527442031228
123,814.91,0.0008196089567112008
124,824.3499999999999,0.0008019663744042615
125,831.763771,0.0007625303039795385
126,835.82,0.000740484343515745
127,845.49,0.0007579555661879354
128,855.2800000000001,0.0007373133635985607
129,865.1899999999999,0.0007219948357476205
130,875.21,0.0007069349764069121
131,885.34,0.0006906482855764354
132,895.59,0.0006747258694843935
133,905.9599999999999,0.000654731628130786
134,914.35,0.0007293698535930072
135,924.9300000000001,0.0012549818430316604
136,935.64,0.0018698687134369512
137,944.3,0.0026497023070606502
138,954.992586,0.003211445829160621
139,955.24,0.0032244604556197444
140,964.07,0.003557849672142796
141,975.24,0.0014447025304171427
142,984.26,0.003194637363150769
143,995.66,0.0031583133357852866
144,1004.8700000000001,0.003934387784729488
145,1014.17,0.003758177104510278
146,1025.91,0.001968001811416351
147,1035.4099999999999,0.0030026116219451153
148,1044.99,0.004566105428773068
149,1054.66,0.004452057106437611
150,1064.4099999999999,0.0037489767804013423
151,1074.26,0.004194359199739061
152,1084.2,0.003428466489913368
153,1094.23,0.004242643650924263
154,1096.4782,0.0042024567777292484
155,1104.3600000000001,0.004061357945660357
156,1114.58,0.003932539631576462
157,1124.89,0.003563099783415509
158,1135.3,0.004182860008502266
159,1145.8,0.003868890699511964
160,1153.75,0.003976559522705021
161,1164.42,0.004021996538235827
162,1175.2,0.002985090234339118
163,1186.07,0.003814472396365348
164,1194.29,0.0029436346173272255
165,1205.34,0.002346185711199336
166,1213.7,0.0015439934347080098
167,1224.93,0.002753191460426001
168,1236.26,0.0036664365593917034
169,1244.83,0.003909480036720571
170,1256.35,0.003768045674856925
171,1258.92541,0.00365175127103506
172,1265.0600000000002,0.0033749976792450355
173,1273.83,0.004018281174497434
174,1285.6100000000001,0.004121021076900315
175,1294.5300000000002,0.003445578991113701
176,1303.5,0.0033906640449807494
177,1315.5600000000002,0.0039635027294441395
178,1324.68,0.0037943492022721754
179,1333.8600000000001,0.0034457328426846065
180,1346.1999999999998,0.003873511309208506
181,1355.53,0.003751047368581925
182,1364.93,0.0034222056234704708
183,1374.39,0.0035096010459434116
184,1383.9199999999998,0.00350961966393148
185,1393.51,0.0030374294495039435
186,1406.4099999999999,0.003079518480148863
187,1416.1499999999999,0.003239051684682314
188,1425.97,0.0032463031126616247
189,1435.85,0.003231620708225331
190,1442.4799999999998,0.0033369322263009753
191,1445.43977,0.003357409124786018
192,1445.81,0.0033599703610477055
193,1455.83,0.0032613908499087604
194,1465.92,0.003051535502863656
195,1476.08,0.00302370831991239
196,1486.3100000000002,0.003037650301054964
197,1496.62,0.0030446234697333553
198,1503.5200000000002,0.002894853644697555
199,1510.46,0.002635314913429663
200,1517.4399999999998,0.0027651242759296796
201,1524.44,0.00269026268531365
202,1535.01,0.0023826844634834464
203,1545.65,0.0024829884057470815
204,1556.36,0.0023664335121045565
205,1563.55,0.002421225366886092
206,1574.3799999999999,0.0025406147545472928
207,1585.3,0.0026114273531862866
208,1596.29,0.002647616115919121
209,1603.65,0.0025699593692142674
210,1614.77,0.0025523494366928036
211,1625.9599999999998,0.0024380946682651793
212,1633.47,0.0025465452731899822
213,1644.79,0.002558285809508061
214,1656.1899999999998,0.002393909533361956
215,1659.58691,0.002466915094108247
216,1663.8400000000001,0.002558384306046214
217,1671.52,0.0023185747817862333
218,1675.37,0.002623871690848613
219,1683.1,0.002684810022550481
220,1694.77,0.0025297958040460576
221,1706.52,0.0024614059550805926
222,1714.39,0.002400340683475639
223,1726.28,0.0024005112312033513
224,1734.25,0.0025595996715220954
225,1746.27,0.002501851444750615
226,1754.3300000000002,0.002686027425800688
227,1766.49,0.0024344205957223856
228,1774.64,0.002525378117503786
229,1786.9399999999998,0.002595907684118661
230,1795.19,0.00283213591782376
231,1803.48,0.0027743658362983387
232,1815.98,0.0026083148267606097
233,1824.36,0.0026505732859665168
234,1837.01,0.0025731038443143352
235,1845.4799999999998,0.00226910484425157
236,1854.0,0.0024359407001506538
237,1866.86,0.0026271368535382388
238,1875.47,0.0027190632501686513
239,1884.1299999999999,0.002591611502760913
240,1892.8300000000002,0.0026517494401226533
241,1905.46072,0.0026931801313628033
242,1905.9499999999998,0.002694765871525142
243,1914.74,0.002688411903588953
244,1923.58,0.002515667832308417
245,1936.92,0.0022333944600366586
246,1945.8600000000001,0.0028524081820674287
247,1954.84,0.0027685900214227213
248,1968.3899999999999,0.003125566015104706
249,1977.47,0.0030197976477713043
250,1982.03,0.0031182990227668654
251,1995.77,0.003110758823740331
252,2004.98,0.003040065587711628
253,2014.24,0.0030607662483385784
254,2023.53,0.00285072624695892
255,2032.87,0.0031893001422349148
256,2046.9699999999998,0.003431780999129083
257,2056.41,0.003255242687716384
258,2065.91,0.0031885280522904688
259,2075.44,0.0035592867548579453
260,2080.23,0.00513863305446951
261,2085.02,0.0059661763540810745
262,2094.65,0.005517551849959858
263,2104.31,0.005281786683832033
264,2114.03,0.005803078193690991
265,2123.79,0.005257160820874472
266,2133.59,0.004906943565382476
267,2143.44,0.006019805206546131
268,2153.33,0.00604749796503431
269,2163.27,0.005329230620178142
270,2173.25,0.005415345392646496
271,2183.29,0.006478350841101634
272,2187.7616199999998,0.006511592156559326
273,2193.36,0.006553431662944471
274,2203.49,0.006302392887772533
275,2213.66,0.005043169816351152
276,2223.88,0.005644499624617964
277,2234.14,0.007268114136635331
278,2244.4500000000003,0.0068783545283408925
279,2254.81,0.005403846799734646
280,2265.22,0.005137638950816595
281,2275.68,0.005632298981586737
282,2286.18,0.007235814716107435
283,2296.73,0.006089956330316325
284,2307.33,0.0072511808242134105
285,2312.65,0.00624488942303723
286,2323.33,0.004951298324435425
287,2334.05,0.004495592929584175
288,2344.83,0.003215686590358758
289,2355.65,0.005733414954883895
290,2366.52,0.0034999191990972268
291,2377.4500000000003,0.0044837254989363905
292,2382.93,0.0028020049127624306
293,2393.93,0.003451325444165066
294,2404.97,0.003427431679318256
295,2416.08,0.004014570146034918
296,2427.23,0.006606271316502135
297,2432.82,0.006621139665642201
298,2444.05,0.007829324243610528
299,2455.33,0.008234241701267048
300,2466.67,0.007239217214549401
301,2472.35,0.006394272147128216
302,2483.77,0.00425887306791168
303,2495.23,0.004988899692445698
304,2506.75,0.007628585372605548
305,2511.88643,0.0039776079888927665
306,2512.53,0.00352014235951322
307,2518.32,0.0027994049339566977
308,2524.1200000000003,0.0031027774403076776
309,2535.77,0.004839754112547144
310,2547.4799999999996,0.005184080376231622
311,2553.35,0.008872529405935112
312,2565.1400000000003,0.006686996124879605
313,2576.98,0.008451555503361605
314,2582.92,0.007516414056417607
315,2594.84,0.00674602789015962
316,2606.82,0.005809469315346643
317,2612.83,0.005214972391755159
318,2624.89,0.007191270272202194
319,2637.0,0.012031979812186741
320,2643.08,0.016336428411947764
321,2655.2799999999997,0.02192672533909983
322,2667.54,0.014258471857696898
323,2673.69,0.016292099980810437
324,2686.0299999999997,0.01857161595466752
325,2692.2200000000003,0.013770263805411066
326,2704.65,0.016856939166435665
327,2717.1299999999997,0.012327074186997772
328,2723.4,0.010278481493001332
329,2735.96,0.012785775968823453
330,2742.27,0.007048730002457018
331,2754.93,0.009567219797354155
332,2767.6499999999996,0.012518270183696303
333,2774.03,0.01350429674068238
334,2786.83,0.008067156582284542
335,2793.25,0.003481259866900627
336,2806.15,0.004249306027577805
337,2812.6200000000003,0.011975793971731397
338,2825.6,0.01758168558766859
339,2832.11,0.016789651259452188
340,2845.19,0.012737542194464399
341,2851.74,0.007437166593878004
342,2864.91,0.01725200791605773
343,2878.1299999999997,0.02216586789777496
344,2884.0315,0.020226189529252106
345,2884.77,0.019983467610075016
346,2898.08,0.023634905755288815
347,2911.46,0.03150682389074792
348,2931.64,0.02762591107860777
349,2951.96,0.025836088246958218
350,2972.42,0.02729627539579927
351,2993.0299999999997,0.027668832523737395
352,3006.84,0.028178060599274784
353,3027.68,0.029563917695161757
354,3048.67,0.03094936477014581
355,3069.7999999999997,0.03307494182562046
356,3091.08,0.03261387886019219
357,3112.51,0.036663615873861
358,3126.88,0.0342915638713608
359,3148.55,0.03404510085158492
360,3170.3700000000003,0.03723198781090612
361,3192.35,0.03249590474793087
362,3207.09,0.03611678269387012
363,3229.32,0.030592909596056657
364,3251.7000000000003,0.04172929647734028
365,3266.71,0.048231364385654264
366,3289.35,0.04722928123070613
367,3311.31121,0.04497109581144538
368,3312.1600000000003,0.04488381590926669
369,3319.7900000000004,0.04236966558379102
370,3327.44,0.04275576520503756
371,3335.11,0.04874623477300631
372,3342.8,0.04384396428769728
373,3350.5099999999998,0.047191463749110464
374,3358.23,0.048619903183884754
375,3365.97,0.04090635256538125
376,3373.7299999999996,0.03410115189359996
377,3381.5099999999998,0.04362119116854089
378,3389.31,0.04738408039020403
379,3397.1200000000003,0.04145824958522828
380,3404.95,0.04926559872697474
381,3412.7999999999997,0.04390528781544341
382,3420.67,0.045968936850634294
383,3428.55,0.046494385859186284
384,3436.46,0.0462771447878216
385,3444.38,0.03238815368981802
386,3452.3199999999997,0.04923341253853665
387,3460.2699999999995,0.045001461360616384
388,3468.25,0.04551860010277945
389,3476.25,0.04316521879166472
390,3484.26,0.046247577453911094
391,3492.29,0.04355674606287969
392,3500.34,0.0407396846185705
393,3508.4100000000003,0.05022777312098352
394,3516.5,0.04177420157011874
395,3524.61,0.04486164996597619
396,3532.73,0.04998095833519474
397,3540.88,0.05281376662449661
398,3549.04,0.055553054887159586
399,3557.22,0.04860335309654478
400,3565.42,0.05353209125265218
401,3573.6400000000003,0.0376357993554818
402,3581.88,0.04251631740503362
403,3590.13,0.032326385427946566
404,3598.4100000000003,0.05063218337094282
405,3606.7,0.046386781287300186
406,3615.02,0.04470341912374086
407,3623.3500000000004,0.04133444693354266
408,3631.71,0.06341657466342776
409,3640.08,0.05178183236667398
410,3648.47,0.049106780016642405
411,3656.88,0.060682707613333046
412,3665.31,0.0630976651567459
413,3673.7599999999998,0.05767297264688097
414,3682.23,0.05394455008373825
415,3690.7200000000003,0.04862974746731775
416,3699.22,0.05859219482425835
417,3707.75,0.04918197210128227
418,3716.3,0.0642284993250284
419,3724.8700000000003,0.03653920649549675
420,3733.45,0.054279643639326206
421,3742.06,0.04452610070323897
422,3750.6800000000003,0.03737550774051286
423,3759.3300000000004,0.05990794469787006
424,3768.0000000000005,0.05133932160194947
425,3776.68,0.05866709847938999
426,3785.3900000000003,0.06875783527691383
427,3794.1200000000003,0.052639052021159885
428,3801.8939600000003,0.04326528996473052
429,3802.86,0.04210044927497051
430,3811.6299999999997,0.05891084078047638
431,3820.42,0.05002030224380553
432,3829.22,0.039007523686046305
433,3838.05,0.031851155065022
434,3846.8999999999996,0.05175982640182097
435,3855.77,0.05661640769644321
436,3864.65,0.05045458896997709
437,3873.56,0.04987031018024589
438,3882.4900000000002,0.04940932134833795
439,3884.16,0.04721135782658137
440,3885.9300000000003,0.07078429409394117
441,3887.7099999999996,0.04834251034021259
442,3889.48,0.04734015660757239
443,3891.26,0.05274086285384382
444,3893.04,0.059033799100115254
445,3894.8100000000004,0.059607435367475044
446,3896.5899999999997,0.05372173161374648
447,3898.36,0.05363870788110627
448,3900.1400000000003,0.046281534127377705
449,3901.9199999999996,0.048642610373649135
450,3903.69,0.05568629664100893
451,3905.47,0.07256105288728035
452,3907.2400000000002,0.06309992915464016
453,3909.0200000000004,0.06627841540091158
454,3910.7999999999997,0.06080548164718302
455,3912.57,0.07417984791454281
456,3914.35,0.06678786416081424
457,3916.1200000000003,0.06440253042817402
458,3917.9,0.06733176667444546
459,3919.68,0.049119722920716896
460,3921.4500000000003,0.05332236918807669
461,3923.2299999999996,0.05200617543434812
462,3925.0,0.04169564170170791
463,3926.78,0.04111922794797934
464,3928.56,0.03702369419425077
465,3930.3300000000004,0.029851640461610568
466,3932.1099999999997,0.030998646707882
467,3933.88,0.0327731529752418
468,3935.6600000000003,0.024495159221513227
469,3937.44,0.044295125467784656
470,3939.21,0.03855970173514445
471,3940.99,0.043123957981415884
472,3942.76,0.05143536424877567
473,3944.5400000000004,0.06085374049504711
474,3946.3199999999997,0.062105156741318536
475,3948.09,0.06173298300867833
476,3949.87,0.05616323925494976
477,3951.6400000000003,0.055520055522309555
478,3953.42,0.06304886176858097
479,3955.2,0.06496496801485242
480,3956.9700000000003,0.056399054282212216
481,3958.7499999999995,0.04746057052848364
482,3960.52,0.041057566795843436
483,3962.3,0.04202249304211487
484,3964.08,0.0427942292883863
485,3965.8500000000004,0.025060325555746093
486,3967.6299999999997,0.02435438180201752
487,3969.4,0.027031948069377316
488,3971.1800000000003,0.03769910431564875
489,3972.96,0.04319895056192018
490,3974.73,0.05904446682927997
491,3976.5099999999998,0.0641074830755514
492,3978.28,0.0671549593429112
493,3980.0600000000004,0.07660782558918262
494,3981.8399999999997,0.06694303183545407
495,3983.61,0.07127166810281385
496,3985.39,0.08387643434908529
497,3987.1600000000003,0.08525726061644508
498,3988.94,0.08561072686271651
499,3990.72,0.07654362310898793
500,3992.4900000000002,0.08365433937634774
501,3994.27,0.08224153562261916
502,3996.04,0.08698068188997896
503,3997.82,0.08600741813625039
504,3999.6,0.08191976438252183
505,4001.3700000000003,0.09078645064988161
506,4003.1499999999996,0.09658609689615305
507,4004.92,0.09015679316351283
508,4006.7000000000003,0.08939257940978428
509,4008.48,0.09645995565605571
510,4010.25,0.0953804119234155
511,4012.0299999999997,0.08920480816968693
512,4013.8,0.09535065443704673
513,4015.5800000000004,0.09739309068331815
514,4017.3599999999997,0.09857468692958958
515,4019.13,0.11027718319694937
516,4020.91,0.10286327944322081
517,4022.6800000000003,0.1015795757105806
518,4024.46,0.10355227195685203
519,4026.24,0.09544691820312347
520,4028.01,0.08827475447048325
521,4029.79,0.0897972207167547
522,4031.56,0.07876550698411448
523,4033.34,0.08557068323038591
524,4035.12,0.09879186947665734
525,4036.8900000000003,0.09516832574401714
526,4038.6699999999996,0.09572323199028857
527,4040.44,0.10238373825764836
528,4042.2200000000003,0.09790467450391979
529,4044.0,0.08396226075019123
530,4045.77,0.088885927017551
531,4047.5499999999997,0.08866044326382244
532,4049.32,0.09567512953118223
533,4051.1000000000004,0.09477688577745368
534,4052.8799999999997,0.0966826420237251
535,4054.65,0.0931716482910849
536,4056.43,0.08621881453735633
537,4058.2000000000003,0.08874410080471612
538,4059.9800000000005,0.09083165705098756
539,4061.7599999999998,0.09190070329725898
540,4063.53,0.09389533956461879
541,4065.31,0.08814859581089021
542,4067.08,0.09426541207825001
543,4068.86,0.09850247832452143
544,4070.64,0.09514916457079287
545,4072.4100000000003,0.08810072083815265
546,4074.1899999999996,0.0893252570844241
547,4075.96,0.09387100335178387
548,4077.7400000000002,0.09845964959805532
549,4079.52,0.09153626584432674
550,4081.2900000000004,0.09546066211168654
551,4083.0699999999997,0.09782962835795797
552,4084.84,0.10419254462531777
553,4086.6200000000003,0.10197884087158919
554,4088.3999999999996,0.10135393711786063
555,4090.17,0.10493483338522042
556,4091.95,0.09706580963149185
