,lambda (Angstroms),Total Flux (erg/s/cm^2/Angstrom)
0,100.1,0.8697117029887239
1,101.96000000000001,0.8672954276789934
2,104.10000000000001,0.8645140105317765
3,104.712855,0.8637178211186316
4,106.03,0.8547199289971442
5,108.01,0.8411948424232515
6,110.01,0.8275385097040671
7,113.88000000000001,0.8011051804650949
8,117.88,0.7737835696967261
9,120.22644299999999,0.7578519252904568
10,120.91,0.7539655978333616
11,124.87,0.7313105115107894
12,126.9,0.7196924529426525
13,128.07,0.7129995214723472
14,131.05,0.6959437642240478
15,131.96,0.6907698735693658
16,134.10999999999999,0.6784640653247875
17,136.91,0.6624863633411505
18,138.038426,0.6560292655101747
19,140.1,0.6476009864377449
20,143.04000000000002,0.6361366322903199
21,147.04,0.6209575884849803
22,151.16,0.6041579275164801
23,155.04,0.5883751622743005
24,158.489319,0.5743511600276029
25,159.01999999999998,0.5727237393247288
26,161.98000000000002,0.5636406427340017
27,166.13,0.5509375434598406
28,170.0,0.5390512570523698
29,173.16000000000003,0.529359336556864
30,177.19,0.5169843962255702
31,180.07,0.5081374855967546
32,181.970086,0.5023065009936154
33,182.16,0.5018630886007238
34,185.97,0.4929662632539109
35,191.18,0.4807816223387153
36,193.83999999999997,0.47459978345878817
37,197.89999999999998,0.46509829501047845
38,202.05,0.4554032313256296
39,204.86,0.4488425733848043
40,208.929613,0.439198303624151
41,210.10999999999999,0.4370928889607226
42,216.0,0.4269219360859808
43,220.01,0.4199119844734656
44,223.07,0.4145067841955862
45,227.22,0.4072614797337561
46,229.85,0.4046863112073435
47,234.13,0.4011613770997212
48,239.88329199999998,0.39295655740783464
49,240.13,0.3927052120200312
50,245.72,0.3841184861762211
51,252.03,0.3758612580412584
52,256.71,0.36738791514876634
53,260.28,0.3638561609551345
54,263.91,0.3592544502372399
55,268.81,0.35231317742245116
56,273.81,0.3451890937338912
57,275.42287,0.34290249039369297
58,278.90000000000003,0.33907928002506366
59,284.09,0.33343257836127027
60,290.03000000000003,0.32646640175184183
61,296.10999999999996,0.3200131709125617
62,300.92,0.3146302533012232
63,307.93,0.30711809764935566
64,316.227766,0.29824731481398636
65,318.02,0.2968076589642484
66,327.68,0.2888618308467366
67,337.64000000000004,0.28065576363240774
68,347.90000000000003,0.2721966553212617
69,356.82,0.2649133991092323
70,363.078055,0.25983934694527683
71,365.96999999999997,0.25806411929428924
72,375.36,0.25224795810931927
73,384.99,0.24607137806019672
74,394.86,0.24018380914692167
75,404.99,0.23401330171414786
76,414.43,0.2281993253908128
77,416.86938299999997,0.22668940138947577
78,422.13,0.22416347880180218
79,429.98,0.22042101884930942
80,441.01,0.21524844063453302
81,451.28000000000003,0.21039085056420165
82,459.67,0.20641077011434003
83,470.38000000000005,0.20139895274985625
84,478.630092,0.1975578556382323
85,480.23,0.19697867983484912
86,490.28000000000003,0.1932712096867229
87,500.55,0.18961291275326453
88,506.35,0.18747199750359966
89,512.21,0.18549662213066231
90,520.53,0.18249851870355685
91,530.21,0.1789667901489437
92,540.07,0.17535012322451338
93,549.5408739999999,0.1719419883755374
94,550.11,0.17178374817678732
95,560.34,0.16903807877979482
96,569.44,0.16656850950387775
97,580.03,0.16362980026300286
98,589.4499999999999,0.16106071801474586
99,600.41,0.15801025821210288
100,610.1700000000001,0.15508017755573467
101,620.08,0.1526953731310821
102,630.1600000000001,0.14992269150237394
103,630.957344,0.1497083426116008
104,640.4,0.14768493291806392
105,649.3000000000001,0.14573278953941335
106,658.34,0.14374964836379525
107,664.4300000000001,0.1424686031957074
108,675.22,0.14015023655799516
109,684.62,0.13806038761874626
110,695.74,0.13572611603103904
111,705.42,0.1335772064978551
112,715.23,0.13153502743891554
113,724.43596,0.129557290367936
114,725.18,0.12943744972205035
115,735.27,0.12782772359265857
116,745.5,0.12618104673401856
117,754.13,0.12478428963821568
118,764.62,0.12299446756811465
119,775.26,0.12141606914524761
120,784.2399999999999,0.11995248022632414
121,795.15,0.11824169096847834
122,804.3599999999999,0.11678067670864702
123,815.5500000000001,0.11501045899230469
124,824.99,0.11351550339156552
125,831.763771,0.11238208023720132
126,834.54,0.11202611603970679
127,844.2099999999999,0.11094630272314725
128,855.95,0.10954779517232931
129,865.86,0.10837688149527604
130,875.89,0.1071925391379759
131,883.99,0.10622637922131276
132,894.23,0.1050158791735806
133,904.5799999999999,0.10378240600228884
134,915.0600000000001,0.10275741059406296
135,925.65,0.10283553206227747
136,934.22,0.10342711298131413
137,945.0400000000001,0.10430848464572215
138,954.992586,0.10469159096160446
139,955.98,0.10473206857659084
140,964.8199999999999,0.10452926415095709
141,976.0000000000001,0.09733641943618496
142,985.03,0.10099110351271522
143,994.14,0.10002980316910394
144,1005.65,0.10119448622124824
145,1014.96,0.09975043382728326
146,1024.35,0.09380703701317683
147,1033.83,0.09527377722641124
148,1045.8,0.09867207786274199
149,1055.48,0.09724410702562267
150,1065.24,0.09394416476836186
151,1075.1,0.09420621898592424
152,1085.05,0.0908922552308274
153,1095.09,0.09217287650307143
154,1096.4782,0.09194621678448145
155,1105.22,0.09069833673708635
156,1115.45,0.08933697023903557
157,1125.77,0.08731961922927174
158,1136.18,0.08833434070779482
159,1144.06,0.08663661479336277
160,1154.6399999999999,0.08606658352753899
161,1165.33,0.08522412219184368
162,1176.11,0.08109076234443532
163,1184.26,0.08293272289486407
164,1195.22,0.0791954770240296
165,1206.28,0.07641660736240284
166,1214.64,0.07376784205216778
167,1225.88,0.07601057736711492
168,1234.38,0.07807364014977068
169,1245.8,0.0777622674412917
170,1254.44,0.07649652831683826
171,1258.92541,0.07560287621246028
172,1266.04,0.07437481547919526
173,1274.8200000000002,0.07590159676129525
174,1283.66,0.07568603579247565
175,1295.53,0.07270366215221678
176,1304.5100000000002,0.07195910759791813
177,1313.56,0.07326305075087998
178,1325.71,0.071932274939663
179,1334.8999999999999,0.07021021950714582
180,1344.15,0.07106247382370902
181,1353.47,0.0700482728475327
182,1365.99,0.06817711948897827
183,1375.46,0.06786421288550297
184,1385.0000000000002,0.06723354898928816
185,1394.6,0.06518728284215378
186,1404.26,0.06470614444409978
187,1414.0,0.06451000871148634
188,1423.8,0.06394621172795331
189,1433.6699999999998,0.06323084845168077
190,1443.61,0.0629582168826687
191,1445.43977,0.06288568089550473
192,1446.9299999999998,0.06285635398674802
193,1453.61,0.06224477476993042
194,1463.69,0.061102303454732616
195,1473.83,0.060575476649563406
196,1484.0500000000002,0.06018267152443228
197,1494.3400000000001,0.059767386494334544
198,1504.6899999999998,0.058824567974265385
199,1511.6399999999999,0.05768016155257643
200,1518.62,0.057776977885901755
201,1525.63,0.057223822974241376
202,1536.2,0.055775905324277016
203,1543.29,0.05582349509265476
204,1553.99,0.05497025404775233
205,1564.76,0.054642932097883255
206,1575.6100000000001,0.054544194828052284
207,1586.53,0.05429294165325467
208,1593.85,0.05407608187674199
209,1604.8999999999999,0.053360079307006314
210,1616.03,0.05281260641730873
211,1623.49,0.05209110583086274
212,1634.74,0.05194935596122234
213,1646.07,0.051494293771620056
214,1653.6699999999998,0.05060309137524077
215,1659.58691,0.050609181979830414
216,1665.1299999999999,0.050691519417527434
217,1672.82,0.04965497032700217
218,1676.67,0.050525667697805504
219,1684.41,0.05048830876794001
220,1696.0900000000001,0.04962315069806547
221,1703.9199999999998,0.04913808925738761
222,1715.73,0.0485316350052285
223,1723.6499999999999,0.048259772053738235
224,1735.59,0.048363661619294576
225,1743.61,0.04792088198912388
226,1755.69,0.04811315620452761
227,1763.8000000000002,0.04708955006354452
228,1776.0200000000002,0.04697315292879564
229,1784.22,0.04686009527700016
230,1796.5900000000001,0.04723078662423064
231,1804.88,0.04668542446162277
232,1813.21,0.04590606162754274
233,1825.78,0.045637103617412356
234,1834.21,0.04507592410465188
235,1846.9199999999998,0.043878280744368885
236,1855.4499999999998,0.04404784755292798
237,1864.0100000000002,0.04431566285788294
238,1876.93,0.044177150972371036
239,1885.5900000000001,0.04349919559864556
240,1894.3,0.04338838838557989
241,1903.04,0.043245041668910064
242,1905.46072,0.043154004167513735
243,1916.2299999999998,0.04284198459792076
244,1925.0800000000002,0.042111618358716116
245,1933.96,0.041164688650904016
246,1942.8899999999999,0.04269541882874612
247,1956.3600000000001,0.04212123942399059
248,1965.3899999999999,0.04291844937314112
249,1974.46,0.04244389503081501
250,1983.5700000000002,0.04248796639701228
251,1992.73,0.04221036064886376
252,2006.54,0.04166465326655686
253,2015.8000000000002,0.04140615528971676
254,2025.11,0.040729745198530884
255,2034.4599999999998,0.04130292181586836
256,2043.8500000000001,0.0417330501417292
257,2053.28,0.040938891176113414
258,2062.7599999999998,0.04051160209615185
259,2072.2799999999997,0.04134767972471365
260,2077.06,0.044731791393256226
261,2086.64,0.046329635084603076
262,2096.28,0.04496543783873497
263,2105.95,0.044017110124259407
264,2115.67,0.044798398295438045
265,2125.44,0.0434946523522709
266,2135.25,0.04215916911762712
267,2145.1,0.04433270859150671
268,2155.0099999999998,0.04433294712817135
269,2164.95,0.04249864519622853
270,2174.95,0.042474562327070746
271,2184.98,0.044245758989305495
272,2187.7616199999998,0.044258414319615656
273,2195.07,0.04434764741039891
274,2205.2,0.04351709234429179
275,2215.38,0.04058480616729568
276,2225.61,0.0413820588794106
277,2235.88,0.04461876070281433
278,2246.2,0.04352836141532909
279,2256.57,0.04029493101695486
280,2266.98,0.03978622972986945
281,2277.45,0.040857347109717265
282,2282.7,0.04375491046637448
283,2293.23,0.041270666513155516
284,2303.82,0.04329618122686978
285,2314.4500000000003,0.041044555051872864
286,2325.14,0.037481717543809176
287,2335.87,0.03674391914703431
288,2346.65,0.03398068263937045
289,2357.48,0.038918379020817614
290,2362.92,0.03420328915609671
291,2373.82,0.03601577598229931
292,2384.7799999999997,0.032393168475435136
293,2395.79,0.03358397385768198
294,2406.85,0.03325357912903984
295,2412.39,0.03443865504254098
296,2423.53,0.039323561536476474
297,2434.72,0.039100592919523
298,2445.9500000000003,0.041201683413858325
299,2457.24,0.0417847025751269
300,2462.9100000000003,0.03984732660031668
301,2474.28,0.03807456398416288
302,2485.7000000000003,0.0343812902571201
303,2497.17,0.035130785419188335
304,2502.93,0.04041523744477797
305,2511.88643,0.03376693481089342
306,2514.48,0.03185233676342324
307,2520.2799999999997,0.030492042876190742
308,2526.0899999999997,0.030967077609842315
309,2537.7499999999995,0.03385567856068179
310,2543.6,0.03442957177786969
311,2555.3399999999997,0.04079637069578182
312,2567.13,0.03672566271811436
313,2573.05,0.03976975028149082
314,2584.93,0.03795802789178011
315,2596.8599999999997,0.03634267860648979
316,2602.84,0.03458170989517076
317,2614.86,0.033322206197837184
318,2626.9300000000003,0.03689950560492401
319,2632.9799999999996,0.045047691239793554
320,2645.1400000000003,0.052775266234837116
321,2657.35,0.06162788433430111
322,2663.47,0.048193334315359215
323,2675.77,0.051785938002779926
324,2681.94,0.05513596108825845
325,2694.32,0.04728843974275182
326,2706.75,0.052334971501665606
327,2712.9900000000002,0.0446035189333327
328,2725.5099999999998,0.04156513628020321
329,2738.09,0.04547448735237822
330,2744.41,0.034631739751117975
331,2757.0699999999997,0.03871567579036564
332,2763.43,0.043495680672641715
333,2776.18,0.04535269229984611
334,2782.58,0.035955359665658514
335,2795.43,0.027480674501703738
336,2801.8700000000003,0.028817751351052464
337,2814.81,0.042282920775054425
338,2827.7999999999997,0.05200627730347679
339,2834.32,0.05096600211989817
340,2847.4,0.04507276423627728
341,2853.96,0.03586680153623499
342,2867.1400000000003,0.05234512986145491
343,2873.75,0.05927567026583304
344,2884.0315,0.05627133477787717
345,2887.0099999999998,0.05541143879481808
346,2893.6600000000003,0.060511772422703954
347,2907.02,0.07314251381647167
348,2927.17,0.06657641849344917
349,2947.46,0.06367202282575059
350,2967.8900000000003,0.06642842681337591
351,2988.47,0.06673981614599116
352,3009.1800000000003,0.06796156944426432
353,3030.04,0.06946147808752737
354,3051.04,0.07126083638611436
355,3072.19,0.07416516002969123
356,3093.49,0.07390060901825803
357,3107.7700000000004,0.07930621386129716
358,3129.31,0.0757034094018478
359,3151.0,0.07516130028738836
360,3172.84,0.07932985651791881
361,3187.4900000000002,0.07132945187859972
362,3209.5800000000004,0.07715686035078002
363,3231.83,0.06773462985761622
364,3246.75,0.08437877883927898
365,3269.25,0.09399149058776501
366,3291.9100000000003,0.09207574337090697
367,3307.1099999999997,0.08910847166321754
368,3311.31121,0.0886364941949756
369,3322.37,0.08742130972622573
370,3330.0299999999997,0.09318596538286483
371,3337.71,0.09028859160257607
372,3345.4,0.08985813810382343
373,3353.11,0.08432463516814293
374,3360.84,0.09282794279553457
375,3368.59,0.0916749909859984
376,3376.36,0.0768679697395344
377,3384.14,0.07968843877460646
378,3391.94,0.09246981837275071
379,3399.76,0.09620887853396712
380,3407.6,0.09000985925825568
381,3415.45,0.08906212026408034
382,3423.33,0.10013619211451323
383,3431.22,0.0971503242464822
384,3439.13,0.09592756694152335
385,3447.06,0.07584775019963666
386,3454.9999999999995,0.08964209373928607
387,3462.9700000000003,0.0804958481235437
388,3470.95,0.08894369278933742
389,3478.9500000000003,0.0750977780182033
390,3486.97,0.08542412381014136
391,3495.01,0.08030447016515158
392,3503.0699999999997,0.09704969708323397
393,3511.14,0.09396776428285242
394,3519.2400000000002,0.09332648232707912
395,3527.3500000000004,0.07743690065284191
396,3535.4799999999996,0.09151753954167688
397,3543.6299999999997,0.10164290899358401
398,3551.8,0.10034414900856328
399,3559.9900000000002,0.09598845958661474
400,3568.19,0.08165923044620227
401,3576.42,0.08203831215039806
402,3584.66,0.06922563413612991
403,3592.93,0.07746863696647002
404,3601.21,0.10254934007834622
405,3609.51,0.08669448375329458
406,3617.8300000000004,0.09253002799131509
407,3626.17,0.09845016279240779
408,3634.53,0.08459178815657264
409,3642.91,0.10857041408380966
410,3651.31,0.08808479057411883
411,3659.7200000000003,0.1137392673459641
412,3668.16,0.1100031149624176
413,3676.62,0.11467254314194328
414,3685.0899999999997,0.09949734160300504
415,3693.59,0.10747957090867503
416,3702.1,0.11409728049588114
417,3710.64,0.08538183092769545
418,3719.19,0.11669012164104588
419,3727.7599999999998,0.09740462291746846
420,3736.36,0.07367102503849929
421,3744.9700000000003,0.1038389374410662
422,3753.6000000000004,0.07157118040670526
423,3762.26,0.08870805421695259
424,3770.9300000000003,0.090909728308736
425,3779.6200000000003,0.10854482296359157
426,3788.33,0.1210974281815193
427,3797.07,0.09445967424405528
428,3801.8939600000003,0.10095565535618727
429,3805.8199999999997,0.10624929054181943
430,3814.59,0.11588569720604194
431,3823.39,0.0910496066752732
432,3832.2000000000003,0.07761959374617403
433,3841.04,0.06875804362208361
434,3849.8900000000003,0.10342112109966276
435,3858.7599999999998,0.10187216378058109
436,3867.66,0.10816624926650815
437,3876.58,0.09571573995577437
438,3885.5099999999998,0.09542927824671019
439,3894.47,0.08908248934265474
440,3896.21,0.11466934203316181
441,3897.9799999999996,0.10549631752867766
442,3899.75,0.1123703330241935
443,3901.53,0.1047547061213789
444,3903.3,0.09044381161689473
445,3905.0699999999997,0.10669105711241056
446,3906.85,0.10834865020959597
447,3908.62,0.10828249570511181
448,3910.3900000000003,0.11757372120062763
449,3912.1699999999996,0.13075587429781305
450,3913.94,0.11279016979332888
451,3915.72,0.11245092289051428
452,3917.4900000000002,0.11304701838603012
453,3919.2599999999998,0.11110669388154595
454,3921.04,0.09579174697873137
455,3922.81,0.1011565124742472
456,3924.58,0.09308201796976302
457,3926.3599999999997,0.08196349106694845
458,3928.13,0.07051137656246428
459,3929.91,0.058812839659649695
460,3931.6800000000003,0.05520711515516552
461,3933.45,0.05215041065068135
462,3935.23,0.05997870374786676
463,3937.0,0.06760681924338259
464,3938.77,0.07452684473889842
465,3940.5499999999997,0.07948820783608383
466,3942.32,0.08377971333159967
467,3944.09,0.0964618988271155
468,3945.8700000000003,0.10178210192430091
469,3947.64,0.10801697741981675
470,3949.42,0.11042708051700216
471,3951.19,0.113445536012518
472,3952.9599999999996,0.11929283150803383
473,3954.74,0.11560928460521924
474,3956.5099999999998,0.10860043010073506
475,3958.28,0.1013605355962509
476,3960.0600000000004,0.09196890869343631
477,3961.83,0.08655640418895214
478,3963.61,0.07854312728613756
479,3965.38,0.06431169278165338
480,3967.1499999999996,0.055095328277169224
481,3968.93,0.06219704137435463
482,3970.7,0.07755353686987047
483,3972.4700000000003,0.0905638623653863
484,3974.2499999999995,0.09020202546257172
485,3976.02,0.09729111095808754
486,3977.79,0.11597405645360337
487,3979.57,0.12416680955078878
488,3981.3399999999997,0.12867380504630463
489,3983.12,0.13215415814349002
490,3984.89,0.13403305363900586
491,3986.6600000000003,0.1324192491345217
492,3988.4399999999996,0.1307818022317071
493,3990.21,0.1391951977272229
494,3991.98,0.14145709322273875
495,3993.76,0.13469604631992418
496,3995.5299999999997,0.13631364181544
497,3997.31,0.1393601949126254
498,3999.08,0.14778129040814125
499,4000.8500000000004,0.1498763859036571
500,4002.6299999999997,0.14596933900084252
501,4004.4,0.14117823449635833
502,4006.17,0.13753682999187417
503,4007.9500000000003,0.1428183830890596
504,4009.72,0.1491123785845754
505,4011.49,0.15127607408009125
506,4013.27,0.15443302717727664
507,4015.0400000000004,0.15965432267279248
508,4016.8199999999997,0.16108057576997792
509,4018.59,0.1547648712654937
510,4020.36,0.15549636676100959
511,4022.1400000000003,0.164274219858195
512,4023.91,0.15962691535371082
513,4025.68,0.15886461084922665
514,4027.46,0.15167806394641203
515,4029.2299999999996,0.14823365944192787
516,4031.0099999999998,0.1505975125391133
517,4032.78,0.14324490803462914
518,4034.55,0.14622730353014496
519,4036.3300000000004,0.15864205662733036
520,4038.1,0.1533600521228462
521,4039.87,0.16319354761836202
522,4041.65,0.14846040071554742
523,4043.4199999999996,0.1474010962110633
524,4045.19,0.1423840917065791
525,4046.97,0.14442644480376451
526,4048.7400000000002,0.15362334029928035
527,4050.5200000000004,0.15500609339646576
528,4052.29,0.15938028889198158
529,4054.06,0.15423498438749741
530,4055.84,0.14948093748468283
531,4057.6099999999997,0.14633493298019867
532,4059.38,0.1460681284757145
533,4061.16,0.1449541815728999
534,4062.9300000000003,0.13455747706841575
535,4064.7100000000005,0.14154833016560114
536,4066.48,0.146569325661117
537,4068.25,0.15101222115663282
538,4070.03,0.15606587425381824
539,4071.7999999999997,0.14067706974933408
540,4073.57,0.1455665652448499
541,4075.35,0.14488131834203533
542,4077.1200000000003,0.14348251383755115
543,4078.8999999999996,0.14859016693473653
544,4080.67,0.15379336243025238
545,4082.44,0.1611570579257682
546,4084.2200000000003,0.14955331102295363
547,4085.99,0.15955030651846946
548,4087.7599999999998,0.1630546020139853
549,4089.54,0.1600328551111707
550,4091.3100000000004,0.16058805060668654
551,4093.08,0.15666184610220238
552,4094.86,0.1587067991993878
553,4096.63,0.1419448946949036
554,4098.41,0.13238874779208903
555,4100.18,0.13461474328760487
556,4101.95,0.1311170387831207
557,4103.73,0.1402946918803061
558,4105.5,0.14408628737582194
559,4107.27,0.14768728287133776
560,4109.05,0.1473613359685232
561,4110.82,0.150462531464039
562,4112.6,0.16044078456122443
563,4114.37,0.15854488005674025
564,4116.139999999999,0.1546846755522561
565,4117.92,0.1527648286494415
566,4119.69,0.15560172414495732
567,4121.46,0.15637171964047317
568,4123.240000000001,0.15705187273765858
569,4125.01,0.1555684682331744
570,4126.78,0.15742736372869023
571,4128.56,0.14991231682587564
572,4130.33,0.14563121232139148
