,lambda (Angstroms),Total Flux (erg/s/cm^2/Angstrom)
0,100.02000000000001,0.005964268286153568
1,102.12,0.0073312460150281615
2,104.01,0.008561525971429784
3,104.712855,0.009019043653674839
4,105.95,0.008347109455344323
5,107.92,0.007277137569050329
6,109.92,0.0061908717005965215
7,114.05,0.0039477326799272
8,118.06,0.001769769620726092
9,120.22644299999999,0.0005931031530814371
10,121.09,0.0005714006023635965
11,125.05000000000001,0.00047187950098821676
12,127.08000000000001,0.0004208623855732009
13,127.96,0.0003987466033298836
14,130.95000000000002,0.000323603203318448
15,131.85,0.00030098483429508047
16,134.0,0.0002469519851906621
17,137.12,0.00016854162453749927
18,138.038426,0.00014546019436532674
19,139.98999999999998,0.00014372821431445478
20,142.92,0.0001411284532830303
21,146.92000000000002,0.00013757949794537233
22,151.04,0.00013392394484602465
23,154.91,0.0001304906992660306
24,158.489319,0.00012731572738652376
25,158.89000000000001,0.00012676951814535883
26,161.84,0.00012274846070950773
27,165.98999999999998,0.00011709218462790369
28,169.86,0.00011181851266127524
29,173.02,0.00010751269636369236
30,177.04999999999998,0.0001020225178113636
31,179.92000000000002,9.811369599536265e-05
32,181.970086,9.53216513249234e-05
33,182.01,9.533924148110134e-05
34,185.82000000000002,9.701997801300634e-05
35,191.02999999999997,9.931954658382649e-05
36,194.13,0.00010068947670999591
37,198.19,0.00010248539701885004
38,201.88000000000002,0.00010412118599541943
39,205.16,0.0001055747398445922
40,208.929613,0.00010724803735027359
41,209.94,0.00010994589909645052
42,215.82,0.000125657730479833
43,219.82999999999998,0.00013637444303550708
44,222.89,0.0001445538815717572
45,227.03,0.00015562419930903674
46,230.19000000000003,0.00016443372281575258
47,233.93,0.00017475445587116927
48,239.88329199999998,0.00019093943193384074
49,239.93,0.0001908393912555903
50,246.09,0.00017746790497400453
51,251.82,0.0001651276688046074
52,257.09,0.0001535149806854585
53,260.07,0.0001472664118381978
54,264.3,0.00013819017757178416
55,269.21,0.00012761055470935138
56,274.21000000000004,0.00011684566403273942
57,275.42287,0.00011423320020625448
58,279.31,0.00012350532297515456
59,283.85,0.00013437502270805053
60,289.79,0.00014848516579910818
61,295.86,0.00016305628999485226
62,300.67,0.00017448122086825078
63,307.67,0.00019130381265905947
64,316.227766,0.00021191024722541467
65,317.75,0.00020939428631339417
66,328.15999999999997,0.00019210463484964306
67,338.14,0.000175596886431945
68,347.61,0.00016000773004561225
69,357.35,0.00014399527358385076
70,363.078055,0.0001347538826778493
71,365.67,0.0001384951032808302
72,375.04999999999995,0.00015185697492087262
73,384.67,0.00016568655266897603
74,395.45,0.00018168488210603976
75,404.66,0.00019558051712787255
76,414.09000000000003,0.0002099457348320944
77,416.86938299999997,0.0002142405157546287
78,421.78000000000003,0.00021919652744132305
79,429.63,0.0002274627352462843
80,440.65,0.00023992935429222986
81,450.90999999999997,0.00025195519099017923
82,460.35,0.0002632870791021327
83,469.99,0.0002768341746740851
84,478.630092,0.0002899569317020057
85,479.83,0.0002895499253308045
86,489.88,0.00028692707994921817
87,500.14000000000004,0.0002872568773208524
88,505.93,0.0004542961518025057
89,511.79,0.0011094349305352325
90,520.1,0.0011343030080555327
91,529.77,0.0011791942338824045
92,539.62,0.0011463740249263224
93,549.5408739999999,0.0014326838433192499
94,549.66,0.0014362064392248158
95,559.87,0.0017127845940842483
96,570.28,0.0019175011329761865
97,579.55,0.0018982417828828405
98,590.32,0.0022263468130332897
99,599.92,0.002295611246593579
100,609.66,0.002660503648976622
101,619.5699999999999,0.0030753367277872954
102,629.6400000000001,0.0033175099138239733
103,630.957344,0.0033402633025887657
104,639.87,0.0035013836279676473
105,650.27,0.003889246120268763
106,657.8000000000001,0.004104971377675244
107,665.4100000000001,0.004430054631176349
108,674.67,0.004718490929129073
109,685.63,0.004776219394092557
110,695.17,0.005724654178376465
111,704.84,0.005653058081314137
112,716.29,0.006750403147357193
113,724.43596,0.007058734382725827
114,726.26,0.007127412198179642
115,734.6700000000001,0.007557751040056631
116,744.89,0.008271314129709762
117,755.25,0.008811961056207457
118,765.7600000000001,0.0093880854507529
119,774.62,0.010138863696773128
120,785.4,0.011000415133804516
121,794.49,0.011616446897497955
122,805.5500000000001,0.012239447008218466
123,814.87,0.012867259289585119
124,824.3100000000001,0.013931553145389968
125,831.763771,0.013338557891954098
126,835.78,0.01301568061661198
127,845.4599999999999,0.015214418027802712
128,855.25,0.01602473234139334
129,865.15,0.01711155355738386
130,875.17,0.018232415939628814
131,885.3,0.01947211522427366
132,895.55,0.020562175675172937
133,905.9200000000001,0.021272497292326647
134,914.3,0.030595720402427716
135,924.89,0.1764588958243812
136,935.6,0.37104235241258915
137,944.26,0.7367477849106172
138,954.992586,0.9824536291760653
139,955.19,0.9869732106446633
140,964.03,1.2254288091676986
141,975.1899999999999,0.3676292973483632
142,984.2199999999999,1.328256978645084
143,995.61,1.307025945972841
144,1004.83,1.5391091100432466
145,1014.12,1.4199782677671153
146,1025.87,0.612827002455539
147,1035.3600000000001,1.2086163420464449
148,1044.94,1.8166364734775169
149,1054.61,1.804137596748756
150,1064.3700000000001,1.6153777118601615
151,1074.21,1.7958678197183822
152,1084.1499999999999,1.6079559185101209
153,1094.18,1.8589480091420265
154,1096.4782,1.8418247361167213
155,1104.31,1.7834705783896714
156,1114.53,1.787589678316917
157,1124.84,1.6568087527053612
158,1135.25,1.8589147987173602
159,1145.75,1.7590028191905576
160,1153.69,1.8250175661007662
161,1164.37,1.863215535496361
162,1175.1399999999999,1.4902674793531554
163,1186.02,1.837629391995859
164,1194.24,1.6078950594520194
165,1205.29,1.3130189238547654
166,1213.64,0.6781006544215463
167,1224.87,1.42649836774669
168,1236.21,1.8040801498577435
169,1244.77,1.8847837208339882
170,1256.29,1.8674784518674392
171,1258.92541,1.8457868576390979
172,1265.0,1.7957898266411565
173,1273.77,1.9375590036546653
174,1285.56,1.955476241623795
175,1294.47,1.771146421463061
176,1306.44,1.7958156630653073
177,1315.5,1.9554758459321704
178,1324.62,1.8934650300100722
179,1333.8,1.812394215299013
180,1346.14,1.915367464369332
181,1355.47,1.9109766526858698
182,1364.87,1.8376038424152863
183,1374.33,1.8460980333557415
184,1383.8600000000001,1.8631752257090755
185,1393.45,1.668235419273448
186,1406.3400000000001,1.7189246794449562
187,1416.0900000000001,1.8124078762387659
188,1425.9099999999999,1.795795074445454
189,1435.7900000000002,1.8207632738631812
190,1442.42,1.8503454076829717
191,1445.43977,1.842631411594794
192,1445.74,1.841864473719909
193,1455.7600000000002,1.8207706434607895
194,1465.85,1.7670948143874847
195,1476.0200000000002,1.7670579866693963
196,1486.25,1.7630071599677204
197,1496.5500000000002,1.758953334451859
198,1503.46,1.7031644515086939
199,1510.4,1.611614569073735
200,1517.3700000000001,1.652953687146982
201,1524.37,1.6605858057284357
202,1534.9399999999998,1.5390699847864304
203,1545.58,1.5604951650302399
204,1556.29,1.5179563464598635
205,1563.47,1.5676994680905545
206,1574.31,1.6265186517224053
207,1585.22,1.6378068365400706
208,1596.21,1.6567780227129525
209,1603.58,1.6190541475622828
210,1614.7,1.6116053359373916
211,1625.89,1.5968375254983154
212,1633.39,1.6377926525498727
213,1644.72,1.6264998444824252
214,1656.1200000000001,1.6005000376007923
215,1659.58691,1.6242997074265169
216,1663.76,1.6529476125887919
217,1671.4399999999998,1.5931505626905371
218,1675.2900000000002,1.6605980389785215
219,1686.91,1.6605754765022558
220,1694.69,1.6190674389751174
221,1706.4399999999998,1.5858448925813033
222,1714.32,1.5426088674252816
223,1726.2,1.5355503371139185
224,1734.1699999999998,1.5785503230919016
225,1746.19,1.549768810100102
226,1754.25,1.5821998072120895
227,1766.4099999999999,1.521471311539853
228,1774.56,1.5284883197858454
229,1786.8600000000001,1.5426278414331718
230,1795.1100000000001,1.567710862050281
231,1803.39,1.5677218863787252
232,1815.89,1.5040754327682846
233,1824.28,1.5250044707049566
234,1836.9199999999998,1.500614034414079
235,1845.4,1.423206083484756
236,1853.92,1.4134131375038796
237,1866.7700000000002,1.4363877271923466
238,1875.39,1.4834527935825867
239,1884.04,1.3940308636841616
240,1897.1,1.3405424793519733
241,1905.46072,1.4101111941230031
242,1905.8600000000001,1.4134334499951704
243,1914.66,1.3654280467025741
244,1923.49,1.3374336386260255
245,1936.83,1.3812465113620216
246,1945.77,1.4101680857443157
247,1954.75,1.3312816537480072
248,1968.3,1.397241492996339
249,1977.3799999999999,1.4330830450535235
250,1981.94,1.3748903178928145
251,1995.68,1.3497971268427833
252,2004.89,1.3748856581695093
253,2014.15,1.3685661815229817
254,2023.44,1.397250700092502
255,2032.78,1.3436012106887691
256,2046.8700000000001,1.3497869638259645
257,2056.32,1.300966456881074
258,2065.81,1.3221259435575807
259,2075.35,1.3780524222608341
260,2080.13,1.3190626600178104
261,2084.9300000000003,1.343588894585485
262,2094.55,1.3009553605315332
263,2104.22,1.3251438185043278
264,2113.93,1.3251422700985198
265,2123.69,1.3405007137194584
266,2133.4900000000002,1.3130041509617942
267,2143.34,1.2949735802308768
268,2153.23,1.3160160031213566
269,2163.17,1.3009444180385827
270,2173.1600000000003,1.291986824982556
271,2183.19,1.283113225547926
272,2187.7616199999998,1.2898555225382051
273,2193.2599999999998,1.2979661955999464
274,2203.39,1.2801544835312422
275,2213.56,1.2625877765481501
276,2223.77,1.2424140746506702
277,2234.04,1.2568013803816085
278,2244.35,1.2481356911981591
279,2254.71,1.225368008371725
280,2265.12,1.2310213319023062
281,2275.57,1.2338116605184997
282,2286.08,1.2361869967631114
283,2296.63,1.1993033380933353
284,2307.23,1.2071796857805748
285,2312.5499999999997,1.1904003621670003
286,2323.22,1.065460718754061
287,2333.95,1.15977708296954
288,2344.7200000000003,1.1434124522706313
289,2355.54,1.1589038279287378
290,2366.41,1.1347202099438594
291,2377.34,1.1368845995873995
292,2382.82,1.1107942963162742
293,2393.82,1.1258096948596357
294,2404.87,1.1099560997600124
295,2415.9700000000003,1.1069765110174046
296,2427.12,1.1167889286318118
297,2432.71,1.09368163934612
298,2443.94,1.1059060671317518
299,2455.22,1.100381501274399
300,2466.56,1.0873709430454643
301,2472.24,1.0771766652024
302,2483.65,1.0817281158732868
303,2495.12,1.035002574172592
304,2506.63,1.0759080375575094
305,2511.88643,1.0446738711246009
306,2512.41,1.0415626800985023
307,2518.2,1.058272395192024
308,2524.0099999999998,1.041145109301413
309,2535.6600000000003,1.0335355360439913
310,2547.36,1.0236589603262374
311,2553.23,1.0400736714832277
312,2565.02,1.0301150913368755
313,2576.86,1.0392095087301914
314,2582.8,1.0342212164427163
315,2594.72,1.0266666298995004
316,2606.7000000000003,1.0144800404038856
317,2612.7099999999996,1.0072897446719455
318,2624.77,1.009199151239799
319,2636.8799999999997,1.0064365553473207
320,2642.9599999999996,1.024928256170915
321,2655.16,1.0221326558498385
322,2667.4199999999996,1.0007550525763629
323,2673.56,1.0051407504475587
324,2685.9100000000003,1.0047161427454852
325,2692.1,0.9861510381563487
326,2704.5200000000004,0.9879913270098101
327,2717.01,0.9740157124188061
328,2723.27,0.9648737043852045
329,2735.84,0.9733585858576689
330,2742.15,0.9401166753637349
331,2754.8,0.9397043528996677
332,2767.52,0.9436140269911353
333,2773.9,0.9543254130527361
334,2786.7,0.9429784832076721
335,2793.1299999999997,0.8941303668089406
336,2806.02,0.9103485325352785
337,2812.4900000000002,0.9377897141682813
338,2825.47,0.930893075466021
339,2831.98,0.9137013551307578
340,2845.06,0.913279411507833
341,2858.19,0.9065772654245758
342,2864.78,0.9147435411527811
343,2878.0,0.9080223906409258
344,2884.0315,0.9059331752537577
345,2884.63,0.9057258932483383
346,2897.9500000000003,0.901144779834764
347,2911.33,0.9048612663607684
348,2931.5099999999998,0.889770246039002
349,2951.83,0.8769282255762522
350,2972.2900000000004,0.8742666049725187
351,2992.8900000000003,0.8656299842278018
352,3006.71,0.8592474703107151
353,3027.55,0.8526885493243122
354,3048.5299999999997,0.8442563281969258
355,3069.6600000000003,0.8339587069184855
356,3090.9399999999996,0.8256902854889916
357,3112.37,0.8174942639084439
358,3126.7299999999996,0.8077384494475636
359,3148.41,0.8015468276152595
360,3170.23,0.7935739056419722
361,3192.2099999999996,0.7766919835075606
362,3206.9399999999996,0.7762820686740809
363,3229.17,0.7650294462879133
364,3251.55,0.7644205237506916
365,3266.56,0.7622432086352451
366,3289.2,0.7546374858361969
367,3311.31121,0.7473316482444783
368,3312.0,0.7471040503101427
369,3319.64,0.7573007032367772
370,3327.29,0.7605794559709073
371,3334.96,0.7586194083200286
372,3342.6499999999996,0.715987160284141
373,3350.3500000000004,0.7582053120557491
374,3358.08,0.709038063249844
375,3365.8199999999997,0.7236655142514343
376,3373.58,0.713539864868016
377,3381.3500000000004,0.7051752152920931
378,3389.15,0.7348207651386572
379,3396.96,0.7363132147927168
380,3404.79,0.7143974640617676
381,3412.6400000000003,0.7108999129458096
382,3420.5099999999998,0.7289225614448428
383,3428.39,0.7270435097513716
384,3436.2999999999997,0.733569857480387
385,3444.2200000000003,0.7068355050168982
386,3452.1600000000003,0.7382166521684006
387,3460.12,0.703190298934894
388,3468.0899999999997,0.7029737455088833
389,3476.09,0.7011591915053591
390,3484.1,0.6897398373093306
391,3492.13,0.7121444827282933
392,3500.18,0.7037784277622472
393,3508.25,0.6844054724111923
394,3516.34,0.6794882166751285
395,3524.4500000000003,0.693502660554056
396,3532.5699999999997,0.698128304240479
397,3540.71,0.7043643475418933
398,3548.8799999999997,0.7155900902657942
399,3557.0600000000004,0.7153929327971909
400,3565.26,0.7135365749435786
401,3573.48,0.6891000167049576
402,3581.71,0.6685805582738322
403,3589.9700000000003,0.6546858992651936
404,3598.25,0.6728088398715462
405,3606.54,0.6772623802853943
406,3614.85,0.6849201203142337
407,3623.19,0.6910294597655597
408,3631.54,0.7217033990243815
409,3633.6099999999997,0.6824236591759696
410,3636.33,0.6613146068147715
411,3639.0499999999997,0.7222676544535733
412,3641.7699999999995,0.6936495020923751
413,3644.4900000000002,0.6277549497311768
414,3647.21,0.6452186973699787
415,3649.9300000000003,0.6922052450087804
416,3652.65,0.6961672926475824
417,3655.37,0.6895138402863841
418,3658.0800000000004,0.7375314881176903
419,3660.8,0.6084085357564921
420,3663.52,0.6589418833952939
421,3666.2400000000002,0.6559329310340958
422,3668.96,0.6734456786728975
423,3671.68,0.6184355263116994
424,3674.4,0.6935262739505013
425,3677.12,0.7041657215893029
426,3679.8399999999997,0.6296613692281048
427,3682.56,0.6211980168669067
428,3685.28,0.6311283645057084
429,3687.99,0.6623419123370146
430,3690.71,0.6484484599758163
431,3693.43,0.6631728076146183
432,3696.15,0.65250795525342
433,3698.8700000000003,0.7208478028922218
434,3701.59,0.6688706505310237
435,3704.31,0.6976347981698254
436,3707.03,0.6579609458086273
437,3709.75,0.6525550934474291
438,3712.47,0.6533129410862308
439,3715.19,0.7696421887250326
440,3717.9,0.9979039365563389
441,3720.62,1.8794550841951405
442,3723.34,3.3537600318339424
443,3726.06,4.441723979472744
444,3728.7799999999997,4.259986927111546
445,3731.5,2.872144874750348
446,3734.22,1.6137938223891497
447,3736.94,1.0114507700279514
448,3739.6600000000003,0.8801511176667534
449,3742.38,0.7812115653055551
450,3745.1,0.683054812944357
451,3747.81,0.7131679607756631
452,3750.53,0.6581822084144651
453,3753.25,0.7812873560532667
454,3755.9700000000003,0.7865458036920686
455,3758.69,0.7790117513308704
456,3761.41,0.7958150989696722
457,3764.13,0.752349946608474
458,3766.85,0.7109392942472759
459,3769.5699999999997,0.7284275418860776
460,3772.29,0.7606403895248794
461,3775.0099999999998,0.7612759371636812
462,3777.72,0.7912670849949874
463,3780.44,0.8542259326337893
464,3783.16,0.879125380272591
465,3785.8799999999997,0.8898627279113929
466,3788.6,0.8143308755501947
467,3791.32,0.7478980231889965
468,3794.04,0.7414158708277984
469,3796.76,0.7281338184666001
470,3799.48,0.7226789661054019
471,3801.8939600000003,0.7681776282091473
472,3802.2,0.773945914971748
473,3804.92,0.805547273520629
474,3807.63,0.8643522322219038
475,3810.35,0.9114365907707849
476,3813.07,0.8882972493196658
477,3815.79,0.8927728078685467
478,3818.5099999999998,0.8747700664174278
479,3821.23,0.9070808249663087
480,3823.95,0.8384466835151897
481,3826.6699999999996,0.8040071420640708
482,3829.39,0.7350795006129517
483,3832.11,0.6836650591618326
484,3834.8300000000004,0.6945981177107136
485,3837.54,0.7074426764119884
486,3840.2599999999998,0.7798674349608694
487,3842.9799999999996,0.8547625935097504
488,3845.7000000000003,0.8613662520586314
489,3848.42,0.9342800106075123
490,3851.1400000000003,0.9103579691563933
491,3853.86,0.9084006277052742
492,3856.58,0.9511555862541553
493,3859.2999999999997,0.9857654448030363
494,3862.02,1.0170976033519172
495,3864.74,1.097495561900798
496,3867.4500000000003,1.097231520602073
497,3870.17,1.083020479150954
498,3872.89,0.9435507376998349
499,3875.6099999999997,0.900550096248716
500,3878.33,0.854174154797597
501,3881.0499999999997,0.8048876133464778
502,3883.7699999999995,0.8469821718953588
503,3886.4900000000002,0.8309118304442399
504,3889.21,0.8423828889931207
505,3891.9300000000003,0.8130065475420019
506,3894.65,0.7940988060908828
507,3897.36,0.8110285647921576
508,3900.0800000000004,0.8579172233410385
509,3902.8,0.8869748818899196
510,3905.52,0.8844062404388006
511,3908.2400000000002,0.9245684989876815
512,3910.96,0.9345476575365624
513,3913.68,0.9310493160854434
514,3916.4,0.8948732746343244
515,3919.12,0.9007918331832054
516,3921.8399999999997,0.8881702917320864
517,3924.5600000000004,0.8826908502809674
518,3927.27,0.8619287089822422
519,3929.99,0.8228416675311232
520,3932.71,0.8310353260800041
521,3935.43,0.831964284628885
522,3938.15,0.8681397431777661
523,3940.8700000000003,0.889223401726647
524,3943.59,0.9373839602755281
525,3946.31,0.901501218824409
526,3949.03,0.88870847737329
527,3951.75,0.896119235922171
528,3954.47,0.887680194471052
529,3957.1800000000003,0.8796125531723268
530,3959.9,0.8020995117212076
531,3962.62,0.7938071702700887
532,3965.34,0.8302760288189697
533,3968.06,0.8147437873678506
534,3970.7799999999997,0.7780050459167317
535,3973.5,0.7997981044656126
536,3976.22,0.7971316630144936
537,3978.94,0.8134948215633746
538,3981.6600000000003,0.8632205801122554
539,3984.38,0.8835705386611366
540,3987.0899999999997,0.9262565973624113
541,3989.81,0.9271123559112923
542,3992.53,0.9093786144601732
543,3995.25,0.9388520730090543
544,3997.9700000000003,0.9693527315579352
545,4000.69,0.9494175901068161
546,4003.41,1.0047694486556973
547,4006.13,1.0216704072045781
548,4008.85,0.9923428657534591
549,4011.5699999999997,0.9548457243023402
550,4014.29,0.9839766828512212
551,4017.0,0.978453141552496
552,4019.72,0.9793088001013769
553,4022.44,0.9710899586502578
554,4025.16,0.9684722171991389
555,4027.8799999999997,0.9408323757480198
556,4030.6,0.9842476342969008
557,4033.32,0.9827551928457818
558,4036.04,0.9737046513946628
559,4038.76,0.9807975099435438
560,4041.48,1.0025908684924247
561,4044.2,0.9834381270413056
562,4046.9100000000003,1.0028387857425805
563,4049.63,0.9803357442914614
564,4052.35,0.9788920028403425
565,4055.07,0.9821445613892233
566,4057.79,1.0047446199381045
567,4060.5099999999998,0.9957677784869853
568,4063.23,0.9477529370358664
569,4065.95,0.9903611955847473
570,4068.6699999999996,0.9950080541336283
571,4071.39,0.9739968126825093
572,4074.11,0.9513222712313903
573,4076.8199999999997,0.9089622299326651
574,4079.54,0.938802588481546
575,4082.2599999999998,0.879487447030427
576,4084.9800000000005,0.890004705579308
577,4087.7000000000003,0.8665230641281889
578,4090.42,0.8413291226770699
579,4093.1400000000003,0.846367481225951
580,4095.86,0.8509409397748319
581,4098.58,0.9500751983237129
582,4101.3,0.9637966568725937
