,lambda (Angstroms),Total Flux (erg/s/cm^2/Angstrom)
0,102.00000000000001,0.33149492089175187
1,103.89,0.3305551956499028
2,104.712855,0.33014606914973416
3,106.07000000000001,0.3266013795845056
4,108.03999999999999,0.3214560200045612
5,110.05,0.31620630456670723
6,113.91,0.30612458388793745
7,117.92,0.29565108048760685
8,120.22644299999999,0.28962898898277045
9,120.94000000000001,0.2880670913539495
10,124.89999999999999,0.27939617283996027
11,126.92999999999999,0.27495114296711726
12,128.10999999999999,0.2723673929956963
13,131.09,0.26584216525873466
14,132.0,0.2638503001644947
15,134.15,0.25914250384701565
16,136.96,0.25299056614253845
17,138.038426,0.25062920502096353
18,140.15,0.24732444847583057
19,143.07999999999998,0.24275044856566474
20,147.09,0.23649904706246158
21,150.86,0.23060038651837783
22,155.09,0.2239822905751486
23,158.489319,0.21866435029734527
24,159.07000000000002,0.2179776811116406
25,162.02,0.21448910825105177
26,166.18,0.20957029670303498
27,170.04999999999998,0.20499375067721165
28,172.81,0.20173025273150813
29,176.83999999999997,0.1969643188699919
30,180.13000000000002,0.19307336801855549
31,181.79000000000002,0.19111084696324107
32,181.970086,0.1908978666636245
33,186.03,0.18723545008662298
34,190.8,0.18293314639706218
35,193.9,0.18013734079399335
36,197.96,0.17647496120126444
37,202.10999999999999,0.17273184404231742
38,204.92,0.1701973200337292
39,208.929613,0.16657751430874013
40,210.17000000000002,0.16573563364376392
41,216.06,0.1617463334087692
42,220.07999999999998,0.15902137536356056
43,223.14000000000001,0.15694567669481965
44,226.76999999999998,0.1544858385681761
45,229.92,0.15240332687976635
46,234.2,0.14960357152218104
47,239.88329199999998,0.1457992409519858
48,240.2,0.1456365496018129
49,245.8,0.14268654224529867
50,252.1,0.13940361353172023
51,256.79,0.13689732948938954
52,259.76,0.13538156775298824
53,263.99,0.13318040307387125
54,268.89,0.13061328297442135
55,273.89,0.12799320295253364
56,275.42287,0.12719001086465445
57,278.98,0.12575879543993604
58,284.17,0.12367207726041006
59,290.12,0.12126723729698433
60,296.2,0.11882734782578627
61,301.01,0.11688838153821018
62,308.02,0.11407516744987163
63,316.227766,0.11078105032006398
64,318.11,0.11021685602655684
65,327.78000000000003,0.10731459488875374
66,337.74,0.10432297910069593
67,348.0,0.10124274567444363
68,356.93,0.09857578884418698
69,363.078055,0.0967527764012828
70,366.08000000000004,0.09608864176925482
71,374.61,0.09418043146548258
72,385.10999999999996,0.09180844369929166
73,394.97999999999996,0.08965798008707218
74,405.12,0.08744577242315066
75,413.6,0.0855699142696936
76,416.86938299999997,0.08483742880809628
77,422.26,0.08391574001391287
78,430.11,0.08258574337325755
79,441.14,0.08079098170568708
80,451.42,0.07908591038786074
81,459.81,0.07764020126338965
82,470.52,0.07586494630104335
83,478.630092,0.07457511185716847
84,480.37000000000006,0.07436728183407477
85,490.43,0.07300816439988037
86,499.55,0.07201111055496455
87,506.5,0.07104014053104295
88,512.37,0.07076398352033508
89,519.49,0.06985484498877799
90,530.37,0.06843338630010648
91,540.23,0.06700472145724792
92,549.5408739999999,0.0658411150614097
93,550.27,0.0657727960418035
94,560.51,0.06522275793523608
95,569.61,0.06462128583272012
96,580.2,0.06363304895297901
97,589.63,0.062875142007185
98,600.59,0.06156109942437455
99,610.35,0.06061062263530249
100,620.27,0.06031158040706531
101,630.3499999999999,0.05929055473966301
102,630.957344,0.059253286468520516
103,640.59,0.05886303677271087
104,649.4999999999999,0.05819939712166935
105,658.54,0.05734710436236345
106,664.63,0.05732310921367177
107,675.4300000000001,0.05677680375786384
108,684.82,0.05565304655323085
109,694.35,0.05557926577046701
110,705.63,0.054079627761067624
111,715.4499999999999,0.05436346235217562
112,724.43596,0.05382164371847647
113,725.4,0.05378332820173475
114,735.49,0.05335121168073852
115,745.73,0.05276894682097624
116,754.36,0.052379989863969564
117,764.86,0.05140116115034614
118,775.4999999999999,0.051445624053874414
119,784.48,0.05067144463974694
120,795.39,0.05050804973349631
121,804.6,0.05022714233326091
122,815.79,0.049723009661313655
123,825.24,0.04941632731905257
124,831.763771,0.04826506078163581
125,834.79,0.047776251677041
126,844.4599999999999,0.04860632826179022
127,854.24,0.048204632654638965
128,864.13,0.04811779285558724
129,874.1400000000001,0.04784032639264408
130,884.26,0.047544754737800454
131,894.5,0.047246978419065395
132,904.86,0.04677112143643891
133,915.33,0.046448498261911955
134,925.93,0.059194813951502626
135,934.5,0.07424570545525658
136,945.32,0.09332602076104629
137,954.07,0.10757561776896313
138,954.992586,0.10820798229661463
139,965.12,0.11515925575442577
140,974.0500000000001,0.05979756334285377
141,985.3199999999999,0.10181832900036593
142,994.44,0.10172859121833494
143,1005.96,0.12298240401998004
144,1015.2700000000001,0.12116810086749005
145,1024.66,0.08233421440112262
146,1034.14,0.10234479170664307
147,1046.12,0.14205204045349273
148,1055.8,0.1386619794743195
149,1065.56,0.1193924251812688
150,1075.42,0.13096639174587127
151,1085.37,0.11422933208236158
152,1095.42,0.13311297327650506
153,1096.4782,0.13263397198281285
154,1105.55,0.12859874308369967
155,1115.78,0.1251251415710048
156,1126.1100000000001,0.1146276755664947
157,1133.91,0.13221289520490917
158,1144.4,0.12432817801349477
159,1154.99,0.12684595633026519
160,1165.68,0.1271447001552204
161,1173.76,0.09738462521655228
162,1184.62,0.12224658340542166
163,1195.58,0.10037710710247583
164,1203.87,0.08560134873099581
165,1215.01,0.0695668023427826
166,1226.25,0.09648750146275421
167,1234.75,0.11960536965846227
168,1246.18,0.12520449424398503
169,1254.8100000000002,0.12129687460033331
170,1258.92541,0.11801447743566812
171,1266.43,0.11210528755821687
172,1275.2,0.12855880639025236
173,1284.04,0.13149153645583883
174,1295.92,0.11318797152135553
175,1304.9099999999999,0.11214418137312279
176,1313.95,0.12781956782028364
177,1326.1100000000001,0.12282535782000442
178,1335.3000000000002,0.11405754405334603
179,1344.56,0.12514441152023867
180,1353.88,0.12166740290160363
181,1366.41,0.11264408370723697
182,1375.8799999999999,0.11450575487478268
183,1385.41,0.1140537099568007
184,1395.02,0.09795827359144847
185,1404.69,0.09824260114056853
186,1414.42,0.1067770526041609
187,1424.23,0.10613429262038301
188,1434.1000000000001,0.10667408655107743
189,1440.72,0.1093232817811886
190,1445.43977,0.10964092385463614
191,1447.3700000000001,0.1097855579079697
192,1454.05,0.10683087989797461
193,1464.1299999999999,0.1010618546373832
194,1474.28,0.10069573475692657
195,1484.5,0.10126204025660474
196,1494.79,0.10126939113641767
197,1505.15,0.09704936739636537
198,1512.1000000000001,0.08976366728117585
199,1515.58,0.09319830903644788
200,1526.09,0.09132619968239869
201,1536.67,0.08194932570848429
202,1543.7600000000002,0.08240926635356435
203,1554.46,0.07991376588845243
204,1565.24,0.08291619442920885
205,1576.08,0.0865564147243665
206,1583.3600000000001,0.0885074142583838
207,1594.33,0.08913108168807748
208,1605.3899999999999,0.08699114174937302
209,1616.51,0.0861581435650698
210,1623.9799999999998,0.08353860198802439
211,1635.23,0.08646502093825717
212,1646.57,0.08658371252009185
213,1654.17,0.08285367807758244
214,1659.58691,0.08453432644269793
215,1665.6299999999999,0.08644118756329519
216,1673.3200000000002,0.07990274315777653
217,1677.18,0.08727000066033803
218,1684.92,0.08832654860588882
219,1696.6000000000001,0.08431089581571222
220,1704.43,0.08190098199318799
221,1716.25,0.07850285978600585
222,1724.1699999999998,0.07754576419540665
223,1736.12,0.08060549610100509
224,1744.13,0.07902861874233089
225,1756.22,0.08141233123092378
226,1764.3300000000002,0.07704956857438847
227,1776.5600000000002,0.07718357164597581
228,1784.76,0.07794489722136554
229,1792.9999999999998,0.0802017286776108
230,1805.43,0.07959911115347595
231,1813.76,0.07503476084164623
232,1826.33,0.07571757390050583
233,1834.76,0.07353813829081501
234,1843.2299999999998,0.06923712856197976
235,1856.01,0.06907913749533104
236,1864.5700000000002,0.06999271599842079
237,1873.18,0.07292694685258
238,1886.16,0.06832902519020909
239,1894.87,0.06600779074650719
240,1903.6200000000001,0.06861611218366084
241,1905.46072,0.0682988153470676
242,1916.81,0.06637992477786128
243,1925.6599999999999,0.06474043040721886
244,1934.55,0.06634202393772606
245,1943.48,0.06787143536938291
246,1956.95,0.06398521858152377
247,1965.98,0.06766811476605471
248,1975.06,0.0688574283270227
249,1984.17,0.06589270031385293
250,1993.3300000000002,0.06436437967712019
251,2007.15,0.06531806452432039
252,2016.4099999999999,0.06391904864046175
253,2025.72,0.06539419013304017
254,2035.07,0.06246573952676823
255,2044.4599999999998,0.06354671682164592
256,2053.9,0.05938585149296066
257,2063.38,0.060399004065425047
258,2072.91,0.06400174401432648
259,2077.6800000000003,0.0615069937264209
260,2087.2799999999997,0.0628050800023342
261,2096.91,0.06020666470410973
262,2106.59,0.0604539367823223
263,2116.31,0.06070369676168452
264,2126.08,0.060840384117483784
265,2135.89,0.058211779374432684
266,2145.75,0.05833766200781863
267,2155.66,0.05945235201764164
268,2165.61,0.057942419928614264
269,2175.6,0.057530145740736546
270,2185.65,0.05648827840458328
271,2187.7616199999998,0.056780974722167685
272,2195.73,0.05790882118670586
273,2205.87,0.056673019399069394
274,2216.05,0.0547535826339669
275,2226.2799999999997,0.05359319964703189
276,2236.56,0.05513515043826435
277,2246.88,0.05366385625203078
278,2257.25,0.05204502584396469
279,2262.45,0.05258917877338189
280,2272.9,0.05301251841038375
281,2283.39,0.053341913069919596
282,2293.9300000000003,0.050970821507622915
283,2304.52,0.0511014337234937
284,2315.15,0.04956829096189847
285,2325.84,0.0433489807341042
286,2336.57,0.04733739552884392
287,2347.36,0.0463474528573846
288,2352.77,0.04794082965510519
289,2363.63,0.04567753827308033
290,2374.54,0.04603135066922295
291,2385.5,0.04394875684353304
292,2396.51,0.0452495867960106
293,2407.57,0.044062970526655636
294,2413.12,0.04434975990324515
295,2424.26,0.04550866367895814
296,2435.4500000000003,0.044227171232838605
297,2446.69,0.045303062564886545
298,2452.33,0.04469838074217751
299,2463.65,0.044231152119293404
300,2475.02,0.04313953727457677
301,2486.4500000000003,0.04339034496366111
302,2492.18,0.040135171941653516
303,2503.68,0.04377099092017232
304,2511.88643,0.04171392537207946
305,2515.2400000000002,0.04087853806534909
306,2526.85,0.040685919024145034
307,2532.68,0.04080876542292026
308,2544.3700000000003,0.0401810013237234
309,2556.1099999999997,0.04145740906328104
310,2567.91,0.040740773009344096
311,2573.83,0.04176431871787742
312,2585.71,0.04133951760594767
313,2597.64,0.04076909833277244
314,2603.63,0.03987081461556208
315,2615.65,0.03932278465214495
316,2627.7200000000003,0.040063116527482324
317,2633.78,0.04055147338452826
318,2645.94,0.04209107456962375
319,2652.04,0.04237799889767329
320,2664.28,0.03991624502477598
321,2676.58,0.04067665735838408
322,2682.75,0.04057746226068992
323,2695.13,0.03921523953630523
324,2707.57,0.03959606301842594
325,2713.81,0.038294658494988094
326,2726.3399999999997,0.038104891286866914
327,2732.62,0.038850244234432674
328,2745.24,0.036022976336069594
329,2757.9100000000003,0.036231690276461025
330,2764.26,0.03679874379828309
331,2777.02,0.03755583704843263
332,2783.4300000000003,0.036257716776760096
333,2796.27,0.03236196496891684
334,2802.7200000000003,0.033437242168247915
335,2815.66,0.03665524403791367
336,2822.15,0.03737396870824835
337,2835.17,0.03624419551992131
338,2848.26,0.035602822905850574
339,2854.83,0.03468475251819246
340,2868.0,0.03630967484612894
341,2874.61,0.03621675192947442
342,2884.0315,0.036037087407266785
343,2887.88,0.035968856818037784
344,2894.54,0.03575349341626225
345,2907.9,0.03712746770339122
346,2928.06,0.03599185740612475
347,2948.3500000000004,0.03534637815356837
348,2968.79,0.03535468549106209
349,2989.37,0.03503876164593591
350,3010.09,0.03491786661818982
351,3030.9599999999996,0.034604038180493825
352,3051.97,0.03435513856017793
353,3073.12,0.03417027775724213
354,3087.3,0.033942179403311644
355,3108.71,0.03375897068979602
356,3130.25,0.03314234302099048
357,3151.95,0.03289848971490504
358,3166.5,0.0327374389497648
359,3188.45,0.03149224996042954
360,3210.5499999999997,0.03183864756114438
361,3232.8,0.030796321751909314
362,3247.7299999999996,0.03167603634822934
363,3270.24,0.03202822262841445
364,3292.91,0.03166873327131966
365,3308.11,0.03133307772972986
366,3311.31121,0.0313610120850573
367,3323.38,0.031477671447995625
368,3331.04,0.031463115832902344
369,3338.72,0.030638854563461566
370,3346.4100000000003,0.03125855046684703
371,3354.13,0.03032713788871124
372,3361.8599999999997,0.030481882483401706
373,3369.61,0.030129281423744665
374,3377.3799999999997,0.02945291470974012
375,3385.16,0.03010090516856183
376,3392.9700000000003,0.03088124714586228
377,3400.7900000000004,0.03163034629598898
378,3408.63,0.029888999791768185
379,3416.49,0.030042167633199883
380,3424.36,0.03099785264745783
381,3432.25,0.031513022007368274
382,3440.17,0.03056403288575747
383,3448.1,0.02921162093697291
384,3456.05,0.02919639333384085
385,3464.01,0.028381442903535038
386,3472.0,0.029770033991707974
387,3479.9999999999995,0.028193812252707156
388,3488.02,0.029244644859358838
389,3496.07,0.02906652898448927
390,3504.12,0.0293233131096197
391,3512.2,0.028874438753228877
392,3520.3,0.029458818742490546
393,3528.4100000000003,0.02799779590457847
394,3536.55,0.029263454585145142
395,3544.7000000000003,0.02969107043853806
396,3552.8700000000003,0.029843510637583476
397,3561.06,0.02943713518228139
398,3569.27,0.027817524072631807
399,3577.5,0.027392517308634713
400,3585.7499999999995,0.026481274890290125
401,3594.01,0.027158199644771782
402,3602.2999999999997,0.028975165917732186
403,3610.6,0.02768759936351884
404,3618.92,0.02835143715495799
405,3623.13,0.027301196914808812
406,3625.87,0.030343992269201033
407,3628.6099999999997,0.030688417623593256
408,3631.35,0.027142772977985473
409,3634.0899999999997,0.028107268332377696
410,3636.84,0.028706690859596165
411,3639.58,0.027982026213988386
412,3642.32,0.027478301568380607
413,3645.06,0.029055726922772827
414,3647.7999999999997,0.028604752277165045
415,3650.54,0.026068337631557265
416,3653.2799999999997,0.026381392985949492
417,3656.02,0.027802028340341713
418,3658.7599999999998,0.028776503694733932
419,3661.4999999999995,0.02994482904912615
420,3664.25,0.02766484157634462
421,3666.99,0.02833711693073684
422,3669.73,0.02919754228512906
423,3672.47,0.028428687639521284
424,3675.21,0.028633412993913504
425,3677.95,0.028277938348305724
426,3680.6899999999996,0.027938143702697944
427,3683.43,0.029941789057090166
428,3686.1699999999996,0.028745294411482384
429,3688.92,0.027440316938700852
430,3691.66,0.027646462293093074
431,3694.4,0.028827617647485294
432,3697.14,0.02814714300187752
433,3699.8799999999997,0.02835899835626974
434,3702.62,0.027577303710661957
435,3705.3599999999997,0.02538014906505418
436,3708.1,0.0269832344194464
437,3710.84,0.028154419773838618
438,3713.5800000000004,0.03039754512823084
439,3716.33,0.03146022765544931
440,3719.0699999999997,0.03763758300984153
441,3721.81,0.06150046836423375
442,3724.5499999999997,0.09970339371862598
443,3727.29,0.1268434390730182
444,3730.0299999999997,0.11440168442741042
445,3732.7700000000004,0.07799369978180262
446,3735.51,0.04726471513619485
447,3738.25,0.03387777049058707
448,3740.9900000000002,0.031334225844979295
449,3743.74,0.028458388372197767
450,3746.48,0.028513443726589986
451,3749.22,0.025757519080982207
452,3751.9599999999996,0.029387594435374427
453,3754.7000000000003,0.027888899789766646
454,3757.44,0.027941105144158866
455,3760.1800000000003,0.02835965049855109
456,3762.92,0.029553635852943308
457,3765.6600000000003,0.02922809120733553
458,3768.4,0.028747176561727747
459,3771.1499999999996,0.02857828908894622
460,3773.89,0.030879844443338442
461,3776.63,0.03147370979773066
462,3779.3700000000003,0.032810245152122886
463,3782.11,0.0323264805065151
464,3784.8500000000004,0.031579005860907325
465,3787.59,0.03142880121529954
466,3790.33,0.029694906569691766
467,3793.07,0.031085611924083982
468,3795.81,0.030651737278476206
469,3798.5600000000004,0.029035999805694674
470,3801.3,0.0323168451600869
471,3801.8939600000003,0.03232538070223828
472,3804.0400000000004,0.032357641313221046
473,3806.78,0.03166757070116012
474,3809.52,0.030810730089099198
475,3812.26,0.03101441947703827
476,3815.0,0.03220594886497735
477,3817.7400000000002,0.03168122825291642
478,3820.48,0.0306675776408555
479,3823.23,0.031129130822181213
480,3825.9700000000003,0.02892381021012029
481,3828.71,0.028319269598059367
482,3831.4500000000003,0.028401788985998443
483,3834.19,0.027402398373937518
484,3836.93,0.027125707761876595
485,3839.67,0.02920101714981567
486,3842.41,0.029528716537754747
487,3845.15,0.03277147592569382
488,3847.89,0.031194775313632895
489,3850.6400000000003,0.03237473849495861
490,3853.38,0.033208467882897684
491,3856.12,0.032666647270836756
492,3858.86,0.03303284665877584
493,3861.6,0.03469191604671491
494,3864.34,0.03489133543465399
495,3867.08,0.03608000482259306
496,3869.8199999999997,0.03612547421053214
497,3872.56,0.035175973598471216
498,3875.2999999999997,0.03261001298641029
499,3878.05,0.032718036167736005
500,3880.79,0.03154759555567508
501,3883.53,0.031173974943614152
502,3886.27,0.03530762433155323
503,3889.0099999999998,0.0339390537194923
504,3891.75,0.03384482310743138
505,3894.49,0.03269433249537046
506,3897.23,0.02937858188330953
507,3899.97,0.0333326412712486
508,3902.7099999999996,0.03263687065918768
509,3905.46,0.034462553840513395
510,3908.2,0.03238267322845247
511,3910.94,0.03367113261639155
512,3913.68,0.03414708200433062
513,3916.42,0.0329353013922697
514,3919.16,0.03261443078020877
515,3921.8999999999996,0.03259004016814785
516,3924.64,0.029931429556086925
517,3927.3799999999997,0.029701778944026
518,3930.12,0.026864968331965076
519,3932.87,0.026923131513290788
520,3935.61,0.028295690901229863
521,3938.35,0.029368900289168942
522,3941.0899999999997,0.030463489677108015
523,3943.83,0.03188736906504709
524,3946.5699999999997,0.03183161845298617
525,3949.31,0.03216074784092524
526,3952.0499999999997,0.030588327228864315
527,3954.7900000000004,0.031450576616803394
528,3957.54,0.030959919798129107
529,3960.2799999999997,0.029243529186068182
530,3963.02,0.02808448857400726
531,3965.7599999999998,0.027847717961946336
532,3968.5,0.032082577349885406
533,3971.24,0.03158351673782449
534,3973.9799999999996,0.03009947612576356
535,3976.7200000000003,0.029758635513702635
536,3979.46,0.03114972490164171
537,3982.2000000000003,0.032449584289580787
538,3984.95,0.0335639874709065
539,3987.69,0.03313619685884558
540,3990.43,0.035066106246784655
541,3993.1699999999996,0.03431046563472373
542,3995.91,0.03471942502266281
543,3998.65,0.03384262441060188
544,4001.3900000000003,0.035277903798540955
545,4004.13,0.03625134318648003
546,4006.8700000000003,0.0352947125744191
547,4009.61,0.03490113196235818
548,4012.3599999999997,0.036391835143683895
549,4015.1,0.03570177453162297
550,4017.8399999999997,0.03529537391956205
551,4020.5800000000004,0.035806953307501124
552,4023.32,0.035332132695440194
553,4026.0600000000004,0.03487156208337927
554,4028.8,0.03322645147131835
555,4031.54,0.03405021085925742
556,4034.28,0.0351448102471965
557,4037.02,0.03631352963513557
558,4039.7699999999995,0.03519138281646129
559,4042.51,0.03455548220440036
560,4045.2500000000005,0.034565311592339436
561,4047.9900000000002,0.03424444098027851
562,4050.73,0.03484013036821759
563,4053.4700000000003,0.036487799756156666
564,4056.21,0.035236109144095744
565,4058.9500000000003,0.03422815853203482
566,4061.69,0.03276834791997389
567,4064.43,0.03360208730791297
568,4067.1800000000003,0.03480343048923869
569,4069.92,0.03479900987717776
570,4072.6600000000003,0.033816729265116835
571,4075.4,0.03428981865305591
572,4078.14,0.03363966804099498
573,4080.88,0.03385618742893406
