,lambda (Angstroms),Total Flux (erg/s/cm^2/Angstrom)
0,101.98,0.003054664309459091
1,104.11,0.003639642700501134
2,104.712855,0.003805209436622645
3,106.05,0.003498799585570175
4,108.02000000000001,0.0030473695562509553
5,110.03,0.002586773435012933
6,113.9,0.00169995403745359
7,117.9,0.0007833448411696093
8,120.22644299999999,0.00025023508099961724
9,120.92,0.00024288113111734048
10,124.88000000000001,0.00020089230799698486
11,126.91,0.00017936773492170646
12,128.09,0.00016685591428165463
13,131.07,0.0001352582663612316
14,131.98,0.00012560932245826218
15,134.12,0.00010291839529316446
16,136.93,7.312330565199389e-05
17,138.038426,6.13704040623305e-05
18,140.12,6.059090066796533e-05
19,143.06,5.949001307110658e-05
20,147.06,5.799234781094909e-05
21,150.84,5.657696329326926e-05
22,155.06,5.499686861223411e-05
23,158.489319,5.371290501444179e-05
24,159.04000000000002,5.339609395790988e-05
25,162.0,5.169323874323701e-05
26,166.15,4.9305891586915235e-05
27,170.02,4.707975504898143e-05
28,173.18,4.5262111107317135e-05
29,176.80999999999997,4.3174367881573054e-05
30,180.10000000000002,4.128217568401432e-05
31,181.970086,4.020673074643869e-05
32,182.18,4.024566169318793e-05
33,185.99999999999997,4.0954399903517806e-05
34,191.20999999999998,4.19213411514939e-05
35,193.87,4.241558346132048e-05
36,197.93,4.316988877758209e-05
37,202.07,4.3939580528154256e-05
38,204.88,4.446257102581315e-05
39,208.929613,4.521573883924848e-05
40,210.14000000000001,4.6577729991964166e-05
41,216.03,5.32094542649633e-05
42,220.04,5.772503427143639e-05
43,223.1,6.117073502290964e-05
44,227.25,6.584574327369852e-05
45,229.88000000000002,6.883848165048765e-05
46,234.16,7.37280757138554e-05
47,239.88329199999998,8.023685161651442e-05
48,240.16,7.998409589633749e-05
49,245.76000000000002,7.482782268678468e-05
50,252.06,6.905912393853781e-05
51,256.75,6.470195435928736e-05
52,259.71999999999997,6.2029879077971e-05
53,263.94,5.818327351327228e-05
54,268.84999999999997,5.369484207614656e-05
55,273.85,4.9125114942617234e-05
56,275.42287,4.768902622013978e-05
57,278.94,5.121363879091327e-05
58,284.12,5.64095108052883e-05
59,290.07,6.235286196098934e-05
60,296.15,6.848017535353761e-05
61,300.96000000000004,7.33104412168859e-05
62,307.97,8.038996212687991e-05
63,316.227766,8.874993248770705e-05
64,318.06,8.746575788821234e-05
65,327.72,8.070295592261946e-05
66,337.68,7.373332557921317e-05
67,347.94,6.656450085799345e-05
68,356.87000000000006,6.035799487841327e-05
69,363.078055,5.606536399287263e-05
70,366.02000000000004,5.782526599613187e-05
71,375.40999999999997,6.3411145611048e-05
72,385.03999999999996,6.90876329669205e-05
73,394.92,7.512669930295587e-05
74,405.05,8.124974861915405e-05
75,413.53000000000003,8.638160946627749e-05
76,416.86938299999997,8.837328232890215e-05
77,422.19,9.034341806642669e-05
78,430.04,9.330305449584101e-05
79,441.07,9.752017321003715e-05
80,451.34000000000003,0.00010137696117692694
81,459.73,0.00010456526703205891
82,470.44,0.00010862067364212604
83,478.630092,0.00011178788372596128
84,480.29,0.00011112856588202375
85,490.35,0.0001069849222600508
86,499.46999999999997,0.0001034538990838686
87,506.42,0.00010071510334105427
88,512.28,9.997851994495475e-05
89,519.41,9.73318535210316e-05
90,530.28,9.312669183406878e-05
91,540.14,8.90036134133279e-05
92,549.5408739999999,8.647633347607669e-05
93,550.18,8.649623790541385e-05
94,560.41,8.677234347681042e-05
95,569.52,8.705621706971587e-05
96,580.11,8.5832293277056e-05
97,589.53,8.702311491757953e-05
98,600.49,8.644959427852835e-05
99,610.25,8.675782151966525e-05
100,620.16,8.945242652577863e-05
101,630.24,9.027114433219872e-05
102,630.957344,9.026669792648775e-05
103,640.4799999999999,9.344404447226416e-05
104,649.39,9.900501235427458e-05
105,658.43,0.00010327536479573068
106,664.52,0.00010706489684976473
107,675.3199999999999,0.00011100918640371672
108,684.71,0.00011369679804368054
109,694.24,0.00012610533536304742
110,705.52,0.00012794726867495284
111,715.33,0.00014035276735312592
112,724.43596,0.0001459301306583233
113,725.28,0.00014637611849733172
114,735.37,0.0001515998061167641
115,745.6,0.00016263575550693184
116,754.24,0.00017075410478660432
117,764.73,0.00017841106746528077
118,775.37,0.0001908340220411737
119,784.34,0.00020226890549472257
120,795.26,0.00021147666361208642
121,804.46,0.00022105827997470065
122,815.66,0.00023014342163353536
123,825.1,0.000247942081031696
124,831.763771,0.0002336722404965339
125,834.65,0.00022647273970158178
126,844.3199999999999,0.0002619818764834447
127,854.1,0.0002690421918636535
128,865.9799999999999,0.0002837981804850114
129,876.01,0.0003007035926796427
130,884.11,0.00032273618946693217
131,894.35,0.00033889617898567837
132,904.7099999999999,0.00034311182697534747
133,915.1800000000001,0.0004989472535633624
134,925.78,0.003115997618494877
135,934.34,0.0070316299894207035
136,945.1600000000001,0.01396038341154891
137,953.9100000000001,0.0202869258000537
138,954.992586,0.02061748600015354
139,964.9499999999999,0.023659942907070623
140,973.88,0.0039505983145796866
141,985.1600000000001,0.02153333982932798
142,994.28,0.023068170968911707
143,1005.79,0.03385736068564511
144,1015.1,0.032860324557303505
145,1024.49,0.013891555368782801
146,1033.97,0.023765972737560623
147,1045.94,0.04660475485826426
148,1055.6200000000001,0.04671169457659436
149,1065.3899999999999,0.037717760852222976
150,1075.24,0.04564897406767251
151,1085.19,0.03677582345789817
152,1095.23,0.049360869405422364
153,1096.4782,0.04922259766509251
154,1105.37,0.04823686710972456
155,1115.6000000000001,0.04713930234771193
156,1125.92,0.04319328681066694
157,1133.72,0.05537245297452829
158,1144.21,0.05097077708464437
159,1154.8,0.05498925922250227
160,1165.49,0.05770915938810198
161,1176.27,0.04096175877866932
162,1184.42,0.05731049303962701
163,1195.38,0.03975331088012961
164,1203.67,0.028942858379925832
165,1214.81,0.018529674670363698
166,1226.05,0.04002483898854338
167,1234.55,0.0622525713465974
168,1245.97,0.06968577411471234
169,1254.6,0.06747351090883073
170,1258.92541,0.0641302893873297
171,1266.21,0.058500775093609486
172,1274.99,0.07675358986223721
173,1283.83,0.08130181514181228
174,1295.7099999999998,0.06533317630938601
175,1304.69,0.06518308278117155
176,1313.7299999999998,0.08242797976390442
177,1325.89,0.07963539331589908
178,1335.08,0.07147021157600032
179,1344.33,0.08571888034704889
180,1353.65,0.0839616797142027
181,1366.1799999999998,0.07587193641703929
182,1375.6499999999999,0.08055281706156146
183,1385.18,0.08242837821703096
184,1394.78,0.07296326996860569
185,1404.4499999999998,0.07675520231628566
186,1414.1899999999998,0.07871975526007086
187,1423.99,0.0814839087148034
188,1433.8600000000001,0.08167879276564118
189,1440.48,0.08671225914016459
190,1445.43977,0.08806416313760225
191,1447.13,0.08852487345695564
192,1453.8100000000002,0.08671274120034736
193,1463.8799999999999,0.08092875317279567
194,1474.03,0.08130396571702113
195,1484.25,0.08338623876155159
196,1494.54,0.08552510230638705
197,1504.9,0.0818658063515275
198,1511.8400000000001,0.07330501595319495
199,1515.33,0.07890085089697298
200,1525.83,0.07692980594272344
201,1536.41,0.06778509156025106
202,1543.4999999999998,0.07552708223400066
203,1554.2,0.071798098709194
204,1564.97,0.07330481568469233
205,1575.82,0.07872092323196782
206,1586.74,0.0831936212795483
207,1594.07,0.08572104366862934
208,1605.12,0.0845471926453477
209,1616.24,0.08532563212237104
210,1623.6999999999998,0.08130483544058996
211,1634.96,0.08710953591822332
212,1646.29,0.08893637689616168
213,1653.89,0.08262401121499059
214,1659.58691,0.08678654119291664
215,1665.36,0.09100499325712119
216,1673.0400000000002,0.08168037411294028
217,1676.9,0.09206147558474519
218,1684.64,0.09661766957225035
219,1696.3200000000002,0.09121513920714187
220,1704.15,0.08812602789217615
221,1715.96,0.08435630431238753
222,1723.88,0.08455059769495095
223,1735.83,0.09059253142242986
224,1743.8400000000001,0.08894069950252241
225,1755.93,0.09551726053726885
226,1764.03,0.08771998331489053
227,1776.26,0.0908037016569045
228,1784.46,0.09292128965400301
229,1796.8300000000002,0.09956017530328452
230,1805.1200000000001,0.09933279799791213
231,1813.46,0.09249259330227817
232,1826.03,0.0948678293905133
233,1834.45,0.09164744887046078
234,1842.92,0.08475169096014666
235,1855.7,0.0857311280092831
236,1864.26,0.08874529479649812
237,1872.8700000000001,0.09618965419345153
238,1885.8500000000001,0.0893580216815416
239,1894.5500000000002,0.08633089577602414
240,1903.3,0.0916503824802451
241,1905.46072,0.09120806203766015
242,1916.4900000000002,0.08894894321257173
243,1925.3400000000001,0.08772522778778594
244,1934.22,0.09018358034461105
245,1943.1499999999999,0.0950852695374543
246,1956.6200000000001,0.08977246328074642
247,1965.6499999999999,0.09842382574562601
248,1974.73,0.10141579484652376
249,1983.8400000000001,0.09640146192903239
250,1993.0,0.09421325564755918
251,2006.81,0.0970742265157748
252,2016.0800000000002,0.09442671283354154
253,2025.3799999999999,0.09887079713291919
254,2034.7299999999998,0.09464187806831498
255,2044.1200000000001,0.0986475163125253
256,2053.56,0.09486203119275378
257,2063.04,0.09573591338179681
258,2072.56,0.10258241287965435
259,2077.34,0.09864516128299038
260,2086.93,0.10234514607127335
261,2096.56,0.09728972816837084
262,2106.2400000000002,0.0984134969014865
263,2115.96,0.09978115294341668
264,2125.7200000000003,0.10140573629416137
265,2135.54,0.09485637560812787
266,2145.39,0.09795993290370526
267,2155.3,0.10163194616250446
268,2165.24,0.09863960740291453
269,2175.24,0.0981799546065464
270,2185.28,0.09750592911899279
271,2187.7616199999998,0.09869445567701568
272,2195.37,0.1023392702818052
273,2205.5,0.09977767367071803
274,2215.68,0.09529256974170842
275,2225.9100000000003,0.09291060849477636
276,2236.1800000000003,0.09977875939350636
277,2246.5,0.09573189297431389
278,2256.87,0.09226662923719901
279,2267.29,0.09441979818216166
280,2272.52,0.09728791872747401
281,2283.01,0.10023957142734526
282,2293.54,0.09505382627287853
283,2304.13,0.0959006543369049
284,2314.77,0.0919778350830088
285,2325.45,0.07389012797477475
286,2336.18,0.08618132354861825
287,2346.97,0.08322365234095482
288,2352.38,0.09060524254174639
289,2363.23,0.08337773455257602
290,2374.14,0.08647512978189872
291,2385.1,0.080121797693299
292,2396.11,0.08562242828677681
293,2407.17,0.08249801156233219
294,2412.72,0.0845952392729409
295,2423.86,0.09040063683982036
296,2435.04,0.08710329655236188
297,2446.28,0.09222891948339644
298,2457.58,0.09113820563292409
299,2463.24,0.09070852924410343
300,2474.6099999999997,0.08759858914853964
301,2486.0299999999997,0.08960630173505342
302,2497.51,0.08514846754006027
303,2503.2700000000004,0.09464089651539472
304,2511.88643,0.08708875568450647
305,2514.8199999999997,0.08451731781112014
306,2520.62,0.08626681739910326
307,2526.4300000000003,0.08313478677947946
308,2532.25,0.08446832595224872
309,2543.94,0.08366277325975263
310,2555.6800000000003,0.0900233395292219
311,2567.4799999999996,0.08773798455304964
312,2573.4,0.09312606164974964
313,2585.2799999999997,0.09223709501272197
314,2597.2099999999996,0.09114674733765966
315,2603.2,0.08803545298111119
316,2615.21,0.08699435364519348
317,2627.28,0.09126464306363422
318,2633.34,0.09488891725383727
319,2645.49,0.10328387501142261
320,2657.7099999999996,0.10613062131575945
321,2663.83,0.09633292426032095
322,2676.13,0.10083233890380239
323,2682.3,0.10151221081032927
324,2694.68,0.09645674379295531
325,2707.12,0.09957416552993979
326,2713.36,0.09442195598321819
327,2725.88,0.09394938605934726
328,2732.1600000000003,0.09903940568219795
329,2744.78,0.08622743368225777
330,2757.4500000000003,0.08860181064428298
331,2763.8,0.09254602881388518
332,2776.56,0.09686465390744804
333,2782.96,0.09101101103901563
334,2795.7999999999997,0.07394986447172308
335,2802.25,0.07921978056525604
336,2815.18,0.09629497212950117
337,2828.1800000000003,0.10172448224049781
338,2834.7,0.09847480688078229
339,2847.7799999999997,0.09553060533092353
340,2854.35,0.09142610893317338
341,2867.52,0.10159196551485229
342,2874.1299999999997,0.10250862828667442
343,2884.0315,0.10212467431096184
344,2887.4,0.1019941212934948
345,2894.06,0.1022025184638456
346,2907.4100000000003,0.11124371279180105
347,2927.5699999999997,0.10714640422637646
348,2947.86,0.10560509560571847
349,2968.29,0.10774388692557836
350,2988.8700000000003,0.10841757818170743
351,3009.5899999999997,0.11010426937835437
352,3030.4500000000003,0.11053476051551919
353,3051.45,0.11096595159320191
354,3072.61,0.11191714260290506
355,3086.79,0.11289613657821652
356,3108.18,0.11359792749019906
357,3129.73,0.11222271833420204
358,3151.4199999999996,0.11291750911872289
359,3173.2700000000004,0.11387529983526419
360,3187.92,0.10845179361088571
361,3210.0099999999998,0.11269478422545766
362,3232.27,0.10754877476780134
363,3247.1800000000003,0.11544496843295607
364,3269.69,0.12023625886908168
365,3292.3599999999997,0.11958974923722772
366,3307.55,0.11925734278341822
367,3311.31121,0.11931022473397647
368,3322.82,0.1194719477119039
369,3330.48,0.12222208549799081
370,3338.16,0.11669432312163927
371,3345.8500000000004,0.12076386066406855
372,3353.57,0.1155617979628402
373,3361.2999999999997,0.11767993518039264
374,3369.05,0.11683937223550667
375,3376.81,0.11002770920940148
376,3384.6,0.11307564593963869
377,3392.3999999999996,0.12197108258865667
378,3400.22,0.12738691907523622
379,3408.06,0.11831155539937739
380,3415.91,0.12020059164229935
381,3423.79,0.12728982764156369
382,3431.68,0.1263804635596088
383,3439.59,0.12547729931521548
384,3447.52,0.11309653490838377
385,3455.47,0.11921367033911365
386,3463.4300000000003,0.11251990568862431
387,3471.42,0.12081054079447735
388,3479.4199999999996,0.11168637581911119
389,3487.44,0.1179986106813066
390,3495.4800000000005,0.1171509453810636
391,3503.54,0.12292157991838218
392,3511.62,0.12064341429326236
393,3519.7099999999996,0.12117134858692333
394,3527.8199999999997,0.11462338271814587
395,3535.96,0.1222195166057108
396,3544.1099999999997,0.1270664504120565
397,3552.2799999999997,0.12849708405596383
398,3560.47,0.1264133175374327
399,3568.6800000000003,0.11767105085646318
400,3576.9,0.11417148409427444
401,3585.1499999999996,0.10875531708842807
402,3593.4100000000003,0.11437305000136251
403,3601.7,0.12681598267063932
404,3609.33,0.049722740700383836
405,3612.07,0.08499272844632093
406,3614.8,0.08937452627347721
407,3617.5299999999997,0.12187235410063352
408,3620.27,0.1055051318465706
409,3623.0,0.1272121096737269
410,3625.7400000000002,0.128253287419664
411,3628.47,0.1283229652468203
412,3631.2100000000005,0.10803944299275736
413,3633.94,0.11673342081991366
414,3636.67,0.14382889864706996
415,3639.4100000000003,0.13853027639300702
416,3642.14,0.13992625422016333
417,3644.8799999999997,0.13703023196610042
418,3647.61,0.12514250979325672
419,3650.35,0.11419848753919382
420,3653.0800000000004,0.14427286536635012
421,3655.81,0.1552376431935064
422,3658.5499999999997,0.13803702093944348
423,3661.28,0.13845399876659978
424,3664.02,0.12868347651253687
425,3666.7499999999995,0.09396409433969316
426,3669.48,0.13369053216684945
427,3672.22,0.14484900991278657
428,3674.9500000000003,0.12189268773994284
429,3677.69,0.13688416548587995
430,3680.4199999999996,0.12617694331303625
431,3683.16,0.1321830210589733
432,3685.89,0.14607109888612962
433,3688.6200000000003,0.1287879767132859
434,3691.36,0.134544054459223
435,3694.0899999999997,0.12382983228637928
436,3696.83,0.13080811003231638
437,3699.56,0.10719208785947268
438,3702.3,0.13234946560540975
439,3705.03,0.12744044343256605
440,3707.7599999999998,0.13668302125972237
441,3710.5,0.13272459900565944
442,3713.23,0.12787107683281573
443,3715.9700000000003,0.12452365457875282
444,3718.7,0.1300235324059091
445,3721.4399999999996,0.1805053101518462
446,3724.17,0.2681796879790025
447,3726.9,0.34270266580615877
448,3729.6400000000003,0.31768264355209586
449,3732.37,0.28164432137925216
450,3735.1099999999997,0.15915969912518926
451,3737.84,0.13449527695234556
452,3740.58,0.14314695469828267
453,3743.3100000000004,0.14880653252543893
454,3746.04,0.12987071035259523
455,3748.7799999999997,0.12926618809853233
456,3751.51,0.14291126592568865
457,3754.25,0.13834864367162572
458,3756.9799999999996,0.134356221498782
459,3759.72,0.15854139924471908
460,3762.45,0.15263247707187538
461,3765.1800000000003,0.1371825548990317
462,3767.92,0.14754933264496878
463,3770.6499999999996,0.15859751047212506
464,3773.39,0.15659708821806217
465,3776.12,0.16981176604521847
466,3778.86,0.18187964379115554
467,3781.59,0.18503262161831183
468,3784.3199999999997,0.18765779944546815
469,3787.06,0.1876224771914052
470,3789.79,0.1770195550185615
471,3792.53,0.1620409327644986
472,3795.2599999999998,0.1433413105916549
473,3798.0000000000005,0.13972308833759198
474,3800.73,0.1602565661647483
475,3801.8939600000003,0.15791188080346444
476,3803.46,0.15475724664211235
477,3806.2000000000003,0.17167222902494847
478,3808.93,0.21157931147208078
479,3811.6699999999996,0.2029126938549169
480,3814.4,0.1988647763020492
481,3817.13,0.1757974587491815
482,3819.8700000000003,0.17385254113201762
483,3822.6,0.17813742357914994
484,3825.3399999999997,0.17438710596198603
485,3828.07,0.1611592884091184
486,3830.81,0.14082007079195447
487,3833.5399999999995,0.1381122532390868
488,3836.27,0.12684943568621912
489,3839.0099999999998,0.1447991180690552
490,3841.7400000000002,0.17220710051618754
491,3844.48,0.18755958289902364
492,3847.2099999999996,0.18003276534615595
493,3849.95,0.19184374772899204
494,3852.68,0.18922633017612436
495,3855.4100000000003,0.18290081262325666
496,3858.15,0.19096909500609277
497,3860.8799999999997,0.18607397745322513
498,3863.62,0.1998015598360612
499,3866.35,0.20679454228319355
500,3869.09,0.22200792466602962
501,3871.82,0.19462850711316196
502,3874.5499999999997,0.17296388956029426
503,3877.29,0.17181757194313038
504,3880.02,0.1612423543902627
505,3882.76,0.1837332367730988
506,3885.49,0.1720400192202311
507,3888.2299999999996,0.16534560160306722
508,3890.96,0.18735118405019952
509,3893.69,0.18644196649733183
510,3896.4300000000003,0.18509424888016796
511,3899.16,0.18810133132730028
512,3901.8999999999996,0.20223161371013637
513,3904.63,0.1936840961572687
514,3907.37,0.2060436785401048
515,3910.1000000000004,0.2109256609872371
516,3912.83,0.19886444343436943
517,3915.5699999999997,0.19160052581720555
518,3918.3,0.20521100826433786
519,3921.04,0.19934979064717395
520,3923.77,0.20232217309430628
521,3926.5099999999998,0.1818162554771424
522,3929.24,0.14900653792427468
523,3931.9700000000003,0.14538212037140702
524,3934.71,0.13301460275424312
525,3937.44,0.15531878520137546
526,3940.18,0.18153156758421152
527,3942.91,0.18399005003134386
528,3945.65,0.17735113241417996
529,3948.38,0.19926651486131228
530,3951.1099999999997,0.1995168973084446
531,3953.85,0.18502437969128072
532,3956.58,0.18705236213841303
533,3959.32,0.18651714452124912
534,3962.0499999999997,0.16824802696838143
535,3964.7799999999997,0.1430488094155138
536,3967.52,0.14196519179834985
537,3970.25,0.1511036742454822
538,3972.9900000000002,0.14966585662831827
539,3975.72,0.18064303907545062
540,3978.4599999999996,0.20803622145828674
541,3981.19,0.19255170390541904
542,3983.92,0.20821758635255136
543,3986.6600000000003,0.20894606873538746
544,3989.39,0.22276495118251977
545,3992.1299999999997,0.23099973356535586
546,3994.86,0.21270301601248817
547,3997.6,0.2223751983953243
548,4000.3300000000004,0.2305833808424566
549,4003.06,0.22334826328958896
550,4005.7999999999997,0.231819245672425
551,4008.53,0.23986072811955736
552,4011.27,0.23761711050239345
553,4014.0,0.2468530929495258
554,4016.74,0.2508034753323619
555,4019.47,0.2486721577794942
556,4022.2000000000003,0.2556097402266265
557,4024.94,0.23515912260946262
558,4027.67,0.23061130505659494
559,4030.41,0.23628378743943104
560,4033.14,0.21766066988656335
561,4035.88,0.23331855226939946
562,4038.61,0.24537363471653176
563,4041.34,0.25055431716366405
564,4044.08,0.2414292995465002
565,4046.81,0.2369856819936325
