,lambda (Angstroms),Total Flux (erg/s/cm^2/Angstrom)
0,102.00000000000001,0.004023402225330809
1,103.9,0.004709464533224833
2,104.712855,0.0050029746306146025
3,106.08,0.004591077769503765
4,108.05,0.003997551266296795
5,110.06,0.0033919735764999944
6,113.93,0.0022260104546109063
7,117.92999999999999,0.0010208806580533265
8,120.22644299999999,0.00032900393454863766
9,120.95,0.0003189174031191101
10,124.92,0.0002635735055425901
11,126.95,0.000235274334849682
12,128.12,0.0002189639838048285
13,131.1,0.00017742161016856938
14,132.01,0.00016473640882912788
15,133.85,0.0001390864058702899
16,136.97,9.559360301034725e-05
17,138.038426,8.069969549600582e-05
18,140.16,7.965676205088146e-05
19,143.09,7.822353341099349e-05
20,147.10000000000002,7.626370381694887e-05
21,150.88,7.441269365740058e-05
22,155.1,7.234764799838105e-05
23,158.489319,7.069214710209826e-05
24,159.07999999999998,7.024761018152791e-05
25,162.04,6.802223577654962e-05
26,165.80999999999997,6.519163444497257e-05
27,170.07000000000002,6.199356261841594e-05
28,172.82999999999998,5.992752637444973e-05
29,176.86,5.6911561326556964e-05
30,180.14,5.445792796995943e-05
31,181.81,5.3215597464008834e-05
32,181.970086,5.3096217012942116e-05
33,186.05,5.413335965930267e-05
34,190.82,5.5359276538697326e-05
35,193.92,5.615922968044227e-05
36,197.98,5.7214490656405016e-05
37,202.12,5.829807651021923e-05
38,204.93999999999997,5.9045875629484e-05
39,208.929613,6.0090599068678916e-05
40,210.19,6.197712285771652e-05
41,216.07999999999998,7.086256614725451e-05
42,220.1,7.69280222638832e-05
43,223.16,8.154538403773485e-05
44,226.79000000000002,8.705874575573541e-05
45,229.94,9.244770255234737e-05
46,234.21999999999997,0.00010012589043472809
47,239.88329199999998,0.00010968811785795816
48,240.23,0.0001093387342908213
49,245.82,0.00010289283472614173
50,252.13,9.595390591341757e-05
51,256.81,8.970673230112767e-05
52,259.78999999999996,8.72178408856098e-05
53,264.01,8.276388082068173e-05
54,268.92,7.730000393471091e-05
55,273.92,7.174571576773455e-05
56,275.42287,7.006741641756394e-05
57,279.01,7.509395769725832e-05
58,284.2,8.243099377387976e-05
59,290.15,9.048754646480414e-05
60,296.21999999999997,9.924304951588161e-05
61,301.03999999999996,0.00010562922764869769
62,308.05,0.00011580186385430781
63,316.227766,0.00012766702435152157
64,318.14000000000004,0.00012613411592743713
65,327.81,0.0001181786939543226
66,337.77000000000004,0.00010985498025709186
67,348.03000000000003,0.00010122465132801685
68,356.96,9.390385892678493e-05
69,363.078055,8.895386948015125e-05
70,366.12,9.165068345617877e-05
71,374.64,9.906678079277853e-05
72,385.14,0.000107483184341405
73,395.02000000000004,0.00011661957998525549
74,405.15000000000003,0.00012559524333264464
75,413.64,0.0001329777825448197
76,416.86938299999997,0.0001356842871377791
77,422.29999999999995,0.00013862100354505448
78,430.15,0.00014296958171505672
79,441.17999999999995,0.00014960383330934012
80,451.46,0.00015552821947336853
81,459.84999999999997,0.00016031687275315433
82,469.47999999999996,0.00016613851887762845
83,478.630092,0.00017175714018248417
84,480.42,0.00017101143689688146
85,490.48,0.00016665750096695088
86,499.59999999999997,0.00016379240461695426
87,506.55,0.0001823490139993581
88,512.41,0.0002836904898095576
89,519.54,0.0002841638909745273
90,530.42,0.00028418282094295235
91,540.28,0.0002736070574768375
92,549.5408739999999,0.00031382324707560246
93,550.33,0.0003175613313171308
94,560.5600000000001,0.00036037735382809806
95,569.6600000000001,0.0003918136273227024
96,580.26,0.00038432393490982393
97,589.68,0.00043551420901083193
98,600.65,0.0004406791016741077
99,610.41,0.0004978674701694196
100,620.3199999999999,0.0005660027920739831
101,630.4,0.0005998421611756987
102,630.957344,0.0006012002816086428
103,640.65,0.0006291501241400137
104,649.56,0.000692416282902054
105,658.6,0.0007262904902206673
106,664.69,0.0007814176418324321
107,675.49,0.0008251797373015719
108,684.89,0.0008275876944691565
109,694.4200000000001,0.000992566400193314
110,705.6999999999999,0.0009690495287944155
111,715.5200000000001,0.0011594146274524666
112,724.43596,0.0012155389802190697
113,725.47,0.0012219337395387828
114,735.56,0.0012841974363494634
115,745.7900000000001,0.0014082365670108374
116,754.43,0.001496054627510766
117,764.9300000000001,0.0015831411663127628
118,775.57,0.001719339138965453
119,784.55,0.001859552824531351
120,795.46,0.001960324205324664
121,804.67,0.002062059460788129
122,815.8700000000001,0.0021646931688435924
123,825.31,0.002353259994204626
124,831.763771,0.002221517560150573
125,834.87,0.002156667587051966
126,844.54,0.002559979679664999
127,854.3199999999999,0.002683823771263288
128,864.2099999999999,0.0028772428618468343
129,874.22,0.0030651277695052065
130,884.34,0.003288095676148835
131,894.5799999999999,0.0034735843998672895
132,904.94,0.0035887419406605693
133,915.42,0.005105930298528675
134,926.02,0.028931645473471605
135,934.59,0.06160838857623207
136,945.41,0.12086818574914551
137,954.16,0.16642700157751822
138,954.992586,0.1693871002523604
139,965.1999999999999,0.20568032329578273
140,974.14,0.05304813367736524
141,985.4200000000001,0.22655020637359014
142,994.53,0.22603174820538172
143,1006.05,0.27614686883131356
144,1015.36,0.24612320060452758
145,1024.75,0.09962363835431053
146,1034.23,0.19823975157773358
147,1043.8,0.33351827027479675
148,1055.89,0.3381566622337825
149,1065.6599999999999,0.29793917087226807
150,1075.52,0.33737457498439377
151,1085.47,0.2965690745701595
152,1095.52,0.3500309691266365
153,1096.4782,0.3491290210978867
154,1105.6499999999999,0.34049467722465204
155,1115.88,0.33971416694455414
156,1126.21,0.3177672409236929
157,1134.02,0.36232111157006974
158,1144.51,0.33892396036398703
159,1155.1,0.35244819341714084
160,1165.79,0.36399361072953124
161,1173.8700000000001,0.28980593887584694
162,1184.73,0.3500169294289395
163,1195.69,0.2748574042412687
164,1203.98,0.2163395993319812
165,1215.12,0.10920344581093622
166,1226.36,0.2366565765491278
167,1234.86,0.3350306385842371
168,1246.29,0.3698896394149782
169,1254.9299999999998,0.36988967941301876
170,1258.92541,0.3549438749680861
171,1263.63,0.3373460031789943
172,1275.3200000000002,0.3972523340637668
173,1284.16,0.4112145330390782
174,1296.04,0.3681922660511482
175,1305.03,0.3648133667059048
176,1314.07,0.4140695679204766
177,1326.23,0.4046395040675112
178,1335.4199999999998,0.3828915069615283
179,1344.68,0.4178948106392866
180,1354.0,0.41216161498882287
181,1366.53,0.39000315527848933
182,1376.0,0.400011961307471
183,1385.5400000000002,0.4065093681201939
184,1395.14,0.3724571756046949
185,1404.82,0.38288588398490003
186,1414.55,0.3945220929249203
187,1424.3600000000001,0.39543320276064475
188,1434.23,0.3954365132681474
189,1440.85,0.4093232873876678
190,1445.43977,0.4112854136867964
191,1447.5,0.41216615813598056
192,1454.1799999999998,0.4074500209075498
193,1464.26,0.39180681562872016
194,1474.4099999999999,0.39000811100767646
195,1484.63,0.39180590704441864
196,1494.92,0.39543500373894674
197,1505.29,0.38553900118523016
198,1512.23,0.3623100664000042
199,1515.72,0.37676909919533
200,1526.23,0.3698911979571853
201,1533.27,0.3420454641116535
202,1543.9,0.35898546400114173
203,1554.6,0.34520746454841583
204,1565.38,0.35000766584744525
205,1576.23,0.3673426678042606
206,1583.5,0.37590573612002537
207,1594.48,0.38466193929844306
208,1605.53,0.37246074313464667
209,1616.66,0.37246034772260567
210,1624.1200000000001,0.36147661782378926
211,1635.3799999999999,0.3750414236333507
212,1646.72,0.3767704301946673
213,1654.32,0.3581616016114228
214,1659.58691,0.36951498760618606
215,1665.79,0.3828867767857641
216,1673.48,0.35733340450512746
217,1677.33,0.38201296870792967
218,1685.08,0.39000750054473926
219,1696.76,0.3759033020742794
220,1704.59,0.3665064394010174
221,1716.3999999999999,0.35816914985169107
222,1724.33,0.3556985940408395
223,1736.28,0.37074791409888785
224,1744.29,0.3631515637779646
225,1756.3799999999999,0.37764779344338756
226,1764.49,0.3548883499848748
227,1776.72,0.3656706892576724
228,1784.92,0.36820065197532903
229,1793.16,0.3793893174379498
230,1805.59,0.3776508704355683
231,1813.92,0.3639962420743585
232,1826.5,0.36567270536559265
233,1834.9299999999998,0.3589983838667933
234,1843.4,0.3397035651129581
235,1856.18,0.3412718421290131
236,1864.74,0.34681342955134736
237,1873.35,0.36065952040488686
238,1886.34,0.3428482118320038
239,1895.04,0.33273880886171264
240,1903.79,0.3460215093226267
241,1905.46072,0.34502496355247225
242,1916.99,0.33814620412606977
243,1925.8400000000001,0.33350562127954736
244,1934.73,0.3397045348947356
245,1943.65,0.3516395458562068
246,1957.1299999999999,0.33504275345269025
247,1966.16,0.3516361546838657
248,1975.24,0.3581746514921795
249,1984.35,0.3452171456467762
250,1993.51,0.3381392353785112
251,2002.71,0.34284102157195684
252,2016.6000000000001,0.3381348929009743
253,2025.9099999999999,0.3460070693641241
254,2035.2600000000002,0.33658324228898473
255,2044.65,0.3412643116755558
256,2054.09,0.3266573766392653
257,2063.57,0.3319623380646854
258,2073.1,0.3467994950672438
259,2077.87,0.3373574731262368
260,2082.66,0.3428340494160851
261,2097.1,0.33119517209362376
262,2106.78,0.335028615827597
263,2116.5,0.33580095602328086
264,2126.27,0.33968999179610304
265,2136.09,0.3258941231460635
266,2145.9500000000003,0.3296663509577346
267,2155.85,0.3350242752311164
268,2165.7999999999997,0.32740019508163637
269,2175.8,0.3258911105092947
270,2185.84,0.3236493223986637
271,2187.7616199999998,0.32537596319071377
272,2195.9300000000003,0.3327168285030187
273,2206.07,0.32589244363961006
274,2216.25,0.3170163615972531
275,2226.48,0.31123188308121064
276,2236.76,0.3236497080914828
277,2247.08,0.3148371359228066
278,2257.46,0.3083751679857078
279,2262.66,0.31051953472242133
280,2273.1,0.3155636710169
281,2283.6,0.31921481154295617
282,2294.14,0.307710354890064
283,2304.73,0.3091852017634864
284,2315.36,0.3029034514579604
285,2326.05,0.2669259053840118
286,2336.79,0.29408076283637785
287,2347.5699999999997,0.28481062310979555
288,2352.9900000000002,0.29756740536229304
289,2363.85,0.284231171277814
290,2374.7599999999998,0.2895739407196495
291,2385.7200000000003,0.2759584136877995
292,2396.73,0.2857118901822641
293,2402.2599999999998,0.27923158019265376
294,2413.34,0.2812230616239587
295,2424.48,0.28982254728684115
296,2435.67,0.2819850364760381
297,2446.92,0.2899400298968126
298,2452.56,0.2873072276650942
299,2463.88,0.28473032602270903
300,2475.25,0.2789495279066384
301,2486.68,0.28353583402214527
302,2492.41,0.271431438137793
303,2503.91,0.2895600491901403
304,2511.88643,0.2779909932238909
305,2515.4700000000003,0.27279301392271643
306,2527.08,0.2691036970215961
307,2532.91,0.2691285378886476
308,2544.6000000000004,0.2679473188038848
309,2556.3399999999997,0.2780588983543453
310,2562.2400000000002,0.27426643731070965
311,2574.0600000000004,0.2826581146775277
312,2585.94,0.28142099040661384
313,2597.88,0.2788930644979682
314,2603.87,0.27257620099773466
315,2615.8900000000003,0.2701315729054464
316,2627.9599999999996,0.2758442434483816
317,2634.0200000000004,0.2790698780374609
318,2646.1800000000003,0.2936228461237983
319,2652.28,0.2956939796210563
320,2664.5200000000004,0.28244824552375114
321,2676.8199999999997,0.2877549097887141
322,2682.9900000000002,0.28911354137528494
323,2695.38,0.28000020318365004
324,2707.82,0.2833027636272386
325,2714.06,0.27434969330312226
326,2726.5899999999997,0.2725161512901129
327,2732.87,0.28018257987417533
328,2745.49,0.2597428354045682
329,2758.16,0.2628067895701845
330,2764.52,0.26895421597060437
331,2777.2799999999997,0.27527486767962284
332,2783.68,0.26718919298822147
333,2796.5299999999997,0.2338482422406421
334,2802.98,0.24489126618446413
335,2815.91,0.27293661325324226
336,2822.4,0.27740163610524304
337,2835.43,0.271769880444468
338,2841.97,0.26622870193169224
339,2855.09,0.26022644381431936
340,2868.26,0.2731791843321699
341,2874.88,0.2738373036357516
342,2884.0315,0.27387863902909027
343,2888.15,0.27389735154006334
344,2894.8,0.2733012478253122
345,2908.17,0.2849262403567071
346,2928.33,0.2778997290951456
347,2948.6200000000003,0.2741828177609649
348,2969.06,0.2755470063429928
349,2989.64,0.2750105948468154
350,3010.37,0.2763725832668466
351,3031.2299999999996,0.27583587161425865
352,3052.24,0.2759381598778793
353,3073.4,0.27413784805770863
354,3087.59,0.274202340131044
355,3108.99,0.2736700281768071
356,3130.54,0.2700177161387788
357,3152.2400000000002,0.2694952040169591
358,3166.79,0.27018519588919515
359,3188.74,0.26231668362772315
360,3210.8399999999997,0.2672930712824598
361,3233.1,0.2601041588478189
362,3248.02,0.2693130505133696
363,3270.54,0.2744261379334904
364,3293.2099999999996,0.2726397252698198
365,3308.41,0.2708347167789599
366,3311.31121,0.27061194706892633
367,3323.68,0.2696620830787364
368,3331.3399999999997,0.27031760128176274
369,3339.02,0.25582331927122
370,3346.7200000000003,0.26914483704710807
371,3354.43,0.25885105471621156
372,3362.17,0.2547464720649615
373,3369.92,0.25012948930692674
374,3377.6800000000003,0.24673150644210748
375,3385.47,0.2613821232569345
376,3393.28,0.26750473985819245
377,3401.1000000000004,0.2731404563526658
378,3408.9399999999996,0.25612117263357004
379,3416.7999999999997,0.26332948870090517
380,3424.67,0.2751407046614558
381,3432.5699999999997,0.27772732030165265
382,3440.48,0.27144113583506496
383,3448.4100000000003,0.2551167511549081
384,3456.36,0.2533963662611822
385,3464.33,0.2511077811538872
386,3472.3199999999997,0.264185495833023
387,3480.32,0.25466911040537427
388,3488.3399999999997,0.26003222476415644
389,3496.38,0.2600670389093695
390,3504.4399999999996,0.26070705284101336
391,3512.52,0.25835236655908816
392,3520.62,0.2662351800635938
393,3528.7400000000002,0.25253709335453034
394,3536.87,0.26386600653868236
395,3545.02,0.2719227195092652
396,3553.2000000000003,0.27384463215949434
397,3561.39,0.268882344702939
398,3569.6,0.25446515703281447
399,3577.8300000000004,0.2510095691491208
400,3586.07,0.23919628115864267
401,3594.3399999999997,0.2528167928478108
402,3602.63,0.2690701043234098
403,3607.45,0.29994035285325144
404,3610.18,0.25038692370106636
405,3612.92,0.2189227944420966
406,3615.65,0.27555466528991146
407,3618.3900000000003,0.2796630360309418
408,3621.12,0.27659450687875664
409,3623.8599999999997,0.268152077619787
410,3626.59,0.2818908484676019
411,3629.33,0.26317021920863215
412,3632.06,0.274793490056447
413,3634.8,0.2593602607974773
414,3637.5299999999997,0.2365116316452922
415,3640.27,0.2647935023863225
416,3643.0,0.2841024732341374
417,3645.7400000000002,0.2731387439751677
418,3648.47,0.2695984148229825
419,3651.2099999999996,0.27078468556401286
420,3653.94,0.2772333564118277
421,3656.68,0.27283422715285804
422,3659.4100000000003,0.30028049800067297
423,3662.15,0.26447366874170325
424,3664.8799999999997,0.26215593958951816
425,3667.62,0.27730341033054845
426,3670.35,0.2861719811783633
427,3673.09,0.2817727519193936
428,3675.82,0.29608982276720847
429,3678.56,0.2565999935082388
430,3681.29,0.24384676435605365
431,3684.0299999999997,0.252800135097084
432,3686.76,0.27073430594489883
433,3689.5,0.2852425766859291
434,3692.23,0.268187447533744
435,3694.9700000000003,0.2552300182747743
436,3697.7,0.2581629891225892
437,3700.44,0.2810013598636195
438,3703.17,0.2859128307114344
439,3705.91,0.2742540014524647
440,3708.6400000000003,0.28667877230027955
441,3711.38,0.2575837430413099
442,3714.11,0.26399171388912474
443,3716.85,0.2741625846301551
444,3719.58,0.28952465547796996
445,3722.32,0.3318690262190003
446,3725.0499999999997,0.4653638970668151
447,3727.7900000000004,0.7577709678078454
448,3730.52,1.2107006386556602
449,3733.2599999999998,1.3506136093966905
450,3735.9900000000002,1.0557675802445055
451,3738.73,0.6300301509855358
452,3741.4599999999996,0.37879602183335065
453,3744.2,0.325532492574381
454,3746.93,0.3250513634221958
455,3749.67,0.29692013416322616
456,3752.4,0.26983550501104103
457,3755.1400000000003,0.27300037575207137
458,3757.87,0.2890929465998862
459,3760.6099999999997,0.32097651734091653
460,3763.34,0.31569628818873136
461,3766.08,0.3297580589297617
462,3768.8100000000004,0.3319961297775766
463,3771.55,0.30748200051860686
464,3774.2799999999997,0.31099337136642174
465,3777.02,0.3181354421074521
466,3779.75,0.33113351295526694
467,3782.4900000000002,0.3511105836962972
468,3785.2200000000003,0.3893424545441121
469,3787.96,0.4091467252851424
470,3790.69,0.3843706961329573
471,3793.43,0.3687191668739876
472,3796.1600000000003,0.3344360377218025
473,3798.9,0.3096580084628328
474,3801.6299999999997,0.28555137931064767
475,3801.8939600000003,0.2883785518627719
476,3804.3700000000003,0.3148984555608261
477,3807.1,0.3235235324828459
478,3809.8399999999997,0.35571650932033094
479,3812.57,0.38463418624235074
480,3815.31,0.4192925630798358
481,3818.04,0.3992751400018556
482,3820.7799999999997,0.4061227168393407
483,3823.5099999999998,0.38802799376136043
484,3826.25,0.36023647059884556
485,3828.98,0.3619065475208653
486,3831.7200000000003,0.3409739243583504
487,3834.45,0.30942000128037017
488,3837.1899999999996,0.3031589781178553
489,3839.92,0.28676345503987505
490,3842.66,0.2939817318773601
491,3845.3900000000003,0.33514570879937994
492,3848.13,0.38193898563686496
493,3850.8599999999997,0.39000616255888476
494,3853.6,0.39825403939636983
495,3856.33,0.4214797163183896
496,3859.07,0.4115860931558747
497,3861.8,0.42700937007789447
498,3864.5400000000004,0.42922004691537957
499,3867.27,0.4544954238373994
500,3870.0099999999998,0.4518409006748844
501,3872.7400000000002,0.4643269775969042
502,3875.48,0.46251465443438927
503,3878.2100000000005,0.42867813135640903
504,3880.9500000000003,0.41033780819389415
505,3883.68,0.3738530851159139
506,3886.42,0.351844961953399
507,3889.15,0.3324209388754188
508,3891.89,0.35933791571290385
509,3894.62,0.36204269263492367
510,3897.36,0.34940466947240867
511,3900.09,0.35293134639442847
512,3902.83,0.3744201232319136
513,3905.56,0.39581940015393335
514,3908.3,0.4049244769914184
515,3911.0299999999997,0.4090144539134382
516,3913.7699999999995,0.4278396307509233
517,3916.5,0.4319449076729431
518,3919.24,0.4316291845104282
519,3921.9700000000003,0.42877406143244795
520,3924.71,0.433003938269933
521,3927.4399999999996,0.42686651519195284
522,3930.18,0.40912989202943784
523,3932.91,0.37953436895145765
524,3935.65,0.35516224578894273
525,3938.38,0.36209812271096253
526,3941.1200000000003,0.3869704995484476
527,3943.85,0.3987207764704674
528,3946.5899999999997,0.40509145330795243
529,3949.32,0.40298723022997224
530,3952.06,0.4161407070674573
531,3954.7900000000004,0.4202610839894771
532,3957.53,0.41607466082696215
533,3960.2599999999998,0.39616883774898193
534,3963.0,0.37627621458646704
535,3965.73,0.3380664915084868
536,3968.4700000000003,0.30931636834597187
537,3971.2,0.3045534452679917
538,3973.94,0.3027162221054767
539,3976.67,0.32651999902749657
540,3979.41,0.3296948758649816
541,3982.1400000000003,0.36877385278700137
542,3984.88,0.3942854296244865
543,3987.6099999999997,0.40953100654650626
544,3990.35,0.4181643833839913
545,3993.08,0.4265614603060111
546,3995.8199999999997,0.44162743714349617
547,3998.55,0.437067814065516
548,4001.2799999999997,0.4495080909875358
549,4004.02,0.4594603678250208
550,4006.75,0.4544949447470406
551,4009.49,0.45139402158452574
552,4012.2200000000003,0.4461546985065455
553,4014.96,0.4533725753440306
554,4017.69,0.4689024522660504
555,4020.43,0.4659792291035354
556,4023.16,0.4563058060255552
557,4025.9,0.4675111828630403
558,4028.63,0.47171285978506006
559,4031.3700000000003,0.4728276366225452
560,4034.1,0.4802457135445649
561,4036.8399999999997,0.47307109038205
562,4039.57,0.4641841673040698
563,4042.31,0.46761234414155484
564,4045.04,0.47127642106357465
565,4047.78,0.47198039790105967
566,4050.5099999999998,0.4643920748230795
567,4053.25,0.4850789516605646
568,4055.98,0.48473012858258435
569,4058.7200000000003,0.4653801054200694
570,4061.45,0.46017108234208925
571,4064.1899999999996,0.4599213591795743
572,4066.92,0.4596231361015941
