,lambda (Angstroms),Total Flux (erg/s/cm^2/Angstrom)
0,100.1,0.0023314979772434503
1,101.96000000000001,0.0028003376106905077
2,104.10000000000001,0.0033381847341188383
3,104.712855,0.003492575173956616
4,106.03,0.00321889128793336
5,108.0,0.0028100039816267588
6,110.01,0.002399747455648956
7,113.88000000000001,0.0015981259899603528
8,117.88,0.0007685089628403531
9,120.22644299999999,0.0003376323882727609
10,120.9,0.0003482713318432684
11,124.86,0.0003307006538618688
12,126.89,0.0003208681949471614
13,128.07,0.00031570692474058284
14,131.05,0.0003018026372697314
15,131.96,0.0003128973246527936
16,134.1,0.0003025231719052697
17,136.91,0.0003100612021760442
18,138.038426,0.00030614778502679373
19,140.1,0.000318240265643715
20,143.03,0.0005071143484145444
21,147.04,0.0008009067818312768
22,151.16,0.0008641899268878696
23,155.04,0.0009391752829120397
24,158.489319,0.0010125683650855618
25,159.01,0.001023551733483665
26,161.97,0.0010843933371219787
27,166.11999999999998,0.0011771264520202898
28,169.99,0.0012589455760338955
29,173.15,0.0013322854731612841
30,177.19,0.001422428341640604
31,180.07,0.0014894442478832874
32,181.970086,0.001538255385660357
33,182.14999999999998,0.0015430020383162255
34,185.97,0.001640199447895131
35,191.18,0.0017636417054621724
36,193.83999999999997,0.001849586126791986
37,197.89000000000001,0.001957686396109936
38,202.04,0.0020626125609666
39,204.85,0.002148662325604486
40,208.929613,0.002199155513702315
41,210.10000000000002,0.0022146444526302727
42,215.99,0.0024578597806954594
43,220.01,0.0025869844290523445
44,223.07,0.0026551430867568387
45,227.21,0.0027882378589452724
46,229.84,0.00420176332292005
47,234.11999999999998,0.0069515417395786235
48,239.88329199999998,0.009143418886613413
49,240.11999999999998,0.009232999994595441
50,246.28,0.00885570853675305
51,252.01999999999998,0.009435981064672638
52,256.7,0.007590784509039132
53,260.28,0.00925812767802034
54,263.9,0.009822569038833738
55,268.8,0.00986369753827729
56,273.8,0.009859612517301322
57,275.42287,0.009836669443167889
58,278.89,0.00979371250601252
59,284.08,0.009887994822996168
60,290.02,0.009472841919890748
61,296.1,0.00956545734903537
62,300.91,0.009100359764197478
63,307.92,0.009338216400431655
64,316.227766,0.00955905966561497
65,318.01000000000005,0.009603650114158958
66,327.66999999999996,0.00951032320587305
67,337.62,0.009331734618145845
68,347.88,0.009114105131705533
69,356.81,0.009087232726840816
70,363.078055,0.009140274298268143
71,365.96,0.00916805343655522
72,375.34999999999997,0.009006362315382424
73,384.97999999999996,0.00851093799941927
74,394.84999999999997,0.008712941488665756
75,404.98,0.008717882100222686
76,414.40999999999997,0.008545764613251497
77,416.86938299999997,0.008467193942926382
78,422.12,0.008298367401441988
79,429.97,0.00809530403192784
80,441.0,0.008043654894890763
81,451.27,0.007847723532481804
82,459.66,0.007586958296784517
83,470.36,0.007419654022414912
84,478.630092,0.007351919571550581
85,480.21000000000004,0.007337849531734584
86,490.27000000000004,0.007023538082217542
87,500.53000000000003,0.00701945647068227
88,506.33,0.006812647772153559
89,512.19,0.007241755725019378
90,520.52,0.007043239326960039
91,530.1899999999999,0.006772010143378549
92,540.05,0.00636422885587974
93,549.5408739999999,0.00617170843043963
94,550.09,0.006160719833784355
95,560.3199999999999,0.006315594635074293
96,569.42,0.00630027168900767
97,580.01,0.006100842940782884
98,589.4300000000001,0.006003175728480951
99,600.39,0.005669257109921589
100,610.15,0.005023548989744638
101,620.06,0.005628111057269887
102,630.14,0.005400486670857626
103,630.957344,0.005401374068452302
104,640.37,0.005414512530985787
105,649.28,0.0052463068553376315
106,658.32,0.005048507324713689
107,664.41,0.005119063580078754
108,675.1999999999999,0.005051648617088451
109,684.5999999999999,0.004752747180377715
110,695.7199999999999,0.004830874970141183
111,705.4000000000001,0.00450449338425183
112,715.21,0.0046514449433866885
113,724.43596,0.004586768589084422
114,726.8299999999999,0.004569802033358818
115,735.2499999999999,0.004498683966265228
116,745.48,0.004359243249356983
117,755.85,0.004253350714231029
118,764.6,0.003869164075624269
119,775.24,0.00408556289107845
120,784.21,0.0039061415381295775
121,795.12,0.003907155704163892
122,804.33,0.0038644116628418065
123,815.52,0.003804937192440705
124,824.96,0.0037465674497609556
125,831.763771,0.003512223381092409
126,834.52,0.003416401988450356
127,844.1800000000001,0.0035876867191910545
128,855.92,0.00349736611245149
129,865.8299999999999,0.0034637076343604256
130,875.86,0.0034072796560301157
131,886.0,0.00333684838581383
132,894.2,0.0032826855361320216
133,904.55,0.0032001888904970555
134,915.03,0.0032050735362695736
135,925.62,0.005321902890156116
136,934.19,0.007506462331403298
137,945.01,0.00960613489316462
138,954.992586,0.010667112293920863
139,955.95,0.010769046967021006
140,964.79,0.011587988407154966
141,975.96,0.006080022518726952
142,985.0,0.01023873297786847
143,994.11,0.00980251299366263
144,1005.62,0.01132394323754746
145,1014.93,0.011168978272349177
146,1024.32,0.007148006514753918
147,1036.18,0.00973392354190197
148,1045.76,0.012581852152363886
149,1055.44,0.012183884272329581
150,1065.21,0.010715733250848677
151,1075.06,0.011504839436970796
152,1085.01,0.00971007613259669
153,1095.05,0.011530381686775986
154,1096.4782,0.011457520423070638
155,1105.18,0.011012941196815196
156,1115.41,0.010762153608059188
157,1125.73,0.009795826187144035
158,1136.1499999999999,0.011009317841607615
159,1144.02,0.0104190080739136
160,1154.61,0.010465931156521016
161,1165.29,0.01041674440696929
162,1176.07,0.008020928732796294
163,1184.22,0.00992516737616272
164,1195.18,0.008491621037671435
165,1206.24,0.00728220377455888
166,1214.6,0.005213440476220638
167,1225.84,0.008089151548789796
168,1234.34,0.009474784955981773
169,1245.76,0.009760439364232643
170,1254.3899999999999,0.00949446456941697
171,1258.92541,0.009295226333040186
172,1266.0,0.008985271066943497
173,1274.78,0.009826362292914574
174,1283.6100000000001,0.009917209907416237
175,1295.49,0.008701574222283707
176,1304.47,0.00866172400237713
177,1313.51,0.00958181824870726
178,1325.6699999999998,0.009215242739346017
179,1334.86,0.008563376151267905
180,1344.1100000000001,0.009236738029426499
181,1356.54,0.009006640618130427
182,1365.95,0.008407890739586898
183,1375.42,0.008446440327280076
184,1384.95,0.008408055381209955
185,1394.55,0.00711250197908266
186,1404.2199999999998,0.007080120120898184
187,1413.9499999999998,0.007867358728950414
188,1423.75,0.007742271880945464
189,1433.62,0.007813559576883336
190,1443.5600000000002,0.007940034816764032
191,1445.43977,0.007929802136997134
192,1446.89,0.007921905881829153
193,1453.5600000000002,0.007706936382199637
194,1463.6399999999999,0.007345098121889964
195,1473.7900000000002,0.0072947833181059175
196,1484.0,0.007311425905629551
197,1494.29,0.00724488801489676
198,1504.6499999999999,0.006952298580689595
199,1511.59,0.0064610398419446425
200,1518.57,0.0066561753640714755
201,1525.58,0.00656537908185215
202,1536.15,0.005909347017221867
203,1543.2399999999998,0.005802227256746114
204,1553.94,0.00563202903994914
205,1564.71,0.005895912279677792
206,1575.56,0.006143930041150019
207,1586.48,0.006228994259147871
208,1593.8,0.006286408998684895
209,1604.85,0.006088174064516056
210,1615.9699999999998,0.006032718586872845
211,1623.4299999999998,0.005842639239461123
212,1634.68,0.006032856609651219
213,1646.02,0.0060328505668028375
214,1653.6100000000001,0.005789581067224422
215,1659.58691,0.005923620597895952
216,1665.08,0.006047035669248631
217,1672.76,0.005594824448029786
218,1676.6200000000001,0.006330868289969273
219,1684.3600000000001,0.006374992926397155
220,1696.03,0.006048567738685706
221,1703.8600000000001,0.00592588766158368
222,1715.67,0.0058455221417145955
223,1723.5900000000001,0.005832537351082661
224,1735.5400000000002,0.006162162499055942
225,1743.5500000000002,0.006023394994894099
226,1755.6299999999999,0.00636374633443529
227,1763.74,0.005847787593017994
228,1775.96,0.0060249596004015495
229,1784.1599999999999,0.006136404145454345
230,1796.53,0.00661811329695472
231,1804.82,0.006498617128477606
232,1813.15,0.006222515865098311
233,1825.72,0.006251635542087779
234,1834.1499999999999,0.00608296204145303
235,1846.86,0.005451730386284863
236,1855.39,0.0057857416483946605
237,1863.95,0.006224913339327823
238,1876.87,0.006340454685923202
239,1885.53,0.00608543813960091
240,1894.24,0.006226358974650892
241,1902.98,0.006298382238524237
242,1905.46072,0.0063012310616388945
243,1916.17,0.006312361921474105
244,1925.02,0.00592063259955622
245,1933.9,0.005269229435869122
246,1942.8300000000002,0.0066513192025666685
247,1956.29,0.006485349862113026
248,1965.3200000000002,0.007237443489579862
249,1974.4,0.007024732047431343
250,1983.51,0.007137470763513612
251,1997.2599999999998,0.0071042196192909095
252,2006.48,0.006926855582219395
253,2015.74,0.007006108089455596
254,2025.04,0.006525787140999515
255,2034.39,0.007233206122928076
256,2043.78,0.007764742649164355
257,2053.21,0.007315239719708349
258,2062.69,0.007198362720636987
259,2072.21,0.00812703426587334
260,2076.99,0.010458550810645376
261,2086.58,0.011568882058420235
262,2096.21,0.010798690850502807
263,2105.88,0.010361197186893094
264,2115.6,0.011304710453668028
265,2125.37,0.010431510650827605
266,2135.1800000000003,0.009736991392294898
267,2145.03,0.011618653678069909
268,2154.94,0.011617985280306492
269,2164.88,0.010405135040773863
270,2174.8700000000003,0.010524671731625876
271,2184.91,0.012302755352862536
272,2187.7616199999998,0.012383330024320842
273,2195.0,0.012588654586857418
274,2205.1299999999997,0.01213490042632081
275,2215.31,0.010029972713165561
276,2225.53,0.011070988957915402
277,2235.81,0.013897572139522871
278,2246.13,0.01315270727903543
279,2256.49,0.010624424376453076
280,2266.91,0.01014834441072835
281,2277.37,0.010922166402908716
282,2282.62,0.013646843377951441
283,2293.16,0.011647649285941981
284,2303.74,0.013645657151837607
285,2314.38,0.012053277954590864
286,2325.06,0.009735986715249209
287,2335.79,0.009108735923288914
288,2346.57,0.006808442578709977
289,2357.41,0.011324424170988672
290,2362.84,0.007308468956604291
291,2373.75,0.009126857975216889
292,2384.7,0.005974705951734573
293,2395.71,0.00719064886510989
294,2406.77,0.0071571942258665654
295,2412.32,0.008173703885197446
296,2423.4500000000003,0.012810096672288026
297,2434.6400000000003,0.012720894396236235
298,2445.87,0.014902254078089532
299,2457.16,0.015529226696800461
300,2462.83,0.013908014229846605
301,2474.2,0.012257520764367707
302,2485.62,0.00849348774627017
303,2497.0899999999997,0.009677312175553992
304,2502.85,0.014323653113886583
305,2511.88643,0.008803198152893333
306,2514.4,0.007267459808571903
307,2520.2000000000003,0.005901857933253461
308,2526.0,0.006436655057935019
309,2537.66,0.00954000517065691
310,2543.5099999999998,0.010078606348137446
311,2555.25,0.016578093945337703
312,2567.05,0.012817710405896732
313,2572.97,0.01597598825729584
314,2584.8399999999997,0.014339523391773443
315,2596.77,0.01298963738960982
316,2602.76,0.011292453914927498
317,2614.77,0.01018356639724224
318,2626.8399999999997,0.013750357742915758
319,2632.9,0.022270882942152008
320,2645.0499999999997,0.02988353277230389
321,2657.26,0.04001391146581455
322,2663.39,0.026755455338969367
323,2675.68,0.030145612516958395
324,2688.03,0.03444254855830619
325,2694.23,0.025424481105379582
326,2706.6600000000003,0.03090444563120575
327,2712.8999999999996,0.02270905742051832
328,2725.42,0.018806420241382647
329,2738.0,0.02344287192560575
330,2744.32,0.01350717219939669
331,2756.98,0.01820268236809816
332,2763.34,0.023596481884128283
333,2776.09,0.02533462034786791
334,2782.4900000000002,0.015351749106137217
335,2795.34,0.0068475946754748065
336,2801.7799999999997,0.008280079675983295
337,2814.7100000000005,0.022417068729799247
338,2827.71,0.03223007245753378
339,2834.2200000000003,0.030217559131960833
340,2847.31,0.022354911154733523
341,2853.87,0.013392496881959561
342,2867.04,0.030133107389210614
343,2873.6499999999996,0.03952476216923563
344,2884.0315,0.036930442227584674
345,2886.92,0.03620866438203453
346,2893.5699999999997,0.043322931803871784
347,2906.93,0.05787989662428465
348,2927.0800000000004,0.05086762881225767
349,2947.3700000000003,0.04724359094595357
350,2967.7999999999997,0.049115813025372365
351,2988.3700000000003,0.050013145050514046
352,3009.08,0.05034645702137862
353,3029.94,0.05343342893408914
354,3050.9399999999996,0.056191390792522555
355,3072.09,0.06032991259280192
356,3093.39,0.058804374334927245
357,3107.66,0.0670316388025389
358,3129.21,0.06225380044774081
359,3150.8999999999996,0.0618073820386656
360,3172.74,0.06821671357143635
361,3187.38,0.05981779789560136
362,3209.48,0.06617232932757176
363,3231.7200000000003,0.056701490705265055
364,3246.64,0.07787838492087584
365,3269.14,0.09041589619776878
366,3291.81,0.08873866740875382
367,3307.0,0.08337391151968732
368,3311.31121,0.08154659529676457
369,3322.26,0.07690584870448688
370,3329.92,0.08667398193462544
371,3337.6,0.08238604501653983
372,3345.2900000000004,0.08162232802434212
373,3353.0,0.07547141088392022
374,3360.74,0.08643746352116205
375,3368.48,0.08368890615840388
376,3376.25,0.06571616857330945
377,3384.03,0.07040530091410292
378,3391.83,0.08541096310667222
379,3399.65,0.08779295515101732
380,3407.4900000000002,0.08558955704713825
381,3415.34,0.08229703886914709
382,3423.21,0.09734356054293174
383,3431.11,0.09295305199438013
384,3439.02,0.09208959337171643
385,3446.94,0.06226641467494063
386,3454.89,0.09080685575582856
387,3462.85,0.0753546967626044
388,3470.84,0.08473020754704395
389,3478.84,0.06808373825737143
390,3486.86,0.08278337881947474
391,3494.9,0.07480348923335385
392,3502.9500000000003,0.09179671957312088
393,3511.03,0.09178761969055163
394,3519.12,0.0909354497338703
395,3527.23,0.07091428962896477
396,3535.36,0.09091499937583508
397,3543.52,0.1043653189003691
398,3551.68,0.10081215842490313
399,3559.87,0.09494676772710088
400,3568.08,0.08921456688107446
401,3576.3,0.07896193596093594
402,3584.55,0.06031380481846115
403,3592.81,0.07199952360187427
404,3601.09,0.10452199223706321
405,3609.39,0.08495628072402797
406,3617.71,0.09335313906276856
407,3626.05,0.09728975725328495
408,3634.4100000000003,0.08337642529557715
409,3642.7900000000004,0.11348738318964519
410,3651.19,0.08668243093548905
411,3659.6,0.11990555860722081
412,3668.04,0.11582149605661629
413,3676.4999999999995,0.12098423335778759
414,3684.9700000000003,0.10249507058484682
415,3693.47,0.11288620758956977
416,3701.9800000000005,0.12150064452018061
417,3710.52,0.08483516122845519
418,3719.0699999999997,0.12544841786261768
419,3727.64,0.098503954348556
420,3736.23,0.08500074068627014
421,3744.85,0.10723322680164799
422,3753.48,0.06813415284291376
423,3762.13,0.08694947873595535
424,3770.81,0.09272632440666066
425,3779.5,0.11431787000325387
426,3788.21,0.1285415054516229
427,3796.9399999999996,0.09683535075176777
428,3801.8939600000003,0.1046480878557022
429,3805.7000000000003,0.11065048170691534
430,3814.47,0.11909543025336565
431,3823.26,0.08607872868247607
432,3832.08,0.07110014693557662
433,3840.9100000000003,0.06559049513000721
434,3849.7599999999998,0.10296782320709791
435,3858.64,0.09877713110817873
436,3867.53,0.10704921895058961
437,3876.4500000000003,0.08522617661699061
438,3885.3900000000003,0.09386314416605171
439,3886.15,0.12759330970713523
440,3887.92,0.13107009932255334
441,3889.69,0.12141958893797149
442,3891.4500000000003,0.11814317861205959
443,3893.22,0.1466272682274777
444,3894.99,0.13292205784289585
445,3896.76,0.154593347458314
446,3898.53,0.15297693707373214
447,3900.2999999999997,0.13662072668915026
448,3902.07,0.14873861630456842
449,3903.84,0.12489210591998655
450,3905.61,0.12902549553540468
451,3907.37,0.12829888520949279
452,3909.14,0.1257782748249109
453,3910.9100000000003,0.16516136444032906
454,3912.68,0.1689093540557472
455,3914.45,0.13744564367116535
456,3916.2200000000003,0.14202323328658348
457,3917.9900000000002,0.1315029229020016
458,3919.7599999999998,0.13110431251741972
459,3921.5299999999997,0.12228770213283788
460,3923.3,0.12084869174825602
461,3925.0600000000004,0.11258798142234411
462,3926.83,0.08075465103776223
463,3928.6,0.06157180065318039
464,3930.3700000000003,0.06403772026859852
465,3932.14,0.05323372988401666
466,3933.91,0.07368556949943479
467,3935.68,0.07148467911485294
468,3937.4500000000003,0.07032667873027107
469,3939.22,0.08735134834568921
470,3940.99,0.11018288796110735
471,3942.75,0.09415351763519543
472,3944.5200000000004,0.1254291672506136
473,3946.29,0.13083245686603173
474,3948.06,0.13488424648144987
475,3949.83,0.136548036096868
476,3951.6,0.12303772571228613
477,3953.37,0.13416361532770427
478,3955.14,0.13343110494312238
479,3956.9100000000003,0.12611779455854052
480,3958.68,0.13049598417395866
481,3960.44,0.10975497384804676
482,3962.21,0.0810442234634649
483,3963.9799999999996,0.07235054307888304
484,3965.75,0.058550682694301186
485,3967.52,0.051959872309719324
486,3969.29,0.06903710192513746
487,3971.06,0.0783017815405556
488,3972.83,0.09248487115597374
489,3974.6,0.10300049077139188
490,3976.3599999999997,0.11326338044547997
491,3978.13,0.13688317006089812
492,3979.9,0.13756555967631626
493,3981.67,0.13427664929173436
494,3983.4399999999996,0.1432947389071525
495,3985.21,0.14879022852257065
496,3986.98,0.15493911813798877
497,3988.75,0.1537133077534069
498,3990.52,0.16222069736882505
499,3992.29,0.1532982869842432
500,3994.05,0.1665817766583313
501,3995.8199999999997,0.16928816627374943
502,3997.5899999999997,0.16491805588916758
503,3999.36,0.1564103455045857
504,4001.13,0.16369853512000385
505,4002.8999999999996,0.160480524735422
506,4004.67,0.15012721435084012
507,4006.44,0.16784370396625828
508,4008.21,0.1657966935816764
509,4009.98,0.15989988319709456
510,4011.74,0.16947097287118265
511,4013.51,0.17148836248660076
512,4015.2799999999997,0.17738125210201888
513,4017.0499999999997,0.16568624171743704
514,4018.82,0.16225523133285516
515,4020.59,0.16771892094827331
516,4022.3599999999997,0.16189231056369144
517,4024.13,0.17279760017910958
518,4025.9,0.17439108979452772
519,4027.6600000000003,0.1501434794686158
520,4029.43,0.15244866908403396
521,4031.2,0.1583520586994521
522,4032.9700000000003,0.15697214831487025
523,4034.74,0.16486083793028838
524,4036.5099999999998,0.16645442754570652
525,4038.28,0.16015871716112465
526,4040.05,0.1635033067765428
527,4041.8199999999997,0.15518829639196094
528,4043.59,0.16011708600737906
529,4045.35,0.14874547568146715
530,4047.1200000000003,0.1416829652968853
531,4048.89,0.15404855491230343
532,4050.66,0.15483904452772157
533,4052.4300000000003,0.1620395341431397
534,4054.2,0.16536162375855784
535,4055.97,0.16288921337397597
536,4057.7400000000002,0.1528827029893941
537,4059.51,0.14607929260481226
538,4061.2799999999997,0.1442687822202304
539,4063.04,0.15736407189431847
540,4064.81,0.15830266150973663
541,4066.5800000000004,0.15232575112515476
542,4068.35,0.14530924074057291
543,4070.12,0.15513353035599103
544,4071.8900000000003,0.1447039199714092
545,4073.66,0.15355590958682733
546,4075.43,0.15789629920224546
547,4077.2000000000003,0.1439417888176636
548,4078.9700000000003,0.15856457843308175
549,4080.73,0.17927726810716982
550,4082.5,0.17649445772258796
551,4084.27,0.17289264733800608
552,4086.0400000000004,0.17714463695342422
553,4087.81,0.17185752656884237
554,4089.58,0.1779467161842605
555,4091.3500000000004,0.18294210579967865
556,4093.12,0.1722328954150968
557,4094.89,0.16571968503051493
558,4096.66,0.15329037464593306
559,4098.42,0.15010936432002114
560,4100.1900000000005,0.1515662539354393
561,4101.96,0.15898884355085743
562,4103.73,0.16075383316627556
563,4105.5,0.1564366227816937
564,4107.27,0.16962411239711184
565,4109.04,0.17089810201253
566,4110.8099999999995,0.16337329162794811
567,4112.58,0.17520398124336625
568,4114.34,0.18209267091745435
569,4116.11,0.17621536053287248
570,4117.88,0.1704862501482906
