,lambda (Angstroms),Total Flux (erg/s/cm^2/Angstrom)
0,102.05000000000001,0.0003039283751166296
1,103.95,0.00035554614325365014
2,104.712855,0.0003763244662470646
3,105.88,0.00035041687219739524
4,108.10000000000001,0.0003012602764722175
5,110.11,0.00025766257757239483
6,113.98,0.00017260734236228817
7,117.99000000000001,8.451500593527835e-05
8,120.22644299999999,5.2308233534297465e-05
9,121.01,5.782799362607014e-05
10,124.98,6.0490776447822146e-05
11,127.01,6.0904212374309936e-05
12,127.89,6.213727179071845e-05
13,130.87,6.286201526901086e-05
14,132.07999999999998,6.983671446657259e-05
15,133.92,7.050371688269946e-05
16,137.04,8.128027663178414e-05
17,138.038426,8.203578073465581e-05
18,139.9,8.531290289001878e-05
19,143.16,0.00021171293950903217
20,146.84,0.0005029089126249737
21,150.95000000000002,0.0005274586847734845
22,154.82,0.0005607862760666077
23,158.489319,0.0005942256259747102
24,159.16,0.0006003244750318164
25,162.12,0.0006267100534752684
26,165.89,0.000672568299330611
27,170.14999999999998,0.0007037828797931467
28,172.91,0.0007349237502336628
29,176.94000000000003,0.0007673508164928222
30,179.82000000000002,0.0007921235117350999
31,181.9,0.0008104018749656338
32,181.970086,0.0008109617449043574
33,186.14,0.0008445835803017673
34,190.91,0.0008863783455431778
35,194.01000000000002,0.0009195607688656877
36,198.07999999999998,0.000949515015937499
37,202.22,0.0009874141348262704
38,205.04000000000002,0.0010149329708809406
39,208.929613,0.0010112762986014096
40,209.81,0.0010105297785053952
41,216.19,0.0011056917192171763
42,220.20999999999998,0.0011447392680669188
43,222.76000000000002,0.0011556126236805617
44,226.89999999999998,0.001199257412794476
45,230.05999999999997,0.0018371180730843233
46,233.79,0.0029217426246289854
47,239.79,0.0035444916378375565
48,239.88329199999998,0.0035406885487054693
49,245.94000000000003,0.003292565436982894
50,252.25,0.003446844920991994
51,256.94,0.0028741976468244306
52,259.92,0.0032837837945815015
53,264.14,0.0034142442387207097
54,269.05,0.0033668929687499776
55,274.05,0.003305266518677949
56,275.42287,0.003288894764219558
57,279.15,0.0032451484108177915
58,283.68,0.0032087519918310796
59,290.29,0.0030160474113670264
60,295.69,0.003009653415223926
61,301.18,0.002921846152478442
62,308.2,0.0028956883574924115
63,316.227766,0.0028700830278756088
64,318.29999999999995,0.00286312506466744
65,327.96999999999997,0.0027719517453672136
66,337.92999999999995,0.00266516481359573
67,348.2,0.0025565228478032463
68,357.13,0.002486529125843472
69,363.078055,0.0024602384758981013
70,366.3,0.002446405084223569
71,374.83000000000004,0.002364091269516201
72,385.33,0.00219722573675801
73,395.21,0.0022028238106960177
74,405.35,0.002153280307632394
75,413.84,0.0020761772740022
76,416.86938299999997,0.00204331086671241
77,421.53000000000003,0.0019926434434360666
78,430.35999999999996,0.0019254883341090277
79,441.4,0.0018735907806582334
80,450.64,0.0017983113174439818
81,460.08,0.0017219955108701145
82,469.71,0.0016603710281046116
83,478.630092,0.0016232062504680435
84,479.54999999999995,0.0016193027732240603
85,489.59000000000003,0.0015323776350607387
86,499.84000000000003,0.001507624332652965
87,505.63,0.001466484661341647
88,511.48,0.0016105753716747712
89,519.8,0.0015700302930374368
90,529.46,0.0015132077377926472
91,540.55,0.0014187547784070657
92,549.5408739999999,0.0014448090121002163
93,550.6,0.00144790937993421
94,559.54,0.0014915463998428277
95,569.94,0.0015155156825105711
96,580.54,0.0014408681244603865
97,589.97,0.0014979301846100807
98,599.5600000000001,0.0014505119721854324
99,609.3,0.0013949256292223383
100,620.63,0.0015570017025517162
101,630.71,0.0015568725303681443
102,630.957344,0.001556468872072917
103,639.49,0.0015428283799518259
104,649.88,0.001597010302659896
105,657.4000000000001,0.00161187227751694
106,665.0200000000001,0.0016494561669332533
107,674.27,0.0016233702636656547
108,685.22,0.0015651759079056324
109,694.76,0.0017961575568599143
110,704.4200000000001,0.0016923625032853194
111,715.87,0.0018850587203216433
112,724.43596,0.0019001907897630605
113,725.8299999999999,0.001902641906323311
114,734.23,0.0019203724095887328
115,744.4399999999999,0.0020619376296292036
116,754.8000000000001,0.0021244064836565568
117,765.3,0.002144156862738334
118,774.16,0.002302262376896862
119,784.93,0.0023940126971550278
120,795.85,0.002449648651400076
121,805.0699999999999,0.002506634087127122
122,814.39,0.002547236612178757
123,825.72,0.002722716032654617
124,831.763771,0.002437418519920822
125,835.2800000000001,0.0022713123662939207
126,844.95,0.0027729747252295796
127,854.7399999999999,0.0028111002344312444
128,864.63,0.002963315368854581
129,874.65,0.0031237744160660915
130,884.77,0.003338773088499273
131,895.02,0.003471485673720628
132,905.3799999999999,0.003431575646685822
133,915.87,0.005189850532439189
134,924.34,0.035128918388714785
135,935.0400000000001,0.07809313428743367
136,945.87,0.1508655870989407
137,954.62,0.214575979305837
138,954.992586,0.21545814024130772
139,965.6800000000001,0.2407626303420492
140,974.61,0.03686819682288668
141,985.9,0.20025955444535645
142,995.02,0.21163232021302023
143,1004.23,0.3094426856428649
144,1015.86,0.29415664198912916
145,1025.26,0.12122130670580018
146,1034.74,0.19842807112218755
147,1044.32,0.3868833351632203
148,1053.98,0.3763474989039695
149,1066.18,0.29280445311071274
150,1076.05,0.3480063160632173
151,1086.01,0.27013617867790274
152,1096.06,0.36022774095476906
153,1096.4782,0.3594940252193557
154,1106.2,0.342437425174124
155,1113.87,0.32551373506759046
156,1124.17,0.2901286140640318
157,1134.57,0.3686260918856813
158,1145.07,0.330807568532539
159,1155.67,0.35041354400460484
160,1163.68,0.3602257499037791
161,1174.44,0.245809823496178
162,1185.31,0.3440132957963059
163,1196.28,0.23097926692164197
164,1204.57,0.1620295695313991
165,1215.72,0.10582513854210986
166,1224.1399999999999,0.22262883962463764
167,1235.47,0.34164750652072307
168,1244.03,0.37460570595854226
169,1255.55,0.3544663706225233
170,1258.92541,0.33345909825422887
171,1264.25,0.30032093541782556
172,1275.9499999999998,0.38955654519460003
173,1284.7900000000002,0.4069895525814964
174,1293.7,0.3159158600268862
175,1305.6699999999998,0.31015487002927866
176,1314.72,0.38955997759165556
177,1323.83,0.3694721852041697
178,1336.0800000000002,0.32327869544053617
179,1345.34,0.38509990317839365
180,1354.67,0.3703239109747446
181,1364.06,0.3277774188212329
182,1373.51,0.3432249267178585
183,1386.22,0.345601537338611
184,1395.8300000000002,0.29893694536893606
185,1405.5,0.30944535344939844
186,1415.2500000000002,0.31375196159671054
187,1425.06,0.32105566979415995
188,1434.94,0.3166519780501029
189,1441.5600000000002,0.33386878358191896
190,1445.43977,0.3365827005245406
191,1448.21,0.33852048876678115
192,1454.9,0.3270182934586705
193,1464.9799999999998,0.2996319005280645
194,1475.14,0.29687690765356467
195,1485.3600000000001,0.30100591482114464
196,1495.66,0.3051988220448309
197,1506.03,0.28679572931761016
198,1512.9799999999998,0.253847234191845
199,1516.46,0.2713869366324691
200,1523.46,0.26217124154177046
201,1534.0300000000002,0.22624014895481548
202,1544.6599999999999,0.24864345640994023
203,1555.3700000000001,0.23312086392117126
204,1566.15,0.23636377148149534
205,1573.38,0.25152117655210227
206,1584.2800000000002,0.2627778841965858
207,1595.26,0.2670447918971756
208,1606.32,0.2603674996538717
209,1613.74,0.2603642048577311
210,1624.92,0.24467671269858668
211,1636.18,0.25976992059554854
212,1643.74,0.262774725897594
213,1655.1299999999999,0.2413162338857286
214,1659.58691,0.24965539927835786
215,1666.6000000000001,0.26277737293023895
216,1670.45,0.23365449264867863
217,1678.1599999999999,0.2633820321367747
218,1685.8999999999999,0.27389147177852097
219,1693.6799999999998,0.25560861162513415
220,1705.42,0.24411247175357095
221,1713.3000000000002,0.23097871211235138
222,1725.17,0.22886897290660566
223,1733.1399999999999,0.2435431137263366
224,1745.15,0.23636667523762506
225,1753.2,0.2521102164670898
226,1765.36,0.2293896787466292
227,1773.51,0.23473312048826123
228,1785.8,0.237998983433618
229,1794.0400000000002,0.25384912563620055
230,1806.48,0.2503708893498082
231,1814.82,0.23045583206455808
232,1823.19,0.2342017749329581
233,1835.83,0.2241741396709003
234,1844.3000000000002,0.20445318305146762
235,1857.0900000000001,0.2053909485576607
236,1865.66,0.21163029245039525
237,1874.2700000000002,0.2278132365479967
238,1882.9199999999998,0.20920988085046507
239,1895.9699999999998,0.20072034768829308
240,1904.73,0.21162939255414542
241,1905.46072,0.2109547147894868
242,1913.52,0.20351344309014968
243,1926.78,0.19842625554904822
244,1935.6799999999998,0.20164669679220035
245,1944.61,0.21261103783729565
246,1953.5900000000001,0.19887157855229634
247,1967.1299999999999,0.21705878916266483
248,1976.2099999999998,0.2216039292174762
249,1985.33,0.20968826900821186
250,1994.4899999999998,0.2030440085348718
251,2003.6999999999998,0.20776824773143707
252,2012.95,0.20025998666392664
253,2026.9,0.207769694567519
254,2036.26,0.1979659327738003
255,2045.66,0.20538877071600592
256,2055.1,0.19479770839413582
257,2064.58,0.19524644580818998
258,2074.11,0.20920988289214948
259,2078.89,0.20210535133510085
260,2083.69,0.20968871964601435
261,2093.2999999999997,0.1975080562018224
262,2102.9700000000003,0.19750689236151692
263,2112.67,0.19933162832315462
264,2127.32,0.20071633160542185
265,2137.14,0.1860290667748324
266,2147.0,0.19168290168016722
267,2156.91,0.19796613625540738
268,2166.87,0.1903594705005529
269,2176.87,0.1886213044816227
270,2186.92,0.18645643813259785
271,2187.7616199999998,0.18711486468295263
272,2197.01,0.19435028125645476
273,2207.15,0.18818373462976354
274,2217.3399999999997,0.1776562882662543
275,2222.45,0.17242001516345426
276,2232.71,0.18517616916839982
277,2243.02,0.17642832343652737
278,2253.37,0.1677155779152005
279,2263.77,0.17044513265705563
280,2274.2200000000003,0.17522408766209277
281,2284.7200000000003,0.1801311429303119
282,2295.26,0.16888879840907664
283,2305.86,0.17052105420365976
284,2316.5,0.1621586102087885
285,2327.19,0.1288574664770992
286,2332.56,0.14866499474284556
287,2343.32,0.14203045137961107
288,2354.1400000000003,0.15579060833219496
289,2365.0099999999998,0.14083496554796088
290,2375.92,0.14618032297427236
291,2386.8900000000003,0.13336968071640226
292,2392.39,0.1422758096664218
293,2403.44,0.1365585678296429
294,2414.53,0.14011062620340958
295,2425.67,0.15054268484035827
296,2436.87,0.1448253437931253
297,2442.49,0.15308077337478165
298,2453.76,0.15104473269600352
299,2465.09,0.1490274923330438
300,2476.4700000000003,0.14271285223326605
301,2482.17,0.1440585822360136
302,2493.63,0.13511994255732704
303,2505.1400000000003,0.15307180314182248
304,2510.9199999999996,0.1327406335656612
305,2511.88643,0.13305388548869757
306,2516.7099999999996,0.13461732882618196
307,2522.51,0.13007381701061208
308,2534.15,0.1328469932979855
309,2545.85,0.13108676946312892
310,2557.6,0.14181714552641395
311,2563.5,0.1367189335071273
312,2575.33,0.14454800940743898
313,2587.2099999999996,0.14229828520589227
314,2593.18,0.13940687304400393
315,2605.15,0.1341160486591122
316,2617.1699999999996,0.13111942417236208
317,2623.21,0.13859611186787202
318,2635.31,0.14518878721814854
319,2647.48,0.15926856242582335
320,2653.58,0.16451564999910323
321,2665.83,0.14635122504380466
322,2671.98,0.1536358125152262
323,2684.31,0.15406318739695427
324,2696.7000000000003,0.14483616215645229
325,2702.9199999999996,0.14996604948527212
326,2715.39,0.14033482408179676
327,2727.9300000000003,0.13943839853571968
328,2734.21,0.1463719857423095
329,2746.83,0.12435656003325905
330,2753.1699999999996,0.12846264711761882
331,2765.8700000000003,0.134575121245595
332,2772.25,0.14095300824846807
333,2785.05,0.12949658217272753
334,2797.8999999999996,0.10314845599512863
335,2804.35,0.1102973428554
336,2817.2999999999997,0.13732611647408435
337,2823.79,0.14752360325286903
338,2836.8199999999997,0.14225477670858003
339,2843.3599999999997,0.13777506338550635
340,2856.49,0.12923053663750064
341,2863.0699999999997,0.14604132323294025
342,2876.2900000000004,0.14711809630158948
343,2882.92,0.14546498279517076
344,2884.0315,0.14544265867135525
345,2896.23,0.14519768002229066
346,2909.59,0.15928977946529774
347,2929.76,0.15152397862438852
348,2950.07,0.14818487777764255
349,2970.52,0.15139607692505982
350,2991.11,0.15116077606664036
351,3011.84,0.15301717520238414
352,3032.72,0.15243097433187427
353,3046.72,0.15285687374819906
354,3067.84,0.15367847286768332
355,3089.1000000000004,0.1545000719813308
356,3110.52,0.15461667108830776
357,3132.08,0.1515661701894479
358,3146.53,0.15199396958701172
359,3168.35,0.1528027686773122
360,3190.31,0.14370516776177594
361,3212.42,0.14921986683998603
362,3227.25,0.1402919662217072
363,3249.62,0.15113986528907764
364,3272.14,0.15766776435019436
365,3287.25,0.15557706372024205
366,3310.0299999999997,0.1549902627705191
367,3311.31121,0.15505733338981348
368,3325.3100000000004,0.1557901515604468
369,3332.98,0.1598327454476641
370,3340.66,0.14817493932691167
371,3348.36,0.16364153319021982
372,3356.0800000000004,0.15703882703758845
373,3363.82,0.13999262086901768
374,3371.5699999999997,0.14133731469247712
375,3379.34,0.15716650849999717
376,3387.1299999999997,0.1564838022915777
377,3394.94,0.1508623960672188
378,3402.77,0.16508088982692043
379,3410.61,0.14785418357865235
380,3418.48,0.14960337730647505
381,3426.36,0.15348587102632805
382,3434.25,0.1626280647382113
383,3442.17,0.14869725842618536
384,3450.11,0.15326155209821998
385,3458.06,0.15154494576228486
386,3466.0299999999997,0.14882483941041028
387,3474.02,0.15587533304259624
388,3482.0299999999997,0.14959252665884276
389,3490.06,0.15560842025914978
390,3498.1,0.1432678138514871
391,3506.17,0.1549788074199152
392,3514.25,0.14635020098037363
393,3522.3500000000004,0.15542729452489257
394,3530.47,0.14542188805347203
395,3538.6099999999997,0.15586428156611204
396,3546.77,0.15918147506281258
397,3554.9399999999996,0.1595874685515434
398,3563.1400000000003,0.15528866201636504
399,3571.35,0.14362985547321697
400,3579.58,0.1426811489141294
401,3587.8300000000004,0.1316729423391024
402,3596.11,0.14542203574016618
403,3604.3999999999996,0.15301652913326025
404,3612.7,0.1408892225183846
405,3621.03,0.14894231587959975
406,3628.1400000000003,0.15849971021312192
407,3630.89,0.16574160802144627
408,3633.63,0.15005130583774032
409,3636.37,0.13480890365403436
410,3639.1099999999997,0.13157710147032842
411,3641.86,0.14266979927865275
412,3644.6,0.1400352970949468
413,3647.34,0.14356619491124087
414,3650.08,0.15259039272753494
415,3652.8300000000004,0.13769919053585924
416,3655.57,0.15938458835215333
417,3658.3100000000004,0.17373148616844739
418,3661.05,0.15439308398474144
419,3663.7999999999997,0.14788588179306578
420,3666.54,0.15026467960935982
421,3669.2799999999997,0.1632995774256539
422,3672.0199999999995,0.15902247524194796
423,3674.77,0.15945917305027227
424,3677.5099999999998,0.15159807086656635
425,3680.25,0.1613688686828604
426,3683.0,0.15354966649118473
427,3685.7400000000002,0.1465418643074788
428,3688.48,0.15174746212377285
429,3691.2200000000003,0.15949165994006692
430,3693.97,0.14563505774839125
431,3696.7100000000005,0.1478752555646853
432,3699.4500000000003,0.16486745338097936
433,3702.19,0.1610489511972734
434,3704.94,0.14764044900559775
435,3707.68,0.14014204682189177
436,3710.4199999999996,0.15681414463818585
437,3713.16,0.1704676424544799
438,3715.91,0.16668034026280423
439,3718.65,0.1737632380790983
440,3721.39,0.18512343589539235
441,3724.13,0.21612093371168642
442,3726.88,0.2919704315200108
443,3729.6200000000003,0.43592752933630485
444,3732.36,0.5565251271525989
445,3735.1099999999997,0.5645655249609232
446,3737.85,0.4553189227772173
447,3740.5899999999997,0.2803548205935113
448,3743.3300000000004,0.2072141184098054
449,3746.08,0.1884294162181297
450,3748.8199999999997,0.16402441403442378
451,3751.56,0.1595873118507178
452,3754.2999999999997,0.15267560966701188
453,3757.05,0.1601416074753362
454,3759.79,0.16531510529163027
455,3762.53,0.17164070310792434
456,3765.27,0.18708620092421838
457,3768.0200000000004,0.18680819873254273
458,3770.76,0.18814169654883678
459,3773.5,0.17097939436513082
460,3776.2400000000002,0.17166229218142487
461,3778.99,0.1822961899897492
462,3781.73,0.19245108780604328
463,3784.47,0.19773138562233733
464,3787.2099999999996,0.2033849834386314
465,3789.96,0.21020008124695572
466,3792.7,0.22358697906324979
467,3795.44,0.19996067687954383
468,3798.19,0.19066937468786815
469,3800.9300000000003,0.17690967250416223
470,3801.8939600000003,0.1702075463402909
471,3803.67,0.15785927061538338
472,3806.41,0.1637154688866786
473,3809.16,0.1854853671516646
474,3811.8999999999996,0.21392286542295982
475,3814.6400000000003,0.204291163694255
476,3817.38,0.2271820619655502
477,3820.13,0.2389891602305363
478,3822.87,0.21169355850183147
479,3825.6099999999997,0.19541655677312667
480,3828.35,0.19787015504442185
481,3831.1,0.1854854533094079
482,3833.84,0.18077105158070308
483,3836.58,0.16120874985199832
484,3839.32,0.1410062481232935
485,3842.07,0.15428564638827955
486,3844.81,0.16526184465957475
487,3847.55,0.17734734293086993
488,3850.29,0.18436624120216516
489,3853.04,0.2000241394671512
490,3855.7799999999997,0.2189363377384464
491,3858.5199999999995,0.22336333600974156
492,3861.27,0.21537313427472765
493,3864.0099999999998,0.2270853325460228
494,3866.75,0.23104303081731803
495,3869.49,0.24999792908861324
496,3872.2400000000002,0.23382642735359926
497,3874.98,0.23566142562489448
498,3877.7200000000003,0.23201372389618966
499,3880.46,0.22776872216748487
500,3883.2100000000005,0.2183919204324709
501,3885.9500000000003,0.19930961870376612
502,3888.69,0.1885046169750613
503,3891.4300000000003,0.1962701152463565
504,3894.18,0.19421071351134256
505,3896.9199999999996,0.19001901178263775
506,3899.66,0.19186461005393296
507,3902.3999999999996,0.19539550832522815
508,3905.15,0.2015174065902142
509,3907.89,0.2116296048615094
510,3910.63,0.2195446031328046
511,3913.38,0.21599180139779067
512,3916.1200000000003,0.21702669966908583
513,3918.86,0.23208829794038105
514,3921.6,0.22957119621167624
515,3924.35,0.2280450944766623
516,3927.0899999999997,0.22105869274795747
517,3929.8300000000004,0.2193949910192527
518,3932.57,0.20954998929054786
519,3935.3199999999997,0.18394938755553392
520,3938.06,0.18608298582682914
521,3940.7999999999997,0.17731518409812433
522,3943.54,0.18803538236941952
523,3946.29,0.20763998063440556
524,3949.03,0.21173617890570076
525,3951.77,0.22697907717699595
526,3954.5099999999998,0.21797677544829117
527,3957.26,0.21103197371327723
528,3960.0,0.2065629719845724
529,3962.7400000000002,0.20025927025586762
530,3965.48,0.1921954685271628
531,3968.23,0.18082416679214885
532,3970.97,0.15548046506344404
533,3973.7099999999996,0.14613676333473927
534,3976.46,0.1598640615997253
535,3979.2,0.1640989598710205
536,3981.94,0.1821684581423157
537,3984.68,0.20556065641361088
538,3987.4300000000003,0.21170385467859695
539,3990.17,0.22056805294989212
540,3992.91,0.23881895122118735
541,3995.65,0.24024864949248254
542,3998.3999999999996,0.23883974775746858
543,4001.1400000000003,0.23874404602876376
544,4003.88,0.249507044300059
545,4006.6200000000003,0.25389124257135415
546,4009.37,0.2508290408363402
547,4012.1099999999997,0.24050403910763543
548,4014.85,0.24338433737893062
549,4017.5899999999997,0.2421473356502258
550,4020.34,0.24401313391521184
551,4023.08,0.2510214321865071
552,4025.82,0.25011503045780226
553,4028.57,0.2494101287227883
554,4031.31,0.24251982699408353
555,4034.05,0.2389575252653787
556,4036.79,0.24860042353667391
557,4039.54,0.24704222180165994
558,4042.2799999999997,0.24774652007295517
559,4045.0199999999995,0.25466951834425033
560,4047.76,0.24919781661554555
561,4050.5099999999998,0.2412076148805316
562,4053.25,0.2433199131518268
563,4055.99,0.252984211423122
564,4058.73,0.2618059096944172
565,4061.48,0.25748490795940326
566,4064.2200000000003,0.24304260623069843
567,4066.96,0.23738960450199365
