,lambda (Angstroms),Total Flux (erg/s/cm^2/Angstrom)
0,100.09,3.225125511120764
1,101.96000000000001,3.2161050462154823
2,104.09,3.2058303898438267
3,104.712855,3.202825879577042
4,106.03,3.169451134618386
5,108.0,3.119533914523761
6,110.0,3.068856617270523
7,113.86999999999999,2.9707959911838313
8,117.87,2.869441397035256
9,120.22644299999999,2.809734671880096
10,120.9,2.7954264466116476
11,125.14000000000001,2.7053538180662766
12,126.88,2.668390137087418
13,128.06,2.643322833716248
14,131.04,2.5800171326274315
15,131.95,2.560686798385809
16,134.09,2.5152257457950276
17,136.9,2.455533678497776
18,138.038426,2.43134972204656
19,140.09,2.4001981526030702
20,143.02,2.3557366168849367
21,147.03,2.29492118758128
22,151.15,2.2323731087994676
23,155.03,2.1734721777699937
24,158.489319,2.1209591479070062
25,159.0,2.1150989002810516
26,161.95999999999998,2.0811314636307365
27,166.11999999999998,2.0333973881897536
28,169.98,1.989104950871438
29,173.14,1.9528453887393453
30,177.18,1.906487773627429
31,180.06,1.8734429551298255
32,181.970086,1.851526765955848
33,182.14000000000001,1.8500396649665076
34,185.96,1.816608206023158
35,191.17,1.7710106459669148
36,193.82,1.7478249337308216
37,197.88,1.7122936211449582
38,202.03,1.675977956143152
39,204.83999999999997,1.6513910543120498
40,208.929613,1.6155861684205393
41,210.09,1.60794915083823
42,215.98,1.5692360645365606
43,219.99,1.5428682279902628
44,223.04999999999998,1.5227385966990732
45,227.20000000000002,1.4954539346688647
46,229.83,1.4784804656068289
47,234.1,1.4510787147475543
48,239.88329199999998,1.4134157008948207
49,240.11,1.4122817160398649
50,246.26999999999998,1.3809532404800349
51,252.01000000000002,1.3519953747538294
52,257.28000000000003,1.3249376956985854
53,260.26,1.3101192705933429
54,263.88,1.2918817941701957
55,268.79,1.266995076543773
56,273.78,1.241692178377612
57,275.42287,1.2333632242062404
58,278.87,1.2199545296361376
59,284.06,1.1997663610983276
60,290.01,1.1765031892563291
61,296.08,1.1529312739452484
62,300.89,1.1341951210595322
63,307.90000000000003,1.1069474912406396
64,316.227766,1.0745793593651256
65,317.99,1.0694668006825128
66,327.65000000000003,1.041388031427844
67,338.38,1.0101737306563539
68,347.85999999999996,0.9825894430213375
69,356.79,0.956604621446369
70,363.078055,0.9383197526195934
71,365.94,0.9320877909827576
72,375.33,0.9116116921438754
73,384.95,0.8905623144569694
74,394.83,0.8690920077244713
75,404.96,0.8470158416789039
76,414.39,0.8264422999099306
77,416.86938299999997,0.8210277328194551
78,422.09000000000003,0.8123142521834933
79,429.94,0.7992243783864152
80,440.96999999999997,0.7808505807250434
81,451.23999999999995,0.7637154074274649
82,459.63,0.7497186667666389
83,470.34,0.7318635704689693
84,478.630092,0.7180531069887046
85,480.19,0.7160536015396529
86,490.24,0.7031289627393822
87,500.51,0.6899763192499513
88,506.3,0.6825270624306908
89,512.16,0.6750867377103338
90,520.49,0.6643970384798606
91,530.16,0.6519708281426848
92,540.02,0.6392809420739614
93,549.5408739999999,0.6270680477645245
94,550.06,0.6265596352492365
95,560.2900000000001,0.6165803179380174
96,569.39,0.6076995049163075
97,579.97,0.5973150014888686
98,589.4,0.5880996135861516
99,600.36,0.5773265426896745
100,610.11,0.5676240070235564
101,620.03,0.5581224243581319
102,630.0999999999999,0.5482521599286133
103,630.957344,0.5474141815689348
104,640.3399999999999,0.5401412555569195
105,650.7400000000001,0.5320651387041426
106,658.28,0.5261910768858797
107,664.37,0.5214942499942058
108,675.1600000000001,0.5131246984094501
109,684.5600000000001,0.5057778500232866
110,695.6800000000001,0.49721712543454855
111,705.36,0.4896416413177336
112,716.8199999999999,0.4808269692703471
113,724.43596,0.4749191237288955
114,726.79,0.473562384863478
115,735.21,0.468713308989941
116,745.43,0.4628307438774057
117,755.8,0.45686211007828703
118,764.56,0.45172228498182815
119,775.19,0.4457104206592986
120,784.17,0.44052406888918433
121,795.0799999999999,0.4342652386183662
122,804.28,0.4289786981745965
123,815.4699999999999,0.42253966795548975
124,824.92,0.417125711700748
125,831.763771,0.4130879223703154
126,834.4699999999999,0.4118837135006846
127,844.13,0.40785526209975054
128,855.87,0.40280010615285944
129,865.78,0.39855877446515175
130,875.8100000000001,0.3942692603997926
131,885.9499999999999,0.38993594348825306
132,894.15,0.38642579068207705
133,904.5,0.3819539906096477
134,914.9699999999999,0.3778805741595669
135,925.57,0.3789590758003638
136,934.13,0.3830683458612338
137,944.9499999999999,0.39128593680966994
138,954.992586,0.3977779275806456
139,955.89,0.3983663783991018
140,964.74,0.3977956571805881
141,975.91,0.3575444452076166
142,984.9399999999999,0.37992244242194667
143,994.05,0.3796804261619851
144,1005.5600000000001,0.394595925673274
145,1014.8699999999999,0.3895197032275834
146,1024.26,0.35437303230760103
147,1036.12,0.36218276849386416
148,1045.71,0.3955121113881526
149,1055.38,0.3897540358081494
150,1065.15,0.3680196721352818
151,1075.0,0.37585689998812255
152,1084.95,0.35541526974809867
153,1094.99,0.37112694122449663
154,1096.4782,0.3700552129209976
155,1105.12,0.3644896361052927
156,1115.35,0.35731644812394514
157,1125.67,0.3463737427410021
158,1136.08,0.3610928499564636
159,1143.96,0.3506656330167745
160,1154.54,0.35218934402922253
161,1165.22,0.35038465903989774
162,1176.01,0.32160435944862303
163,1184.1599999999999,0.3413385903041477
164,1195.1100000000001,0.31237686311003654
165,1206.17,0.29392151131397554
166,1214.53,0.2822896715657775
167,1225.77,0.3032565249665256
168,1234.27,0.3276784548158458
169,1245.69,0.331422013413403
170,1254.32,0.3236159714604187
171,1258.92541,0.3170984536168415
172,1265.93,0.3078771953611352
173,1274.7,0.32794092699600197
174,1283.54,0.33035382938508095
175,1295.4199999999998,0.30472072024280245
176,1304.4,0.30123880414030557
177,1316.46,0.3191373412231441
178,1325.5900000000001,0.31246978530824476
179,1334.7800000000002,0.29837274146838455
180,1344.03,0.31341586970356333
181,1356.4699999999998,0.30688532659498213
182,1365.87,0.2938592950177583
183,1375.34,0.2960669241947467
184,1384.87,0.29448183544677414
185,1394.4699999999998,0.2809260174530137
186,1404.14,0.28120069021346533
187,1413.8700000000001,0.28000537504895606
188,1423.6699999999998,0.280395850638659
189,1433.5400000000002,0.277096106982574
190,1443.48,0.2795494540807012
191,1445.43977,0.2800716156041413
192,1446.8,0.2805347293051862
193,1453.48,0.2765828573174226
194,1463.5600000000002,0.267643448030498
195,1473.7,0.26573985243829407
196,1483.92,0.265857778439051
197,1494.2,0.2658367381345287
198,1504.5600000000002,0.2594609594229673
199,1511.5,0.24916966011232675
200,1518.48,0.25306881659816666
201,1525.49,0.25017722993136693
202,1536.06,0.23906699915132792
203,1546.71,0.24564397996424983
204,1553.85,0.23979702963601157
205,1564.62,0.23837690783837484
206,1575.47,0.24223954763369904
207,1586.39,0.244641410072864
208,1593.71,0.24587642082878783
209,1604.76,0.2419884896065143
210,1615.88,0.2397590810280816
211,1623.3400000000001,0.23313537707168697
212,1634.59,0.23655810483181577
213,1645.9199999999998,0.23728135418490554
214,1653.52,0.22751445551619248
215,1659.58691,0.23114087721902277
216,1664.98,0.2346410120240227
217,1672.67,0.22168729753273095
218,1676.52,0.23800690609040673
219,1684.26,0.2417440196323315
220,1695.94,0.23248086619172187
221,1703.76,0.2286396525867932
222,1715.57,0.22540842003254669
223,1723.49,0.2244592224940511
224,1735.44,0.22968247243281095
225,1743.45,0.22626319935410522
226,1755.53,0.23244189017922817
227,1763.6399999999999,0.2206343831669556
228,1775.86,0.2241282864850849
229,1784.0600000000002,0.22350084393260208
230,1796.43,0.23163495135038115
231,1804.72,0.22788880325768818
232,1813.05,0.22146510159156851
233,1825.6200000000001,0.2201386111422138
234,1834.0400000000002,0.21438093393588392
235,1846.75,0.2057226359795356
236,1855.28,0.2072095964462822
237,1863.84,0.21029637173295873
238,1876.76,0.21310841751612003
239,1885.4299999999998,0.207037080475873
240,1894.1299999999999,0.20549309825555592
241,1902.8700000000001,0.20630130246181205
242,1905.46072,0.20579033531845736
243,1916.06,0.2040392204737152
244,1924.9099999999999,0.2014343109230776
245,1933.79,0.1969710367637938
246,1947.19,0.20564277490181143
247,1956.1799999999998,0.2011980205108248
248,1965.21,0.20865778330830986
249,1974.28,0.20843074329426658
250,1983.3999999999999,0.20408735226581293
251,1997.14,0.20054560150584
252,2006.3600000000001,0.1997356984485656
253,2015.62,0.1961478825797629
254,2024.93,0.19670564569654977
255,2034.27,0.19536700420469047
256,2043.6599999999999,0.1993430416984208
257,2053.1,0.1942318481777407
258,2067.33,0.192119215476546
259,2072.09,0.19984077090467767
260,2076.87,0.2003745199270452
261,2086.46,0.20207599336313392
262,2096.0899999999997,0.1960350639876944
263,2105.76,0.19280041180072652
264,2115.48,0.19340747859934831
265,2125.25,0.1936603943835597
266,2135.06,0.18363840735624276
267,2144.91,0.1891758775173976
268,2154.81,0.19069213666414198
269,2164.76,0.18511950479647593
270,2174.75,0.1837237101172817
271,2184.79,0.18442107442367703
272,2187.7616199999998,0.18539740828026197
273,2194.87,0.187934803690463
274,2205.0,0.18420849286042967
275,2215.18,0.17639472129579592
276,2225.41,0.17448932899656183
277,2235.68,0.18329296010964746
278,2246.0,0.17773842048813274
279,2256.37,0.1709067701320176
280,2266.7799999999997,0.17139357318822224
281,2277.2400000000002,0.17419626550982645
282,2282.4900000000002,0.17888771837678843
283,2293.03,0.1719324675230321
284,2303.61,0.17366762008159548
285,2314.25,0.16800882775863843
286,2324.93,0.1490981488480011
287,2335.66,0.15742483920276334
288,2346.44,0.15123776882292528
289,2357.27,0.16269524770848687
290,2362.7000000000003,0.15082200593088751
291,2373.6099999999997,0.15516996164108854
292,2384.57,0.14516033661668915
293,2395.5699999999997,0.1501153850046095
294,2406.6299999999997,0.1473652785110094
295,2417.74,0.14951620128280893
296,2423.31,0.1590366114483286
297,2434.5,0.15617167104476753
298,2445.73,0.1610662940535262
299,2457.02,0.16028859218076444
300,2462.69,0.15792632087708341
301,2474.06,0.15324005582896105
302,2485.47,0.1510230041931584
303,2496.95,0.14774034352891527
304,2502.7,0.1602029090498736
305,2511.88643,0.1470030312179398
306,2514.2599999999998,0.14362842460280878
307,2520.0499999999997,0.14249621717174968
308,2525.8599999999997,0.14014194436096322
309,2537.52,0.1431965479799357
310,2543.37,0.14308996440969463
311,2555.1099999999997,0.15393616650975783
312,2566.8999999999996,0.14775129516050273
313,2572.82,0.15465233276121598
314,2584.7,0.15196575720318797
315,2596.6299999999997,0.14874729819584162
316,2602.61,0.14474296965737293
317,2614.6200000000003,0.14177473913111732
318,2626.69,0.14950403246567973
319,2632.75,0.1598790624083018
320,2644.9,0.17423246422395494
321,2657.1099999999997,0.18624163990042614
322,2663.2299999999996,0.16289604370386623
323,2675.5299999999997,0.16990380517156445
324,2687.88,0.17299547318994435
325,2694.07,0.16111888816433884
326,2706.5099999999998,0.16890449197394586
327,2712.75,0.15652937349902205
328,2725.27,0.15236534578971977
329,2737.85,0.1599586219412355
330,2744.16,0.1384314646372661
331,2756.83,0.14426707658000892
332,2763.1800000000003,0.1515443885165848
333,2775.94,0.15639401625055468
334,2782.33,0.14155348742767598
335,2795.18,0.11839391095287294
336,2808.08,0.12302011102875154
337,2814.55,0.15159983068696353
338,2827.54,0.16608520655406925
339,2834.06,0.16228821276296296
340,2847.1400000000003,0.15284798442129569
341,2853.71,0.1416252571808711
342,2866.88,0.16413475463043092
343,2873.4900000000002,0.1734706166305517
344,2884.0315,0.16995931392563124
345,2886.75,0.16908915246147513
346,2893.3999999999996,0.17496185327705685
347,2906.7599999999998,0.19800905903587968
348,2926.91,0.18656547857482278
349,2947.2,0.18132862107830447
350,2967.63,0.18584558654632471
351,2988.2,0.1867029749788835
352,3008.9100000000003,0.18784938637598086
353,3029.77,0.19072750809222672
354,3050.77,0.19224265277301109
355,3071.92,0.1986096077729439
356,3093.21,0.19841228573741532
357,3107.49,0.20731792812034872
358,3129.0299999999997,0.20069368995006753
359,3150.7200000000003,0.20178116209893487
360,3172.56,0.20782664456695063
361,3187.2,0.19224753171584033
362,3209.2900000000004,0.2023584980491035
363,3231.54,0.18617386205612507
364,3246.46,0.21516149513409188
365,3268.96,0.23202924300636085
366,3291.62,0.2291716885523882
367,3306.81,0.22380628020482227
368,3311.31121,0.2228156314712022
369,3322.0699999999997,0.22054589626065313
370,3329.73,0.23331466393451367
371,3337.4100000000003,0.22453138870412848
372,3345.1,0.22482459202162036
373,3352.81,0.21425255243486646
374,3360.5400000000004,0.22893296994386675
375,3368.29,0.22844444454862123
376,3376.0499999999997,0.20141879770125287
377,3383.84,0.20164578649751577
378,3391.6400000000003,0.23095045384165577
379,3399.46,0.23492867828155
380,3407.29,0.22560158126932134
381,3415.15,0.22355951990072395
382,3423.02,0.24614573708000367
383,3430.91,0.23373101135503763
384,3438.82,0.23612214272582577
385,3446.75,0.19135793119236813
386,3454.69,0.23181089820678757
387,3462.6600000000003,0.20638720086483833
388,3470.64,0.2236396820707662
389,3478.64,0.19800102037244827
390,3486.66,0.21693911576988453
391,3494.6899999999996,0.20665988971519794
392,3502.75,0.2349548993041426
393,3510.83,0.2331954659888415
394,3518.9199999999996,0.21917531122141748
395,3527.0299999999997,0.2087129135497477
396,3535.16,0.2316646729738321
397,3543.31,0.25017678949367067
398,3551.48,0.2469273631092635
399,3559.6699999999996,0.23851629382061054
400,3567.8700000000003,0.22800770307983464
401,3576.1,0.20805994798269006
402,3584.3399999999997,0.1856318714334226
403,3592.6000000000004,0.2021900519799093
404,3600.89,0.24909366817002737
405,3609.19,0.2211300629080225
406,3617.5099999999998,0.23401481474177188
407,3625.85,0.24035042367127543
408,3633.65,0.21970349101541545
409,3636.4,0.22051649168161866
410,3639.15,0.23316339234782185
411,3641.89,0.24021611446614796
412,3644.6400000000003,0.24181881513235118
413,3647.39,0.2445439157985544
414,3650.1299999999997,0.2371850379168805
415,3652.88,0.2522799385830837
416,3655.62,0.24528196070140984
417,3658.3700000000003,0.260653261367613
418,3661.12,0.25191116203381625
419,3663.8599999999997,0.26582278415214233
420,3666.61,0.2695575848183455
421,3669.3599999999997,0.26073078548454875
422,3672.1,0.2620359076028749
423,3674.85,0.2615853082690781
424,3677.59,0.24897513038740418
425,3680.3399999999997,0.24396703105360742
426,3683.09,0.2506969317198106
427,3685.83,0.25277475383813675
428,3688.5800000000004,0.23454515450433994
429,3691.33,0.25035075517054317
430,3694.0699999999997,0.25859367728886923
431,3696.82,0.2628981779550725
432,3699.56,0.26373510007339857
433,3702.31,0.2700363007396018
434,3705.06,0.266590601405805
435,3707.8,0.2365510235241311
436,3710.55,0.2357847241903343
437,3713.2999999999997,0.24551542485653755
438,3716.04,0.27256954697486363
439,3718.79,0.25603784764106685
440,3721.54,0.26113194830727005
441,3724.2799999999997,0.26856827042559617
442,3727.03,0.28145767109179937
443,3729.77,0.31475039321012543
444,3732.5199999999995,0.3125455938763287
445,3735.27,0.2775804945425319
446,3738.0099999999998,0.247913216660858
447,3740.76,0.22042761732706123
448,3743.5099999999998,0.23803811799326444
449,3746.25,0.22963574011159052
450,3749.0,0.22177354077779377
451,3751.7400000000002,0.21818246289611984
452,3754.49,0.23753606356232307
453,3757.2400000000002,0.25025056422852626
454,3759.98,0.2550753863468524
455,3762.73,0.2601976870130556
456,3765.48,0.2610331876792588
457,3768.22,0.25958570979758494
458,3770.9700000000003,0.25621901046378814
459,3773.71,0.26773343258211424
460,3776.46,0.28777503324831744
461,3779.21,0.29492233391452066
462,3781.95,0.3078244560328468
463,3784.7,0.30899275669904996
464,3787.45,0.3054566573652532
465,3790.19,0.2984081794835793
466,3792.94,0.2711367801497825
467,3795.6800000000003,0.2576354022681086
468,3798.43,0.24620270293431182
469,3801.1800000000003,0.24711730360051504
470,3801.8939600000003,0.24617423074051495
471,3803.92,0.2435110385103068
472,3806.6699999999996,0.27063230179745074
473,3809.42,0.2822814650845946
474,3812.16,0.2939602855961489
475,3814.9100000000003,0.29001894888329277
476,3817.65,0.27763506939484706
477,3820.4,0.2625198326819909
478,3823.15,0.24729749596913483
479,3825.8900000000003,0.24259031648068913
480,3828.64,0.237537879767833
481,3831.39,0.2203583430549769
482,3834.13,0.21449476356653116
483,3836.8799999999997,0.20918852685367506
484,3839.6200000000003,0.21231034736522933
485,3842.37,0.2192723106523732
486,3845.1200000000003,0.23862097393951712
487,3847.86,0.25975319445107137
488,3850.6099999999997,0.2707650577382153
489,3853.36,0.27297752102535916
490,3856.1,0.26947194153691345
491,3858.85,0.2699528048240573
492,3861.5899999999997,0.26157372533561163
493,3864.34,0.2730198886227555
494,3867.09,0.2763323519098994
495,3869.8300000000004,0.2858620724214537
496,3872.58,0.2864218357085975
497,3875.3300000000004,0.2752380989957414
498,3878.07,0.2681055195072957
499,3880.8199999999997,0.2715420827944396
500,3883.56,0.2652782033059939
501,3886.31,0.25328786659313773
502,3889.06,0.25127002988028163
503,3891.8,0.2568794503918359
504,3894.55,0.2652402136789798
505,3897.3,0.2777693769661237
506,3900.04,0.298495597477678
507,3902.79,0.30115936076482186
508,3905.5299999999997,0.30008488127637617
509,3908.28,0.31123764456352
510,3911.0299999999997,0.31037600785066394
511,3913.7699999999995,0.3299347283622182
512,3916.52,0.32563239164936214
513,3919.2700000000004,0.323106754936506
514,3922.01,0.30486807544806027
515,3924.7599999999998,0.29506053873520416
516,3927.5,0.2720498592467584
517,3930.25,0.24781382253390233
518,3933.0,0.21920648582104618
519,3935.74,0.20573380633260047
520,3938.4900000000002,0.21825176961974438
521,3941.24,0.23595333290688827
522,3943.9800000000005,0.2559687534184425
523,3946.73,0.28141471670558643
524,3949.47,0.2982602372171407
525,3952.2200000000003,0.31084010050428457
526,3954.97,0.3112588637914285
527,3957.71,0.31443748430298274
528,3960.46,0.30021894759012663
529,3963.2099999999996,0.27078241087727056
530,3965.95,0.2350465313888248
531,3968.7,0.2114930946759687
532,3971.44,0.20173751518752295
533,3974.19,0.21488727847466685
534,3976.94,0.24855724176181074
535,3979.68,0.284828762273365
536,3982.4300000000003,0.3131289255605089
537,3985.18,0.33160868884765277
538,3987.9199999999996,0.34695960935920706
539,3990.67,0.35167647264635093
540,3993.4199999999996,0.3587679359334948
541,3996.1600000000003,0.3642366564450491
542,3998.91,0.37097841973219303
543,4001.65,0.37225064024374727
544,4004.4,0.37643710353089116
545,4007.15,0.38149796681803505
546,4009.89,0.3859063873295893
547,4012.64,0.38800025061673327
548,4015.39,0.3959265139038771
549,4018.1299999999997,0.39860893441543144
550,4020.88,0.3971661977025753
551,4023.62,0.39522321821412953
552,4026.3700000000003,0.3928497815012734
553,4029.12,0.3917455447884174
554,4031.8599999999997,0.38242476529997166
555,4034.61,0.3775413285871155
556,4037.3599999999997,0.3818350918742594
557,4040.1,0.3865480123858137
558,4042.85,0.3918231756729576
559,4045.59,0.3875450961845119
560,4048.34,0.37251425947165573
561,4051.09,0.3737452227587996
562,4053.83,0.3768449432703539
563,4056.5800000000004,0.3814038065574978
564,4059.33,0.3788667698446417
565,4062.0699999999997,0.36934859035619594
566,4064.82,0.37105895364333985
567,4067.56,0.3673110741548941
568,4070.31,0.371232537442038
569,4073.06,0.3732080007291819
570,4075.8,0.3784737212407362
571,4078.55,0.3730656845278801
572,4081.2999999999997,0.37035954781502395
573,4084.04,0.37913366832657824
574,4086.79,0.3864676316137221
575,4089.53,0.3887664521252764
576,4092.2799999999997,0.38728991541242025
577,4095.03,0.38104137869956417
578,4097.77,0.36368279921111846
579,4100.52,0.3437898624982623
580,4103.2699999999995,0.33532482578540623
581,4106.01,0.3363994462969605
582,4108.76,0.3464410095841044
583,4111.5,0.3597105300956586
584,4114.25,0.36984229338280256
