,lambda (Angstroms),Total Flux (erg/s/cm^2/Angstrom)
0,102.01,38.69936895876391
1,103.91,38.58907557670752
2,104.712855,38.54247052766915
3,106.08,38.125595630992095
4,108.06,37.52184672723985
5,110.06,36.9119993504406
6,113.93,35.73194467663281
7,117.94000000000001,34.50920068802113
8,120.22644299999999,33.81201008363472
9,120.96000000000001,33.62447881255527
10,124.92,32.61211869362219
11,126.95,32.09315631054457
12,128.13,31.791493449205127
13,131.10999999999999,31.029666903160688
14,132.02,30.797028618598166
15,133.86,30.326639082362288
16,136.98,29.529022082354714
17,138.038426,29.258439202078655
18,139.85,28.927406811789456
19,143.1,28.33352876133392
20,147.11,27.60077590337572
21,150.89,26.910049952833223
22,155.11,26.138922169604612
23,158.489319,25.52141368733045
24,159.09,25.438430573505244
25,162.05,25.02951146634874
26,165.82,24.508692593553377
27,170.07999999999998,23.920180951349813
28,172.84,23.538892160226858
29,176.87,22.982155229940876
30,180.16,22.527647976579026
31,181.82,22.29832254916058
32,181.970086,22.277588472810518
33,186.06,21.846537956215876
34,190.82999999999998,21.343811723562233
35,193.93,21.01709269558276
36,197.99,20.589196173407835
37,202.14,20.15181486636209
38,204.95,19.85566102563083
39,208.929613,19.436236347276736
40,210.21,19.33478362050562
41,216.1,18.868090178639978
42,220.10999999999999,18.55035778464848
43,223.18,18.307105363869052
44,226.79999999999998,18.02027682376257
45,229.95999999999998,17.769937689731986
46,234.23,17.431697905877144
47,239.88329199999998,16.98382462043053
48,240.24,16.962048596162276
49,245.84,16.62011983742454
50,252.14000000000001,16.23548906954458
51,256.83,15.949079902341728
52,259.81,15.767185205907715
53,264.03,15.509551518336064
54,268.94,15.209771343931365
55,273.94,14.904496267944099
56,275.42287,14.813959599928472
57,279.03000000000003,14.64494500709117
58,284.21999999999997,14.401764989755579
59,290.17,14.12294917745793
60,296.24,13.838547557176797
61,301.06,13.612699121306935
62,308.07,13.284251961788529
63,316.227766,12.902030822867317
64,318.15999999999997,12.834415887977721
65,327.83,12.496020732308315
66,337.79,12.147470140416662
67,348.05999999999995,11.788066658335714
68,356.98,11.47591081063074
69,363.078055,11.262513227060749
70,366.14,11.182273579294414
71,374.67,10.958733334677138
72,385.17,10.683523629824688
73,395.05,10.424635631340669
74,405.18,10.159168817288736
75,413.67,9.936668139082325
76,416.86938299999997,9.852815160928483
77,422.33,9.743525036533024
78,430.18,9.586419082228197
79,441.21,9.365685252370588
80,451.49,9.159936278841464
81,459.88,8.992016595820129
82,469.51,8.799286485042362
83,478.630092,8.616761101359875
84,480.45,8.588750084506014
85,490.51,8.433884077923643
86,499.63,8.293528867658113
87,506.58000000000004,8.186533990389973
88,512.45,8.09627522689012
89,519.5799999999999,7.986532812327268
90,530.46,7.819051816957863
91,540.3199999999999,7.66723768659184
92,549.5408739999999,7.525338372361733
93,550.36,7.5157234739332415
94,560.59,7.395665872394775
95,569.7,7.288752089906464
96,580.3,7.164252041753215
97,589.7199999999999,7.0537186848849505
98,600.6899999999999,6.924882019116917
99,610.45,6.810169823251282
100,620.37,6.693953818092769
101,630.45,6.5756201936413765
102,630.957344,6.5696637539237726
103,640.69,6.479087916180165
104,649.6,6.396232896990875
105,658.6400000000001,6.312126314825759
106,664.74,6.255415504652396
107,675.5400000000001,6.154891110968408
108,684.93,6.067435719637608
109,694.4599999999999,5.979043956640534
110,705.75,5.8738569031245875
111,715.5699999999999,5.7827277461045155
112,724.43596,5.700262295153571
113,725.5200000000001,5.6927801346159415
114,735.61,5.623131610839503
115,745.85,5.55261231000395
116,754.48,5.493128266002895
117,764.98,5.420599153864877
118,775.62,5.347431503871686
119,784.6,5.285572698732694
120,795.52,5.210275931029158
121,804.73,5.146803548199524
122,815.92,5.06962225698958
123,825.37,5.004688294265363
124,831.763771,4.960002767155676
125,834.93,4.9433997490208315
126,844.5999999999999,4.894448009895055
127,854.38,4.844078123121521
128,864.27,4.793369588700226
129,874.2800000000001,4.742067468754103
130,884.4000000000001,4.690302546160221
131,894.64,4.63777602604151
132,905.0,4.584244118397969
133,915.48,4.5341797442296015
134,923.95,4.557121436352112
135,934.6500000000001,4.597944127888224
136,945.47,4.710470568899508
137,954.22,4.829332076464086
138,954.992586,4.828137445668593
139,965.27,4.813392495530006
140,974.2,4.300961624851588
141,985.48,4.587026018205169
142,994.6,4.603475076235723
143,1006.1199999999999,4.837700517958528
144,1015.43,4.787089014698052
145,1024.82,4.302133590893984
146,1034.31,4.427975466410427
147,1043.8799999999999,4.947469721383277
148,1055.96,4.8740983193009395
149,1065.73,4.560064272914811
150,1075.6000000000001,4.7059772258491925
151,1085.55,4.408152558239984
152,1095.5900000000001,4.683662030019233
153,1096.4782,4.675974840434502
154,1105.73,4.604377337847573
155,1115.96,4.508455946707283
156,1126.29,4.356543057999639
157,1134.09,4.638201347746046
158,1144.5900000000001,4.475135603173899
159,1155.18,4.531876440791136
160,1165.87,4.531593480841019
161,1173.95,4.0822285373988345
162,1184.81,4.428316221584216
163,1195.77,3.9472570082022433
164,1204.06,3.6651025898686163
165,1215.2,3.494082140865406
166,1223.63,3.891515205937484
167,1234.95,4.347709121313038
168,1246.3799999999999,4.450914059364504
169,1255.02,4.329899949545137
170,1258.92541,4.212932296813624
171,1263.72,4.07502992581062
172,1275.4099999999999,4.4698526652288955
173,1284.25,4.545593602479328
174,1296.13,4.079487862042126
175,1305.12,4.035713315196129
176,1314.16,4.422811273651322
177,1326.32,4.3087205629007865
178,1335.52,4.056319538319788
179,1344.7700000000002,4.38275001903998
180,1354.1000000000001,4.301183508242077
181,1363.48,4.063798502745364
182,1376.1000000000001,4.133100840765778
183,1385.6399999999999,4.126577852232873
184,1395.24,3.889540870061397
185,1404.91,3.9251133953115867
186,1414.65,3.919510427983443
187,1424.4599999999998,3.958786968076967
188,1434.3300000000002,3.915788514531917
189,1440.95,3.999951216409504
190,1445.43977,4.014547495852302
191,1447.6,4.023494825966454
192,1454.28,3.953754299656821
193,1464.3600000000001,3.7897379665428845
194,1474.51,3.775513499171213
195,1484.74,3.802085306933557
196,1495.03,3.819445571046414
197,1505.39,3.705246700901535
198,1512.3400000000001,3.5041842281692075
199,1515.83,3.6122531058906726
200,1526.33,3.537824967230322
201,1533.38,3.3263585884155153
202,1544.0100000000002,3.465370771847941
203,1554.71,3.365761821022632
204,1565.49,3.3603941453313393
205,1576.34,3.4318043353823104
206,1583.6100000000001,3.5047489631860484
207,1594.59,3.518255475329797
208,1605.64,3.4724198532158086
209,1616.77,3.4659505062358376
210,1624.2400000000002,3.3608073218746166
211,1635.5,3.444000296987422
212,1646.83,3.4511441378424923
213,1654.43,3.3080022755740472
214,1659.58691,3.363988951184667
215,1665.8999999999999,3.4364225618775084
216,1673.5900000000001,3.2311215506811823
217,1677.45,3.4301999130715837
218,1685.19,3.5088307951704714
219,1696.8700000000001,3.3848446689320992
220,1704.7,3.306130758962369
221,1716.52,3.202844733950592
222,1724.4399999999998,3.1883200319122444
223,1736.3999999999999,3.2803121081270623
224,1744.41,3.2324646140200963
225,1756.5,3.3337132128024667
226,1764.6100000000001,3.174340505285926
227,1776.8400000000001,3.202093205294891
228,1785.04,3.223599705709733
229,1793.28,3.3382095207607447
230,1805.72,3.3092803726096016
231,1814.0500000000002,3.1550303955919956
232,1826.62,3.1805887700084057
233,1835.06,3.1017281582402676
234,1843.53,2.962120282449256
235,1856.3,2.9466732300465157
236,1864.8700000000001,2.9857991408459297
237,1873.4799999999998,3.113007366281514
238,1886.47,2.9639430443777077
239,1895.1699999999998,2.896566477744674
240,1903.92,2.9734238044068526
241,1905.46072,2.964279844799211
242,1917.12,2.899576116821361
243,1925.9699999999998,2.872044257960252
244,1934.86,2.902374126290731
245,1943.79,2.9629707218127987
246,1952.76,2.858870044526454
247,1966.3,2.9957766988790624
248,1975.37,3.030989339571689
249,1984.4899999999998,2.9330841392538005
250,1993.6499999999999,2.8811996661274994
251,2002.85,2.9202859201927875
252,2016.74,2.8472326874717924
253,2026.0500000000002,2.9157506913139475
254,2035.4,2.821184422347691
255,2044.79,2.882597880573023
256,2054.23,2.80445849778784
257,2063.71,2.797600842194245
258,2073.2400000000002,2.8998123455901355
259,2078.02,2.8309267449849265
260,2082.81,2.8931435761776143
261,2097.25,2.7910130923409575
262,2106.93,2.787282072705304
263,2116.65,2.796698780261238
264,2126.42,2.8063216468066576
265,2136.2400000000002,2.6802856723415625
266,2146.1,2.723285425068056
267,2156.0,2.775068904986137
268,2165.9500000000003,2.7119645438937034
269,2175.9500000000003,2.6885423417907557
270,2186.0,2.662022298677293
271,2187.7616199999998,2.6726151840812267
272,2196.09,2.7255418727990217
273,2206.2200000000003,2.672491021857081
274,2216.41,2.5839542715018617
275,2226.64,2.5348579215377898
276,2236.91,2.6377249719648646
277,2247.2400000000002,2.5649821229786607
278,2252.42,2.490308473632239
279,2262.82,2.5178875753305427
280,2273.26,2.552525077419994
281,2283.75,2.5979788299983797
282,2294.29,2.5043638330656988
283,2304.88,2.502782086621952
284,2315.52,2.4225285906671403
285,2326.21,2.118827145201262
286,2336.9500000000003,2.2993363502243183
287,2342.34,2.25255755293142
288,2353.15,2.359521508638984
289,2364.01,2.232143714835482
290,2374.92,2.2671091715209144
291,2385.88,2.1636638786952807
292,2396.9,2.238683686456368
293,2402.42,2.1852039404346986
294,2413.51,2.2142386988802936
295,2424.65,2.297632707814823
296,2435.84,2.244371967238286
297,2447.09,2.314664327248471
298,2452.73,2.2967507824002436
299,2464.05,2.2722410930949355
300,2475.42,2.2135306542785624
301,2486.85,2.22377131604891
302,2492.58,2.1603514220807636
303,2504.09,2.2994108846334056
304,2511.88643,2.1776838817494957
305,2515.64,2.119762880173454
306,2527.26,2.091715576449078
307,2533.08,2.1203600973031342
308,2544.77,2.0969545025924674
309,2556.52,2.2062889441792644
310,2562.41,2.1503161740470293
311,2574.24,2.229793997363779
312,2586.12,2.1987191842617495
313,2592.09,2.171294795859467
314,2604.05,2.1153643644873896
315,2616.0699999999997,2.0912649694127774
316,2622.1,2.1580356173079593
317,2634.2,2.2346486039632993
318,2646.3599999999997,2.3735736269161043
319,2652.46,2.4492929838249946
320,2664.71,2.235749061223996
321,2677.01,2.3101425022042177
322,2683.18,2.3224105681268172
323,2695.5600000000004,2.2222903908369913
324,2708.0,2.2813892498446307
325,2714.2500000000005,2.172257697497182
326,2726.77,2.1460409382347736
327,2733.06,2.225899076752302
328,2745.68,1.9975890446523343
329,2752.0,2.0393642013185946
330,2764.71,2.101188223664824
331,2777.4700000000003,2.1557346095922734
332,2783.87,2.0431131479884863
333,2796.72,1.784962788362133
334,2803.1699999999996,1.8554651903395665
335,2816.11,2.1153789851594094
336,2822.6,2.2267095780018193
337,2835.63,2.174423127267859
338,2842.1600000000003,2.110014410975245
339,2855.28,2.0078100146874815
340,2861.8700000000003,2.218234334692332
341,2875.07,2.2554333201345216
342,2881.7,2.217082331004349
343,2884.0315,2.2197147720147017
344,2895.0,2.2338155498722863
345,2908.3700000000003,2.4080282984943557
346,2928.5299999999997,2.316592416835487
347,2948.83,2.2753948623873206
348,2969.27,2.3184406351498565
349,2989.85,2.3141887351230945
350,3010.57,2.341274162307035
351,3031.44,2.3405721543595845
352,3052.45,2.3433244736228374
353,3066.54,2.363287333614233
354,3087.8,2.3698845943251676
355,3109.2,2.3877151822468052
356,3130.76,2.350222572694959
357,3152.46,2.342062290353816
358,3167.01,2.3661100826089476
359,3188.96,2.2466537417154866
360,3211.0699999999997,2.327466203348543
361,3233.32,2.195839992192301
362,3248.2499999999995,2.373432815447911
363,3270.7599999999998,2.4710417833972596
364,3293.44,2.438449791531032
365,3308.64,2.420711031550139
366,3311.31121,2.4204246511827967
367,3323.91,2.420456539351566
368,3331.5699999999997,2.450534201589617
369,3339.2500000000005,2.31974453396406
370,3346.9500000000003,2.5293675364748953
371,3354.67,2.384718209122122
372,3362.3999999999996,2.2765892168375443
373,3370.15,2.311660894689359
374,3377.9199999999996,2.4141312426775654
375,3385.71,2.360919260802163
376,3393.51,2.470998613994957
377,3401.3300000000004,2.5973566373241423
378,3409.17,2.3860283307897197
379,3417.0299999999997,2.356535694391689
380,3424.91,2.52594072813005
381,3432.81,2.597936432004803
382,3440.72,2.4835254709477512
383,3448.6499999999996,2.3059541800270917
384,3456.6000000000004,2.3735325592428236
385,3464.57,2.2642776085949476
386,3472.56,2.4584543280834636
387,3480.56,2.289993382640175
388,3488.58,2.393018107333279
389,3496.63,2.3471868372309697
390,3504.6899999999996,2.4708959021968564
391,3512.77,2.4068036372991353
392,3520.86,2.50052470746961
393,3528.98,2.2472667828446724
394,3537.1200000000003,2.479290528356126
395,3545.27,2.5200376089357763
396,3553.44,2.5662573596518183
397,3561.63,2.4984807805042517
398,3569.84,2.2853798714930766
399,3575.27,1.9792938135234448
400,3577.95,2.1983006117999433
401,3580.62,1.6443860750082457
402,3583.29,2.1194095382165483
403,3585.97,2.2506413364930467
404,3588.6400000000003,2.0250917997013493
405,3591.31,2.2983762629096516
406,3593.98,1.8694277261179544
407,3596.66,1.8264035243944527
408,3599.33,2.525413987602755
409,3602.0,2.3831824508110575
410,3604.6800000000003,2.438918249087556
411,3607.35,2.2612287122958583
412,3610.02,2.087907175504161
413,3612.69,1.9053166387124634
414,3615.37,2.264873436988962
415,3618.04,2.1941629001972642
416,3620.7099999999996,2.3202173634055674
417,3623.3900000000003,2.2875391616820653
418,3626.06,2.1838076248903677
419,3628.73,2.6416050880986703
420,3631.4,2.534982551306973
421,3634.08,2.1961253495834714
422,3636.7500000000005,2.583313812791774
423,3639.42,2.390406276000076
424,3642.1,2.1869870742765745
425,3644.77,2.9244835374848774
426,3647.44,2.2324400006931797
427,3650.12,2.531504798969678
428,3652.7900000000004,2.7026032621779805
429,3655.46,2.641784725386283
430,3658.13,2.2388751885945855
431,3660.81,2.082706986871084
432,3663.48,2.3855124500793865
433,3666.15,2.6750039132876893
434,3668.83,2.777151711564188
435,3671.4999999999995,2.38459117477249
436,3674.17,2.4707756379807924
437,3676.84,2.839398101189095
438,3679.52,2.3988878994655933
439,3682.19,2.227894362673896
440,3684.8599999999997,2.0802588258821983
441,3687.5400000000004,1.8433626241586965
442,3690.21,2.025431087366999
443,3692.88,2.1985685505753016
444,3695.55,2.369818013783604
445,3698.23,2.5463818120601025
446,3700.8999999999996,2.582957275268405
447,3703.5699999999997,2.8219257384767076
448,3706.25,2.6137875367532057
449,3708.92,2.324096999961508
450,3711.59,2.487890463169811
451,3714.2599999999998,2.6585329263781134
452,3716.94,2.286958724654612
453,3719.6099999999997,2.7281681878629147
454,3722.28,2.697481651071217
455,3724.96,3.606161449347715
456,3727.63,4.3365079125560175
457,3730.2999999999997,4.599066375764321
458,3732.97,4.657100838972623
459,3735.6499999999996,4.052538637249121
460,3738.32,3.7085231004574237
461,3740.9900000000002,2.9224345636657265
462,3743.67,2.7398613619422245
463,3746.34,2.498258825150527
464,3749.0099999999998,2.4179612883588297
465,3751.6899999999996,2.492720086635328
466,3754.36,2.4512275498436304
467,3757.03,2.699784013051933
468,3759.7000000000003,3.1125384762602355
469,3762.38,2.6192222745367335
470,3765.0499999999997,2.6551877377450364
471,3767.72,2.824917200953339
472,3770.3999999999996,2.5446479992298374
473,3773.07,2.4985904624381394
474,3775.7400000000002,2.5824919256464423
475,3778.41,2.514369388854745
476,3781.0899999999997,2.408951187131243
477,3783.7599999999998,3.0495116503395456
478,3786.4300000000003,3.221219113547848
479,3789.11,3.0657329118243464
480,3791.78,2.8223043750326493
481,3794.45,2.5866368382409517
482,3797.12,2.369533301449254
483,3799.7999999999997,2.9192320997257526
484,3801.8939600000003,2.7718827721375705
485,3802.47,2.731392085619187
486,3805.1400000000003,2.51129991569316
487,3807.82,2.784701853744939
488,3810.4900000000002,2.792722683818912
489,3813.16,2.660892513892886
490,3815.83,2.8679593439668594
491,3818.5099999999998,2.793942282018638
492,3821.1800000000003,2.8363541120926117
493,3823.85,2.8393529421665855
494,3826.53,2.619855880218364
495,3829.2,2.460178710292338
496,3831.87,2.4365455403663114
497,3834.54,2.213561370440285
498,3837.2200000000003,2.1231123084920633
499,3839.8900000000003,2.351178138566037
500,3842.56,2.4876339686400106
501,3845.24,2.3551829066917893
502,3847.91,2.280722736765763
503,3850.58,2.4325485668397366
504,3853.26,2.8115605048915153
505,3855.9300000000003,2.920625334965489
506,3858.6,3.002299165039463
507,3861.27,2.823446995113436
508,3863.95,2.8936929331652146
509,3866.62,3.057541763239188
510,3869.2900000000004,2.9955605933131615
511,3871.9700000000003,2.6943455313649407
512,3874.64,2.823954361438914
513,3877.31,2.9222151915128878
514,3879.98,2.621317021586861
515,3882.66,3.00139395963864
516,3885.3300000000004,2.7554327897126134
517,3888.0,2.4808616197865874
518,3890.6800000000003,2.7396545578383655
519,3893.35,2.9006113879123396
520,3896.02,2.958545217986313
521,3898.69,3.0916550480602867
522,3901.37,3.1513999861120654
523,3904.0399999999995,3.1064628161860393
524,3906.71,3.2322676462600124
525,3909.39,3.1751415843117914
526,3912.06,3.4861444143857647
527,3914.73,3.3117062444597383
528,3917.3999999999996,3.357011074533712
529,3920.0800000000004,3.2802530125854905
530,3922.75,3.1327498426594644
531,3925.42,2.955419672733438
532,3928.1,3.0416446107852164
533,3930.77,2.60987644085919
534,3933.44,2.6576142709331636
535,3936.1099999999997,2.552110101007137
536,3938.79,2.431377039058916
537,3941.46,2.6664428691328896
538,3944.13,2.989163699206863
539,3946.81,3.1129746372586418
540,3949.48,3.1353004673326152
541,3952.1499999999996,3.2297562974065888
542,3954.83,3.092890235458367
543,3957.5,3.260239065532341
544,3960.17,3.3154348956063147
545,3962.84,2.853686725680288
546,3965.52,2.462688663732067
547,3968.1899999999996,2.4834914938060404
548,3970.86,2.336899323880014
549,3973.54,2.4109522619317927
550,3976.21,2.4952110920057664
551,3978.88,2.5709499220797403
552,3981.5499999999997,2.930039752153714
553,3984.2300000000005,2.994655690205492
554,3986.9,2.873935520279466
555,3989.57,2.9831523503534396
556,3992.25,3.110616288405218
557,3994.92,3.334422118479192
558,3997.5899999999997,3.5612719485531654
559,4000.2599999999998,3.503248778627139
560,4002.94,3.364707716678917
561,4005.61,3.5246005467528914
562,4008.28,3.7184283768268647
563,4010.96,3.6570393148786438
564,4013.63,3.732475144952617
565,4016.2999999999997,3.591819975026591
566,4018.9700000000003,3.4809918051005644
567,4021.65,3.642084743152343
568,4024.32,3.6389965732263163
569,4026.99,3.6454964033002897
570,4029.67,3.612717341352069
571,4032.3399999999997,3.772001171426042
572,4035.0099999999998,3.737413001500016
573,4037.69,3.4392389395517946
574,4040.36,3.564130769625768
575,4043.03,3.6932835996997415
576,4045.7,3.4054754297737153
577,4048.3799999999997,3.429610367825494
578,4051.0499999999997,3.665590197899468
579,4053.7200000000003,3.592958027973441
580,4056.4,3.4585259660252197
581,4059.07,3.4881557960991936
582,4061.74,3.513676626173167
583,4064.41,3.5755684562471406
584,4067.0899999999997,3.7002913942989193
585,4069.76,3.630702224372893
586,4072.4300000000003,3.7012680544468664
587,4075.11,3.5992489924986453
588,4077.7799999999997,3.799467822572619
589,4080.45,3.712379652646592
590,4083.12,3.7347054827205657
591,4085.8,3.8662754207723444
592,4088.4700000000003,3.685446250846318
593,4091.14,3.570053080920292
594,4093.82,3.5804910189720704
595,4096.49,3.6014478490460444
596,4099.16,3.4816406791200176
597,4101.83,3.3633555091939913
598,4104.51,3.32388144724577
599,4107.18,3.499447277319743
600,4109.849999999999,3.464859107393717
601,4112.53,3.560974045445496
602,4115.2,3.6380818755194695
603,4117.87,3.673038705593443
604,4120.54,3.6974945356674165
