,lambda (Angstroms),Total Flux (erg/s/cm^2/Angstrom)
0,100.00999999999999,0.019906483769926986
1,102.11,0.02447392610470768
2,104.0,0.028584624215167283
3,104.712855,0.030135064275664314
4,105.94,0.027908097957396474
5,107.91,0.024333032573724114
6,109.91000000000001,0.02070352466059213
7,114.03999999999999,0.01320859084538335
8,118.05,0.005931427742714298
9,120.22644299999999,0.0019817227723034547
10,121.07,0.001910889457680245
11,125.03999999999999,0.0015775262535738257
12,127.07,0.0014070661931311532
13,127.95,0.0013331727259892055
14,130.93,0.001082941675738976
15,132.15,0.000980500874662641
16,133.98,0.0008268368868631393
17,137.1,0.0005648581284316912
18,138.038426,0.00048606028166664456
19,139.98,0.0004803088741491528
20,142.91,0.0004717298123921323
21,146.91,0.0004601825190026844
22,151.03,0.00044808683150455303
23,154.9,0.00043676968999951227
24,158.489319,0.00042630230559024293
25,158.86999999999998,0.00042458647298432035
26,161.82999999999998,0.00041126806296571544
27,165.98000000000002,0.0003926389810004416
28,169.84,0.0003753578740978016
29,173.0,0.00036123505710496665
30,177.03,0.000343273693924231
31,179.91,0.0003304920160953182
32,181.970086,0.0003213591091999696
33,181.99,0.00032139076782057964
34,185.79999999999998,0.0003275245759500216
35,191.01,0.0003359681789196784
36,194.11,0.00034110039920872564
37,198.17999999999998,0.00034785010826563607
38,201.85999999999999,0.0003541831729313437
39,205.14000000000001,0.0003597525217855615
40,208.929613,0.0003661018502107581
41,209.92000000000002,0.00037512815064199016
42,215.79999999999998,0.0004297876530181525
43,219.81,0.0004669967765008758
44,222.87,0.0004952694010537768
45,227.01,0.0005339560883900544
46,230.17,0.0005713424928303051
47,233.91,0.0006246646906171841
48,239.88329199999998,0.0006949172480733463
49,239.91,0.0006947976201386081
50,246.07,0.000652652963574758
51,251.8,0.0006218978468684489
52,257.07,0.0005762603125678822
53,260.05,0.0005692657761132921
54,264.27,0.0005478823709997457
55,269.19,0.000518683203094852
56,274.19,0.0004886737117280903
57,275.42287,0.0004814131630563244
58,279.28999999999996,0.0005172918357539795
59,283.83,0.0005601657126956935
60,289.77,0.0006097991027912397
61,295.84,0.0006690506983939276
62,301.34000000000003,0.0007182149929268413
63,307.65000000000003,0.000781012067927329
64,316.227766,0.0008657428955841158
65,317.73,0.000860199593770008
66,328.13,0.0008180161485133576
67,338.11,0.0007770282987382253
68,348.38,0.0007341815877972829
69,357.32,0.000697959112547816
70,363.078055,0.0006772882513831494
71,365.64,0.0006942574319980004
72,375.02,0.0007497173616270738
73,384.64,0.0007997744807136076
74,395.41,0.000874985695117139
75,404.62,0.0009358721280471778
76,414.04999999999995,0.0009911150096465556
77,416.86938299999997,0.0010066262309371278
78,421.75,0.0010247370749404175
79,429.59,0.0010563508630572094
80,440.61,0.0011054023779866798
81,450.87,0.001143543902231359
82,460.31,0.0011770185654740267
83,469.95000000000005,0.001214921963107429
84,478.630092,0.0012526150262297108
85,479.79,0.0012504510175812777
86,489.84,0.0012170220841366684
87,500.09,0.0012020233559966438
88,505.89000000000004,0.0011774960098296053
89,511.73999999999995,0.0011896880649887136
90,520.06,0.0011681055456594452
91,529.73,0.001137411262136124
92,539.58,0.0010971386233869299
93,549.5408739999999,0.0010676098517777366
94,549.61,0.001067569148659437
95,559.8199999999999,0.0010811515956587385
96,570.23,0.0010921400781526392
97,579.5,0.0010827278683273234
98,590.27,0.0010828700747115031
99,599.86,0.0010544727416775463
100,609.61,0.000994314797039269
101,619.52,0.0010686369407966714
102,629.58,0.001054491336175023
103,630.957344,0.0010552282516410947
104,639.81,0.0010837915538265542
105,650.2099999999999,0.001098507668388884
106,657.74,0.0011008393322018018
107,665.35,0.0011340898099728913
108,674.6099999999999,0.0011608302256312733
109,685.57,0.001151802037900806
110,695.11,0.0011995174024127893
111,704.78,0.0011788376396068016
112,716.23,0.0012450087873701362
113,724.43596,0.0012600759826925058
114,726.19,0.0012621284023715683
115,734.6,0.0012738718055719527
116,744.82,0.001278495281399293
117,755.1800000000001,0.0012890420390872812
118,765.6899999999999,0.001245478270197393
119,774.55,0.0013119022936641475
120,785.33,0.0013040444969340816
121,794.42,0.0013293645263147587
122,805.4699999999999,0.0013479539017445148
123,814.8,0.0013576250286005895
124,824.24,0.0013733995626328882
125,831.763771,0.0013377657945065672
126,835.7,0.001308118450382209
127,845.38,0.0013509180494068694
128,855.17,0.0013276682222840828
129,865.07,0.0013192025690138488
130,875.09,0.0013076110235827638
131,885.22,0.0012927941520042316
132,895.47,0.0012777843882648483
133,905.84,0.0012502154323646136
134,914.22,0.0013615127131318297
135,924.81,0.002559256604936701
136,935.52,0.004129059804580721
137,944.17,0.006543690202986022
138,954.992586,0.008926946686593929
139,955.11,0.008952992051262971
140,963.9399999999999,0.00918748712931199
141,975.11,0.0025756023378972134
142,984.13,0.0068712298581692565
143,995.52,0.007985561420907457
144,1004.7399999999999,0.012539585354045842
145,1014.03,0.012818081081687449
146,1025.77,0.006571322616941748
147,1035.27,0.008870357728093014
148,1044.85,0.017543644604390812
149,1054.51,0.017423618245835153
150,1064.27,0.012974411593712664
151,1074.12,0.016104127677380026
152,1084.06,0.012052746496837245
153,1094.0900000000001,0.017529078052084316
154,1096.4782,0.017400491485864398
155,1104.21,0.016979203800209848
156,1114.43,0.015972633872778308
157,1124.74,0.014145488613304806
158,1135.15,0.019487968540451348
159,1145.65,0.01763985313555593
160,1156.25,0.019336662917280558
161,1164.27,0.019859838884208055
162,1175.04,0.012889997483186756
163,1185.91,0.019527831268785503
164,1194.13,0.012475277608953088
165,1205.18,0.00855741873046791
166,1216.3300000000002,0.007308285038602776
167,1224.76,0.014209606270672455
168,1236.1,0.022523034433385405
169,1244.6599999999999,0.02488361840806114
170,1256.18,0.023337645906690168
171,1258.92541,0.0221971476701818
172,1264.8899999999999,0.019725395143446737
173,1273.66,0.027179496593454814
174,1285.4399999999998,0.029103771038277527
175,1294.35,0.02116549192990489
176,1306.33,0.021022259862755154
177,1315.3799999999999,0.028579680196001798
178,1324.5000000000002,0.027245525250058092
179,1333.6799999999998,0.023076554350522648
180,1346.02,0.0298464265618225
181,1355.35,0.02897592577830772
182,1364.7500000000002,0.02516157971560258
183,1374.2099999999998,0.027124597699305707
184,1383.73,0.0274985597294171
185,1396.54,0.023557393637581695
186,1406.22,0.02448653645811513
187,1415.96,0.025510803325056827
188,1425.7800000000002,0.026882275587209545
189,1435.66,0.026822041895770525
190,1442.29,0.028784439023883817
191,1445.43977,0.029541782152186034
192,1445.61,0.02958271108013354
193,1455.6299999999999,0.0285242582303239
194,1465.72,0.025982959342641335
195,1475.8799999999999,0.02634065441708585
196,1486.11,0.027442693453657442
197,1496.4099999999999,0.028267646452356115
198,1503.32,0.026522267570900565
199,1510.26,0.023087910387499477
200,1517.23,0.02534302490215285
201,1524.23,0.024382751114860685
202,1534.8,0.020612069396049516
203,1545.4399999999998,0.023300221639365425
204,1556.15,0.022165317844808415
205,1563.33,0.02288198424584302
206,1574.17,0.024833107809522012
207,1585.0800000000002,0.02670850533532808
208,1596.07,0.027448687389279382
209,1603.4399999999998,0.027262374544658918
210,1614.55,0.02770120339082807
211,1625.74,0.026169756765142452
212,1633.25,0.02853396184477614
213,1644.57,0.02925849257732653
214,1655.97,0.027079707838022143
215,1659.58691,0.028495573029364424
216,1663.6100000000001,0.030071875515844868
217,1671.29,0.02611710006274199
218,1675.1399999999999,0.030769511469715155
219,1686.76,0.03272718462530689
220,1694.54,0.030777620507450067
221,1706.29,0.029681307398861677
222,1714.16,0.027979460482726305
223,1726.04,0.028112191109957788
224,1734.01,0.03065386552906847
225,1746.03,0.03031216402564443
226,1754.0900000000001,0.03290489564647657
227,1766.25,0.030251592012397008
228,1774.3999999999999,0.03102184083495059
229,1786.7,0.03217718507021551
230,1794.9499999999998,0.03500928522801515
231,1803.23,0.03525312778638861
232,1815.73,0.03233622469214564
233,1824.11,0.03353883858576516
234,1836.76,0.03249235749439127
235,1845.24,0.03001006272325684
236,1853.7500000000002,0.030356830352696228
237,1866.6,0.03184629193181446
238,1875.22,0.0352023150300245
239,1883.87,0.03243812052880837
240,1896.93,0.031570328911943314
241,1905.46072,0.034044540540383646
242,1905.6899999999998,0.034110822942011405
243,1914.49,0.032887674161909825
244,1923.32,0.032511119397330625
245,1936.65,0.034328286961108574
246,1945.5900000000001,0.036168473586778105
247,1954.57,0.03385310889981081
248,1968.12,0.038101789244086214
249,1977.21,0.03969288594736765
250,1981.76,0.03783497163492877
251,1995.5,0.037313590744179254
252,2004.71,0.03913920350955021
253,2013.97,0.03825127963412514
254,2023.26,0.040492179774222446
255,2037.29,0.03858957436685595
256,2046.6899999999998,0.04066586589720199
257,2056.14,0.037623120786752
258,2065.63,0.03875083436366518
259,2075.16,0.04343345662794153
260,2079.9500000000003,0.04168269443968169
261,2084.74,0.044129822251421855
262,2094.36,0.042150706562265355
263,2104.03,0.043021384232312825
264,2113.7400000000002,0.044415610589723466
265,2123.5,0.04512764030633808
266,2133.2999999999997,0.04310512871031587
267,2143.15,0.04450277047349761
268,2153.04,0.046689530924042544
269,2162.98,0.04572912473379144
270,2172.96,0.04625106723090352
271,2182.99,0.04614232308721955
272,2187.7616199999998,0.047319975573366285
273,2193.07,0.04863518574580755
274,2203.19,0.04819558482450107
275,2213.36,0.04636076514370197
276,2223.58,0.04604798670341025
277,2233.84,0.049211275255524434
278,2244.15,0.04832418504814599
279,2254.51,0.04659239608127494
280,2264.92,0.04811076835491126
281,2275.37,0.04983169762095348
282,2285.8700000000003,0.05175037812750308
283,2296.42,0.04882198987456006
284,2307.02,0.05070144286212442
285,2312.34,0.04902297285210955
286,2323.01,0.041064685576384236
287,2333.74,0.04737507378926778
288,2344.5099999999998,0.04700316899455723
289,2355.33,0.05051558544035406
290,2366.2,0.04776947312665827
291,2377.12,0.04915778205346985
292,2382.6,0.04677774001307859
293,2393.6,0.04981452292470199
294,2404.65,0.04931178707683276
295,2415.75,0.05097713246947091
296,2426.9,0.05454146910261643
297,2432.49,0.053707633791341414
298,2443.7200000000003,0.05680777440929875
299,2455.0,0.05740336626776347
300,2466.33,0.05695251936673556
301,2477.72,0.05611674795431651
302,2483.4300000000003,0.0555167536202592
303,2494.89,0.04846645194455048
304,2506.41,0.059200485757450606
305,2511.88643,0.053982779557286455
306,2512.19,0.05369337228972027
307,2517.98,0.05572178034012024
308,2523.7799999999997,0.0555032667463931
309,2535.4300000000003,0.05803408133830324
310,2547.13,0.0577031177095778
311,2553.01,0.06370651096283372
312,2564.79,0.06177069418109136
313,2576.6299999999997,0.0657837375345863
314,2582.57,0.06522379092307952
315,2594.49,0.06470685112355753
316,2606.4700000000003,0.06390000145927284
317,2612.4700000000003,0.0633523849830034
318,2624.5299999999997,0.06701248216570178
319,2636.6499999999996,0.07369726948363747
320,2642.73,0.0802637498543511
321,2654.92,0.09033011566339696
322,2667.1800000000003,0.07632798996355304
323,2673.33,0.08032597882537686
324,2685.67,0.084580859972516
325,2698.06,0.07762321289901958
326,2704.28,0.08319867025195356
327,2716.7599999999998,0.07723578838131309
328,2723.03,0.0746699375136115
329,2735.6000000000004,0.07917034084582698
330,2741.9,0.07129775504574407
331,2754.56,0.0749023135808155
332,2767.27,0.07960132389525136
333,2773.6499999999996,0.08300514494215151
334,2786.45,0.07687942045944332
335,2792.8799999999997,0.0667429532857079
336,2805.77,0.07060150400585567
337,2812.24,0.08389445025561178
338,2825.22,0.09123299617861552
339,2838.26,0.08846425223685656
340,2844.8,0.08339765697772285
341,2857.9300000000003,0.07795340823881984
342,2864.52,0.09179321475905057
343,2877.74,0.10167680122300352
344,2884.0315,0.09955313410732625
345,2884.38,0.09943555564781564
346,2897.69,0.10690732086308374
347,2911.07,0.1237047758428198
348,2931.24,0.11812090797594961
349,2951.56,0.11514013960436793
350,2972.0200000000004,0.1191431707617222
351,2992.62,0.12076000144801244
352,3013.3700000000003,0.12072773162959118
353,3027.2799999999997,0.12715648482601336
354,3048.2599999999998,0.12978121423370118
355,3069.3900000000003,0.13868734313667752
356,3090.6699999999996,0.13897627153494235
357,3112.09,0.15231819946214317
358,3126.4500000000003,0.14702685114443093
359,3148.12,0.1504157782304459
360,3169.9500000000003,0.15818340477810203
361,3191.9199999999996,0.14660623085469407
362,3206.6499999999996,0.15549628129202683
363,3228.88,0.14378800649378567
364,3251.26,0.173574731190833
365,3266.27,0.19099798068603768
366,3288.91,0.19053390450825178
367,3311.31121,0.18500456204985402
368,3311.71,0.18490610348338996
369,3319.34,0.18760931271470732
370,3326.9900000000002,0.19388262065960613
371,3334.66,0.20268582731808635
372,3342.35,0.19150723269014802
373,3350.05,0.20485663741900043
374,3357.78,0.20359894021822494
375,3365.52,0.1699159423742402
376,3373.28,0.16315284324383691
377,3381.0499999999997,0.18914314347022432
378,3388.85,0.20419564176698388
379,3396.6600000000003,0.18725483942053417
380,3404.4900000000002,0.21362853578766586
381,3412.3399999999997,0.19545383086837903
382,3420.2,0.2033939253058829
383,3428.0899999999997,0.2058973178137589
384,3435.99,0.20276170967842563
385,3443.91,0.1715716002566738
386,3451.8500000000004,0.20400138954850341
387,3459.81,0.20603827755391446
388,3467.7799999999997,0.20290256491611622
389,3475.78,0.20492735034869014
390,3483.79,0.20508143513805477
391,3491.8199999999997,0.20904441864100085
392,3499.87,0.19214690085752834
393,3507.94,0.22794958178763725
394,3516.03,0.19781746143132764
395,3524.1299999999997,0.2053844404318087
396,3532.25,0.22225281814587125
397,3540.4,0.2323512939303059
398,3548.56,0.24179576907153127
399,3556.74,0.22122894292633813
400,3564.9399999999996,0.23127981549472637
401,3573.1600000000003,0.18604608677669607
402,3581.39,0.19629615741545647
403,3589.6499999999996,0.16725382612458906
404,3597.92,0.21953809419051235
405,3606.22,0.21619566032680776
406,3614.53,0.21290872581989392
407,3619.51,0.14561430550167118
408,3622.22,0.1907045311919556
409,3624.9300000000003,0.18359785688223998
410,3627.64,0.2117792825725244
411,3630.36,0.22941240761959955
412,3633.0699999999997,0.22231373330988397
413,3635.78,0.19451295900016835
414,3638.5,0.23949108404724348
415,3641.2099999999996,0.2345763097375279
416,3643.92,0.23469143542781232
417,3646.63,0.24032786111809673
418,3649.35,0.20970388616517185
419,3652.06,0.22219331185545627
420,3654.77,0.2231606375457407
421,3657.48,0.2653416632360251
422,3660.2000000000003,0.16679318828310022
423,3662.91,0.19058291397338464
424,3665.62,0.22152693966366907
425,3668.3300000000004,0.21889126535395345
426,3671.05,0.2252636904010286
427,3673.7599999999998,0.249144616091313
428,3676.47,0.21744374178159742
429,3679.1800000000003,0.24395656747188182
430,3681.9,0.19447369251895696
431,3684.6099999999997,0.17991151820924137
432,3687.32,0.2143395438995258
433,3690.03,0.2205348695898102
434,3692.75,0.21129459463688532
435,3695.46,0.20342692032716975
436,3698.17,0.26077274601745415
437,3700.8799999999997,0.20523857170773857
438,3703.6000000000004,0.2334980967548137
439,3706.31,0.21416372244509813
440,3709.02,0.23508384813538252
441,3711.7400000000002,0.23805947318245765
442,3714.4500000000003,0.2716155988727421
443,3717.16,0.24318872456302648
444,3719.8700000000003,0.2951797502533109
445,3722.59,0.328139675300386
446,3725.2999999999997,0.38278640099067046
447,3728.0099999999998,0.42953762668095485
448,3730.7200000000003,0.38698855237123925
449,3733.44,0.2925300774183144
450,3736.1499999999996,0.2396715031085988
451,3738.86,0.2015059287988832
452,3741.57,0.25757555448916764
453,3744.29,0.24632167953624273
454,3747.0,0.23682890522652716
455,3749.71,0.2309074309168116
456,3752.42,0.247578656607096
457,3755.1400000000003,0.24236928165417113
458,3757.85,0.23320950734445553
459,3760.56,0.28240613303473994
460,3763.2700000000004,0.25484325872502434
461,3765.9900000000002,0.25859168377209946
462,3768.7,0.2458607094623839
463,3771.41,0.2647079351526683
464,3774.1200000000003,0.31089226084295274
465,3776.84,0.30154468589002786
466,3779.5499999999997,0.28423581158031225
467,3782.26,0.33527163727059667
468,3784.98,0.27095266231767184
469,3787.69,0.30393018800795624
470,3790.4,0.32663801369824064
471,3793.11,0.24866183938852504
472,3795.83,0.23200566443560017
473,3798.5400000000004,0.24233499012588458
474,3801.25,0.284167215816169
475,3801.8939600000003,0.2882624273230034
476,3803.96,0.30140126919558624
477,3806.6800000000003,0.3309843306961867
478,3809.3900000000003,0.32697739270597603
479,3812.1,0.3441481547157654
480,3814.81,0.30663671672555476
481,3817.53,0.3086052782261552
482,3820.24,0.29908494023594456
483,3822.95,0.2763578022457339
484,3825.6600000000003,0.2723587642555233
485,3828.38,0.26149732575612367
486,3831.0899999999997,0.260367887765913
487,3833.8,0.2370897497757024
488,3836.51,0.2146082117854918
489,3839.23,0.2565263732860922
490,3841.9399999999996,0.28097813529588156
491,3844.65,0.28361419730567095
492,3847.36,0.3109951593154603
493,3850.0800000000004,0.35534672081606067
494,3852.79,0.3365634828258501
495,3855.5,0.34281044483563944
496,3858.22,0.3345052063362398
497,3860.9300000000003,0.33120786834602917
498,3863.64,0.3810744303558186
499,3866.35,0.37603699236560795
500,3869.07,0.3397168538662083
501,3871.78,0.3316552158759977
502,3874.49,0.33118387788578707
503,3877.2000000000003,0.32330443989557645
504,3879.92,0.3086457013961768
505,3882.63,0.2678246634059662
506,3885.3399999999997,0.2529533254157556
507,3888.05,0.24621148742554497
508,3890.77,0.2721799489261454
509,3893.4800000000005,0.26220381093593476
510,3896.19,0.2949989729457241
511,3898.9,0.3195182349555135
512,3901.62,0.3348480964561139
513,3904.33,0.33197475846590324
514,3907.04,0.3472152204756926
515,3909.75,0.352709182485482
516,3912.4700000000003,0.3419781439860824
517,3915.18,0.3584632059958717
518,3917.89,0.3617136680056611
519,3920.6000000000004,0.3596529300154505
520,3923.32,0.3567063915160509
521,3926.0299999999997,0.3226355535258402
522,3928.7400000000002,0.26684381553562964
523,3931.46,0.25419877703623
524,3934.17,0.2502710390460194
525,3936.8799999999997,0.2605965010558088
526,3939.59,0.28153646306559815
527,3942.31,0.34011742456619853
528,3945.02,0.3448384865759879
529,3947.73,0.3284134485857773
530,3950.44,0.34773251059556665
531,3953.16,0.340251772096167
532,3955.8700000000003,0.35380753410595644
533,3958.58,0.3412511961157458
534,3961.29,0.28385425812553516
535,3964.01,0.24662681962613556
536,3966.7200000000003,0.21466438163592494
537,3969.43,0.19482264364571428
538,3972.1400000000003,0.23481970565550367
539,3974.86,0.2671934671561041
540,3977.57,0.3199494291658934
541,3980.2799999999997,0.33862629117568277
542,3982.9900000000002,0.3605097531854722
543,3985.71,0.3612059146860726
544,3988.4199999999996,0.3965220766958619
545,3991.13,0.40689133870565136
546,3993.84,0.3629747007154407
547,3996.56,0.4073656622160411
548,3999.27,0.38993002422583045
549,4001.98,0.4127965862356198
550,4004.7,0.4170359477362202
551,4007.4100000000003,0.4297596097460096
552,4010.12,0.40811867175579897
553,4012.83,0.41786953376558833
554,4015.5499999999997,0.4370120952661887
555,4018.26,0.4146577572759781
556,4020.97,0.4539376192857675
557,4023.68,0.44854758129555683
558,4026.4,0.4383196427961572
559,4029.11,0.4441862048059466
560,4031.8199999999997,0.42270376681573596
561,4034.53,0.42861002882552535
562,4037.25,0.43950829032612576
563,4039.96,0.43609995233591514
564,4042.67,0.4372895143457045
565,4045.38,0.42690527635549386
566,4048.1,0.4354648378560943
567,4050.8100000000004,0.43280969986588363
568,4053.52,0.42583416187567297
569,4056.23,0.4435916238854624
