,lambda (Angstroms),Total Flux (erg/s/cm^2/Angstrom)
0,102.05000000000001,3.2821353523934595
1,103.95,3.272780706746747
2,104.712855,3.2690247945075415
3,105.88,3.238839568907405
4,108.10000000000001,3.181424940347554
5,110.11,3.1294414766763206
6,113.98,3.0293538511354385
7,117.99000000000001,2.925645489184644
8,120.22644299999999,2.867806276028829
9,121.01,2.850816689514715
10,124.98,2.7647357168649696
11,127.01,2.720719492331525
12,127.89,2.7016386091080173
13,130.87,2.637023679334843
14,132.07999999999998,2.6107876584461445
15,133.92,2.5708912433644464
16,137.03,2.503457975702288
17,138.038426,2.4815924775682325
18,139.9,2.452740937876453
19,143.16,2.4022200396170788
20,146.83,2.3453490351970654
21,150.95000000000002,2.2814969521909365
22,155.18,2.2159405135762453
23,158.489319,2.1646531162810674
24,159.16,2.1567950885938187
25,162.12,2.122114454444167
26,165.89,2.07794416120505
27,170.14999999999998,2.0280322505115644
28,172.91,1.9956957097863486
29,176.94000000000003,1.9484792093824639
30,179.82000000000002,1.9147367804265867
31,181.9,1.890367173558453
32,181.970086,1.8895460351164775
33,186.14,1.8522751363204293
34,190.91,1.8096415784792945
35,194.01000000000002,1.7819345851695
36,198.07000000000002,1.745646962058157
37,202.22,1.7085554301469812
38,205.04000000000002,1.6833514445155553
39,208.929613,1.6485854529222193
40,209.81,1.64266960778835
41,216.19,1.5998051022362256
42,220.20999999999998,1.5727954935513133
43,222.76000000000002,1.5556623942623762
44,226.89999999999998,1.5278471633626902
45,230.05,1.5067389658998855
46,233.79,1.481729577082778
47,239.79,1.441484456044103
48,239.88329199999998,1.4408574007130968
49,245.94000000000003,1.4094849445540445
50,252.25,1.376835535980527
51,256.94,1.3524916343918116
52,259.91,1.3371677612030084
53,264.14,1.3152860091038043
54,269.05,1.2898654935418439
55,274.05,1.2639769924862836
56,275.42287,1.2568689548653393
57,279.14,1.242100166896447
58,283.68,1.2240628622496772
59,290.29,1.1977791806670461
60,295.69,1.1763321623039282
61,301.18,1.154508444891425
62,308.2,1.126621894539372
63,316.227766,1.0947326875787673
64,318.29,1.088615275600143
65,327.96999999999997,1.059889329829794
66,337.92999999999995,1.030328836736336
67,348.2,0.9998481538351495
68,357.13,0.9733542284802715
69,363.078055,0.9557157287349614
70,366.29,0.9485852726599706
71,374.83000000000004,0.929612493830285
72,385.33,0.9062569764577211
73,395.21,0.8843557608395369
74,405.35,0.8618691318340321
75,413.84,0.8430235253942161
76,416.86938299999997,0.836292586893472
77,421.53000000000003,0.8283860383465567
78,430.35999999999996,0.8134134996612511
79,441.4,0.7947578701068029
80,450.64,0.7791263614797106
81,460.08,0.7631076681273565
82,469.71,0.7468205071410038
83,478.630092,0.7317808684090172
84,479.53999999999996,0.7306034365579388
85,489.59000000000003,0.7174683481371513
86,499.84000000000003,0.7042770996482887
87,505.63,0.6966938170775067
88,511.48,0.689549766086302
89,519.79,0.6787475768577704
90,529.46,0.666158288766326
91,540.54,0.6516009727949506
92,549.5408739999999,0.6399361943753934
93,550.5899999999999,0.6389014381214825
94,559.54,0.6304912528107923
95,569.94,0.6204651013994875
96,580.54,0.610012878422581
97,589.97,0.600859252354446
98,599.5600000000001,0.5911515010338294
99,610.7,0.5800815913297973
100,620.63,0.5710124008476574
101,630.71,0.5610233719413158
102,630.957344,0.5607899220631876
103,639.48,0.5545054876645741
104,649.87,0.5464192696333646
105,657.4000000000001,0.5403940992844708
106,665.01,0.5349147970633443
107,674.26,0.5280119299614496
108,685.22,0.5190228094655828
109,694.75,0.512332457310874
110,704.4200000000001,0.5040901541297579
111,715.86,0.49634176840049554
112,724.43596,0.4898281342579781
113,725.8199999999999,0.4890585701349432
114,734.23,0.48439500779535366
115,744.4399999999999,0.47852302997047763
116,754.8000000000001,0.47266439702182755
117,765.3,0.46613588235765524
118,774.16,0.46185359764674416
119,784.93,0.4553811019597788
120,795.85,0.4496206191490396
121,805.06,0.4446123611493228
122,814.38,0.43945380665883843
123,825.71,0.4331921271097839
124,831.763771,0.42879869503843987
125,835.2800000000001,0.426767301694006
126,844.95,0.4242396724901828
127,854.7299999999999,0.420090112497071
128,864.63,0.41628834846109886
129,874.64,0.4122183636358383
130,884.77,0.40808009376771737
131,895.01,0.4038761101103078
132,905.3799999999999,0.3993845501564664
133,915.86,0.39521856641333636
134,924.34,0.4114756933845441
135,935.0400000000001,0.42994886206283683
136,945.87,0.45552880444469773
137,954.62,0.4745052475694699
138,954.992586,0.4748433875656595
139,965.67,0.48463471198199537
140,974.61,0.39739659824585405
141,985.89,0.46310627661904497
142,995.0100000000001,0.4586925838143907
143,1004.22,0.4869695114754801
144,1015.8499999999999,0.4781202783265627
145,1025.25,0.4123243803042217
146,1034.74,0.44498936274762435
147,1044.31,0.5036358722716879
148,1053.97,0.4966889022614949
149,1066.18,0.46437954544736915
150,1076.04,0.4794507431388286
151,1086.0,0.45029037468111416
152,1096.05,0.4770663266891433
153,1096.4782,0.47663731895672407
154,1106.19,0.4676617501791737
155,1113.86,0.4619480314343357
156,1124.16,0.44336626884348396
157,1134.57,0.46750069985603093
158,1145.06,0.4521243534892315
159,1155.66,0.45376100072583075
160,1163.67,0.4536934531187703
161,1174.44,0.4034849359242585
162,1185.3,0.4395147316779819
163,1196.27,0.40052112103510384
164,1204.56,0.37378920260033105
165,1215.71,0.3380399078539237
166,1224.1399999999999,0.3846075640052946
167,1235.46,0.421532314827776
168,1244.03,0.43029552556529066
169,1255.54,0.42224329261182436
170,1258.92541,0.41515147542752173
171,1264.24,0.40455392106903815
172,1275.94,0.43126309622710807
173,1284.7800000000002,0.43517333967987204
174,1293.69,0.4045967692233253
175,1305.6599999999999,0.40009199073119694
176,1314.71,0.4250488924560287
177,1323.82,0.41587168225859433
178,1336.07,0.3989974481292231
179,1345.3300000000002,0.4165024081261229
180,1354.66,0.409003254213712
181,1364.05,0.3927789883790348
182,1373.5,0.39478841062209125
183,1386.21,0.39241248508867843
184,1395.8200000000002,0.36352407553902466
185,1405.5,0.3621335520800604
186,1415.24,0.37494561669882964
187,1425.05,0.37210876740828835
188,1434.93,0.3711649042084363
189,1441.55,0.3753620887850536
190,1445.43977,0.37532271063439976
191,1448.2,0.3755033222494757
192,1454.89,0.36959036961234565
193,1464.9699999999998,0.3583654817824098
194,1475.13,0.3565894226204902
195,1485.35,0.35628198495958296
196,1495.65,0.3556029759666921
197,1506.0200000000002,0.3471969420583155
198,1512.9699999999998,0.3332592825922388
199,1516.45,0.3390518296509514
200,1523.45,0.3347639381023848
201,1534.01,0.31639712228054717
202,1544.6499999999999,0.316954735126726
203,1555.3500000000001,0.3103001694739169
204,1566.14,0.31442438607262646
205,1573.3600000000001,0.3207514733611049
206,1584.2700000000002,0.32346983296183895
207,1595.25,0.32391916764708734
208,1606.31,0.31762043100035214
209,1613.7299999999998,0.31533348995887156
210,1624.9099999999999,0.30853699631416087
211,1636.17,0.31273773133746663
212,1643.73,0.3124139404650147
213,1655.12,0.303260872073847
214,1659.58691,0.3057936763569559
215,1666.59,0.3101309715657301
216,1670.43,0.2964728770182198
217,1678.1499999999999,0.31143749527166265
218,1685.8899999999999,0.31291516719933726
219,1693.6699999999998,0.3044783464754753
220,1705.41,0.29879385324949326
221,1713.28,0.2924636240596741
222,1725.16,0.2897788065533141
223,1733.12,0.29572686889753763
224,1745.14,0.29138202711079964
225,1753.19,0.2962049809890659
226,1765.34,0.2854782380848342
227,1773.49,0.2863442603342589
228,1785.79,0.2867258699867651
229,1794.03,0.2915399837702326
230,1806.46,0.2887062923052449
231,1814.8,0.279736674459871
232,1823.18,0.2799533639629605
233,1835.82,0.27441318607740584
234,1844.2900000000002,0.2643278671145381
235,1857.0700000000002,0.26389736494860544
236,1865.65,0.26572209119401213
237,1874.26,0.2706239479507665
238,1882.9099999999999,0.2610188120559842
239,1895.9599999999998,0.25577458449217977
240,1904.71,0.259785916968556
241,1905.46072,0.259402745707726
242,1913.5,0.2555621872764481
243,1926.77,0.2507810249744652
244,1935.6599999999999,0.25218206590403364
245,1944.6,0.2570532250615523
246,1953.57,0.24892379515584123
247,1967.11,0.25620303128479016
248,1976.1899999999998,0.25775494148056977
249,1985.32,0.25138676990429976
250,1994.4799999999998,0.2474647092647999
251,2003.6799999999998,0.24860496320766032
252,2012.93,0.24525613537847102
253,2026.89,0.2465242246222027
254,2036.24,0.2415144332489141
255,2045.6399999999999,0.24371686010357585
256,2055.08,0.23422170154059785
257,2064.57,0.23547366120557012
258,2074.1,0.24371723545290275
259,2078.88,0.24045757804495413
260,2083.67,0.24343402428259558
261,2093.29,0.23667463134023875
262,2102.9500000000003,0.23608365298024217
263,2112.6600000000003,0.23659369284819592
264,2127.3,0.2355595299920521
265,2137.1200000000003,0.22791490996149655
266,2146.9900000000002,0.2296888081588914
267,2156.9,0.23152162093864648
268,2166.85,0.22657154830076182
269,2176.85,0.22514479389082748
270,2186.9,0.22371525770884348
271,2187.7616199999998,0.22398110433621424
272,2197.0,0.2270993854263867
273,2207.14,0.22325576813341858
274,2217.32,0.21694732513120796
275,2227.56,0.21457434356513366
276,2232.69,0.2206512463547859
277,2243.0,0.21589451979753724
278,2253.35,0.21031586753104614
279,2263.75,0.2106575831280019
280,2274.2000000000003,0.21224466658840455
281,2284.7000000000003,0.21438471791225416
282,2295.25,0.20731703709955063
283,2305.84,0.20881703057760465
284,2316.48,0.20426319191910555
285,2327.1800000000003,0.18765765469674273
286,2332.54,0.1964682596582507
287,2343.31,0.1916620174447136
288,2354.12,0.19913519952193398
289,2364.99,0.19026620303529063
290,2375.91,0.19257205441209418
291,2386.87,0.18433100007965528
292,2392.38,0.18861211863150396
293,2403.42,0.18561083288058008
294,2414.5099999999998,0.18677438499310314
295,2425.66,0.19281342854176248
296,2436.85,0.1892054763811793
297,2442.47,0.19344271423261117
298,2453.75,0.19203286422623245
299,2465.07,0.1899507685106112
300,2476.45,0.18591165423112627
301,2482.16,0.1845763942367626
302,2493.62,0.17762570853879267
303,2505.1299999999997,0.18931794070426972
304,2510.8999999999996,0.17663038214604232
305,2511.88643,0.1766876851403124
306,2516.6899999999996,0.17704098792771258
307,2522.4900000000002,0.17486552084574142
308,2534.13,0.17671174932261308
309,2545.83,0.17574787676070575
310,2557.58,0.18254667499981592
311,2563.48,0.17850894951987975
312,2575.31,0.1829065830406179
313,2587.2000000000003,0.18101695552257704
314,2593.16,0.17889383900386185
315,2605.13,0.17516632676744898
316,2617.1499999999996,0.17275335533205363
317,2623.19,0.17756938409496642
318,2635.2999999999997,0.18273059610140252
319,2647.46,0.1919271589088561
320,2653.56,0.19713933663298988
321,2665.81,0.18369243288227494
322,2671.96,0.18804115140742622
323,2684.2899999999995,0.1894181329383393
324,2696.6800000000003,0.1811815834304733
325,2702.8999999999996,0.1852365590770491
326,2715.37,0.17745927485081112
327,2727.91,0.1753145077459976
328,2734.19,0.17986395235379438
329,2746.8199999999997,0.16512080869081236
330,2753.1499999999996,0.16857392409962663
331,2765.86,0.17286662571827258
332,2772.23,0.1764641637679008
333,2785.03,0.1669723788283783
334,2797.8799999999997,0.14873733468987324
335,2804.33,0.15279698802112945
336,2817.2799999999997,0.17243176548465938
337,2823.77,0.1803621714567296
338,2836.7999999999997,0.17665592420188753
339,2843.3399999999997,0.17187960097497523
340,2856.47,0.16331882532216813
341,2863.0499999999997,0.17779334473606984
342,2876.2700000000004,0.18058421252509416
343,2882.9,0.17819054274001334
344,2884.0315,0.17830406689423672
345,2896.21,0.17968759207031412
346,2909.57,0.19123196452946373
347,2929.7400000000002,0.18479092482145837
348,2950.05,0.18165461760928237
349,2970.5,0.1836888428929358
350,2991.09,0.18339600067241862
351,3011.82,0.18415929094773087
352,3032.7,0.1844013946114318
353,3046.7,0.185284544194373
354,3067.82,0.18636028927949577
355,3089.0800000000004,0.18607016686044792
356,3110.4900000000002,0.18801575782978877
357,3132.06,0.18465484308007749
358,3146.51,0.1844564328281847
359,3168.32,0.18639555949989522
360,3190.29,0.17814808045255373
361,3212.4,0.18299413390104163
362,3227.23,0.17471079756640007
363,3249.6000000000004,0.18703535422142828
364,3272.12,0.19422782426484517
365,3287.2200000000003,0.19251187202930317
366,3310.0099999999998,0.19040442617181966
367,3311.31121,0.19025987977982467
368,3325.29,0.18883714197389387
369,3332.9500000000003,0.19369820352638276
370,3340.6400000000003,0.1834935869909571
371,3348.34,0.1993855444262266
372,3356.06,0.19332364980288644
373,3363.8,0.17235360312093656
374,3371.5499999999997,0.17660763040968186
375,3379.32,0.19357220563981745
376,3387.1099999999997,0.19075662881134337
377,3394.92,0.18560619992425956
378,3402.7400000000002,0.20259754500787094
379,3410.59,0.18495391200356776
380,3418.4500000000003,0.18404215296995974
381,3426.3300000000004,0.19001844187774203
382,3434.2299999999996,0.20021357872691467
383,3442.15,0.18306386351747758
384,3450.08,0.18840712227873568
385,3458.03,0.18991612898138405
386,3466.0099999999998,0.18623065759611793
387,3474.0,0.19394846018154693
388,3482.0099999999998,0.18348391070836623
389,3490.03,0.1935884352058807
390,3498.08,0.18049248161548062
391,3506.14,0.19482900199577574
392,3514.2200000000003,0.18364867031746113
393,3522.3300000000004,0.19414326055123202
394,3530.44,0.18180675078500289
395,3538.58,0.1957244629308592
396,3546.74,0.19867762301810588
397,3554.9199999999996,0.19866043104674283
398,3563.1099999999997,0.19371511304607494
399,3571.32,0.17957564298679735
400,3579.56,0.18159359483960524
401,3587.81,0.16782512066310828
402,3596.08,0.18543619442800163
403,3603.29,0.32003782729920854
404,3606.04,0.2172035692403762
405,3608.7799999999997,0.27844353721084875
406,3611.5199999999995,0.18413200518132128
407,3614.27,0.15532774712248895
408,3617.0099999999998,0.11122200509296148
409,3619.75,0.065566403063434
410,3622.49,0.11493655103390653
411,3625.2400000000002,0.0487691099750742
412,3627.98,0.11737413094554673
413,3630.7200000000003,0.03555894891601925
414,3633.46,0.1394097068864918
415,3636.2100000000005,0.20450493882765947
416,3638.9500000000003,-0.026032983201868018
417,3641.69,0.07858629476860451
418,3644.4300000000003,0.16770844273907703
419,3647.18,0.12851794468024474
420,3649.9199999999996,0.13278723265071726
421,3652.66,0.21304492062118977
422,3655.3999999999996,0.30290028859166235
423,3658.15,0.16943803053283
424,3660.89,0.21692989850330252
425,3663.63,0.3176805664737751
426,3666.37,0.08835890444424756
427,3669.1200000000003,0.08648399638541523
428,3671.86,0.22901624435588777
429,3674.6,0.1700017123263603
430,3677.34,0.20756588029683282
431,3680.0899999999997,0.1695487222380005
432,3682.8300000000004,0.23598629020847303
433,3685.57,0.17704755817894555
434,3688.3199999999997,0.14429856012011325
435,3691.06,0.17841796809058577
436,3693.7999999999997,0.20353043606105828
437,3696.54,0.1626815040315308
438,3699.29,0.2924469459726985
439,3702.03,0.22413851394317102
440,3704.77,0.24675598191364354
441,3707.5099999999998,0.2791370498841161
442,3710.26,0.07919195182528375
443,3713.0,0.09732464979575628
444,3715.7400000000002,0.2092125277662288
445,3718.48,0.15157539573670134
446,3721.23,0.166040737677869
447,3723.97,0.13633644564834155
448,3726.7099999999996,0.3723659736188141
449,3729.4500000000003,0.23735214158928658
450,3732.2,0.29471828353045426
451,3734.94,0.11665000150092678
452,3737.68,0.3061314194713993
453,3740.42,0.16701748744187184
454,3743.17,0.12967022938303951
455,3745.91,0.17938809735351205
456,3748.65,0.19903026532398457
457,3751.3999999999996,0.19474660726515228
458,3754.1400000000003,0.2559304752356248
459,3756.88,0.1581364432060973
460,3759.6200000000003,0.03845477117656983
461,3762.37,0.11488526311773753
462,3765.1099999999997,0.19344932108821006
463,3767.85,0.21367468905868256
464,3770.5899999999997,0.2559563570291551
465,3773.34,0.13680188897032278
466,3776.08,0.1527284669407953
467,3778.82,0.20860823491126781
468,3781.56,0.13897248288174036
469,3784.3100000000004,0.285849444822908
470,3787.05,0.21573921279338054
471,3789.79,0.2261558807638531
472,3792.53,0.2361249487343256
473,3795.2799999999997,0.1392596206754933
474,3798.0199999999995,0.16249615864596584
475,3800.76,0.22731072661643834
476,3801.8939600000003,0.2276386098966563
477,3803.5,0.22811352301933102
478,3806.25,0.26949489264919607
479,3808.99,0.1564255227531343
480,3811.73,0.2298697528570725
481,3814.47,0.16622238296101077
482,3817.2200000000003,0.18902655259087578
483,3819.96,0.176428182694814
484,3822.7,0.22385331279875226
485,3825.4500000000003,0.18473118242861727
486,3828.19,0.1455504325325555
487,3830.9300000000003,0.13867685263649374
488,3833.67,0.11706412274043196
489,3836.4199999999996,0.14573601237029699
490,3839.16,0.1945781724742352
491,3841.8999999999996,0.14239323257817346
492,3844.64,0.1539742326821117
493,3847.39,0.1677101023119767
494,3850.13,0.1946711324159149
495,3852.87,0.12645985251985317
496,3855.6099999999997,0.1377194826237914
497,3858.36,0.27692716225365643
498,3861.1,0.20028139235759468
499,3863.84,0.1838989224615329
500,3866.58,0.21928035256547113
501,3869.3300000000004,0.14713972219533614
502,3872.07,0.14610109229927437
503,3874.8100000000004,0.2052430824032126
504,3877.55,0.22183041250715085
505,3880.2999999999997,0.19537838213701586
506,3883.04,0.1539879122409541
507,3885.7799999999997,0.11881678234489233
508,3888.5199999999995,0.15491667244883056
509,3891.27,0.23590464207869558
510,3894.0099999999998,0.19796417218263382
511,3896.75,0.19046420228657207
512,3899.5,0.26657207191643706
513,3902.2400000000002,0.2729374020203753
514,3904.98,0.22492303212431355
515,3907.7200000000003,0.17203946222825178
516,3910.47,0.1868368318581168
517,3913.2099999999996,0.188612861962055
518,3915.9500000000003,0.15599819206599325
519,3918.69,0.1890795221699315
520,3921.44,0.18539519179979652
521,3924.18,0.22941892190373478
522,3926.92,0.203379452007673
523,3929.66,0.21565568211161124
524,3932.41,0.14751215174147625
525,3935.15,0.15094188184541446
526,3937.89,0.25243441194935273
527,3940.63,0.18682824205329093
528,3943.38,0.20016141168315596
529,3946.1200000000003,0.22503544178709417
530,3948.86,0.19468657189103242
531,3951.6,0.2725433019949707
532,3954.35,0.24774657162483568
533,3957.0899999999997,0.22171090172877392
534,3959.83,0.20782343183271212
535,3962.58,0.23008410146257718
536,3965.32,0.16123573156651538
537,3968.06,0.15515476167045364
538,3970.7999999999997,0.1823901917743919
539,3973.55,0.1036222114042569
540,3976.29,0.08791667150819513
541,3979.03,0.22837642161213337
542,3981.77,0.19626725171607157
543,3984.5199999999995,0.2512161213459366
544,3987.26,0.24646035144987483
545,3990.0,0.25219388155381306
546,3992.7400000000002,0.2617187116577513
547,3995.49,0.24562398128761634
548,3998.23,0.1945115113915546
549,4000.97,0.2231354414954928
550,4003.7099999999996,0.266832471599431
551,4006.46,0.19260464122929605
552,4009.2,0.1447435713332343
553,4011.94,0.29089220143717254
554,4014.68,0.24118253154111075
555,4017.4300000000003,0.2693737011709758
556,4020.17,0.319700131274914
557,4022.9100000000003,0.27190416137885226
558,4025.65,0.19849879148279048
559,4028.3999999999996,0.2419726611126555
560,4031.14,0.27262039121659376
561,4033.88,0.30186002132053197
562,4036.63,0.29134369095039697
563,4039.37,0.23045892105433521
564,4042.1099999999997,0.3005902511582734
565,4044.85,0.26034068126221166
566,4047.6,0.2569920508920767
567,4050.34,0.21560338099601492
568,4053.08,0.3005587110999532
569,4055.82,0.21588774120389143
570,4058.57,0.20900971083375644
571,4061.3100000000004,0.21987224093769464
572,4064.05,0.19827767104163288
573,4066.79,0.22319330114557112
574,4069.54,0.24658407077543615
575,4072.2799999999997,0.29916710087937437
576,4075.0199999999995,0.17070143098331264
577,4077.76,0.13612966108725086
578,4080.5099999999998,0.29141603071711586
579,4083.25,0.2671622608210541
