,lambda (Angstroms),Total Flux (erg/s/cm^2/Angstrom)
0,100.02000000000001,0.0008925495127933525
1,102.12,0.001097117055115097
2,104.01,0.0012812277968634678
3,104.712855,0.0013496951208983587
4,105.95,0.0012491409349018989
5,107.92,0.0010890209778190198
6,109.92,0.0009264636821504118
7,114.05,0.0005907813890540362
8,118.06,0.0002648528399715765
9,120.22644299999999,8.87768836688907e-05
10,121.09,8.553361495518272e-05
11,125.05000000000001,7.064826471982407e-05
12,127.08000000000001,6.301813980003163e-05
13,127.97,5.9673609340418274e-05
14,130.95000000000002,4.8473744950476605e-05
15,131.85,4.509548618244065e-05
16,134.0,3.701587378157672e-05
17,137.12,2.5298135703718405e-05
18,138.038426,2.1848461131501756e-05
19,139.98999999999998,2.1598714838529237e-05
20,142.92,2.1274952186598727e-05
21,146.92000000000002,2.0852852710584376e-05
22,151.04,2.0362842877289607e-05
23,154.91,1.9918423729995734e-05
24,158.489319,1.951613765256989e-05
25,158.89000000000001,1.9442552485436823e-05
26,161.84,1.8910545150582842e-05
27,165.98999999999998,1.8170432389686566e-05
28,169.86,1.7499566098200143e-05
29,173.02,1.6954424086288758e-05
30,177.04999999999998,1.6279192797996712e-05
31,179.92999999999998,1.5812701255495194e-05
32,181.970086,1.5487165263610288e-05
33,182.01,1.5491563410361213e-05
34,185.82000000000002,1.5930527067395518e-05
35,191.02999999999997,1.6536168322815124e-05
36,194.13,1.6923279933525454e-05
37,198.20000000000002,1.744734601597417e-05
38,201.88000000000002,1.797565996030127e-05
39,205.16,1.8417288019375416e-05
40,208.929613,1.8923734838856422e-05
41,209.94,1.9396095174942636e-05
42,215.82,2.238196924497567e-05
43,219.82999999999998,2.4402573592056015e-05
44,222.89,2.592064913870587e-05
45,227.04,2.8058499582691772e-05
46,230.19000000000003,3.1970526763066625e-05
47,233.93,3.9116647208971986e-05
48,239.88329199999998,4.591170054737358e-05
49,239.93,4.5931038843615354e-05
50,246.09,4.469192462519593e-05
51,251.82,4.505003245449086e-05
52,257.09,4.0995478520875556e-05
53,260.07,4.376236037625057e-05
54,264.3,4.432923767431645e-05
55,269.21,4.402195801320618e-05
56,274.21999999999997,4.362586438751117e-05
57,275.42287,4.352655156528252e-05
58,279.31,4.584615076405445e-05
59,283.85,4.874780950506907e-05
60,289.8,5.1170802436575e-05
61,295.86,5.540389917017599e-05
62,300.67,5.738239360724214e-05
63,307.68,6.211520408620961e-05
64,316.227766,6.797569773328194e-05
65,317.76,6.8095107408325e-05
66,328.17,6.78253847099482e-05
67,338.14,6.733801831198311e-05
68,347.61,6.698318361903131e-05
69,357.35,6.644896960537232e-05
70,363.078055,6.64706544440318e-05
71,365.67,6.766613035346901e-05
72,375.04999999999995,7.123922116217644e-05
73,384.67,7.34004163412559e-05
74,395.45,7.865089264380025e-05
75,404.66,8.249307535682749e-05
76,414.09000000000003,8.567048207602909e-05
77,416.86938299999997,8.65096681214412e-05
78,421.79,8.760068157548002e-05
79,429.63,8.921328108440911e-05
80,440.65,9.22988419757865e-05
81,450.90999999999997,9.435986832293097e-05
82,460.36,9.60584446953009e-05
83,470.0,9.806467970372904e-05
84,478.630092,0.00010011413073711232
85,479.84,0.00010006504005515343
86,489.88,9.84828043945195e-05
87,500.14000000000004,9.818254536283583e-05
88,505.93,9.876910573384474e-05
89,511.79,0.00010865986412315601
90,520.11,0.00010788062572709284
91,529.78,0.00010688661482686076
92,539.63,0.00010408844025940616
93,549.5408739999999,0.00010737724153122196
94,549.66,0.00010742944714509225
95,559.88,0.00011232785559431185
96,570.2900000000001,0.00011567719913211773
97,579.55,0.00011416439555479617
98,590.33,0.00011914500268616479
99,599.92,0.00011843473636796675
100,609.67,0.00011925273538752558
101,619.5699999999999,0.00013050273316123146
102,629.6400000000001,0.00013301422285630398
103,630.957344,0.00013327965866244746
104,639.87,0.00013614989281120172
105,650.27,0.00014277542970804902
106,657.8000000000001,0.00014580414690355486
107,665.4200000000001,0.00015178729259143723
108,674.67,0.0001554067431968062
109,685.64,0.00015466402721203847
110,695.17,0.00017343055534924567
111,704.84,0.000169107072252372
112,716.3,0.00018983516694832107
113,724.43596,0.0001944236413049998
114,726.26,0.0001953979428472182
115,734.6700000000001,0.00020119389296578455
116,744.89,0.00021393591320499362
117,755.25,0.00022261614605021923
118,765.7600000000001,0.00022797898525903402
119,774.63,0.0002449503482259405
120,785.4,0.0002575718251316432
121,794.5000000000001,0.0002675247445227198
122,805.5500000000001,0.00027797424664045557
123,814.88,0.0002869958224557022
124,824.32,0.00030624672960424755
125,831.763771,0.0002882876552687538
126,835.78,0.00027809507667329116
127,845.4599999999999,0.0003229458359442407
128,855.25,0.00033304495270690567
129,865.15,0.00035235082696128593
130,875.17,0.0003713943002975374
131,885.31,0.0003933372727156603
132,895.56,0.0004114504026254984
133,905.9300000000001,0.0004186026316172078
134,914.31,0.0005836436841678853
135,924.9,0.0032071520281430252
136,935.61,0.0069381716712000364
137,944.26,0.013474944146684924
138,954.992586,0.01857769123739086
139,955.1999999999999,0.018676320036760653
140,964.0400000000001,0.022604900096337158
141,975.1999999999999,0.004861000678336456
142,984.2199999999999,0.023024416295687144
143,995.62,0.023024261621385354
144,1004.83,0.02979159666083101
145,1014.13,0.027297400479163757
146,1025.87,0.011158751191768755
147,1035.3600000000001,0.020904032432196476
148,1044.94,0.03681564245151129
149,1054.61,0.036730621249713186
150,1064.3700000000001,0.03126603882680218
151,1074.22,0.03597799518277826
152,1084.16,0.030484000317641435
153,1094.19,0.037413054231391706
154,1096.4782,0.0371450688664195
155,1104.32,0.036226440182162215
156,1114.53,0.03572946661311234
157,1124.85,0.032963698372897386
158,1135.25,0.038993646735471454
159,1145.76,0.036057820426880445
160,1153.7,0.037670003253691804
161,1164.38,0.03908199972602749
162,1175.1499999999999,0.029650212376500836
163,1186.02,0.037668480780460464
164,1194.24,0.028316071717033438
165,1205.29,0.02178211247726839
166,1213.65,0.011921577468722164
167,1224.88,0.025470260585232437
168,1236.21,0.036808889455229005
169,1244.78,0.040638505529003985
170,1256.3,0.039988526330624496
171,1258.92541,0.03867788010078222
172,1265.01,0.03564063322083921
173,1273.78,0.04334270971077734
174,1285.56,0.04496961529247302
175,1294.47,0.03863113220528359
176,1306.45,0.03827695839108277
177,1315.51,0.04486587575697096
178,1324.6299999999999,0.04344255330409019
179,1333.81,0.04017266103244047
180,1346.15,0.04507251830562594
181,1355.48,0.044148826487053844
182,1364.8799999999999,0.040918994879917965
183,1374.34,0.042356793454013136
184,1383.8600000000001,0.042945942209339366
185,1393.46,0.03845408120630698
186,1406.3500000000001,0.03980476014077704
187,1416.1000000000001,0.04101390959082228
188,1425.9099999999999,0.041393889222098565
189,1435.8000000000002,0.041393709095016246
190,1442.43,0.04304502912104701
191,1445.43977,0.0434061562186761
192,1445.75,0.0434433789985706
193,1455.7700000000002,0.0427492544001654
194,1465.86,0.04045155997921645
195,1476.0200000000002,0.04026615573572376
196,1486.26,0.04063787169503821
197,1496.5600000000002,0.04110838780645801
198,1503.46,0.03962271529857419
199,1510.4,0.03655577289209395
200,1517.38,0.038365650587017276
201,1524.3799999999999,0.037579308332642385
202,1534.9499999999998,0.0339598851285363
203,1545.59,0.03605389210188647
204,1556.3,0.03443207925269289
205,1563.4799999999998,0.035152607454634076
206,1574.32,0.0370641249350021
207,1585.23,0.03818990259282638
208,1596.22,0.03907947045345781
209,1603.59,0.03801452913706597
210,1614.71,0.038014137327258994
211,1625.9,0.036639855694908276
212,1633.4,0.03827789470807805
213,1644.72,0.038631983405288936
214,1656.13,0.03638785233065787
215,1659.58691,0.037605657186262194
216,1663.77,0.03907934853696046
217,1671.4499999999998,0.03605424071897033
218,1675.3000000000002,0.039259811995108085
219,1686.92,0.040266707119451135
220,1694.7,0.038455651152789254
221,1706.4499999999998,0.03732198868385904
222,1714.33,0.0361381745685254
223,1726.21,0.035889604506321914
224,1734.1799999999998,0.03766776205718372
225,1746.2,0.036895164586839786
226,1754.26,0.03872272380389701
227,1766.4199999999998,0.036056088925412635
228,1774.57,0.03706640980866529
229,1786.8700000000001,0.03749543752204046
230,1795.1200000000001,0.03917202025662137
231,1803.4,0.038992043546600755
232,1815.91,0.03698184514776526
233,1824.2900000000002,0.0374096102890729
234,1836.93,0.036475354296964135
235,1845.41,0.03404201128960003
236,1853.93,0.03427791902276722
237,1866.7800000000002,0.035156506918447794
238,1875.4,0.03698287650294324
239,1884.05,0.03483496664283716
240,1897.11,0.03373082842630706
241,1905.46072,0.035168517529290066
242,1905.8700000000001,0.0352389632585586
243,1914.67,0.03435713325687954
244,1923.5,0.03373068253928566
245,1936.84,0.03412048419583127
246,1945.78,0.0358921308532164
247,1954.7600000000002,0.03412009655604845
248,1968.3100000000002,0.03639118320119035
249,1977.3899999999999,0.037152646517639686
250,1981.95,0.0356447776985878
251,1995.69,0.034833179809602544
252,2004.9,0.03539875002375434
253,2014.16,0.03475286904471478
254,2023.45,0.03556204734976041
255,2032.79,0.034593054461614675
256,2046.88,0.0354793782202899
257,2056.33,0.03388319270712318
258,2065.8199999999997,0.034274966239403376
259,2075.36,0.036388598578492214
260,2080.14,0.03572470450939835
261,2084.94,0.03664025996302796
262,2094.56,0.03507262039301062
263,2104.23,0.03531502962980192
264,2113.94,0.035641597912040135
265,2123.7,0.03588779500108699
266,2133.5,0.03403775113558077
267,2143.35,0.03491002607688318
268,2153.24,0.03572289006363251
269,2163.1800000000003,0.034589812857190476
270,2173.17,0.034430354457557086
271,2183.2,0.03450957510337061
272,2187.7616199999998,0.03505812323690933
273,2193.2799999999997,0.03572196124084532
274,2203.4,0.034828773788528194
275,2213.57,0.03326200728753361
276,2223.79,0.032805931737861574
277,2234.0499999999997,0.03490987694924757
278,2244.36,0.03364771311195611
279,2254.7200000000003,0.032357020225987194
280,2265.13,0.03258160829134082
281,2275.59,0.03341677730801699
282,2286.09,0.03443195708575119
283,2296.64,0.03268486781480794
284,2307.2400000000002,0.03326100949518724
285,2312.56,0.0322284907159059
286,2323.2400000000002,0.027407143918401267
287,2333.96,0.03030002788195467
288,2344.73,0.02891019279683061
289,2355.56,0.0315953688532936
290,2366.43,0.029057085670814636
291,2377.35,0.03018842343965821
292,2382.83,0.027744037704609016
293,2393.83,0.029292716995568662
294,2404.88,0.02860062723785085
295,2415.98,0.02917319843145558
296,2427.13,0.031374240576382856
297,2432.73,0.030401157124507767
298,2443.96,0.03195167079155111
299,2455.24,0.03177704540991701
300,2466.5699999999997,0.031385750979605435
301,2472.26,0.030272579240110925
302,2483.67,0.03010796633191543
303,2495.13,0.02879463437504248
304,2506.65,0.032278233559756585
305,2511.88643,0.028820359702562668
306,2512.43,0.028461399187727995
307,2518.22,0.02848209655168833
308,2524.02,0.02785389384201129
309,2535.67,0.02867534805447034
310,2547.38,0.02865079182510515
311,2553.2500000000005,0.031076228599966494
312,2565.04,0.029996061781502305
313,2576.8799999999997,0.03167272459485125
314,2582.82,0.031261710854250974
315,2594.74,0.03073594307850092
316,2606.71,0.029669014934563996
317,2612.7200000000003,0.029149390678502096
318,2624.7799999999997,0.03077880187182881
319,2636.8999999999996,0.032876272623331274
320,2642.9799999999996,0.03615607785180775
321,2655.18,0.03817858801421123
322,2667.4300000000003,0.034158227808427824
323,2673.58,0.035629012521442696
324,2685.92,0.03642946165292292
325,2692.1099999999997,0.03371335607138829
326,2704.5400000000004,0.03527321454013215
327,2717.02,0.032742822640689145
328,2723.29,0.03209587647005552
329,2735.86,0.033970103907876144
330,2742.1600000000003,0.029205457516330396
331,2754.82,0.030627924291414654
332,2767.54,0.032491290624674665
333,2773.92,0.03381351364402992
334,2786.72,0.03067492938819094
335,2793.14,0.024670332112996702
336,2806.0400000000004,0.026231257120783977
337,2812.5,0.03327425955104024
338,2825.49,0.03603845389609115
339,2832.0,0.034922555958160545
340,2845.07,0.03309746971411246
341,2858.2000000000003,0.030303643028240127
342,2864.79,0.03554691450121053
343,2878.02,0.03702358707896445
344,2884.0315,0.03651300960069557
345,2884.65,0.036460482718648664
346,2897.9700000000003,0.0373684107113174
347,2911.34,0.0416077086964511
348,2931.5200000000004,0.03973924565531409
349,2951.84,0.038838952593079
350,2972.2999999999997,0.039656169509745834
351,2992.91,0.03993580640380758
352,3006.72,0.04037018432263304
353,3027.5600000000004,0.040843361182033674
354,3048.5499999999997,0.04160866801882922
355,3069.6800000000003,0.04229141483452669
356,3090.96,0.04229838162761907
357,3112.38,0.04359089839961339
358,3126.75,0.04247383623404654
359,3148.42,0.042580382968365714
360,3170.25,0.043882889678572796
361,3192.2200000000003,0.041342786367681815
362,3206.96,0.04336373414635577
363,3229.19,0.04076060079628264
364,3251.5699999999997,0.04584916742360442
365,3266.58,0.04887245516158923
366,3289.22,0.04854913174972888
367,3311.31121,0.04791724230155393
368,3312.02,0.04789696637867938
369,3319.66,0.046631894369261115
370,3327.31,0.04732111233103471
371,3334.98,0.05063200023519203
372,3342.6699999999996,0.04718593808173307
373,3350.37,0.049565555899465964
374,3358.1,0.04983716363077445
375,3365.84,0.04206850133327479
376,3373.6,0.04210530897815886
377,3381.3700000000003,0.04706526659423478
378,3389.17,0.04932567412388629
379,3396.98,0.04628766162472966
380,3404.81,0.05079611906795675
381,3412.6600000000003,0.04701365645356756
382,3420.5299999999997,0.0488200937815621
383,3428.41,0.049542971080748496
384,3436.3199999999997,0.04947220829351047
385,3444.2400000000002,0.04224408547746431
386,3452.1800000000003,0.05165670260380187
387,3460.14,0.04803032967252315
388,3468.1099999999997,0.0485180667124363
389,3476.11,0.04723802366592503
390,3484.12,0.04928038059060561
391,3492.15,0.04798053745766992
392,3500.2,0.045967974267117954
393,3508.27,0.050330601018949706
394,3516.36,0.04626274771316518
395,3524.4700000000003,0.04859750434976438
396,3532.5899999999997,0.05128547095755544
397,3540.7300000000005,0.05276962750773021
398,3548.8999999999996,0.05492352397148058
399,3557.0800000000004,0.051780690406422795
400,3565.28,0.05401984678374874
401,3573.5,0.045078253103458414
402,3581.73,0.04713632939435994
403,3589.9900000000002,0.04052960559883705
404,3598.27,0.051301611745697875
405,3606.56,0.04903788786375057
406,3614.87,0.04829837392418699
407,3619.08,0.05307225179596043
408,3621.81,0.03414969393133846
409,3624.55,0.05023735603790835
410,3627.2900000000004,0.047783448144478234
411,3630.03,0.05846379025104813
412,3632.77,0.06367115235761801
413,3635.5,0.05732908449299604
414,3638.24,0.05638959659956593
415,3640.9799999999996,0.057084588706135815
416,3643.72,0.03946773081270571
417,3646.46,0.0569269729192756
418,3649.19,0.04641021505465363
419,3651.93,0.04065805716122352
420,3654.67,0.04456874926779341
421,3657.41,0.052388541374363294
422,3660.1499999999996,0.05009047348093318
423,3662.88,0.047673205616311214
424,3665.62,0.0539101277228811
425,3668.36,0.04946119982945099
426,3671.1,0.046995341936020875
427,3673.8399999999997,0.054993764042590765
428,3676.57,0.0633943361779688
429,3679.31,0.05189063828453868
430,3682.05,0.05298039039110857
431,3684.79,0.06244384249767846
432,3687.5200000000004,0.05727465463305648
433,3690.26,0.051341666739626375
434,3693.0,0.039957438846196264
435,3695.7400000000002,0.04723966095276615
436,3698.48,0.05941925305933604
437,3701.2099999999996,0.050387085194714076
438,3703.95,0.04742599730128396
439,3706.69,0.04541245940785385
440,3709.4300000000003,0.043158921514423736
441,3712.17,0.056514123620993624
442,3714.9,0.046187405756371654
443,3717.64,0.052392847862941544
444,3720.3799999999997,0.055536799969511434
445,3723.12,0.08043361207608131
446,3725.8599999999997,0.11075501418265121
447,3728.59,0.13498450631802922
448,3731.33,0.1251613984245991
449,3734.0699999999997,0.081123280531169
450,3736.81,0.05415146263773891
451,3739.5499999999997,0.0567692347443088
452,3742.28,0.055645436879686816
453,3745.02,0.04062630898625671
454,3747.7599999999998,0.0487159810928266
455,3750.5,0.053223423199396484
456,3753.24,0.048535035305966374
457,3755.9700000000003,0.053870847441344405
458,3758.71,0.056237209547914294
459,3761.4500000000003,0.05742090165448418
460,3764.19,0.05301867376105407
461,3766.93,0.04959928586762396
462,3769.6600000000003,0.04469123800300199
463,3772.4,0.054586420109571876
464,3775.1400000000003,0.06269889221614176
465,3777.88,0.06424095432271165
466,3780.62,0.059413546429281545
467,3783.35,0.06219941856465957
468,3786.0899999999997,0.05952232067122946
469,3788.8300000000004,0.05943536277779935
470,3791.57,0.05394765488436924
471,3794.3100000000004,0.05014437699093913
472,3797.04,0.050874919126317156
473,3799.7799999999997,0.05047412123288704
474,3801.8939600000003,0.05306186449916655
475,3802.52,0.053828213715238625
476,3805.2599999999998,0.057496717466498676
477,3807.99,0.05718200124056434
478,3810.73,0.06438222499182439
479,3813.47,0.06455047874308445
480,3816.21,0.05735013249434449
481,3818.95,0.05443954624560454
482,3821.6800000000003,0.05731771001967021
483,3824.42,0.05440169377093025
484,3827.16,0.0512358975221903
485,3829.9,0.053364961273450355
486,3832.64,0.0515436550247104
487,3835.3700000000003,0.04209168879877607
488,3838.11,0.04134881255003612
489,3840.85,0.04610116630129617
490,3843.59,0.05426848005255622
491,3846.33,0.054173393803816264
492,3849.0600000000004,0.05720360757788193
493,3851.8,0.06320378132914198
494,3854.54,0.06514767508040203
495,3857.28,0.06299185883166208
496,3860.02,0.06611950258292212
497,3862.75,0.06979594635698781
498,3865.49,0.06802022010824785
499,3868.2299999999996,0.0630679138595079
500,3870.9700000000003,0.06521814761076795
501,3873.71,0.062617081362028
502,3876.44,0.057800835136093666
503,3879.18,0.05799082888735372
504,3881.9199999999996,0.057518342638613766
505,3884.66,0.05636166638987381
506,3887.3999999999996,0.05578059014113386
507,3890.13,0.05505860391519953
508,3892.87,0.050028647666459584
509,3895.61,0.05145779141771963
510,3898.35,0.05701866516897968
511,3901.0899999999997,0.06140608892023973
512,3903.82,0.06479471269430541
513,3906.56,0.06134653644556545
514,3909.3,0.061362760196825496
515,3912.04,0.06653211394808554
516,3914.77,0.07050719772215121
517,3917.51,0.06380097147341125
518,3920.25,0.06311127522467132
519,3922.9900000000002,0.06230754897593136
520,3925.73,0.060320072727191414
521,3928.4599999999996,0.05615543650125708
522,3931.2000000000003,0.04838274025251713
523,3933.94,0.04115090400377718
524,3936.6800000000003,0.04197296775503723
525,3939.42,0.04623607150629728
526,3942.1499999999996,0.053187305280362945
527,3944.89,0.056600599031623
528,3947.6299999999997,0.06123782278288304
529,3950.3700000000003,0.0653048665341431
530,3953.11,0.06485411028540314
531,3955.8399999999997,0.05996184405946881
532,3958.58,0.06224784781072886
533,3961.3199999999997,0.05685027156198891
534,3964.06,0.04973355531324896
535,3966.7999999999997,0.04685392906450901
536,3969.53,0.04515992283857468
537,3972.27,0.04769355658983473
538,3975.0099999999998,0.05259469034109477
539,3977.75,0.05403685409235482
540,3980.49,0.05885379784361487
541,3983.2200000000003,0.06552218161768054
542,3985.96,0.07027342536894059
543,3988.7,0.07587176912020065
544,3991.44,0.07954241287146069
545,3994.18,0.07531229662272074
546,3996.9100000000003,0.07162556039678641
547,3999.65,0.07398214414804645
548,4002.3900000000003,0.07055024789930651
549,4005.13,0.07204344165056656
550,4007.87,0.0715655054018266
551,4010.6000000000004,0.07271695917589227
552,4013.34,0.07268973292715232
553,4016.0800000000004,0.07863016667841237
554,4018.82,0.07811965042967242
555,4021.56,0.07842907418093246
556,4024.29,0.07471519795499815
557,4027.0299999999997,0.08740522170625818
558,4029.7699999999995,0.07898307545751823
559,4032.51,0.07523080920877828
560,4035.24,0.07494873298284395
