,lambda (Angstroms),Total Flux (erg/s/cm^2/Angstrom)
0,100.08,0.003137745087775436
1,101.94,0.0037705663103764493
2,104.07,0.004495248639974397
3,104.712855,0.0047139649712070126
4,106.00999999999999,0.00434573427482968
5,107.98,0.003786495174351149
6,109.98,0.0032187404851764
7,114.11,0.0020463266946659448
8,118.11999999999999,0.0009079793052803762
9,120.22644299999999,0.00031003000356837935
10,120.87,0.0003015838064445176
11,125.12,0.0002457756135323034
12,126.86,0.00022292924825944403
13,128.04,0.0002074357915022176
14,131.02,0.0001683086515861707
15,131.93,0.00015637461492576727
16,134.07,0.00012827934913317012
17,136.88,9.1415524584012e-05
18,138.038426,7.621099528155962e-05
19,140.07,7.5289494019402e-05
20,143.0,7.431830111858386e-05
21,147.0,7.348108452395156e-05
22,151.12,7.187364348048029e-05
23,155.0,7.045035393468697e-05
24,158.489319,6.922129742381959e-05
25,158.98,6.89263429129987e-05
26,161.92999999999998,6.718615194127269e-05
27,166.08,6.482095411664116e-05
28,169.95,6.265876539102093e-05
29,173.11,6.092937184503642e-05
30,177.15,5.877491027358792e-05
31,180.02,5.731973875872226e-05
32,181.970086,5.6338771033117474e-05
33,182.11,5.640021171396387e-05
34,185.92000000000002,5.817775707236334e-05
35,191.13000000000002,6.063902785904608e-05
36,193.79,6.213587897278429e-05
37,197.85,6.421602351480575e-05
38,201.99,6.648011319558627e-05
39,204.8,6.81700418194977e-05
40,208.929613,7.006184337914471e-05
41,210.04999999999998,7.187876163094189e-05
42,215.94,8.310010757374585e-05
43,219.95000000000002,9.053595141596045e-05
44,223.01000000000002,9.598427462223891e-05
45,227.16,0.00010388508266343348
46,229.79,0.00012071024368713034
47,234.06,0.00015398441675602218
48,239.88329199999998,0.00018115052058591087
49,240.07,0.00018154721056134926
50,246.22000000000003,0.00017544667863900708
51,251.96,0.00017949322684482108
52,257.23,0.0001630062630024238
53,260.21,0.00017470222109533775
54,263.83,0.00017909634240283716
55,268.74,0.0001782593955022355
56,273.73,0.00017675615150345708
57,275.42287,0.00017635884576628613
58,278.82,0.00018362139166779859
59,284.01,0.000194819343215464
60,289.95,0.00020151760279024867
61,296.03000000000003,0.00021669287319676234
62,300.84,0.00022568759534402058
63,307.84,0.00024201243693046723
64,316.227766,0.00026173393744428517
65,317.93,0.0002621234242075139
66,328.34000000000003,0.00026123386145288075
67,338.32,0.0002592027529714938
68,347.8,0.00025669831224969526
69,356.72,0.00025448427941863593
70,363.078055,0.00025354209210294316
71,365.87,0.0002575889638933919
72,375.26,0.0002685697969566504
73,384.88,0.00027441980676160736
74,394.76,0.00029182700331804965
75,404.88000000000005,0.0003046144799527862
76,414.31,0.0003141225263624269
77,416.86938299999997,0.0003164028577808534
78,422.02000000000004,0.0003195489970499745
79,429.86,0.00032432870319224166
80,440.89000000000004,0.0003334584221653549
81,451.16,0.00033879179513488086
82,459.55,0.0003433283069376388
83,470.25,0.0003493630625144576
84,478.630092,0.0003555173614833126
85,480.09999999999997,0.00035516938766118116
86,490.15000000000003,0.0003480837934503077
87,500.41,0.00034660680294249066
88,506.21,0.0003444576814078573
89,512.07,0.0003704554037883827
90,520.39,0.0003688701266904259
91,530.0699999999999,0.0003647431783360722
92,539.92,0.0003551089710746689
93,549.5408739999999,0.00036695233896864507
94,549.96,0.0003676240409671845
95,560.18,0.00038560022356657866
96,570.6,0.0004005802428117535
97,579.87,0.00039603957634368924
98,590.65,0.0004201833415512694
99,600.25,0.00042000930054874333
100,610.0,0.0004237593620305528
101,619.91,0.0004784109328289868
102,629.98,0.0004935474129440455
103,630.957344,0.00049496077227059
104,640.2199999999999,0.0005122555198414237
105,650.62,0.0005479461864224313
106,658.16,0.0005650481671936619
107,664.25,0.000599825070893502
108,675.04,0.0006242530037212975
109,684.4300000000001,0.0006191610448939574
110,695.5500000000001,0.0007319832414690348
111,705.23,0.0007055172780559728
112,716.6899999999999,0.0008335978554615832
113,724.43596,0.000868023972117164
114,726.66,0.0008776767784864597
115,735.07,0.0009192913595996348
116,745.3,0.0009955450353175636
117,755.67,0.0010587207644666271
118,764.42,0.0010799300039125584
119,775.0500000000001,0.0012105526894337299
120,785.83,0.001264134203631117
121,794.93,0.0013595856766548855
122,804.14,0.0014441582773745457
123,815.3199999999999,0.0015214918013751757
124,824.76,0.0016553210327317003
125,831.763771,0.0014922911082731563
126,834.3100000000001,0.0014319078384055167
127,845.92,0.001789235046259986
128,855.7199999999999,0.0018573699099097534
129,865.63,0.0020100627944780384
130,875.6500000000001,0.002148163699964841
131,885.7900000000001,0.0023118986282718453
132,893.98,0.00244605418575058
133,904.34,0.0024976701558946197
134,914.8100000000001,0.003274896146957177
135,925.4,0.017196660160839934
136,933.96,0.036666293788680956
137,944.7800000000001,0.06851387984630243
138,954.992586,0.09465589700068594
139,955.72,0.09651810354222677
140,964.56,0.1095440846360548
141,975.7299999999999,0.019586815316830694
142,984.76,0.09367287740701928
143,993.87,0.09945031570620176
144,1005.38,0.14504175027520183
145,1014.6800000000001,0.1407668095707449
146,1024.07,0.06306657460140606
147,1035.93,0.10106390258475452
148,1045.51,0.19118094861177629
149,1055.19,0.18812518990004046
150,1064.95,0.14979232739729853
151,1074.81,0.17883616015579903
152,1084.75,0.1430525891232934
153,1094.79,0.1898611133520302
154,1096.4782,0.18871647374916542
155,1104.92,0.18299188131069055
156,1115.14,0.17678056553615215
157,1125.46,0.1590213349301604
158,1135.87,0.20296379097586054
159,1143.75,0.18553562225733194
160,1154.33,0.1974304530895613
161,1165.01,0.20389626909033728
162,1175.79,0.14107587025965984
163,1183.94,0.19925266149620702
164,1194.9,0.14010313596891344
165,1205.95,0.10292169709331178
166,1214.31,0.07089158718380682
167,1225.55,0.1394560901284437
168,1234.04,0.2081516309380493
169,1245.46,0.22927833718607005
170,1254.09,0.21997415723164088
171,1258.92541,0.20815271598564916
172,1265.6999999999998,0.19159151153870463
173,1274.47,0.24624350405795922
174,1286.26,0.25844092843675187
175,1295.1799999999998,0.20624062253843384
176,1304.16,0.20481991727308677
177,1316.2199999999998,0.2554819445002487
178,1325.35,0.24510524081732904
179,1334.53,0.21896783766188516
180,1343.79,0.25962593535040257
181,1356.22,0.2519724664808854
182,1365.62,0.226654265646335
183,1375.09,0.23788176555025073
184,1384.6200000000001,0.2411921660871374
185,1394.2199999999998,0.20719096736249018
186,1403.88,0.21447576927081394
187,1413.61,0.2256163719176038
188,1423.4099999999999,0.23087327530285978
189,1436.5800000000002,0.23140061423998443
190,1443.21,0.24342328418327494
191,1445.43977,0.24607197984200474
192,1446.54,0.24737891744781595
193,1456.5700000000002,0.24118920625444326
194,1466.6599999999999,0.22355089559231656
195,1473.43,0.22406645553457646
196,1483.6399999999999,0.22875534593494182
197,1493.93,0.23247343704363524
198,1504.28,0.22099072868357467
199,1511.23,0.19786939021957262
200,1518.2,0.2115343519326526
201,1525.2099999999998,0.2057690139998966
202,1535.78,0.17963610758773813
203,1546.43,0.19336910188390768
204,1553.57,0.18424316510218475
205,1564.34,0.19071366046084634
206,1575.1799999999998,0.20388445643929498
207,1586.1,0.21349205312607164
208,1593.42,0.21846301793808678
209,1604.46,0.2144776156873555
210,1615.5900000000001,0.21496831423349327
211,1626.78,0.20482621331087705
212,1634.29,0.21796117980517127
213,1645.6200000000001,0.2214994801221291
214,1653.22,0.20671844741329237
215,1659.58691,0.21664316086918808
216,1664.68,0.2245825331049257
217,1672.36,0.2015511296924793
218,1676.22,0.22770417927945283
219,1683.9499999999998,0.23624737909999827
220,1695.6299999999999,0.22252563432690267
221,1703.45,0.21497273996683353
222,1715.2600000000002,0.2043591035995168
223,1723.18,0.20342041570543143
224,1735.12,0.21696238774389362
225,1743.1299999999999,0.21251240566919363
226,1755.21,0.2256255867600331
227,1763.32,0.2086373111513169
228,1775.54,0.21300710129453362
229,1783.73,0.2169667308586044
230,1796.1,0.23034963070079684
231,1804.3899999999999,0.2292891667308514
232,1816.8999999999999,0.2130088756254211
233,1825.28,0.21747251747486104
234,1833.71,0.2096039625572929
235,1846.42,0.1938275843838301
236,1854.9399999999998,0.19517173528564735
237,1863.4999999999998,0.2011009887738581
238,1876.42,0.21597532417896126
239,1885.0800000000002,0.19971688413315578
240,1893.78,0.1924993466737438
241,1905.46072,0.20264240084316668
242,1906.91,0.20390068115370047
243,1915.7099999999998,0.19697734769789865
244,1924.55,0.1924990109082068
245,1933.4399999999998,0.19834176995115246
246,1946.84,0.20768635309799968
247,1955.8300000000002,0.19427160380622033
248,1964.85,0.21203305201402345
249,1973.92,0.21797029605446405
250,1983.03,0.20673023676101465
251,1996.78,0.20155849073632431
252,2006.0,0.20720022227467738
253,2015.2600000000002,0.20155715047914047
254,2024.56,0.20959777534971355
255,2033.8999999999999,0.19970759688639658
256,2043.2900000000002,0.20672451425571714
257,2052.7200000000003,0.1947116282911477
258,2066.95,0.19742174225977724
259,2071.71,0.21300214552686625
260,2076.49,0.20435754712701024
261,2086.0699999999997,0.21202334866035324
262,2095.7000000000003,0.20108814602633376
263,2105.38,0.20294623922495175
264,2115.1,0.20529682908967972
265,2124.86,0.20767251562051772
266,2134.67,0.19515559798399318
267,2144.52,0.1992404770135786
268,2154.42,0.20623795187580155
269,2164.3599999999997,0.1996964234041345
270,2174.35,0.19878099076510491
271,2184.39,0.19650215395871282
272,2187.7616199999998,0.1992832253031791
273,2194.4700000000003,0.2048176187296578
274,2204.6,0.1996969918898267
275,2214.78,0.19071006837260254
276,2225.0,0.1859429475134639
277,2235.27,0.19741492997693225
278,2245.59,0.19027621576300752
279,2255.95,0.18255570420716838
280,2266.37,0.1859433966384576
281,2276.83,0.19027869172783235
282,2287.34,0.19515859013981407
283,2292.61,0.18424314034258701
284,2303.19,0.18594214340621848
285,2313.82,0.17838634979245685
286,2324.5,0.14600445950130223
287,2335.23,0.16722937253275455
288,2346.01,0.1619159888868138
289,2356.84,0.17388190856348001
290,2367.7200000000003,0.16115793156275318
291,2373.18,0.16566629439143257
292,2384.13,0.15424732204235547
293,2395.14,0.16299615368040674
294,2406.19,0.15745948797654355
295,2417.3,0.1607445262598087
296,2422.87,0.17025899639822337
297,2434.05,0.16447173933313827
298,2445.29,0.17260638625518152
299,2456.5699999999997,0.17062153583531034
300,2462.24,0.16905051261893891
301,2473.6,0.16330386751523882
302,2485.02,0.1648056263986671
303,2496.4900000000002,0.15274328860470235
304,2502.2499999999995,0.1725525713690234
305,2511.88643,0.15719057307075582
306,2513.7999999999997,0.15413986251582484
307,2519.5899999999997,0.1577263136043933
308,2525.4,0.15271446417858717
309,2537.06,0.15518726429822588
310,2542.9,0.15305621410085796
311,2554.6400000000003,0.16398391216299846
312,2566.4300000000003,0.15950490893920258
313,2572.35,0.16740095668433647
314,2584.22,0.1650890514030424
315,2596.1499999999996,0.1628176445786247
316,2602.14,0.15764799052344766
317,2614.15,0.15511588164153178
318,2626.21,0.16204087147367952
319,2632.27,0.16850001561819156
320,2644.42,0.18178570313565384
321,2656.62,0.18728988936717975
322,2662.75,0.1692470317113809
323,2675.0400000000004,0.17639091562822132
324,2687.39,0.17760169800193812
325,2693.58,0.1680529388030156
326,2706.0099999999998,0.1731457191192342
327,2712.25,0.16383445863437532
328,2724.7700000000004,0.1623161366359085
329,2737.35,0.16956311309431796
330,2743.66,0.14870435080914815
331,2756.3199999999997,0.15285952521005947
332,2762.6800000000003,0.1589536616389533
333,2775.43,0.16490383372517914
334,2781.83,0.1546076691253239
335,2794.67,0.12830223889686426
336,2807.5699999999997,0.135886407125281
337,2814.04,0.16223184072511482
338,2827.0299999999997,0.1714325066388461
339,2833.54,0.16561043920993082
340,2846.6200000000003,0.16034320280897663
341,2853.19,0.1520680338369377
342,2866.35,0.16943359537848532
343,2872.96,0.17178002537769732
344,2884.0315,0.17013003703552196
345,2886.22,0.16980393948091296
346,2892.88,0.17097313597549152
347,2912.9300000000003,0.18572592542238353
348,2933.1200000000003,0.17775311479558797
349,2946.66,0.17409690766895045
350,2967.09,0.17731239691583342
351,2987.65,0.17729028609429223
352,3008.36,0.17850097519380012
353,3029.21,0.17888886421962044
354,3050.21,0.17927675316648986
355,3071.35,0.18091734203967177
356,3092.64,0.1808938308339027
357,3106.92,0.1829737233177739
358,3128.46,0.17919561198041994
359,3150.1400000000003,0.1791789005693785
360,3171.98,0.18122848907412267
361,3186.62,0.17107798136851166
362,3208.71,0.17747416974167093
363,3230.9500000000003,0.16791455803587932
364,3253.34,0.18156024625113676
365,3268.36,0.18922553834551667
366,3291.0099999999998,0.18746462642392583
367,3306.21,0.18573071842356464
368,3311.31121,0.18586847515150562
369,3321.4700000000003,0.1861427135250703
370,3329.12,0.19223203655394752
371,3336.7999999999997,0.1939988592809772
372,3344.49,0.18272438190739107
373,3352.2000000000003,0.18062090433257325
374,3359.93,0.1869593265565237
375,3367.6699999999996,0.18566694867985833
376,3375.44,0.1670039705013454
377,3383.2200000000003,0.17127969222221665
378,3391.02,0.18822121374185619
379,3398.83,0.18907963516087986
380,3406.67,0.183922556278056
381,3414.52,0.18518527729461634
382,3422.3900000000003,0.19569659810994494
383,3430.28,0.18948501872404186
384,3438.19,0.1921094391369071
385,3446.12,0.1677043593485406
386,3454.06,0.1868592794595583
387,3462.02,0.17278039936934428
388,3469.9999999999995,0.1813321190778986
389,3478.0,0.16805753858522118
390,3486.0200000000004,0.1767831578913121
391,3494.06,0.17474907699617132
392,3502.11,0.1863784960004147
393,3510.18,0.18212531480342636
394,3518.2799999999997,0.17715363330459052
395,3526.39,0.17431425170513878
396,3534.52,0.1854848699044554
397,3542.6600000000003,0.19510958800315614
398,3550.83,0.19420530580000933
399,3559.02,0.18717092339563085
400,3567.22,0.18545074089063654
401,3575.4399999999996,0.1695166581844105
402,3583.69,0.16338037517633697
403,3591.95,0.15891859206764752
404,3600.23,0.18885720875772644
405,3608.5299999999997,0.17584332524657362
406,3616.85,0.17910504153418913
407,3625.1800000000003,0.1892685577211888
408,3633.54,0.1875241736063409
409,3641.92,0.19589618929026137
410,3650.31,0.18197940487356595
411,3658.73,0.203224920155023
412,3667.16,0.20089053533586418
413,3675.61,0.20367815031547368
414,3684.0899999999997,0.1853220649932356
415,3692.58,0.18962667957038173
416,3701.09,0.19448279394629617
417,3709.6200000000003,0.16977630812097888
418,3718.18,0.20175932199381408
419,3726.75,0.16819953576603341
420,3735.3399999999997,0.17612064933702107
421,3743.95,0.21966276270677704
422,3752.58,0.14547497587530125
423,3761.23,0.22065378884259385
424,3769.9,0.2026279016086547
425,3778.59,0.2121656141734839
426,3787.3,0.2701640265370814
427,3796.03,0.22010253869944715
428,3801.8939600000003,0.19989185568774415
429,3804.7799999999997,0.18994485671102268
430,3813.55,0.27012318685680015
431,3822.35,0.25092681676362366
432,3831.1600000000003,0.21161344659079587
433,3839.99,0.13758877625866536
434,3848.84,0.24349270576723217
435,3857.7099999999996,0.2694335351164963
436,3866.6099999999997,0.2744274642268065
437,3875.52,0.25200959325746525
438,3884.45,0.23845212212882141
439,3893.41,0.1490836507612235
440,3902.3799999999997,0.2485108793139743
441,3911.3799999999997,0.2762582076277711
442,3920.4,0.2912642357822651
443,3929.43,0.28007086385710794
444,3938.4900000000002,0.17429919169299668
445,3947.57,0.2717854193695828
446,3956.67,0.2813219468868661
447,3965.79,0.2214115742448469
448,3974.93,0.13009020144352493
449,3984.1,0.27298362840324897
450,3993.28,0.30627145528332167
451,3994.6,0.3018270447693452
452,3997.35,0.3004532228652276
453,4000.09,0.32383900104076124
454,4002.8399999999997,0.3231662791366436
455,4005.59,0.32342625723252594
456,4008.33,0.3181198354080596
457,4011.0800000000004,0.3274533135039419
458,4013.82,0.33473169167947564
459,4016.5699999999997,0.33546676977535794
460,4019.31,0.3314639479508917
461,4022.06,0.33138792604677403
462,4024.81,0.31454380414265637
463,4027.5499999999997,0.30519308231819003
464,4030.3,0.3251182604140724
465,4033.04,0.3246672385896061
466,4035.7900000000004,0.3419966166854884
467,4038.53,0.3467718948610221
468,4041.2799999999997,0.32553577295690445
469,4044.03,0.3197236510527868
470,4046.77,0.3321355292283205
471,4049.52,0.3229627073242028
472,4052.2599999999998,0.34440758549973655
473,4055.01,0.34217036359561886
474,4057.75,0.31397714177115255
475,4060.5,0.3044394198670349
476,4063.25,0.3031872979629172
477,4065.99,0.3193188761384509
478,4068.7400000000002,0.32096365423433326
479,4071.48,0.320559032409867
480,4074.23,0.31000151050574926
481,4076.98,0.30552778860163166
482,4079.72,0.32541976677716533
483,4082.4700000000003,0.3047457448730477
484,4085.21,0.30336762304858134
485,4087.96,0.3031931011444637
486,4090.7,0.29389437931999735
487,4093.4500000000003,0.2905621574158797
488,4096.2,0.2766963355117621
489,4098.94,0.25831241368729574
490,4101.6900000000005,0.2508201917831781
491,4104.43,0.2521012699587118
492,4107.18,0.26459284805459415
493,4109.92,0.2780996262301278
494,4112.67,0.29137910432601016
495,4115.42,0.30205118242189255
496,4118.16,0.3033671605974262
497,4120.91,0.31341353869330857
498,4123.65,0.3189767168688422
499,4126.4,0.3126140949647246
500,4129.14,0.3124468731402582
501,4131.889999999999,0.3083903512361406
502,4134.64,0.3117850293320229
503,4137.38,0.3141499075075566
504,4140.13,0.312497985603439
505,4142.87,0.32537906377897263
506,4145.62,0.32908074187485503
507,4148.36,0.32181012005038867
508,4151.11,0.31705249814627107
509,4153.86,0.31365067624215337
510,4156.599999999999,0.3121566544176871
511,4159.35,0.32252163251356936
512,4162.09,0.3201701106891031
513,4164.84,0.31993768878498546
514,4167.59,0.3135460668808678
515,4170.33,0.3169132450564015
516,4173.08,0.3095367231522838
517,4175.82,0.3065189013278175
518,4178.57,0.31344217942369984
519,4181.3099999999995,0.3098100575992335
520,4184.06,0.30855793569511586
521,4186.81,0.3114775137909982
522,4189.55,0.3146824919665319
523,4192.3,0.3233034700624142
524,4195.04,0.324700648237948
525,4197.79,0.31187192633383026
526,4200.53,0.310424204509364
527,4203.28,0.3202560826052463
528,4206.03,0.32007006070112864
529,4208.77,0.3215194388766623
530,4211.52,0.3175150169725447
531,4214.26,0.3155922951480784
532,4217.01,0.3162810732439607
533,4219.75,0.3106964514194944
534,4222.5,0.31343052951537675
535,4225.25,0.3071897076112591
536,4227.99,0.3089865857867928
537,4230.74,0.3087773638826751
538,4233.4800000000005,0.30919544205820876
539,4236.2300000000005,0.31764252015409117
540,4238.98,0.3322950982499735
541,4241.72,0.3201631764255072
542,4244.47,0.3194266545213895
543,4247.21,0.3141722326969232
544,4249.96,0.30362641079280556
545,4252.7,0.3144852889683392
546,4255.45,0.31027816706422157
547,4258.2,0.31399154516010397
548,4260.94,0.3084068233356376
549,4263.69,0.31533020143151996
550,4266.43,0.3135173796070536
551,4269.18,0.299367557702936
552,4271.92,0.29467523587846967
553,4274.67,0.30141891397435205
554,4277.42,0.3030695920702343
555,4280.16,0.30680757024576805
556,4282.91,0.29421054834165045
557,4285.65,0.29344652651718406
558,4288.4,0.29658060461306646
559,4291.14,0.2938349827886001
560,4293.89,0.2845347608844825
561,4296.64,0.2701649389803648
562,4299.38,0.2693544171558985
563,4302.13,0.2744063952517808
564,4304.87,0.2847320734273145
565,4307.62,0.2879124515231969
566,4310.36,0.28560722969873054
567,4313.11,0.3108862077946129
568,4315.860000000001,0.3078321858904952
569,4318.6,0.31234076406602895
570,4321.35,0.30174844216191127
571,4324.09,0.28255342033744496
572,4326.84,0.28234429843332726
573,4329.59,0.2911854765292096
574,4332.33,0.29262895470474337
575,4335.08,0.2932251328006257
576,4337.82,0.3032729109761594
577,4340.570000000001,0.2871878890720417
578,4343.31,0.2916963672475754
