,lambda (Angstroms),Total Flux (erg/s/cm^2/Angstrom)
0,100.1,0.0016654239620636708
1,101.96000000000001,0.0020012470742161617
2,104.10000000000001,0.002386222734972251
3,104.712855,0.002496827557495859
4,106.03,0.0023025339666005503
5,108.01,0.0020114687727172376
6,110.01,0.0017228344171785388
7,113.88000000000001,0.0011560015118611564
8,117.88,0.0005697874707837611
9,120.22644299999999,0.0003214141902583808
10,120.91,0.0003463178864178744
11,124.87,0.0003498765150169606
12,126.9,0.000347234424374573
13,128.07,0.0003489025987333941
14,131.05,0.00034434786419432255
15,131.96,0.00037736804425118333
16,134.10999999999999,0.00037360188174816216
17,136.91,0.0004171640050000413
18,138.038426,0.0004167843779812641
19,140.1,0.00042981945447487864
20,143.04000000000002,0.001003579678804253
21,147.04,0.0022029227738102042
22,151.16,0.0022730003126663345
23,155.04,0.0023772703638221073
24,158.489319,0.0024768383983029382
25,159.01999999999998,0.0024920876253287064
26,161.98000000000002,0.002571374825436747
27,166.13,0.002714185258020656
28,170.0,0.002807096577080831
29,173.16000000000003,0.002896639858277253
30,177.19,0.002996161242208133
31,180.07,0.0030640024098808217
32,181.970086,0.0031145438768742104
33,182.16,0.003119689541086902
34,185.97,0.0032217068154998703
35,191.18,0.003342569852164323
36,193.83999999999997,0.003443387500442143
37,197.89999999999998,0.003531216910971448
38,202.05,0.0036380421705026335
39,204.86,0.0037143259004502557
40,208.929613,0.003682078952472744
41,210.10999999999999,0.0036734475628493577
42,216.0,0.003965210291305167
43,220.01,0.004078431780457594
44,223.07,0.004108869829536503
45,227.22,0.0042354278045945
46,229.85,0.00633206607553487
47,234.13,0.010409920216076611
48,239.88329199999998,0.01242497454424971
49,240.13,0.012511053096884339
50,245.72,0.011569802175042098
51,252.03,0.01194279707364236
52,256.71,0.009870316906518623
53,260.28,0.01122127209954603
54,263.91,0.011584333110943644
55,268.81,0.011344818277844006
56,273.81,0.011059263142028049
57,275.42287,0.010978591311202638
58,278.90000000000003,0.010809009167789442
59,284.09,0.010615750570223357
60,290.03000000000003,0.009891086834280671
61,296.10999999999996,0.009826475232507686
62,300.92,0.009497711985052415
63,307.93,0.009351382131692445
64,316.227766,0.009199557766049023
65,318.02,0.009164766185410374
66,327.68,0.00879104574998686
67,337.64000000000004,0.008392244841413545
68,347.90000000000003,0.00797556145969043
69,356.82,0.007684354991369753
70,363.078055,0.007515754829529301
71,365.96999999999997,0.007440270206296276
72,375.36,0.007143089164660684
73,384.99,0.006626549454229295
74,394.86,0.0065400810750021075
75,404.99,0.006323489387912805
76,414.43,0.006057880748611422
77,416.86938299999997,0.005981706091149514
78,422.13,0.005816658224668158
79,429.98,0.005597143691193546
80,441.01,0.005374640377279538
81,451.28000000000003,0.005126050237307021
82,459.67,0.004911257948663456
83,470.38000000000005,0.0047059049711458655
84,478.630092,0.004567307708933144
85,480.23,0.004539613561325114
86,490.28000000000003,0.004296336754653496
87,500.55,0.0041780662507214066
88,506.35,0.004036386959308931
89,512.21,0.004080929295916327
90,520.53,0.00395069538133843
91,530.21,0.0037556227018776095
92,540.07,0.003537656906476401
93,549.5408739999999,0.003394093067306938
94,550.11,0.0033855771434924318
95,560.34,0.0033311911048261897
96,569.44,0.0032556275533244493
97,580.03,0.003102909589543853
98,589.4499999999999,0.0030120178823849087
99,600.41,0.0028448880511256704
100,610.1700000000001,0.0024824443035809467
101,620.08,0.002704738420571909
102,630.1600000000001,0.002583878517369981
103,630.957344,0.002579292934325176
104,640.4,0.0025270768327667697
105,649.3000000000001,0.002432845356086248
106,658.34,0.002336841662918617
107,664.4300000000001,0.0023271092457293604
108,675.22,0.002261199846472863
109,684.62,0.002133639882338379
110,695.74,0.002120714401362266
111,705.42,0.0019925450042535637
112,715.23,0.001998244120406831
113,724.43596,0.0019422893699958422
114,725.18,0.0019377262825650433
115,735.27,0.0018912905203712972
116,745.5,0.0018295948764424546
117,754.13,0.0017699235952004298
118,764.62,0.001605365742334979
119,775.26,0.0016754717304676393
120,784.2399999999999,0.0016031957448878731
121,795.15,0.0015827432468171329
122,804.3599999999999,0.0015486768841011368
123,815.5500000000001,0.0015121776225602032
124,824.99,0.001479804882707977
125,831.763771,0.0013958733987010754
126,834.54,0.0013608360251987672
127,844.2099999999999,0.0013988564276893236
128,855.95,0.0013574706826261522
129,865.86,0.0013321342709075809
130,875.89,0.0013072409520844454
131,883.99,0.0012774257225263799
132,894.23,0.0012506503162702577
133,904.5799999999999,0.0012136175785016183
134,915.0600000000001,0.0014000903580363682
135,925.65,0.002702395806058601
136,934.22,0.004284652523674327
137,945.0400000000001,0.0064167957330794785
138,954.992586,0.007950402175388482
139,955.98,0.008102685021365958
140,964.8199999999999,0.008900836873404377
141,976.0000000000001,0.0029739074509823765
142,985.03,0.007651061571333838
143,994.14,0.007721289699396054
144,1005.65,0.010189254058780918
145,1014.96,0.00979937620612002
146,1024.35,0.0049192123611698805
147,1033.83,0.007459376274894338
148,1045.8,0.012213044178616043
149,1055.48,0.01188114311161739
150,1065.24,0.009686329052329488
151,1075.1,0.011064834502680032
152,1085.05,0.008877512711705175
153,1095.09,0.011294966679404916
154,1096.4782,0.01122549333012089
155,1105.22,0.010787540739022659
156,1115.45,0.010373983373864058
157,1125.77,0.009312779993762715
158,1136.18,0.011291987598718627
159,1144.06,0.01032434340150946
160,1154.6399999999999,0.010734548756017965
161,1165.33,0.010882515536707563
162,1176.11,0.007747922302454414
163,1184.26,0.010344980060417017
164,1195.22,0.007623177796278378
165,1206.28,0.005869016737758915
166,1214.64,0.00399480512752178
167,1225.88,0.007278926039116827
168,1234.38,0.010129513516746534
169,1245.8,0.010876203398456094
170,1254.44,0.010410959963952643
171,1258.92541,0.009932880935113863
172,1266.04,0.009175163797958245
173,1274.8200000000002,0.011282388475087425
174,1283.66,0.011651237484862137
175,1295.53,0.009453586293236099
176,1304.5100000000002,0.009302697079183714
177,1313.56,0.011204933253217777
178,1325.71,0.010677390613937543
179,1334.8999999999999,0.009562883564144512
180,1344.15,0.01102665284699701
181,1353.47,0.010628594517935958
182,1365.99,0.009585134929969824
183,1375.46,0.009898287432522598
184,1385.0000000000002,0.009898310323161822
185,1394.6,0.008486697546446577
186,1404.26,0.00864417910237686
187,1414.0,0.009091952101834517
188,1423.8,0.009176030433937703
189,1433.6699999999998,0.00911317015412734
190,1443.61,0.00949766926240343
191,1445.43977,0.009546098868738634
192,1446.9299999999998,0.009585540341005632
193,1453.61,0.00928221742371127
194,1463.69,0.008604899326955706
195,1473.83,0.008545994509386125
196,1484.0500000000002,0.008624803064064513
197,1494.3400000000001,0.008684361944459875
198,1504.6899999999998,0.008219156104041217
199,1511.6399999999999,0.007395465443083761
200,1518.62,0.007814381921719295
201,1525.63,0.0075847115399478165
202,1536.2,0.0066245587232110804
203,1543.29,0.006999324713687575
204,1553.99,0.006639847501853793
205,1564.76,0.006809519615736987
206,1575.6100000000001,0.007211468101868152
207,1586.53,0.007464130913716293
208,1593.85,0.0075850609744057065
209,1604.8999999999999,0.007378973391156801
210,1616.03,0.007345107180155867
211,1623.49,0.00696785689227923
212,1634.74,0.007345251239650254
213,1646.07,0.00741302495926925
214,1653.6699999999998,0.006872533322826563
215,1659.58691,0.007151666559334176
216,1665.1299999999999,0.00741332721296288
217,1672.82,0.006625555524665358
218,1676.67,0.007620803350420175
219,1684.41,0.007833839361158432
220,1696.0900000000001,0.007346538255915903
221,1703.9199999999998,0.007114783324918557
222,1715.73,0.0068903916371690485
223,1723.6499999999999,0.006874746764436101
224,1735.59,0.0073649044941796115
225,1743.61,0.007181578019518219
226,1755.69,0.007764649506561905
227,1763.8000000000002,0.007003408090164909
228,1776.0200000000002,0.00728233733450877
229,1784.22,0.007434555976376173
230,1796.5900000000001,0.008205426317827365
231,1804.88,0.007928252017959166
232,1813.21,0.00741837107731959
233,1825.78,0.0075560622149138884
234,1834.21,0.007267599672345865
235,1846.9199999999998,0.00648113456724034
236,1855.4499999999998,0.006926653422743869
237,1864.0100000000002,0.007471391297668865
238,1876.93,0.007750851328513603
239,1885.5900000000001,0.007353053601510153
240,1894.3,0.00752402157354248
241,1903.04,0.007663420564996273
242,1905.46072,0.007650695213550621
243,1916.2299999999998,0.007593245111956403
244,1925.0800000000002,0.007072079468500886
245,1933.96,0.006335059510999758
246,1942.8899999999999,0.008076881363422609
247,1956.3600000000001,0.007821112356942857
248,1965.3899999999999,0.00883177782921367
249,1974.46,0.008571624549423664
250,1983.5700000000002,0.008831042517572845
251,1992.73,0.008769965295646007
252,2006.54,0.008550705396649318
253,2015.8000000000002,0.008511099794570438
254,2025.11,0.008054764002415539
255,2034.4599999999998,0.008848960458199825
256,2043.8500000000001,0.009501054161923293
257,2053.28,0.008929806113585946
258,2062.7599999999998,0.00872660987517258
259,2072.2799999999997,0.009787725884698397
260,2077.06,0.013284829513430898
261,2086.64,0.015109129894865491
262,2096.28,0.01397280764820886
263,2105.95,0.013253064087506618
264,2115.67,0.014264118336728356
265,2125.44,0.013191320395874074
266,2135.25,0.012087730702958977
267,2145.1,0.014494109257983062
268,2155.0099999999998,0.014728605184915925
269,2164.95,0.013129269797803175
270,2174.95,0.0133415717825992
271,2184.98,0.015349862453349617
272,2187.7616199999998,0.015428271067405273
273,2195.07,0.01563485584197517
274,2205.2,0.014966959608161742
275,2215.38,0.012198135120479542
276,2225.61,0.013159652378928568
277,2235.88,0.016561261034282574
278,2246.2,0.01563657143576781
279,2256.57,0.012569653583384268
280,2266.98,0.012228107127905712
281,2277.45,0.013467342767784626
282,2282.7,0.01644920611156345
283,2293.23,0.014134043846799837
284,2303.82,0.016329603677393698
285,2314.4500000000003,0.014248664904892539
286,2325.14,0.010857478227748851
287,2335.87,0.010291972947510147
288,2346.65,0.0077018324134026685
289,2357.48,0.012813427625426418
290,2362.92,0.008185688604503904
291,2373.82,0.010173198261111372
292,2384.7799999999997,0.006726577013076309
293,2395.79,0.008094171511172475
294,2406.85,0.007941368755399867
295,2412.39,0.009215401226739809
296,2423.53,0.014279184264777164
297,2434.72,0.014235895048945745
298,2445.9500000000003,0.016517307230019308
299,2457.24,0.017281611506450346
300,2462.9100000000003,0.015435279517731477
301,2474.28,0.013845086587972478
302,2485.7000000000003,0.010335185404344702
303,2497.17,0.011268855966848155
304,2502.93,0.016645797121165495
305,2511.88643,0.010141309141310588
306,2514.48,0.008257637848579932
307,2520.2799999999997,0.0069665054559240975
308,2526.0899999999997,0.00751082092810851
309,2537.7499999999995,0.010538460331838329
310,2543.6,0.011182111263383736
311,2555.3399999999997,0.017688902585835546
312,2567.13,0.013758783232488593
313,2573.05,0.01687346321791574
314,2584.93,0.01520340264813103
315,2596.8599999999997,0.013730311402547558
316,2602.84,0.012040650577016197
317,2614.86,0.010924478114994963
318,2626.9300000000003,0.014645704977174974
319,2632.9799999999996,0.02286603320552535
320,2645.1400000000003,0.0307386088512676
321,2657.35,0.03973682382121109
322,2663.47,0.026375251103443204
323,2675.77,0.030114524856948932
324,2681.94,0.033538121463382295
325,2694.32,0.02583822413561001
326,2706.75,0.03103297613203897
327,2712.9900000000002,0.023375931792354067
328,2725.5099999999998,0.020486842572345263
329,2738.09,0.02454620254137795
330,2744.41,0.01377881712041504
331,2757.0699999999997,0.018013716008169714
332,2763.43,0.0228695600465678
333,2776.18,0.02487860771788471
334,2782.58,0.015557591215643787
335,2795.43,0.007236134535363185
336,2801.8700000000003,0.008650004492483257
337,2814.81,0.02226947559576489
338,2827.7999999999997,0.03214773002324777
339,2834.32,0.03118520189908983
340,2847.4,0.025447935110134944
341,2853.96,0.016320196445337998
342,2867.1400000000003,0.032955688304785596
343,2873.75,0.0399650489641899
344,2884.0315,0.0370833141497668
345,2887.0099999999998,0.036248529175816085
346,2893.6600000000003,0.04140492733637636
347,2907.02,0.05414830364090046
348,2927.17,0.0477520880672598
349,2947.46,0.04501875245489409
350,2967.8900000000003,0.047947396803803326
351,2988.47,0.04843229111122145
352,3009.1800000000003,0.0498286453826806
353,3030.04,0.05150441961264862
354,3051.04,0.0534808238038916
355,3072.19,0.05656345795364346
356,3093.49,0.0564784820619042
357,3107.7700000000004,0.062004478111949424
358,3129.31,0.05858327215382436
359,3151.0,0.058224026154208186
360,3172.84,0.06257671011310088
361,3187.4900000000002,0.05469981606080134
362,3209.5800000000004,0.06071345995054217
363,3231.83,0.051478813796025806
364,3246.75,0.06824874966904225
365,3269.25,0.07805115344537401
366,3291.9100000000003,0.07632644717744858
367,3307.1099999999997,0.07348732297301493
368,3311.31121,0.0730507648845199
369,3322.37,0.07190156333570309
370,3330.0299999999997,0.07771192283215532
371,3337.71,0.07486037222285416
372,3345.4,0.0744758015606763
373,3353.11,0.06898830079274507
374,3360.84,0.07753772991906042
375,3368.59,0.07643101893962241
376,3376.36,0.06167035785443099
377,3384.14,0.06453724671636288
378,3391.94,0.0773651654725414
379,3399.76,0.08115088412296652
380,3407.6,0.07499864266763824
381,3415.45,0.07409774115943328
382,3423.33,0.08521882949259822
383,3431.22,0.08228003777288648
384,3439.13,0.08110447594742136
385,3447.06,0.06107197401620284
386,3454.9999999999995,0.07491369203210763
387,3462.9700000000003,0.06581499988938233
388,3470.95,0.07431045769378035
389,3478.9500000000003,0.060512275392424965
390,3486.97,0.0708864729853162
391,3495.01,0.06581479047245405
392,3503.0699999999997,0.0826081078538385
393,3511.14,0.07957432518234626
394,3519.2400000000002,0.07898137235222394
395,3527.3500000000004,0.06314017946922493
396,3535.4799999999996,0.07726932648047252
397,3543.6299999999997,0.08744332338596675
398,3551.8,0.08619331018570756
399,3559.9900000000002,0.08188648687969499
400,3568.19,0.06760618352080573
401,3576.42,0.06803437000328638
402,3584.66,0.05527085643289034
403,3592.93,0.06356320270386423
404,3601.21,0.08869330892196141
405,3609.51,0.0728879750343052
406,3617.8300000000004,0.0787731610408956
407,3626.17,0.08474305694173263
408,3634.53,0.07093456273681627
409,3642.91,0.09496318842614651
410,3651.31,0.07452768400972336
411,3659.7200000000003,0.10023233954042352
412,3668.16,0.09654654491249359
413,3676.62,0.10126645017881028
414,3685.0899999999997,0.08614178539225027
415,3693.59,0.09417473044706018
416,3702.1,0.1008432154489934
417,3710.64,0.07217872029229654
418,3719.19,0.10353802508272297
419,3727.7599999999998,0.08430365976739602
420,3736.36,0.060621374293438994
421,3744.9700000000003,0.09084065876660527
422,3753.6000000000004,0.05862439313401816
423,3762.26,0.07581293734280097
424,3770.9300000000003,0.07806634149870707
425,3779.6200000000003,0.0957532855488598
426,3788.33,0.10835785949325913
427,3797.07,0.08177225327902837
428,3801.8939600000003,0.08829701683177459
429,3805.8199999999997,0.09360728133743114
430,3814.59,0.10328083462690808
431,3823.39,0.0784820177908074
432,3832.2000000000003,0.06508932091284753
433,3841.04,0.056265213909310025
434,3849.8900000000003,0.09096577686391331
435,3858.7599999999998,0.0894543897347982
436,3867.66,0.09578617248010547
437,3876.58,0.08337344514169433
438,3885.5099999999998,0.08312480776142399
439,3894.47,0.07681597025557603
440,3896.21,0.10241019297207431
441,3897.9799999999996,0.09324466556299496
442,3899.75,0.10012617815391563
443,3901.53,0.09251809070297708
444,3903.3,0.07821469329389774
445,3905.0699999999997,0.09446943588481839
446,3906.85,0.09613456843387984
447,3908.62,0.09607591102480051
448,3910.3900000000003,0.10537463361572116
449,3912.1699999999996,0.11856432616478262
450,3913.94,0.10060611875570329
451,3915.72,0.10027441130476474
452,3917.4900000000002,0.1008780038956854
453,3919.2599999999998,0.09894517648660606
454,3921.04,0.08363776903566751
455,3922.81,0.08901003162658817
456,3924.58,0.08094303421750881
457,3926.3599999999997,0.06983204676657027
458,3928.13,0.05838742935749094
459,3929.91,0.04669643190655239
460,3931.6800000000003,0.04309820449747305
461,3933.45,0.04004899708839371
462,3935.23,0.04788482963745516
463,3937.0,0.05552044222837582
464,3938.77,0.062447964819296486
465,3940.5499999999997,0.06741686736835793
466,3942.32,0.0717158699592786
467,3944.09,0.08440555255019926
468,3945.8700000000003,0.0897332950992607
469,3947.64,0.09597566769018137
470,3949.42,0.09839331023924282
471,3951.19,0.10141926283016349
472,3952.9599999999996,0.10727405542108413
473,3954.74,0.10359804797014559
474,3956.5099999999998,0.09659669056106625
475,3958.28,0.08936429315198692
476,3960.0600000000004,0.07998020570104837
477,3961.83,0.07457519829196901
478,3963.61,0.06656946084103048
479,3965.38,0.05234552343195114
480,3967.1499999999996,0.043136656022871804
481,3968.93,0.05024590857193326
482,3970.7,0.06560990116285392
483,3972.4700000000003,0.07862772375377457
484,3974.2499999999995,0.07827342630283603
485,3976.02,0.08537000889375669
486,3977.79,0.10406045148467735
487,3979.57,0.1122607440337388
488,3981.3399999999997,0.11677523662465945
489,3983.12,0.12026312917372091
490,3984.89,0.12214952176464157
491,3986.6600000000003,0.12054321435556223
492,3988.4399999999996,0.11891330690462369
493,3990.21,0.12733419949554434
494,3991.98,0.129603592086465
495,3993.76,0.12285008463552645
496,3995.5299999999997,0.12447517722644712
497,3997.31,0.12752926977550855
498,3999.08,0.13595786236642923
499,4000.8500000000004,0.1380604549573499
500,4002.6299999999997,0.13416094750641136
501,4004.4,0.129377340097332
502,4006.17,0.12574343268825267
503,4007.9500000000003,0.13103252523731412
504,4009.72,0.13733401782823476
505,4011.49,0.13950521041915542
506,4013.27,0.14266970296821688
507,4015.0400000000004,0.14789849555913753
508,4016.8199999999997,0.149332288108199
509,4018.59,0.14302408069911965
510,4020.36,0.14376307329004034
511,4022.1400000000003,0.15254846583910178
512,4023.91,0.14790865843002243
513,4025.68,0.1471538510209431
514,4027.46,0.13997484357000453
515,4029.2299999999996,0.13653793616092522
516,4031.0099999999998,0.13890932870998665
517,4032.78,0.1315642213009073
518,4034.55,0.13455411389182798
519,4036.3300000000004,0.1469764064408894
520,4038.1,0.1417018990318101
521,4039.87,0.15154289162273074
522,4041.65,0.1368172841717922
523,4043.4199999999996,0.13576547676271286
524,4045.19,0.1307559693536335
525,4046.97,0.13280586190269497
526,4048.7400000000002,0.14201025449361562
527,4050.5200000000004,0.1434005470426771
528,4052.29,0.14778223963359774
529,4054.06,0.1426444322245184
530,4055.84,0.13789792477357987
531,4057.6099999999997,0.1347594173645005
532,4059.38,0.13450010995542117
533,4061.16,0.13339370250448263
534,4062.9300000000003,0.1230044950954033
535,4064.7100000000005,0.13000288764446474
536,4066.48,0.1350313802353854
537,4068.25,0.13948177282630606
538,4070.03,0.1445429653753675
539,4071.7999999999997,0.12916165796628817
540,4073.57,0.13405865055720884
541,4075.35,0.1333809431062703
542,4077.1200000000003,0.13198963569719097
543,4078.8999999999996,0.1371048282462524
544,4080.67,0.14231552083717305
545,4082.44,0.14968671342809373
546,4084.2200000000003,0.13809050597715516
547,4085.99,0.14809499856807584
548,4087.7599999999998,0.1516067911589965
549,4089.54,0.14859258370805795
550,4091.3100000000004,0.14915527629897862
551,4093.08,0.14523656888989928
552,4094.86,0.14728906143896073
553,4096.63,0.13053465402988138
554,4098.41,0.12098604657894284
555,4100.18,0.1232195391698635
556,4101.95,0.11972933176078415
557,4103.73,0.12891452430984562
558,4105.5,0.13271361690076627
559,4107.27,0.1363221094916869
