,lambda (Angstroms),Total Flux (erg/s/cm^2/Angstrom)
0,100.08,0.0022412467061433115
1,101.94,0.0026932619622603206
2,104.07,0.003210892297981426
3,104.712855,0.0033671182961043235
4,106.00999999999999,0.0031040964654457715
5,107.98,0.002704640169099392
6,109.98,0.0022991015247288567
7,114.11,0.0014616638667391034
8,118.11999999999999,0.0006485596471859829
9,120.22644299999999,0.00022145977150674772
10,120.87,0.0002154288414317983
11,125.12,0.00017557088285450242
12,126.86,0.0001592547311681743
13,128.04,0.000148189810061584
14,131.02,0.00012024659916155048
15,131.93,0.00011172778914697659
16,134.07,9.166393546655008e-05
17,136.88,6.534603056000857e-05
18,138.038426,5.448906976571195e-05
19,140.07,5.383684758528714e-05
20,143.0,5.325401745613132e-05
21,147.0,5.294698894567968e-05
22,151.12,5.188564162891449e-05
23,155.0,5.09766345247764e-05
24,158.489319,5.02100768528353e-05
25,158.98,5.0015052080713346e-05
26,161.92999999999998,4.887564395805192e-05
27,166.08,4.735561522617224e-05
28,169.95,4.598157213644352e-05
29,173.11,4.489572903216887e-05
30,177.15,4.356403448113423e-05
31,180.02,4.2693353399087323e-05
32,181.970086,4.2109530833821845e-05
33,182.11,4.216180208140276e-05
34,185.92000000000002,4.3689654480259526e-05
35,191.13000000000002,4.580948161360434e-05
36,193.79,4.713200640913162e-05
37,197.85,4.894607393914696e-05
38,201.99,5.0938843711133055e-05
39,204.8,5.244461558535549e-05
40,208.929613,5.406577796081982e-05
41,210.04999999999998,5.543679545067277e-05
42,215.94,6.431399112410418e-05
43,219.95000000000002,7.015390243997174e-05
44,223.01000000000002,7.438438187302779e-05
45,227.16,8.063353904530964e-05
46,229.79,9.64119912050931e-05
47,234.06,0.00012798675482573012
48,239.88329199999998,0.00015283525738050253
49,240.07,0.0001532931589723923
50,246.22000000000003,0.0001492088847421479
51,251.96,0.0001551372734605865
52,257.23,0.00014037806214458844
53,260.21,0.00015305100363952696
54,263.83,0.0001586319302877408
55,268.74,0.00015940471107302537
56,273.73,0.00015953742250246933
57,275.42287,0.00015969511874240757
58,278.82,0.00016576859404842756
59,284.01,0.00017514993086818856
60,289.95,0.0001797690591358919
61,296.03000000000003,0.00019281619514054452
62,300.84,0.0002001273109600147
63,307.84,0.00021400199780747658
64,316.227766,0.00023078759480495237
65,317.93,0.00023161350300536707
66,328.34000000000003,0.00023339287246634338
67,338.32,0.00023392045212249554
68,347.8,0.00023384650874978233
69,356.72,0.00023391939958473994
70,363.078055,0.00023460730043601326
71,365.87,0.0002380955170667085
72,375.26,0.00024719745496903597
73,384.88,0.0002511225476868624
74,394.76,0.00026655280237003546
75,404.88000000000005,0.00027731531425199014
76,414.31,0.0002849364616874478
77,416.86938299999997,0.0002867046725165592
78,422.02000000000004,0.0002892324550356961
79,429.86,0.0002930709308516012
80,440.89000000000004,0.0003008764444038249
81,451.16,0.00030497685366777204
82,459.55,0.0003085061049554563
83,470.25,0.00031325627322461257
84,478.630092,0.00031840450118222983
85,480.09999999999997,0.00031828790547227225
86,490.15000000000003,0.00031278428103593403
87,500.41,0.00031292231638749334
88,506.21,0.0003116861724341837
89,512.07,0.00033860631699170196
90,520.39,0.0003383306904931613
91,530.0699999999999,0.00033572747024005156
92,539.92,0.0003276437507676206
93,549.5408739999999,0.00034100153974344873
94,549.96,0.00034169471497656035
95,560.18,0.0003601945025475562
96,570.6,0.0003757083734369668
97,579.87,0.0003716426402454923
98,590.65,0.0003963387011080496
99,600.25,0.00039665650039195954
100,610.0,0.00040090608716468056
101,619.91,0.00045606538059213346
102,629.98,0.0004717177806743182
103,630.957344,0.00047318121262095717
104,640.2199999999999,0.0004898362856010169
105,650.62,0.0005248087331588795
106,658.16,0.00054139000513833
107,664.25,0.0005757463363525014
108,675.04,0.0005994291169437839
109,684.4300000000001,0.0005936886892099696
110,695.5500000000001,0.0007057429439064534
111,705.23,0.0006786084843256948
112,716.6899999999999,0.0008058976396154166
113,724.43596,0.0008397888239801781
114,726.66,0.0008493542417760426
115,735.07,0.0008906383711425963
116,745.3,0.0009664900823696883
117,755.67,0.0010292583460475909
118,764.42,0.0010501237742232558
119,775.0500000000001,0.0011803287781669497
120,785.83,0.0012334867168793692
121,794.93,0.001328580626182061
122,804.14,0.0014127913409818183
123,815.3199999999999,0.0014896855724108398
124,824.76,0.0016231438805226431
125,831.763771,0.001459838758875052
126,834.3100000000001,0.0013996735988610833
127,845.92,0.0017579953187571327
128,855.7199999999999,0.001826969649935538
129,865.63,0.00198051142462717
130,875.6500000000001,0.0021194706428320294
131,885.7900000000001,0.002284074163051318
132,893.98,0.0024189312755361282
133,904.34,0.002471434682781871
134,914.8100000000001,0.0032495575335408406
135,925.4,0.01717222868631424
136,933.96,0.03664259556334354
137,944.7800000000001,0.06849110846164459
138,954.992586,0.09463400042565366
139,955.72,0.09649621681587627
140,964.56,0.109522317597182
141,975.7299999999999,0.019565199512021927
142,984.76,0.09365138386215663
143,993.87,0.09942894550442982
144,1005.38,0.14502053591085845
145,1014.6800000000001,0.14074572112196063
146,1024.07,0.06304561328671862
147,1035.93,0.10104310184625323
148,1045.51,0.1911602775798402
149,1055.19,0.18810464992860032
150,1064.95,0.14977191956949895
151,1074.81,0.17881588582557073
152,1084.75,0.143032449373781
153,1094.79,0.18984110953716443
154,1096.4782,0.18869649279135844
155,1104.92,0.18297225807906467
156,1115.14,0.17676137538296582
157,1125.46,0.15900258209297172
158,1135.87,0.2029454792684718
159,1143.75,0.18551764446952282
160,1154.33,0.19741292363540094
161,1165.01,0.2038791922073838
162,1175.79,0.1410592501854713
163,1183.94,0.199236386783005
164,1194.9,0.14008732569208102
165,1205.95,0.10290635506665127
166,1214.31,0.07087659941700487
167,1225.55,0.13944157866317408
168,1234.04,0.2081374792414638
169,1245.46,0.22926466941862145
170,1254.09,0.21996085516545777
171,1258.92541,0.208139618822775
172,1265.6999999999998,0.1915783939562176
173,1274.47,0.24623036004139945
174,1286.26,0.25842774888339415
175,1295.1799999999998,0.20622741609888132
176,1304.16,0.20480668376649055
177,1316.2199999999998,0.2554686746430348
178,1325.35,0.2450919434409493
179,1334.53,0.21895451261563226
180,1343.79,0.25961258239314466
181,1356.22,0.2519590760577753
182,1365.62,0.22664084689023928
183,1375.09,0.2378683182501791
184,1384.6200000000001,0.241178690062241
185,1394.2199999999998,0.2071774624017787
186,1403.88,0.21446223519343852
187,1413.61,0.22560280851257414
188,1423.4099999999999,0.23085968235918555
189,1436.5800000000002,0.23138698159998886
190,1443.21,0.2434096315594821
191,1445.43977,0.24605832049735643
192,1446.54,0.24736525531986853
193,1456.5700000000002,0.24117551875317375
194,1466.6599999999999,0.2235371825659404
195,1473.43,0.22405272538184035
196,1483.6399999999999,0.22874158995352986
197,1493.93,0.23245965503116803
198,1504.28,0.22097692048826761
199,1511.23,0.19785556444255187
200,1518.2,0.2115205085233233
201,1525.2099999999998,0.205755152857069
202,1535.78,0.17962221970552725
203,1546.43,0.19335518705993407
204,1553.57,0.18422923221584625
205,1564.34,0.19069970032917596
206,1575.1799999999998,0.2038704688852107
207,1586.1,0.21347803794719403
208,1593.42,0.21844898424149056
209,1604.46,0.21446355406239678
210,1615.5900000000001,0.21495422445249518
211,1626.78,0.20481209522205504
212,1634.29,0.2179470427179795
213,1645.6200000000001,0.22148531437294935
214,1653.22,0.20670426243806597
215,1659.58691,0.2166289597873158
216,1664.68,0.2245682379320898
217,1672.36,0.20153669263748522
218,1676.22,0.2276896709138949
219,1683.9499999999998,0.2362327279285702
220,1695.6299999999999,0.22251076737635905
221,1703.45,0.21495772854773823
222,1715.2600000000002,0.20434387399965487
223,1723.18,0.2034050397895939
224,1735.12,0.21694679124563832
225,1743.1299999999999,0.21249666119228117
226,1755.21,0.22560961911430938
227,1763.32,0.20862119367951207
228,1775.54,0.21299075806752402
229,1783.73,0.21695023632757457
230,1796.1,0.23033290764342632
231,1804.3899999999999,0.2292722905220367
232,1816.8999999999999,0.2129917683038722
233,1825.28,0.21745525533918647
234,1833.71,0.20958654468378066
235,1846.42,0.19380993170273578
236,1854.9399999999998,0.19515392520403382
237,1863.4999999999998,0.2010830205527558
238,1876.42,0.21595711727068662
239,1885.0800000000002,0.19969851723796841
240,1893.78,0.19248081905267414
241,1905.46072,0.20262365742968003
242,1906.91,0.2038819722526432
243,1915.7099999999998,0.1969588483556419
244,1924.55,0.19248072207729058
245,1933.4399999999998,0.19832369282225176
246,1946.84,0.2076685950699998
247,1955.8300000000002,0.19425405986158595
248,1964.85,0.2120157228671596
249,1973.92,0.21795318289604576
250,1983.03,0.2067133405435819
251,1996.78,0.20154192195451737
252,2006.0,0.207183873053341
253,2015.2600000000002,0.20154102177081462
254,2024.56,0.20958186810693824
255,2033.8999999999999,0.19969191206171186
256,2043.2900000000002,0.20670905303979797
257,2052.7200000000003,0.19469639163653407
258,2066.95,0.19740684447126947
259,2071.71,0.21298736109061875
260,2076.49,0.20434287651929303
261,2086.0699999999997,0.2120089061859666
262,2095.7000000000003,0.20107393287595268
263,2105.38,0.20293225658925124
264,2115.1,0.20528307792119982
265,2124.86,0.20765899687179837
266,2134.67,0.1951423128457094
267,2144.52,0.19922742643827043
268,2154.42,0.20622513705414397
269,2164.3599999999997,0.1996838452886675
270,2174.35,0.1987686505465035
271,2184.39,0.196490052827652
272,2187.7616199999998,0.19927120446219135
273,2194.4700000000003,0.20480547052118417
274,2204.6,0.1996846513498762
275,2214.78,0.19069753455185895
276,2225.0,0.18593021965247422
277,2235.27,0.19740200712638017
278,2245.59,0.1902630969735768
279,2255.95,0.182542388719406
280,2266.37,0.185929883313184
281,2276.83,0.19026497980559454
282,2287.34,0.19514467867129576
283,2292.61,0.18422912881613357
284,2303.19,0.18592793100444177
285,2313.82,0.1783719355660406
286,2324.5,0.14598984250093017
287,2335.23,0.16721455180911038
288,2346.01,0.16190096349058128
289,2356.84,0.17386667754534288
290,2367.7200000000003,0.16114249397339514
291,2373.18,0.16565075313673755
292,2384.13,0.15423157288739678
293,2395.14,0.16298019548600481
294,2406.19,0.1574433199832454
295,2417.3,0.1607281473284348
296,2422.87,0.1702425117130167
297,2434.05,0.16445504238081307
298,2445.29,0.17258947589655824
299,2456.5699999999997,0.17060441131093596
300,2462.24,0.16903328044209923
301,2473.6,0.16328641965374202
302,2485.02,0.16478796171333365
303,2496.4900000000002,0.15272540614621596
304,2502.2499999999995,0.17253457954930243
305,2511.88643,0.15717239829063867
306,2513.7999999999997,0.15412170179701776
307,2519.5899999999997,0.1577081954317095
308,2525.4,0.15269638869899083
309,2537.06,0.15516927449873277
310,2542.9,0.15303826721489855
311,2554.6400000000003,0.16396605154499888
312,2566.4300000000003,0.15948713495657327
313,2572.35,0.16738322620309748
314,2584.22,0.16507140814503027
315,2596.1499999999996,0.16280008898473192
316,2602.14,0.15763047894531976
317,2614.15,0.15509845831537983
318,2626.21,0.16202353676691394
319,2632.27,0.1684827254415654
320,2644.42,0.18176850223975274
321,2656.62,0.18727277811941412
322,2662.75,0.16922996550812922
323,2675.0400000000004,0.1763739397344438
324,2687.39,0.17758481285852723
325,2693.58,0.16803609914501114
326,2706.0099999999998,0.173128970799453
327,2712.25,0.16381775616741096
328,2724.7700000000004,0.16229952616850607
329,2737.35,0.16954659506736997
330,2743.66,0.14868787914939155
331,2756.3199999999997,0.15284314657861392
332,2762.6800000000003,0.1589373297421095
333,2775.43,0.1648875955179851
334,2781.83,0.15459147794665992
335,2794.67,0.12828614206918876
336,2807.5699999999997,0.13587040508948642
337,2814.04,0.16221588623222485
338,2827.0299999999997,0.17141664759917577
339,2833.54,0.16559462800709346
340,2846.6200000000003,0.16032748772069758
341,2853.19,0.15205236702638406
342,2866.35,0.16941802527034666
343,2872.96,0.17176450384121236
344,2884.0315,0.17011459685471994
345,2886.22,0.16978849962922354
346,2892.88,0.17095769712535108
347,2912.9300000000003,0.18571048958741682
348,2933.1200000000003,0.17773768199684856
349,2946.66,0.17408147690639317
350,2967.09,0.17729696922559532
351,2987.65,0.17727486149592303
352,3008.36,0.17848555370985722
353,3029.21,0.17887344587115747
354,3050.21,0.1792613379760642
355,3071.35,0.180901930028337
356,3092.64,0.18087842202421622
357,3106.92,0.1829583166555528
358,3128.46,0.17918020855744282
359,3150.1400000000003,0.17916350040669893
360,3171.98,0.1812130921958019
361,3186.62,0.17106258669179403
362,3208.71,0.17745877838690782
363,3230.9500000000003,0.16789917002562807
364,3253.34,0.18154486160795483
365,3268.36,0.18921015596108334
366,3291.0099999999998,0.1874492474456613
367,3306.21,0.18571534173111762
368,3311.31121,0.18585309922619248
369,3321.4700000000003,0.18612736680362163
370,3329.12,0.19221671182424824
371,3336.7999999999997,0.19398355662926944
372,3344.49,0.1827091013624222
373,3352.2000000000003,0.18060564595183803
374,3359.93,0.18694409039751692
375,3367.6699999999996,0.18565173477132738
376,3375.44,0.16698877892953246
377,3383.2200000000003,0.17126452301586903
378,3391.02,0.1882060669584687
379,3398.83,0.1890645108291999
380,3406.67,0.18390745448432572
381,3414.52,0.18517019806758309
382,3422.3900000000003,0.19568154150710354
383,3430.28,0.18946998480288704
384,3438.19,0.19209442795493364
385,3446.12,0.1676893709632433
386,3454.06,0.1868443138996845
387,3462.02,0.17276545669238877
388,3469.9999999999995,0.18131719934135612
389,3478.0,0.16804264184658657
390,3486.0200000000004,0.17676828420808008
391,3494.06,0.17473422642583666
392,3502.11,0.1863636685717248
393,3510.18,0.18211051057387598
394,3518.2799999999997,0.1771388523604218
395,3526.39,0.17429949407509912
396,3534.52,0.18547013564603956
397,3542.6600000000003,0.19509487714511153
398,3550.83,0.1941906184285781
399,3559.02,0.18715625956830775
400,3567.22,0.18543610063616894
401,3575.4399999999996,0.16950204156029322
402,3583.69,0.16336578226881213
403,3591.95,0.15890402290546252
404,3600.23,0.18884266339837602
405,3608.5299999999997,0.17582880374755258
406,3616.85,0.17909054395299223
407,3625.1800000000003,0.1892540840865634
408,3633.54,0.18750972400452923
409,3641.92,0.19588176377875813
410,3650.31,0.18196500348111852
411,3658.73,0.20321054296787355
412,3667.16,0.20087618238276012
413,3675.61,0.20366382165390975
414,3684.0899999999997,0.185307760709454
415,3692.58,0.1896123996931298
416,3701.09,0.19446853853306867
417,3709.6200000000003,0.16976207722927064
418,3718.18,0.2017451157098672
419,3726.75,0.16818535411859528
420,3735.3399999999997,0.17610649238358647
421,3743.95,0.21964863050484074
422,3752.58,0.14546086848235804
423,3761.23,0.22063970631613847
424,3769.9,0.20261384400618193
425,3778.59,0.2121515815524885
426,3787.3,0.27015001895505814
427,3796.03,0.2200885562138908
428,3801.8939600000003,0.19987789005953926
429,3804.7799999999997,0.18993089765073048
430,3813.55,0.2701092477548573
431,3822.35,0.2509128976883026
432,3831.1600000000003,0.2115995475648542
433,3839.99,0.1375748973276181
434,3848.84,0.24347884697659442
435,3857.7099999999996,0.2694196965117831
436,3866.6099999999997,0.2744136458762903
437,3875.52,0.25199579518390375
438,3884.45,0.23843834437772957
439,3893.41,0.14906989340087393
440,3902.3799999999997,0.2484971423671245
441,3911.3799999999997,0.2762444911626936
442,3920.4,0.2912505398444751
443,3929.43,0.28005718846936284
444,3938.4900000000002,0.17428553692356905
445,3947.57,0.2717717852639877
446,3956.67,0.2813083334906187
447,3965.79,0.22139798160346205
448,3974.93,0.1300766296025178
449,3984.1,0.27297007743089213
450,3993.28,0.3062579252023726
451,3994.6,0.3018135176923894
452,3997.35,0.3004397020465911
453,4000.09,0.3238254864576866
454,4002.8399999999997,0.32315277081188826
455,4005.59,0.32341275516608997
456,4008.33,0.3181063395771854
457,4011.0800000000004,0.3274398239313871
458,4013.82,0.3347182083424826
459,4016.5699999999997,0.3354532926966843
460,4019.31,0.33145047710777975
461,4022.06,0.3313744614619814
462,4024.81,0.3145303458161831
463,4027.5499999999997,0.30517963022727856
464,4030.3,0.3251048145814803
465,4033.04,0.3246537989925758
466,4035.7900000000004,0.34198318334677746
467,4038.53,0.34675846775787295
468,4041.2799999999997,0.32552235211207464
469,4044.03,0.3197102364662763
470,4046.77,0.3321221208773718
471,4049.52,0.32294930523157345
472,4052.2599999999998,0.34439418964266894
473,4055.01,0.3421569739968706
474,4057.75,0.3139637584079661
475,4060.5,0.3044260427621678
476,4063.25,0.3031739271163694
477,4065.99,0.31930551152746495
478,4068.7400000000002,0.3209502958816666
479,4071.48,0.32054568029276215
480,4074.23,0.30998816464696377
481,4076.98,0.3055144490011655
482,4079.72,0.32540643341226094
483,4082.4700000000003,0.3047324177664626
484,4085.21,0.3033543021775581
485,4087.96,0.30317978653175975
486,4090.7,0.29388107094285526
487,4093.4500000000003,0.29054885529705693
488,4096.2,0.2766830396512586
489,4098.94,0.2582991240623541
490,4101.6900000000005,0.2508069084165558
491,4104.43,0.2520879928276513
492,4107.18,0.264579577181853
493,4109.92,0.2780863615929484
494,4112.67,0.2913658459471501
495,4115.42,0.3020379303013518
496,4118.16,0.30335391471244727
497,4120.91,0.31340029906664896
498,4123.65,0.31896348347774445
499,4126.4,0.3126008678319461
500,4129.14,0.3124336522430416
501,4131.889999999999,0.3083771365972433
502,4134.64,0.31177182095144496
503,4137.38,0.31413670536254046
504,4140.13,0.31248478971674215
505,4142.87,0.3253658741278376
506,4145.62,0.3290675584820393
507,4148.36,0.32179694289313476
508,4151.11,0.31703932724733647
509,4153.86,0.31363751160153813
510,4156.599999999999,0.31214349601263364
511,4159.35,0.32250848036683527
512,4162.09,0.3201569647779308
513,4164.84,0.3199245491321325
514,4167.59,0.31353293348633415
515,4170.33,0.3169001178974296
516,4173.08,0.3095236022516313
517,4175.82,0.30650578666272676
518,4178.57,0.31342907101692846
519,4181.3099999999995,0.30979695542802393
520,4184.06,0.30854483978222563
521,4186.81,0.3114644241364273
522,4189.55,0.3146694085475228
523,4192.3,0.32329039290172445
524,4195.04,0.32468757731282
525,4197.79,0.31185886166702165
526,4200.53,0.3104111460781171
527,4203.28,0.3202430304323188
528,4206.03,0.32005701478652043
529,4208.77,0.3215063991976159
530,4211.52,0.31750198355181763
531,4214.26,0.31557926796291313
532,4217.01,0.3162680523171148
533,4219.75,0.3106834367282103
534,4222.5,0.313417521082412
535,4225.25,0.30717670543661363
536,4227.99,0.3089735898477092
537,4230.74,0.30876437420191083
538,4233.4800000000005,0.30918245861300625
539,4236.2300000000005,0.31762954296720797
540,4238.98,0.3322821273214096
541,4241.72,0.32015021173250513
542,4244.47,0.3194136960867068
543,4247.21,0.3141592804978023
544,4249.96,0.30361346485200397
545,4252.7,0.31447234926309947
546,4255.45,0.31026523361730113
547,4258.2,0.31397861797150284
548,4260.94,0.3083939023825983
549,4263.69,0.31531728673679993
550,4266.43,0.3135044711478954
551,4269.18,0.2993546555020971
552,4271.92,0.29466233991319263
553,4274.67,0.3014060242673943
554,4277.42,0.30305670862159595
555,4280.16,0.30679469303269147
556,4282.91,0.2941976773868932
557,4285.65,0.29343366179798863
558,4288.4,0.29656774615219034
559,4291.14,0.29382213056328577
560,4293.89,0.28452191491748746
561,4296.64,0.27015209927168915
562,4299.38,0.2693415836827846
563,4302.13,0.2743935680369863
564,4304.87,0.28471925244808177
565,4307.62,0.2878996368022835
566,4310.36,0.28559442121337897
567,4313.11,0.31087340556758064
568,4315.860000000001,0.3078193899217823
569,4318.6,0.31232797433287784
570,4321.35,0.3017356586870795
571,4324.09,0.28254064309817495
572,4326.84,0.2823315274523766
573,4329.59,0.2911727118065783
574,4332.33,0.2926161962176738
575,4335.08,0.2932123805718755
576,4337.82,0.303260164982971
577,4340.570000000001,0.28717514933717264
578,4343.31,0.29168363374826817
