,lambda (Angstroms),Total Flux (erg/s/cm^2/Angstrom)
0,100.08,0.004542527725752082
1,101.94,0.005458710348528994
2,104.07,0.006507867064168681
3,104.712855,0.00682452660097848
4,106.00999999999999,0.0062915528527419575
5,107.98,0.005482161395125254
6,109.99,0.0046565023519412165
7,114.11,0.0029639418272047707
8,118.11999999999999,0.0013167080775535276
9,120.22644299999999,0.0004559593897786091
10,120.88,0.0004450485754164474
11,125.12,0.00036699227988042007
12,126.86,0.0003350523161321449
13,128.04,0.00031347108336032614
14,131.02,0.0002586355760213256
15,131.93,0.000244265451934584
16,134.07,0.00020504359606026863
17,136.88,0.0001574107693748355
18,138.038426,0.0001364586287255485
19,140.07,0.00013698049282813237
20,143.0,0.0001896324382228574
21,147.01000000000002,0.00032715419635693496
22,151.13,0.0003459261216218726
23,155.0,0.00036942273977121927
24,158.489319,0.00039298401149548705
25,158.98,0.0003961205017958944
26,161.94,0.0004152832169925207
27,166.08999999999997,0.0004478749271499529
28,169.96,0.0004749204561401366
29,173.12,0.0004986363007419404
30,177.15,0.0005284722332562662
31,180.03000000000003,0.0005522607966908214
32,181.970086,0.0005680665708275523
33,182.11,0.0005693972716410985
34,185.92999999999998,0.0006086560030700631
35,191.14,0.0006593397841551172
36,193.79,0.0006948648169526973
37,197.85,0.0007359224404086128
38,202.0,0.0007827330483746346
39,204.81,0.0008167735091901819
40,208.929613,0.0008343758411222033
41,210.06,0.0008411098222890946
42,215.94,0.0009573025849575087
43,219.96,0.0010186329073940774
44,223.01999999999998,0.0010481989155174357
45,227.16,0.001114589814743156
46,229.8,0.0016702843041044846
47,234.07,0.0027835646448517853
48,239.88329199999998,0.003416212462199109
49,240.07,0.0034358448537828907
50,246.23,0.0032922685377827624
51,251.97,0.0035084838796917346
52,257.24,0.0030091719340227937
53,260.22,0.003432969885048706
54,263.84000000000003,0.003607541738308371
55,268.75,0.0036155347851329444
56,273.74,0.0036157649447367372
57,275.42287,0.003618310756940252
58,278.83000000000004,0.003635166904254301
59,284.01,0.0036526103506012205
60,289.96000000000004,0.003510806349783494
61,296.03000000000003,0.0035929031623946526
62,300.84,0.003585480434002507
63,307.85,0.0036380402851399407
64,316.227766,0.0037068019516139886
65,317.94000000000005,0.003715594602550285
66,328.35,0.0037022500133758835
67,338.33000000000004,0.0036482509941673795
68,347.81,0.003587702474919222
69,356.73,0.0035442503956266513
70,363.078055,0.0035250287284118807
71,365.88000000000005,0.0035230249301738087
72,375.27,0.003477861665150382
73,384.89000000000004,0.003336063577873985
74,394.77,0.0033906240828333613
75,404.89,0.0033637679037026814
76,414.32,0.003307228191330912
77,416.86938299999997,0.003288310355441897
78,422.03,0.003247922887497014
79,429.86999999999995,0.0031962357875640304
80,440.9,0.003147333094673621
81,451.16999999999996,0.003072408110450184
82,459.55999999999995,0.0030116835634555754
83,470.26,0.002953476138802141
84,478.630092,0.0029208944204079214
85,480.10999999999996,0.0029130531910656994
86,490.15999999999997,0.0028065568779669834
87,500.42999999999995,0.002768148105278046
88,506.22,0.0027044543278808755
89,512.0799999999999,0.002741090722432271
90,520.4,0.002693254159747562
91,530.08,0.0026048969377778534
92,539.93,0.0024973211333975194
93,549.5408739999999,0.002433171097992082
94,549.97,0.0024305376488864936
95,560.2,0.002417318121347647
96,570.61,0.0023988348689840703
97,579.88,0.002319337540510453
98,590.66,0.002291383242673819
99,600.26,0.002200742252021529
100,610.02,0.001963219728191701
101,619.93,0.002152901267007931
102,630.0,0.002090181272646623
103,630.957344,0.002087808843013391
104,640.24,0.0020704627788177736
105,650.64,0.0020340017550084873
106,658.17,0.001988745513731186
107,664.26,0.0019908464142120944
108,675.06,0.001960501351025527
109,684.45,0.001881189926643873
110,695.5699999999999,0.001917640831955482
111,705.25,0.0018328888790252996
112,716.71,0.0018723947508662202
113,724.43596,0.0018506284033872574
114,726.68,0.0018439678267082684
115,735.09,0.001826164115468916
116,745.32,0.0018089727354476824
117,755.68,0.0017920432362277428
118,764.43,0.001670099213237929
119,775.07,0.0017658994572823156
120,785.85,0.001731355572958865
121,794.9499999999999,0.0017367972290494586
122,804.16,0.0017313627842796089
123,815.3399999999999,0.0017191485331909096
124,824.78,0.001731874877531042
125,831.763771,0.001620418154451467
126,834.3399999999999,0.0015776721180411875
127,845.94,0.0016913805974020663
128,855.74,0.0016695852954828087
129,865.65,0.0016792752524195593
130,875.6700000000001,0.0016926424682123184
131,885.81,0.0017097996027570866
132,894.01,0.0017171017174777076
133,904.36,0.0016837617098384918
134,914.8299999999999,0.002130862620951285
135,925.42,0.007878784450816087
136,933.99,0.01584409798168874
137,944.8,0.028992466329265554
138,954.992586,0.04026323220640008
139,955.74,0.04108998136897133
140,964.59,0.04452780426645826
141,975.75,0.008099923699899413
142,984.78,0.03514859924953862
143,993.9000000000001,0.03861910362525397
144,1005.4000000000001,0.05852853473498275
145,1014.71,0.05733035607685883
146,1024.1,0.025432191930802595
147,1035.95,0.03870342903082747
148,1045.54,0.07658822116494043
149,1055.21,0.07484890781112107
150,1064.98,0.057063197597386296
151,1074.83,0.0692171618957192
152,1084.78,0.052772869334136725
153,1094.81,0.0728074812846219
154,1096.4782,0.07232116312332756
155,1104.94,0.06985312007423318
156,1115.17,0.06610084366322673
157,1125.49,0.05865126792895629
158,1135.8999999999999,0.07692977287142187
159,1143.78,0.0693651610123084
160,1154.36,0.07431546945527533
161,1165.04,0.07639380642794895
162,1175.8200000000002,0.050966481930329245
163,1183.97,0.07379850210142382
164,1194.92,0.048896811104305465
165,1205.98,0.034321116489864474
166,1214.34,0.025112311573343073
167,1225.58,0.050373968312374104
168,1234.07,0.07744236548447139
169,1245.49,0.08509879357697445
170,1254.12,0.08034074069066109
171,1258.92541,0.07539355135206725
172,1265.73,0.0683897628725557
173,1274.5,0.0901336368051838
174,1286.3,0.0948146970110004
175,1295.21,0.07243820308166361
176,1304.19,0.07144581022134437
177,1316.26,0.0918077545505144
178,1325.3799999999999,0.08747856382823029
179,1334.57,0.07602328417496372
180,1343.82,0.09287268543799791
181,1356.25,0.08951563526497251
182,1365.6499999999999,0.07905791881875862
183,1375.12,0.08335277344156228
184,1384.65,0.0841258189806667
185,1394.25,0.07177614558878868
186,1403.9099999999999,0.07429595311321142
187,1413.6499999999999,0.07725885185936851
188,1423.45,0.07978953152182637
189,1436.6200000000001,0.07942279264984371
190,1443.25,0.08393322390107794
191,1445.43977,0.08496081351073598
192,1446.5700000000002,0.08549119182911231
193,1456.6000000000001,0.08259058038727071
194,1463.32,0.0756784265199551
195,1473.47,0.07602526661619714
196,1483.68,0.077795857481481
197,1493.97,0.07924089937215398
198,1504.3200000000002,0.07446847203186877
199,1511.26,0.06592253098437319
200,1518.2399999999998,0.07095663044957214
201,1525.25,0.06855058029929201
202,1535.82,0.058895815778826834
203,1546.47,0.06398104228375075
204,1553.6,0.06082366367155428
205,1564.37,0.06281625171456184
206,1575.22,0.0673007207829585
207,1586.14,0.07095689074857063
208,1593.4599999999998,0.07227589457167329
209,1604.5,0.07112422607536906
210,1615.63,0.07128646873262758
211,1626.82,0.06761216215892792
212,1634.33,0.07227660841732966
213,1645.6599999999999,0.07345097363806093
214,1653.26,0.06823693105002542
215,1659.58691,0.07167821076412284
216,1664.72,0.0744705726159685
217,1672.4,0.06592530148553168
218,1676.26,0.07550724279236944
219,1683.99,0.078699876342073
220,1695.6699999999998,0.07396278962286702
221,1703.49,0.07112880159682329
222,1715.3,0.0673078070459823
223,1723.22,0.06700108838021933
224,1735.16,0.07195227599774336
225,1743.17,0.07048018575623308
226,1755.2599999999998,0.07534085741417826
227,1763.36,0.06935633559692068
228,1775.58,0.07064594942323085
229,1783.7800000000002,0.07245412696625406
230,1796.1399999999999,0.0776337038969573
231,1804.4299999999998,0.0770995298642332
232,1816.94,0.0709734908353576
233,1825.33,0.07279258616291426
234,1833.75,0.07016446429855516
235,1846.46,0.0644442339902411
236,1854.99,0.06533844242219085
237,1863.55,0.06778894366222482
238,1876.47,0.07313367301050037
239,1885.1299999999999,0.06747814361081513
240,1893.83,0.06549162795524217
241,1905.46072,0.06906852080912379
242,1906.96,0.06952928572757062
243,1915.76,0.06701696396303769
244,1924.6,0.06519166737230234
245,1933.48,0.06670791595536456
246,1946.89,0.07114197797100243
247,1955.8700000000001,0.06670504448855859
248,1964.9,0.07363555497336173
249,1973.9699999999998,0.07534681063196244
250,1983.0800000000002,0.07229081146436074
251,1996.83,0.07080698245727801
252,2006.05,0.07262151001761964
253,2015.3,0.07064468395830946
254,2024.6100000000001,0.07312250065969564
255,2033.9499999999998,0.07047966374142998
256,2043.34,0.07362620079041132
257,2052.77,0.06840019301319024
258,2067.0,0.06934997609167846
259,2071.77,0.07620735056703959
260,2076.54,0.07779998504240071
261,2086.13,0.08316738796036992
262,2095.76,0.07851768605213673
263,2105.4300000000003,0.07833767931770111
264,2115.15,0.08052731655051246
265,2124.9100000000003,0.07978929895712138
266,2134.72,0.07481066533097727
267,2144.57,0.07923820687863074
268,2154.47,0.08201773239353119
269,2164.42,0.07796874187567862
270,2174.41,0.07814679653162361
271,2184.44,0.08014958636136618
272,2187.7616199999998,0.08107622701835852
273,2194.53,0.08296588669150766
274,2204.65,0.0808933402089647
275,2214.83,0.07429058949826436
276,2225.05,0.07446336263545912
277,2235.32,0.08239910058252271
278,2245.6400000000003,0.07923850333945519
279,2256.0099999999998,0.07277242090625652
280,2266.42,0.07361599232095294
281,2276.88,0.07673006854551821
282,2287.39,0.08221388957995235
283,2292.66,0.07567974654013007
284,2303.25,0.07961612527035437
285,2313.88,0.07435498784847376
286,2324.56,0.060076365236462016
287,2335.29,0.06590818743431913
288,2346.07,0.0612743444420451
289,2356.9,0.07152892625963993
290,2362.33,0.061759918611398006
291,2373.23,0.06561009716280923
292,2384.19,0.0578529014860631
293,2395.19,0.062456569657212045
294,2406.25,0.060937493600203625
295,2417.36,0.06384982235306406
296,2422.9300000000003,0.07365840817245493
297,2434.1099999999997,0.07236546365913178
298,2445.35,0.07812664491765127
299,2456.64,0.07890240098603958
300,2462.3,0.07555422546319442
301,2473.66,0.07204313826539914
302,2485.08,0.06697716683944652
303,2496.5499999999997,0.06328179022336274
304,2502.31,0.07857824432025527
305,2511.88643,0.06393800631350498
306,2513.86,0.06092059206988182
307,2519.65,0.06065964650286853
308,2525.46,0.060265010191236895
309,2537.12,0.0658126760787369
310,2542.97,0.06629061827786857
311,2554.7,0.07991778155920434
312,2566.5,0.07227815223437589
313,2572.41,0.07945253219965247
314,2584.2900000000004,0.0762818398963506
315,2596.2200000000003,0.07323952573150286
316,2602.2000000000003,0.06933330309061521
317,2614.21,0.06703038594729405
318,2626.2799999999997,0.07490496657011782
319,2632.33,0.09069323132306593
320,2644.48,0.1076036489674163
321,2656.69,0.1253376943779116
322,2662.81,0.09645729652469548
323,2675.1000000000004,0.10510190895671735
324,2687.4500000000003,0.11114904915488419
325,2693.65,0.09641025832319465
326,2706.08,0.10700315554288807
327,2712.3199999999997,0.09132857322196183
328,2724.84,0.08589140709087266
329,2737.42,0.09467391872592841
330,2743.7299999999996,0.07104285379883796
331,2756.3900000000003,0.07902941245542029
332,2762.7400000000002,0.08889984603909311
333,2775.5,0.0942321209725837
334,2781.8900000000003,0.07611167306701981
335,2794.74,0.05558450464972781
336,2807.6299999999997,0.06028718474319909
337,2814.11,0.08937299348685261
338,2827.1000000000004,0.10976284985723214
339,2833.6099999999997,0.10730830748395813
340,2846.69,0.09638279050355505
341,2853.25,0.07784907626873518
342,2866.43,0.11361608556524035
343,2873.0299999999997,0.12751793984118376
344,2884.0315,0.12076496552427789
345,2886.2900000000004,0.11937872852440354
346,2892.9500000000003,0.128550023449889
347,2913.0,0.15650890817300964
348,2933.19,0.1429111927894588
349,2946.73,0.1375370824728031
350,2967.16,0.1455177669063869
351,2987.72,0.14670355124091858
352,3008.4300000000003,0.15064583546115942
353,3029.29,0.15398251956710937
354,3050.29,0.15812220356638784
355,3071.43,0.16463058745899484
356,3092.72,0.165976871237311
357,3106.9999999999995,0.17635726035682034
358,3128.5299999999997,0.1701928439522711
359,3150.2200000000003,0.1700130274258116
360,3172.05,0.17865551079268058
361,3186.7000000000003,0.16084119963027246
362,3208.7900000000004,0.17495718279903733
363,3231.0299999999997,0.15364246585351127
364,3253.42,0.1909960487936944
365,3268.44,0.2125093373493688
366,3291.1000000000004,0.20842332008382833
367,3306.29,0.20432690850997312
368,3311.31121,0.20438471769833697
369,3321.5499999999997,0.20450245555265054
370,3329.21,0.2212454439821396
371,3336.8799999999997,0.21187203226597529
372,3344.57,0.20714272025850416
373,3352.28,0.19609590795972617
374,3360.0099999999998,0.21809229536964142
375,3367.76,0.21420708248824982
376,3375.52,0.17380376946120482
377,3383.3,0.182070756142853
378,3391.1000000000004,0.21847434253319437
379,3398.92,0.22834412863222894
380,3406.75,0.21716421458561005
381,3414.61,0.21676130010203098
382,3422.48,0.23722438547279848
383,3430.37,0.22149667055225916
384,3438.28,0.22779995534041306
385,3446.2,0.1721070399829135
386,3454.15,0.22179252418845374
387,3462.11,0.19193900824834056
388,3470.09,0.2124930920169206
389,3478.0899999999997,0.1813701754941938
390,3486.11,0.20311635868016015
391,3494.14,0.19496194172047313
392,3502.2,0.22652682432382587
393,3510.27,0.2230073067815252
394,3518.3599999999997,0.20870278894791772
395,3526.47,0.1975771708230034
396,3534.6,0.2248607524067823
397,3542.75,0.24836843369925438
398,3550.92,0.24394781470041962
399,3559.1,0.23523619555593148
400,3567.3100000000004,0.2252728759744831
401,3575.53,0.1949557562473813
402,3583.77,0.17912083622897268
403,3592.0400000000004,0.17593451577360386
404,3600.32,0.2463199951725816
405,3608.6200000000003,0.21072937428025254
406,3616.94,0.21924005309661665
407,3625.27,0.23610813176732737
408,3633.63,0.23031201000107787
409,3641.28,0.23193819857622036
410,3644.04,0.2140912583758796
411,3646.79,0.22208611832119227
412,3649.54,0.17872857826650493
413,3652.2900000000004,0.1880772382118176
414,3655.05,0.21619489801147687
415,3657.7999999999997,0.2503239579567895
416,3660.55,0.23539781790210218
417,3663.2999999999997,0.24638557784741483
418,3666.05,0.2277270377927275
419,3668.81,0.22893029759238673
420,3671.56,0.2159258575376994
421,3674.31,0.24556161748301208
422,3677.06,0.23247027742832474
423,3679.81,0.22143933737363738
424,3682.57,0.21897559717329662
425,3685.32,0.22453205711860932
426,3688.07,0.20080111706392198
427,3690.82,0.24172067700923464
428,3693.5800000000004,0.22247923680889387
429,3696.33,0.22563809675420654
430,3699.08,0.22045715669951918
431,3701.83,0.24626541664483187
432,3704.58,0.21469467659014452
433,3707.34,0.21245923638980377
434,3710.0899999999997,0.22947909633511643
435,3712.84,0.23741955628042907
436,3715.5899999999997,0.24646101622574176
437,3718.3500000000004,0.225066576025401
438,3721.1,0.26130783597071366
439,3723.8500000000004,0.27394579591602636
440,3726.6,0.324887955861339
441,3729.3500000000004,0.32255051580665167
442,3732.11,0.31923277560631086
443,3734.8599999999997,0.25836923555162356
444,3737.61,0.21471549549693622
445,3740.3599999999997,0.2301314554422489
446,3743.11,0.2651469153875616
447,3745.87,0.23884027518722079
448,3748.62,0.21429653513253347
449,3751.37,0.2044508950778461
450,3754.1200000000003,0.21746925502315878
451,3756.88,0.24353461482281802
452,3759.63,0.23674707476813067
453,3762.38,0.26851663471344334
454,3765.1299999999997,0.24734369465875602
455,3767.88,0.24597115460406868
456,3770.6400000000003,0.2435507144037279
457,3773.39,0.2619460743490406
458,3776.14,0.24759343429435324
459,3778.89,0.2794636942396659
460,3781.64,0.29577415418497854
461,3784.4,0.3130343139846378
462,3787.15,0.30784267392995046
463,3789.9,0.3058041338752631
464,3792.65,0.2616093938205758
465,3795.4100000000003,0.24462685362023506
466,3798.16,0.2377686135655477
467,3800.9100000000003,0.23587417351086037
468,3801.8939600000003,0.23946911965478462
469,3803.66,0.24592143881586112
470,3806.41,0.2606498071070449
471,3809.17,0.29677817528292383
472,3811.9199999999996,0.3303772435741076
473,3814.67,0.3083590118652913
474,3817.42,0.30381968015647504
475,3820.17,0.3028957484476588
476,3822.93,0.26923041662353775
477,3825.6800000000003,0.2696384849147215
478,3828.43,0.24830505320590526
479,3831.1800000000003,0.23671422149708898
480,3833.94,0.21267758967296796
481,3836.6899999999996,0.2140288579641517
482,3839.44,0.20514282625533545
483,3842.1899999999996,0.2115174945465192
484,3844.94,0.2527932628377029
485,3847.7,0.2880247310135819
486,3850.4500000000003,0.29525579930476564
487,3853.2,0.3075158675959494
488,3855.9500000000003,0.3205643358871332
489,3858.71,0.3007734040630121
490,3861.46,0.30786857235419585
491,3864.21,0.3118649406453796
492,3866.96,0.33635760893656336
493,3869.71,0.3324434772277471
494,3872.4700000000003,0.33111014540362604
495,3875.22,0.3149634136948098
496,3877.9700000000003,0.29376068198599353
497,3880.72,0.2975394502771773
498,3883.47,0.271155418568361
499,3886.23,0.26541038674424
500,3888.98,0.24835295503542376
501,3891.73,0.23638972332660751
502,3894.48,0.2606186916177912
503,3897.2400000000002,0.2766341597936702
504,3899.99,0.29598902808485394
505,3902.7400000000002,0.3171652963760377
506,3905.49,0.3213518646672215
507,3908.2400000000002,0.3303228329584052
508,3911.0,0.34429370113428415
509,3913.7499999999995,0.3646001694254679
510,3916.5,0.34470213771665165
511,3919.2500000000005,0.3426093060078354
512,3922.0,0.33567787429901913
513,3924.7599999999998,0.3151801424748981
514,3927.51,0.29528221076608185
515,3930.2599999999998,0.2540341790572656
516,3933.01,0.21772804734844936
517,3935.77,0.20181121552432832
518,3938.52,0.22460748381551204
519,3941.27,0.2746770521066958
520,3944.0199999999995,0.29781052039787953
521,3946.77,0.3092278886890633
522,3949.53,0.3126245568649422
523,3952.28,0.343668425156126
524,3955.0299999999997,0.35060059344730976
525,3957.78,0.34258176173849353
526,3960.5299999999997,0.3137947300296772
527,3963.29,0.26767119820555624
528,3966.04,0.22805966649673995
529,3968.79,0.18812723478792368
530,3971.54,0.18292180307910744
531,3974.3,0.2037244712549864
532,3977.0499999999997,0.24893353954617015
533,3979.8,0.3005281078373539
534,3982.55,0.3236072761285377
535,3985.2999999999997,0.3476378444197214
536,3988.06,0.37838091259560036
537,3990.8100000000004,0.37968618088678413
538,3993.56,0.38392714917796783
539,3996.31,0.3879779174691516
540,3999.07,0.3913470856450305
541,4001.8199999999997,0.3997471539362143
542,4004.57,0.4018407222273981
543,4007.3199999999997,0.39705679051858184
544,4010.07,0.4001561588097655
545,4012.83,0.4113269269856445
546,4015.5800000000004,0.4191832952768283
547,4018.33,0.43089986356801196
548,4021.0800000000004,0.4298129318591957
549,4023.83,0.4189400001503795
550,4026.5899999999997,0.41415396832625845
551,4029.34,0.4084458366174422
552,4032.0899999999997,0.40757640490862596
553,4034.84,0.41154557319980967
554,4037.6,0.41439824137568865
555,4040.35,0.4187208096668724
556,4043.1,0.4222822779580561
557,4045.85,0.41445384624923987
558,4048.6,0.4056740145404237
559,4051.36,0.4142894827163026
560,4054.11,0.42247215100748636
561,4056.86,0.4046402192986701
562,4059.61,0.40855498758985387
563,4062.3599999999997,0.4055380558810376
564,4065.12,0.40064342405691655
565,4067.87,0.4038513923481003
566,4070.62,0.40069856063928405
567,4073.37,0.4058095289304678
568,4076.13,0.39621219710634675
569,4078.8799999999997,0.3880303653975305
570,4081.63,0.39971963368871427
571,4084.38,0.40570040197989804
572,4087.13,0.4071415702710817
573,4089.89,0.4036332384469607
574,4092.6400000000003,0.3983057067381444
