,lambda (Angstroms),Total Flux (erg/s/cm^2/Angstrom)
0,100.08,3.3337548276762443
1,101.94,3.324480487460055
2,104.07,3.3138598718357732
3,104.712855,3.310654465606403
4,106.00999999999999,3.276679895033298
5,107.98,3.2250820376681855
6,109.98,3.172698429541239
7,114.11,3.0645262767752084
8,118.11999999999999,2.95949714514742
9,120.22644299999999,2.904325707567692
10,120.87,2.890193821561326
11,125.12,2.796867802042561
12,126.86,2.758659039867905
13,128.03,2.7329669410930557
14,131.02,2.6673093540274513
15,131.92000000000002,2.647546264345236
16,134.07,2.6003342967453733
17,136.88,2.538629469215592
18,138.038426,2.513191543263671
19,140.06,2.4814610112259317
20,143.0,2.4353165018194756
21,147.0,2.3725369893122834
22,151.12,2.3078705975874154
23,155.0,2.2469714787148987
24,158.489319,2.1922044957651856
25,158.97000000000003,2.186500699603206
26,161.92999999999998,2.151377180362468
27,166.08,2.1021333771686277
28,169.95,2.056212097769048
29,173.11,2.0187157218581238
30,177.14000000000001,1.970896103050395
31,180.02,1.9367225235437302
32,181.970086,1.913583110841748
33,182.11,1.9123165591159146
34,185.92000000000002,1.877827417359955
35,191.13000000000002,1.830665025909601
36,193.79,1.8065866453572517
37,197.85,1.7698347196505075
38,201.99,1.7323590484315117
39,204.8,1.7069230514086913
40,208.929613,1.6695399448149375
41,210.04999999999998,1.6619150061163677
42,215.94,1.6218350862603899
43,219.95000000000002,1.5945470800396986
44,223.01000000000002,1.5737230849954558
45,227.16,1.5454828767614988
46,229.79,1.5276195507858583
47,234.06,1.4986364782762447
48,239.88329199999998,1.459051492476021
49,240.06,1.4581261739461766
50,246.22000000000003,1.4258166047489402
51,251.96,1.395735621581061
52,257.23,1.36806413453651
53,260.21,1.3524719088758343
54,263.83,1.3335048285323283
55,268.74,1.3077609960843688
56,273.73,1.2815971870260556
57,275.42287,1.2727208223190227
58,278.82,1.2590517463969177
59,284.01,1.2381687388141696
60,289.95,1.2142539488957642
61,296.02,1.189835459299178
62,300.83,1.1704786854064961
63,307.84,1.1422750251292193
64,316.227766,1.108529263061452
65,317.93,1.1034150060272097
66,328.34000000000003,1.0721306689329027
67,338.32,1.0421350936985907
68,347.8,1.013641163966599
69,356.72,0.9868309536732063
70,363.078055,0.9677209813356558
71,365.87,0.9614371604239957
72,375.26,0.940300197035477
73,384.88,0.9186332580225319
74,394.75000000000006,0.8964259868786894
75,404.88000000000005,0.8736230523507129
76,414.31,0.8523923211492505
77,416.86938299999997,0.846629538505182
78,422.01000000000005,0.8377901761492608
79,429.86,0.8242929635290107
80,440.89000000000004,0.8053300296778823
81,451.16,0.7876680244995422
82,459.54,0.7732585850074791
83,470.25,0.7548419870185775
84,478.630092,0.740433351226084
85,480.09000000000003,0.7385028161690311
86,490.15000000000003,0.7251931165996541
87,500.41,0.7116265675410248
88,506.21,0.7039530497527159
89,512.07,0.6962144188576312
90,520.39,0.6852094349847467
91,530.06,0.6724164445094112
92,539.92,0.6593676515292859
93,549.5408739999999,0.6466418244068828
94,549.95,0.646228963088089
95,560.18,0.6359119974142952
96,570.59,0.6254116535790855
97,579.86,0.6160521850661754
98,590.65,0.605167574056866
99,600.24,0.5954828503236612
100,610.0,0.5855990665046752
101,619.91,0.575640391751176
102,629.98,0.5654751720875293
103,630.957344,0.5644891766604478
104,640.2199999999999,0.5570811264228445
105,650.62,0.5487592276230812
106,658.15,0.5427316724594065
107,664.24,0.5378640601218528
108,675.04,0.529224046075945
109,684.4300000000001,0.5217027045076971
110,695.5500000000001,0.5128166144448735
111,705.22,0.5050699792243244
112,716.68,0.49591345531227776
113,724.43596,0.48970859442344855
114,726.65,0.48839361968383765
115,735.07,0.4833930803971366
116,745.29,0.4773232880208794
117,755.66,0.47116447447882603
118,764.41,0.46594648210737294
119,775.0500000000001,0.459650612586886
120,785.83,0.4532462216516559
121,794.93,0.4478451707933447
122,804.13,0.44238324952450264
123,815.3199999999999,0.4357385427960959
124,824.76,0.43013642130197965
125,831.763771,0.4259593381345993
126,834.3100000000001,0.4248224354628357
127,845.92,0.41969104390180706
128,855.7099999999999,0.4153442406251946
129,865.62,0.4109478530825766
130,875.64,0.4065041426211202
131,885.7800000000001,0.4020072048936585
132,893.98,0.39836955861661844
133,904.33,0.3937727793986472
134,914.8000000000001,0.38921354441467026
135,925.39,0.3854183185646881
136,933.96,0.38287101314246447
137,944.7700000000001,0.3801019251548055
138,954.992586,0.3772392501048054
139,955.71,0.3770452255253461
140,964.55,0.373969625785514
141,975.72,0.3634249076708166
142,984.7499999999999,0.364109326067798
143,993.86,0.3605277118381746
144,1005.37,0.35843666581040673
145,1014.6700000000001,0.35408250471759695
146,1024.06,0.3449716347948567
147,1035.92,0.3422100196506928
148,1045.51,0.3437841116614405
149,1055.18,0.3393655280455834
150,1064.94,0.33261912759979595
151,1074.8,0.3301313271207524
152,1084.74,0.323418031015104
153,1094.78,0.32203816287619963
154,1096.4782,0.3212252533171794
155,1104.91,0.3178524887629775
156,1115.13,0.31376168593453424
157,1125.45,0.30898175043849374
158,1135.87,0.307967059274856
159,1143.74,0.3040253826349491
160,1154.3200000000002,0.30101528260315563
161,1165.0,0.29758489890376494
162,1175.78,0.2899158415367769
163,1183.93,0.29049088262759765
164,1194.8899999999999,0.28279535965893443
165,1205.94,0.27656116738943365
166,1214.3,0.27165526177830013
167,1225.54,0.2718259345403646
168,1234.03,0.27304916516135447
169,1245.45,0.2702791283217438
170,1254.08,0.26656578980809753
171,1258.92541,0.264055404251956
172,1265.6899999999998,0.2612410384933633
173,1274.46,0.26243058301122235
174,1286.25,0.2601640151623693
175,1295.1699999999998,0.2546230719467826
176,1304.15,0.2521558156378172
177,1316.2099999999998,0.2522250338687615
178,1325.3400000000001,0.24923918982635027
179,1334.53,0.24521533269056067
180,1343.78,0.2453768224613927
181,1356.2099999999998,0.2417498282831703
182,1365.61,0.23775155032055634
183,1375.08,0.2360576354156676
184,1384.61,0.2337692874174005
185,1394.2099999999998,0.2295555724768586
186,1403.8700000000001,0.22755933444293827
187,1413.6000000000001,0.2253551294667432
188,1423.3999999999999,0.22325850754827337
189,1436.5700000000002,0.2198014885517174
190,1443.2,0.2188915867334057
191,1445.43977,0.21849624938165974
192,1446.53,0.21838723862733223
193,1456.5600000000002,0.21616818621114114
194,1466.6499999999999,0.2133032518562691
195,1473.42,0.21204850144175125
196,1483.6299999999999,0.21050351320951696
197,1493.92,0.20891986572570775
198,1504.27,0.2063650963032175
199,1511.22,0.20375728007265642
200,1518.19,0.2033265765292016
201,1525.1999999999998,0.2016915683599595
202,1535.77,0.19832595549563847
203,1546.42,0.19748185937974272
204,1553.56,0.1955920886766915
205,1564.32,0.1938541943398804
206,1575.1699999999998,0.19264837209504762
207,1586.09,0.19129066925508686
208,1593.41,0.19023876273599227
209,1604.45,0.18804343601866938
210,1615.5700000000002,0.18610338004977162
211,1626.77,0.18344633482929912
212,1634.28,0.1828481238377144
213,1645.6100000000001,0.18103417608343275
214,1653.21,0.1787194571838264
215,1659.58691,0.17819320247352546
216,1664.66,0.17804337724053454
217,1672.35,0.175688436643801
218,1676.1999999999998,0.1766693819757354
219,1683.9399999999998,0.17627839768201395
220,1695.61,0.17399091880504636
221,1703.44,0.1725423658567467
222,1715.25,0.17049712462821306
223,1723.17,0.1694667630253353
224,1735.11,0.16872415818463324
225,1743.12,0.16744682792717733
226,1755.2,0.16674541073490923
227,1763.3,0.16464412182287516
228,1775.53,0.16345756353964344
229,1783.72,0.16264998597303124
230,1796.09,0.1619576953382335
231,1804.3799999999999,0.16076329037764558
232,1816.8799999999999,0.15828446613067942
233,1825.27,0.15747689377611568
234,1833.69,0.15594956520335929
235,1846.4,0.15344399642904408
236,1854.9299999999998,0.1524793377229144
237,1863.4899999999998,0.15177017179859198
238,1876.41,0.15101277049692774
239,1885.0700000000002,0.14907318217862955
240,1893.77,0.1476218239027411
241,1905.46072,0.14665591949516746
242,1906.9,0.14658463996068247
243,1915.6999999999998,0.14542953311578674
244,1924.54,0.14441911619432335
245,1933.42,0.14375087619629218
246,1946.82,0.1431805155461101
247,1955.81,0.14171833108751775
248,1964.84,0.1418958655523577
249,1973.91,0.14130365894062996
250,1983.02,0.13994368125233453
251,1996.77,0.13840218868218498
252,2005.98,0.13781013330247024
253,2015.24,0.13660571907704588
254,2024.54,0.13612532377505385
255,2033.8899999999999,0.13488887962735213
256,2043.2800000000002,0.13452325440308271
257,2052.71,0.1331567181022456
258,2066.94,0.13188869261328356
259,2071.7,0.13222087450172634
260,2076.48,0.13215028085188527
261,2086.06,0.13209999801391925
262,2095.69,0.13048583633024358
263,2105.36,0.12955477357000023
264,2115.08,0.12902117196404722
265,2124.84,0.1280268892815265
266,2134.65,0.12627877775329618
267,2144.5,0.12621556514849816
268,2154.4,0.12564418369799046
269,2164.35,0.12409484340177317
270,2174.3399999999997,0.12313530202898816
271,2184.37,0.12270403957963541
272,2187.7616199999998,0.12251669742731267
273,2194.46,0.12234337782014902
274,2204.5899999999997,0.12138985393960601
275,2214.76,0.11965051345933721
276,2224.98,0.11912197222941127
277,2235.25,0.11997913024982815
278,2245.57,0.11876468752058786
279,2255.94,0.1169498940416904
280,2266.35,0.11631051396306721
281,2276.81,0.11616528313478683
282,2287.3199999999997,0.1167250415568493
283,2292.5899999999997,0.11524719454298339
284,2303.17,0.11530261391552576
285,2313.81,0.11365239838847958
286,2324.49,0.11070957426170767
287,2335.21,0.11086539053520998
288,2345.9900000000002,0.1092785309091237
289,2356.82,0.11053999953338026
290,2367.7000000000003,0.10804832240797965
291,2373.16,0.10842279354541651
292,2384.11,0.10639042637049581
293,2395.12,0.10648482229598658
294,2406.17,0.10550671862175158
295,2417.28,0.10529020004792794
296,2422.85,0.106819647536119
297,2434.04,0.10590522376284392
298,2445.27,0.1063454133898431
299,2456.56,0.10585717811725368
300,2462.22,0.10469375925606182
301,2473.59,0.1032792407840209
302,2485.0,0.10137340971225427
303,2496.4700000000003,0.10076575974089902
304,2502.2299999999996,0.10269252538039285
305,2511.88643,0.09946422100217081
306,2513.7799999999997,0.09886081420816961
307,2519.5699999999997,0.0984046663955341
308,2525.3799999999997,0.09798816339529016
309,2537.04,0.09861918101958547
310,2542.89,0.09843203564412471
311,2554.6200000000003,0.10105320411179056
312,2566.4199999999996,0.098742463422827
313,2572.33,0.100085705484541
314,2584.21,0.09879862404514375
315,2596.1299999999997,0.09762924223052973
316,2602.12,0.09651491154181005
317,2614.13,0.09550877438295813
318,2626.2000000000003,0.09650524766128098
319,2632.25,0.10018060340973611
320,2644.4,0.10323208693762528
321,2656.6,0.10768695249649347
322,2662.73,0.10030859749451493
323,2675.02,0.10157544470914523
324,2687.37,0.1029484763609503
325,2693.56,0.09855890579614651
326,2706.0,0.10067106910371373
327,2712.23,0.09649881816369313
328,2724.75,0.09398080072082668
329,2737.33,0.09570533771513501
330,2743.64,0.09056457602468075
331,2756.2999999999997,0.09192060226855543
332,2762.6600000000003,0.09406534260908012
333,2775.41,0.09434641050871695
334,2781.81,0.08982266047402485
335,2794.65,0.08508939202942378
336,2807.5499999999997,0.08536821802199751
337,2814.02,0.09131999083067595
338,2827.0099999999998,0.09526413647901182
339,2833.52,0.0941024629124734
340,2846.6000000000004,0.0899271702165714
341,2853.17,0.0857321810872078
342,2866.3300000000004,0.09301941764087213
343,2872.94,0.09734765813629169
344,2884.0315,0.09527950376812985
345,2886.2,0.09490430830394356
346,2892.8599999999997,0.0982894063164002
347,2912.9100000000003,0.1049961481557028
348,2933.1000000000004,0.10065737559887085
349,2946.64,0.09840680185842984
350,2967.0600000000004,0.09902928636509113
351,2987.63,0.09870924330446545
352,3008.3399999999997,0.09838872584770524
353,3029.19,0.09922946399481043
354,3050.19,0.09956299457462864
355,3071.33,0.10129324075831231
356,3092.62,0.10008771937470894
357,3106.9,0.1040627909689853
358,3128.43,0.10095967347772275
359,3150.1200000000003,0.10027948524802066
360,3171.9599999999996,0.10255155945103162
361,3186.6,0.09726481688381916
362,3208.68,0.09996183497917088
363,3230.9300000000003,0.09378282916493061
364,3253.32,0.10430933895455582
365,3268.34,0.11041356588354961
366,3290.99,0.10869730322321068
367,3311.31121,0.10565869576706034
368,3313.8,0.10531001001773402
369,3321.44,0.10326093453344551
370,3329.1,0.10748709123375311
371,3336.77,0.10739344902635875
372,3344.47,0.10418447009585854
373,3352.1800000000003,0.10097236225765638
374,3359.9,0.1055737555117523
375,3367.6499999999996,0.10547481204274237
376,3375.41,0.09338048966603046
377,3383.1899999999996,0.09611624947391467
378,3390.99,0.10561450146639498
379,3398.81,0.1044301456434714
380,3406.65,0.10552534200514392
381,3414.4999999999995,0.1044428594591145
382,3422.3700000000003,0.10971697909768116
383,3430.2599999999998,0.10567044092084396
384,3438.1699999999996,0.10658904492860284
385,3446.09,0.09061648002865977
386,3454.04,0.10470001840561086
387,3462.0,0.09630537787485999
388,3469.9799999999996,0.10116936952870526
389,3477.98,0.09534151336714658
390,3486.0,0.10053831939018404
391,3494.03,0.09510459650551954
392,3502.09,0.1057887368977492
393,3510.16,0.10511027838227692
394,3518.25,0.09947935205140071
395,3526.36,0.09499261790512063
396,3534.4900000000002,0.10399948594343666
397,3542.6400000000003,0.11055551616634879
398,3550.81,0.10843142857385701
399,3558.9900000000002,0.10425511207366328
400,3567.2,0.10058655885036372
401,3575.42,0.09473395671936222
402,3583.6600000000003,0.08740301677295678
403,3591.92,0.08886348901114749
404,3600.2000000000003,0.10897693343393428
405,3608.5,0.0982194300413172
406,3610.04,0.09449843825521714
407,3612.79,0.08550542863718136
408,3615.53,0.10162710792684751
409,3618.2799999999997,0.09467651830881174
410,3621.02,0.10372354759847789
411,3623.77,0.1064237179804421
412,3626.5199999999995,0.11977758836240633
413,3629.26,0.10485534765207247
414,3632.0099999999998,0.0964197080340367
415,3634.75,0.10530855732370284
416,3637.5,0.10446327770566707
417,3640.2400000000002,0.10626180699533322
418,3642.99,0.10862474737729745
419,3645.7400000000002,0.10513384775926166
420,3648.48,0.1005894970489278
421,3651.2299999999996,0.09455554743089203
422,3653.9700000000003,0.09688537672055819
423,3656.72,0.1020793771025224
424,3659.46,0.10843270639218856
425,3662.21,0.11760495677415278
426,3664.96,0.11064101715611699
427,3667.7,0.09980594644578317
428,3670.4500000000003,0.11407300682774738
429,3673.19,0.11048761611741353
430,3675.9399999999996,0.10869671649937775
431,3678.68,0.11666606578904391
432,3681.43,0.10504417617100813
433,3684.1800000000003,0.09872978655297232
434,3686.92,0.1120216358426385
435,3689.67,0.10656185622460271
436,3692.41,0.09886663551426889
437,3695.1600000000003,0.11498494589623308
438,3697.9,0.10635920518589925
439,3700.6499999999996,0.10806450556786346
440,3703.4,0.09323616594982767
441,3706.14,0.10622496523949385
442,3708.8900000000003,0.09579322562145803
443,3711.63,0.1020098049111242
444,3714.38,0.11043692529308842
445,3717.12,0.09745740458275459
446,3719.8700000000003,0.10021669496471877
447,3722.62,0.117705295346683
448,3725.3599999999997,0.12301977463634917
449,3728.11,0.1442328250183134
450,3730.85,0.13798221430797955
451,3733.6000000000004,0.11369944468994375
452,3736.34,0.1207463839796099
453,3739.0899999999997,0.10522268436157414
454,3741.84,0.11024861474353834
455,3744.58,0.09307008403320452
456,3747.33,0.10616847441516872
457,3750.0699999999997,0.1043618837048349
458,3752.82,0.0934173640867991
459,3755.5699999999997,0.11476081446876332
460,3758.3100000000004,0.11296004375842947
461,3761.06,0.11232912414039369
462,3763.7999999999997,0.10573771343005986
463,3766.55,0.10177169381202406
464,3769.29,0.10623148310169023
465,3772.04,0.10652358348365443
466,3774.79,0.10563426386561865
467,3777.53,0.1234305131552848
468,3780.2799999999997,0.11233531353724902
469,3783.0200000000004,0.11182663282691518
470,3785.77,0.1141739232088794
471,3788.5099999999998,0.12150478249854554
472,3791.26,0.12047403288050977
473,3794.0099999999998,0.112797403262474
474,3796.75,0.11050412255214015
475,3799.5,0.09583685293410435
476,3801.8939600000003,0.10992404877391868
477,3802.2400000000002,0.11196260958514834
478,3804.99,0.11723681723155877
479,3807.7299999999996,0.1144286673956186
480,3810.48,0.12929223504202905
481,3813.23,0.1208110626884395
482,3815.9700000000003,0.11262014285249933
483,3818.72,0.12294106049890977
484,3821.46,0.1248146306629696
485,3824.21,0.11639719830938006
486,3826.9500000000003,0.1073255384734399
487,3829.7,0.09661132611985034
488,3832.45,0.09721141376626076
489,3835.19,0.09843422393032061
490,3837.94,0.09092015157673106
491,3840.6800000000003,0.09500643174079088
492,3843.43,0.10474217938720132
493,3846.17,0.11316080955126118
494,3848.92,0.11273355719767161
495,3851.6699999999996,0.11417202484408205
496,3854.41,0.11441740500814188
497,3857.16,0.11372361265455233
498,3859.9,0.12367425281861219
499,3862.65,0.1334563004650226
500,3865.3900000000003,0.12534651062908245
501,3868.14,0.1305048182754929
502,3870.8900000000003,0.12957343592190332
503,3873.63,0.12316135608596318
504,3876.3799999999997,0.12257184373237362
505,3879.12,0.12357048389643346
506,3881.87,0.11795162154284389
507,3884.61,0.10927977170690374
508,3887.36,0.11659932935331419
509,3890.11,0.1142020569997246
510,3892.85,0.12298805716378447
511,3895.6000000000004,0.11997658481019488
512,3898.34,0.11426555497425472
513,3901.0899999999997,0.11897772262066518
514,3903.84,0.12475600026707562
515,3906.58,0.12562719043113546
516,3909.33,0.1165608180775459
517,3912.07,0.12862631824160575
518,3914.82,0.13975839588801617
519,3917.56,0.13737328605207602
520,3920.3100000000004,0.13249605369848647
521,3923.06,0.1244320713448969
522,3925.7999999999997,0.11311231150895673
523,3928.55,0.10701835915536717
524,3931.29,0.09991786931942703
525,3934.04,0.08935258696583746
526,3936.7799999999997,0.09567135712989733
527,3939.53,0.10456290477630772
528,3942.28,0.11576454242271816
529,3945.02,0.11178018258677802
530,3947.77,0.11463243023318848
531,3950.5099999999998,0.1244092303972483
532,3953.26,0.12302010804365873
533,3956.0,0.12598298820771858
534,3958.7499999999995,0.12079290585412904
535,3961.5,0.11389935350053948
536,3964.24,0.10298110366459931
537,3966.9900000000002,0.09748166131100974
538,3969.73,0.1014532314750696
539,3972.48,0.09243556912148002
540,3975.22,0.10756961928553987
541,3977.9700000000003,0.12049214693195032
542,3980.72,0.12960206457836074
543,3983.4599999999996,0.1305369847424206
544,3986.21,0.13285034238883103
545,3988.95,0.13831633255289086
546,3991.7000000000003,0.1471712901993013
547,3994.44,0.14375483036336115
548,3997.19,0.14911006800977158
549,3999.94,0.14360708565618202
550,4002.6800000000003,0.14478540582024185
551,4005.43,0.14136250346665233
552,4008.1699999999996,0.14639392363071219
553,4010.92,0.1487478312771226
554,4013.66,0.14726080144118245
555,4016.4100000000003,0.14638740908759287
556,4019.16,0.14746651673400332
557,4021.9,0.15153038689806317
558,4024.65,0.1530092945444736
559,4027.3900000000003,0.15102406470853344
560,4030.14,0.1486556723549439
561,4032.8799999999997,0.13834413251900374
562,4035.63,0.14086607016541416
563,4038.3799999999997,0.1421596178118246
564,4041.1200000000003,0.14468216797588446
565,4043.87,0.14509503562229487
566,4046.61,0.14818540578635472
567,4049.36,0.14406720343276516
568,4052.1099999999997,0.1488141210791756
569,4054.85,0.14697369124323545
570,4057.6,0.15069489888964588
571,4060.34,0.14570826905370574
572,4063.0899999999997,0.14119607670011616
573,4065.8300000000004,0.14791364686417602
574,4068.58,0.13832571451058645
575,4071.3300000000004,0.13858212215699686
576,4074.07,0.13889710232105673
577,4076.8199999999997,0.14195209996746716
578,4079.56,0.139949410131527
579,4082.31,0.14180499777793745
580,4085.05,0.1521322879419973
