,lambda (Angstroms),Total Flux (erg/s/cm^2/Angstrom)
0,101.98,0.006872994696242514
1,104.11,0.008189196076066765
2,104.712855,0.008561721232330203
3,106.05,0.007872299067440046
4,108.02000000000001,0.006856581501421174
5,110.03,0.005820240228525141
6,113.9,0.0038248965837436475
7,117.9,0.0017625258916228212
8,120.22644299999999,0.0005630289285380434
9,120.92,0.0005464825404973148
10,124.88000000000001,0.000452007685071801
11,126.91,0.0004035773934158483
12,128.09,0.0003754257954727442
13,131.07,0.0003043310828378336
14,131.98,0.0002826209547435274
15,134.12,0.00023156636365594506
16,136.93,0.00016452739755581127
17,138.038426,0.000138083363934866
18,140.12,0.0001363294718247595
19,143.06,0.0001338523646823648
20,147.06,0.00013048229187726047
21,150.84,0.00012729748222960584
22,155.06,0.00012374199758865176
23,158.489319,0.000120852763298452
24,159.04000000000002,0.00012013988764654723
25,162.0,0.00011630812077103327
26,166.15,0.00011093598192805927
27,170.02,0.00010592643723895822
28,173.18,0.00010183603625396355
29,176.80999999999997,9.713749933603937e-05
30,180.10000000000002,9.287905059653222e-05
31,181.970086,9.045858947916751e-05
32,182.18,9.054610441217283e-05
33,185.99999999999997,9.213897053916507e-05
34,191.20999999999998,9.431175117086128e-05
35,193.87,9.542164276297107e-05
36,197.93,9.711562329955969e-05
37,202.07,9.884350603834705e-05
38,204.88,0.00010001686288307959
39,208.929613,0.00010170730187582873
40,210.14000000000001,0.00010477053004441937
41,216.03,0.00011968083465866741
42,220.04,0.0001298325958482319
43,223.1,0.0001375792228890467
44,227.25,0.00014808718672832167
45,229.88000000000002,0.00015477647286359718
46,234.16,0.00016568174160617465
47,239.88329199999998,0.00018023478451026446
48,240.16,0.00017966165051675934
49,245.76000000000002,0.00016802158092026553
50,252.06,0.00015495861123671008
51,256.75,0.00014517126218339656
52,259.71999999999997,0.00013906045917543478
53,263.94,0.00013032784990486262
54,268.84999999999997,0.00012015451842132977
55,273.85,0.00010979568737088878
56,275.42287,0.00010653849707285281
57,278.94,0.00011441075702955486
58,284.12,0.00012600980818689868
59,290.07,0.00013930816241222602
60,296.15,0.00015295117642045961
61,300.96000000000004,0.00016372725148799329
62,307.97,0.0001794720785354798
63,316.227766,0.00019803976222038344
64,318.06,0.00019509661899847776
65,327.72,0.00017958731582589377
66,337.68,0.00016359955380322968
67,347.94,0.00014714096693048528
68,356.87000000000006,0.00013284892722642986
69,363.078055,0.00012293530663586166
70,366.02000000000004,0.0001267741484912967
71,375.40999999999997,0.000138995517624858
72,385.03999999999996,0.00015147709167557115
73,394.92,0.00016449790843165073
74,405.05,0.00017777937189309662
75,413.53000000000003,0.00018890366629912436
76,416.86938299999997,0.00019325513052439458
77,422.19,0.00019748112689946007
78,430.04,0.00020376904386564226
79,441.07,0.00021266271472258354
80,451.34000000000003,0.0002208738263980856
81,459.73,0.00022761936457213255
82,470.44,0.0002362156481947836
83,478.630092,0.00024285533264778295
84,480.29,0.00024127325948455338
85,490.35,0.00023153718633511428
86,499.46999999999997,0.00022293628668870435
87,506.42,0.00021633393376737213
88,512.28,0.00021233973237614817
89,519.41,0.00020572944542232108
90,530.28,0.00019548156912665477
91,540.14,0.00018587724267998777
92,549.5408739999999,0.00017812394630719098
93,550.18,0.00017802821028718117
94,560.41,0.00017645334782282347
95,569.52,0.0001750889009068607
96,580.11,0.000171948872373376
97,589.53,0.00017143528356455397
98,600.49,0.00016887871212668875
99,610.25,0.00016742101091924677
100,620.16,0.00016832254718300192
101,630.24,0.0001673174372474471
102,630.957344,0.00016718319799573022
103,640.4799999999999,0.0001726830250625944
104,649.39,0.0001804170527971178
105,658.43,0.00018689217079039403
106,664.52,0.00019216699291197062
107,675.3199999999999,0.0001987452944083626
108,684.71,0.00020372303309828122
109,694.24,0.0002184558420668567
110,705.52,0.00022304885451864386
111,715.33,0.00023784691404453326
112,724.43596,0.00024564512988559925
113,725.28,0.0002462082416189964
114,735.37,0.00025283207626271916
115,745.6,0.0002652875998905966
116,754.24,0.0002746048857698597
117,764.73,0.00028371750179688167
118,775.37,0.0002976169245926409
119,784.34,0.0003102965373631258
120,795.26,0.0003210196181271945
121,804.46,0.0003318778799430765
122,815.66,0.00034251719867545453
123,825.1,0.00036162580732131605
124,831.763771,0.0003482806703675417
125,834.65,0.000340208039328559
126,844.3199999999999,0.00037279184708775056
127,854.1,0.0003768935566932203
128,865.9799999999999,0.0003880556560912757
129,876.01,0.0004019268335291961
130,884.11,0.00042150905130059743
131,894.35,0.0004345712777177764
132,904.7099999999999,0.0004356528606945318
133,915.1800000000001,0.0005883209455175653
134,925.78,0.0032021646416134733
135,934.34,0.007115207476196583
136,945.1600000000001,0.014040687675985049
137,953.9100000000001,0.020364583050120823
138,954.992586,0.02069481575071236
139,964.9499999999999,0.0237367965409089
140,973.88,0.004027024957804296
141,985.1600000000001,0.021609227115987957
142,994.28,0.02314362218005134
143,1005.79,0.03393226154270151
144,1015.1,0.032934780253932885
145,1024.49,0.013965562079761304
146,1033.97,0.0238395261595114
147,1045.94,0.04667773593109459
148,1055.6200000000001,0.04678421279733731
149,1065.3899999999999,0.0377898119175017
150,1075.24,0.04572055415226314
151,1085.19,0.03684692778027089
152,1095.23,0.04943149366220032
153,1096.4782,0.04929316223881514
154,1105.37,0.04830610099688026
155,1115.6000000000001,0.04720700528235185
156,1125.92,0.04325944532400062
157,1133.72,0.05543744419268864
158,1144.21,0.05103419844044983
159,1154.8,0.05505109575063011
160,1165.49,0.057769396123229455
161,1176.27,0.04102038225200597
162,1184.42,0.05736789683916077
163,1195.38,0.039809074480291626
164,1203.67,0.028997381354833124
165,1214.81,0.01858253050831832
166,1226.05,0.0400760127242226
167,1234.55,0.06230247302984416
168,1245.97,0.06973396675810277
169,1254.6,0.06752041204486914
170,1258.92541,0.06417654321180201
171,1266.21,0.05854710646062134
172,1274.99,0.07680001469003372
173,1283.83,0.08134833406907763
174,1295.7099999999998,0.06537982169611853
175,1304.69,0.06522982375763599
176,1313.7299999999998,0.08247481696878495
177,1325.89,0.07968235996077294
178,1335.08,0.07151727604600071
179,1344.33,0.08576604328085999
180,1353.65,0.08400894185695605
181,1366.1799999999998,0.07591933193833841
182,1375.6499999999999,0.08060031338851328
183,1385.18,0.08247597598831966
184,1394.78,0.0730109699293628
185,1404.4499999999998,0.07680300521164274
186,1414.1899999999998,0.07876766183515943
187,1423.99,0.08153191960830765
188,1433.8600000000001,0.08172690872269264
189,1440.48,0.08676044556537031
190,1445.43977,0.0881124023582517
191,1447.13,0.0885731277781502
192,1453.8100000000002,0.08676105520078158
193,1463.8799999999999,0.08097715713879028
194,1474.03,0.08135246036329755
195,1484.25,0.08343482471349108
196,1494.54,0.08557378018937085
197,1504.9,0.08191457679093689
198,1511.8400000000001,0.07335384839468866
199,1515.33,0.07894971451818919
200,1525.83,0.07697876337112775
201,1536.41,0.06783414351056488
202,1543.4999999999998,0.07557619752650148
203,1554.2,0.0718473095956865
204,1564.97,0.07335412279055775
205,1575.82,0.07877032727192759
206,1586.74,0.08324312287898368
207,1594.07,0.08577061075441603
208,1605.12,0.08459685845203233
209,1616.24,0.08537539727533486
210,1623.6999999999998,0.08135466724132741
211,1634.96,0.08715946831600246
212,1646.29,0.08898641051636377
213,1653.89,0.08267411273372882
214,1659.58691,0.08683669360795086
215,1665.36,0.0910555223285227
216,1673.0400000000002,0.08173140425411564
217,1676.9,0.09211275756567666
218,1684.64,0.09666945653756327
219,1696.3200000000002,0.09126768821606919
220,1704.15,0.08817908775739634
221,1715.96,0.08441013470287193
222,1723.88,0.08460494481363964
223,1735.83,0.09064765820046718
224,1743.8400000000001,0.08899634888067542
225,1755.93,0.0955736987088549
226,1764.03,0.08777694995850369
227,1776.26,0.09086146622803513
228,1784.46,0.09297958922150676
229,1796.8300000000002,0.09961928193239016
230,1805.1200000000001,0.09939244549530231
231,1813.46,0.09255278493012588
232,1826.03,0.09492884112865493
233,1834.45,0.09170900995853676
234,1842.92,0.08481380466032999
235,1855.7,0.08579407552088697
236,1864.26,0.08880880079212075
237,1872.8700000000001,0.09625372193526595
238,1885.8500000000001,0.08942293628346858
239,1894.5500000000002,0.08639637799605432
240,1903.3,0.09171643558055147
241,1905.46072,0.0912742561108157
242,1916.4900000000002,0.0890142097282864
243,1925.3400000000001,0.08778975002251836
244,1934.22,0.09024735577537485
245,1943.1499999999999,0.09514829395927218
246,1956.6200000000001,0.08983435488167947
247,1965.6499999999999,0.09848495792765853
248,1974.73,0.10147616340467844
249,1983.8400000000001,0.09646106434032287
250,1993.0,0.09427208770700815
251,2006.81,0.09713189716049328
252,2016.0800000000002,0.09448360387546846
253,2025.3799999999999,0.09892690604906816
254,2034.7299999999998,0.0946972006537087
255,2044.1200000000001,0.09870204920318194
256,2053.56,0.09491577018369603
257,2063.04,0.09578885510904281
258,2072.56,0.10263455397922228
259,2077.34,0.09869690038672835
260,2086.93,0.10239607866036503
261,2096.56,0.09733985087883439
262,2106.2400000000002,0.0984628055283446
263,2115.96,0.09982964412268751
264,2125.7200000000003,0.10145340666186309
265,2135.54,0.09490322011828771
266,2145.39,0.09800594903333684
267,2155.3,0.10167712886563501
268,2165.24,0.09868395415655769
269,2175.24,0.0982234603647294
270,2185.28,0.09754859051773379
271,2187.7616199999998,0.09873690837264129
272,2195.37,0.10238223313406168
273,2205.5,0.09982131575911556
274,2215.68,0.09533689441884395
275,2225.9100000000003,0.09295561911324682
276,2236.1800000000003,0.0998244586353893
277,2246.5,0.09577828419220628
278,2256.87,0.09231371578369776
279,2267.29,0.09446758340986375
280,2272.52,0.09733605463681654
281,2283.01,0.10028841071152683
282,2293.54,0.09510337161397671
283,2304.13,0.095950909758036
284,2314.77,0.09202880393676979
285,2325.45,0.07394181294324317
286,2336.18,0.08623372798439106
287,2346.97,0.08327678026714835
288,2352.38,0.09065873321892935
289,2363.23,0.08343195274329604
290,2374.14,0.08653007950927213
291,2385.1,0.08017748230992273
292,2396.11,0.08567885114524783
293,2407.17,0.08255517601524742
294,2412.72,0.08465277586411701
295,2423.86,0.09045892038959581
296,2435.04,0.08716232974281421
297,2446.28,0.092288706337642
298,2457.58,0.0911987501740792
299,2463.24,0.09076945329923271
300,2474.6099999999997,0.0876602755842142
301,2486.0299999999997,0.0896687539038702
302,2497.51,0.0852116894651356
303,2503.2700000000004,0.09470450465963812
304,2511.88643,0.08715294157708775
305,2514.8199999999997,0.0845814275750203
306,2520.62,0.08633077664798233
307,2526.4300000000003,0.08319859525382876
308,2532.25,0.08453198339255961
309,2543.94,0.08372612733444341
310,2555.6800000000003,0.09008638894074929
311,2567.4799999999996,0.08780072774436168
312,2573.4,0.0931886512119367
313,2585.2799999999997,0.09229937627862443
314,2597.2099999999996,0.09120871900973425
315,2603.2,0.08809726920750019
316,2615.21,0.08705585820168533
317,2627.28,0.091325834393177
318,2633.34,0.09494995132113386
319,2645.49,0.10334459377570086
320,2657.7099999999996,0.10619102296045878
321,2663.83,0.09639316708572214
322,2676.13,0.10089226253355539
323,2682.3,0.10157197432324085
324,2694.68,0.09651618603414945
325,2707.12,0.09963328494236454
326,2713.36,0.09448091346224091
327,2725.88,0.09400801863353134
328,2732.1600000000003,0.09909787528494539
329,2744.78,0.08628557578507999
330,2757.4500000000003,0.0886596239496367
331,2763.8,0.09260367733124165
332,2776.56,0.0969219712917581
333,2782.96,0.09106816233778516
334,2795.7999999999997,0.07400668256137695
335,2802.25,0.07927643127182608
336,2815.18,0.09635128729137762
337,2828.1800000000003,0.10178046004112008
338,2834.7,0.09853061548176015
339,2847.7799999999997,0.09558607449457794
340,2854.35,0.0914814075996401
341,2867.52,0.10164692240841765
342,2874.1299999999997,0.10256341364501746
343,2884.0315,0.10217920271680808
344,2887.4,0.10204864791036333
345,2894.06,0.10225704154365263
346,2907.4100000000003,0.11129822878155236
347,2927.5699999999997,0.10720090950934703
348,2947.86,0.10565959011286656
349,2968.29,0.10779837058255132
350,2988.8700000000003,0.1084720509088417
351,3009.5899999999997,0.11015873110129731
352,3030.4500000000003,0.11058921115991818
353,3051.45,0.1110203910847043
354,3072.61,0.11197157085653638
355,3086.79,0.11295055730098719
356,3108.18,0.11365233685294789
357,3129.73,0.11227711625195458
358,3151.4199999999996,0.11297189551712651
359,3173.2700000000004,0.11392967462934443
360,3187.92,0.10850616062449284
361,3210.0099999999998,0.11274913950727973
362,3232.27,0.107603118227553
363,3247.1800000000003,0.11549930397415115
364,3269.69,0.12029058245543377
365,3292.3599999999997,0.11964406078376237
366,3307.55,0.119311646262691
367,3311.31121,0.11936452621570703
368,3322.82,0.11952613235178379
369,3330.48,0.12227619237047932
370,3338.16,0.11674835202368838
371,3345.8500000000004,0.12081781149415426
372,3353.57,0.11561567041639045
373,3361.2999999999997,0.11773372915588345
374,3369.05,0.11689308752989
375,3376.81,0.11008134572115334
376,3384.6,0.11312920336418704
377,3392.3999999999996,0.1220245608244775
378,3400.22,0.12744031791928154
379,3408.06,0.11836487464859914
380,3415.91,0.12025383119517352
381,3423.79,0.12734298719351828
382,3431.68,0.12643354300911977
383,3439.59,0.12553029845923483
384,3447.52,0.11314945354386349
385,3455.47,0.11926650826300571
386,3463.4300000000003,0.1125726627994047
387,3471.42,0.12086321678757404
388,3479.4199999999996,0.11173897059300017
389,3487.44,0.11805112403293985
390,3495.4800000000005,0.1172033771073931
391,3503.54,0.12297392981635992
392,3511.62,0.12069568215984032
393,3519.7099999999996,0.12122353432057748
394,3527.8199999999997,0.1146754861158282
395,3535.96,0.12227153736284929
396,3544.1099999999997,0.12711838842712714
397,3552.2799999999997,0.12854893912591858
398,3560.47,0.12646508945922358
399,3568.6800000000003,0.11772273942704214
400,3576.9,0.11422308921211748
401,3585.1499999999996,0.10880683844896316
402,3593.4100000000003,0.11442448750306564
403,3601.7,0.12686733600893846
404,3609.33,0.049774016575863625
405,3612.07,0.08504397650422207
406,3614.8,0.08942574661532374
407,3617.5299999999997,0.12192354672642541
408,3620.27,0.10555629665478385
409,3623.0,0.12726324676588552
410,3625.7400000000002,0.12830439669424396
411,3628.47,0.12837404680534564
412,3631.2100000000005,0.10809049673370408
413,3633.94,0.11678444684480573
414,3636.67,0.14387989695590742
415,3639.4100000000003,0.13858124688426585
416,3642.14,0.1399771969953675
417,3644.8799999999997,0.13708114692372594
418,3647.61,0.12519339703482765
419,3650.35,0.11424934696318607
420,3653.0800000000004,0.14432369707428774
421,3655.81,0.1552884471853894
422,3658.5499999999997,0.13808779711374783
423,3661.28,0.1385047472248495
424,3664.02,0.12873419715320797
425,3666.7499999999995,0.09401478726430963
426,3669.48,0.1337411973754113
427,3672.22,0.14489964730376975
428,3674.9500000000003,0.1219432974148714
429,3677.69,0.13693474734322986
430,3680.4199999999996,0.12622749745433154
431,3683.16,0.13223354738268997
432,3685.89,0.14612159749379164
433,3688.6200000000003,0.12883844760489327
434,3691.36,0.13459449753325176
435,3694.0899999999997,0.1238802476443534
436,3696.83,0.13085849757271184
437,3699.56,0.10724244768381352
438,3702.3,0.13239979761217194
439,3705.03,0.12749074772327362
440,3707.7599999999998,0.1367332978343753
441,3710.5,0.13277484776273374
442,3713.23,0.1279212978738354
443,3715.9700000000003,0.12457384780219385
444,3718.7,0.1300736979132955
445,3721.4399999999996,0.18055544784165395
446,3724.17,0.2682297979527556
447,3726.9,0.34275274806385725
448,3729.6400000000003,0.31773269799221576
449,3732.37,0.2816943481033174
450,3735.1099999999997,0.15920969803167587
451,3737.84,0.13454524814277752
452,3740.58,0.14319689807113598
453,3743.3100000000004,0.14885644818223762
454,3746.04,0.1299205982933393
455,3748.7799999999997,0.12931604822169773
456,3751.51,0.1429610983327994
457,3754.25,0.13839844826115785
458,3756.9799999999996,0.13440599837225953
459,3759.72,0.15859114830061796
460,3762.45,0.15268219841171962
461,3765.1800000000003,0.13723224852282132
462,3767.92,0.14759899845117974
463,3770.6499999999996,0.1586471485622814
464,3773.39,0.15664669849063986
465,3776.12,0.1698613486017415
466,3778.86,0.18192919853009998
467,3781.59,0.18508214864120162
468,3784.3199999999997,0.1877072987523033
469,3787.06,0.18767194868066173
470,3789.79,0.1770689987917634
471,3792.53,0.16209034872012185
472,3795.2599999999998,0.14339069883122352
473,3798.0000000000005,0.13977244875958195
474,3800.73,0.16030589887068364
475,3801.8939600000003,0.15796120169241115
476,3803.46,0.1548065549447528
477,3806.2000000000003,0.17172151530613405
478,3808.93,0.21162857581218175
479,3811.6699999999996,0.20296193617356298
480,3814.4,0.1989139966796107
481,3817.13,0.17584665718565842
482,3819.8700000000003,0.17390171754703965
483,3822.6,0.17818657805308738
484,3825.3399999999997,0.1744362384144686
485,3828.07,0.16120839892051633
486,3830.81,0.14086915928189755
487,3833.5399999999995,0.13816131978794527
488,3836.27,0.126898480293993
489,3839.0099999999998,0.1448481406553742
490,3841.7400000000002,0.17225610116142195
491,3844.48,0.18760856152280317
492,3847.2099999999996,0.1800817220288509
493,3849.95,0.1918926823902321
494,3852.68,0.18927524289627984
495,3855.4100000000003,0.18294970340232752
496,3858.15,0.19101796376370878
497,3860.8799999999997,0.1861228242697565
498,3863.62,0.19985038463113775
499,3866.35,0.20684334513718544
500,3869.09,0.22205670549856668
501,3871.82,0.19467726600461438
502,3874.5499999999997,0.1730126265106621
503,3877.29,0.17186628687204333
504,3880.02,0.16129104737809105
505,3882.76,0.18378190773947228
506,3885.49,0.17208866824552
507,3888.2299999999996,0.16539422860690123
508,3890.96,0.18739978911294894
509,3893.69,0.18649054961899666
510,3896.4300000000003,0.1851428099803779
511,3899.16,0.18814987048642562
512,3901.8999999999996,0.20228013084780685
513,3904.63,0.19373259135385457
514,3907.37,0.2060921517152358
515,3910.1000000000004,0.2109741122212835
516,3912.83,0.19891287272733124
517,3915.5699999999997,0.19164893308871248
518,3918.3,0.20525939359476017
519,3921.04,0.1993981539561414
520,3923.77,0.20237051446218912
521,3926.5099999999998,0.18186457482357038
522,3929.24,0.14905483532961805
523,3931.9700000000003,0.14543039583566578
524,3934.71,0.13306285619704702
525,3937.44,0.15536701670309475
526,3940.18,0.18157977706447595
527,3942.91,0.18403823757052368
528,3945.65,0.1773992979319049
529,3948.38,0.19931465843795262
530,3951.1099999999997,0.19956501894400036
531,3953.85,0.1850724793053816
532,3956.58,0.18710043981142932
533,3959.32,0.18656520017281053
534,3962.0499999999997,0.16829606067885824
535,3964.7799999999997,0.143096821184906
536,3967.52,0.1420131815462872
537,3970.25,0.15115164205233494
538,3972.9900000000002,0.14971380241371615
539,3975.72,0.1806909629197639
540,3978.4599999999996,0.20808412328114512
541,3981.19,0.19259958378719283
542,3983.92,0.20826544429324054
543,3986.6600000000003,0.20899390465462175
544,3989.39,0.22281276516066947
545,3992.1299999999997,0.23104752552205068
546,3994.86,0.2127507860280984
547,3997.6,0.22242294638947965
548,4000.3300000000004,0.23063110689552738
549,4003.06,0.2233959674015751
550,4005.7999999999997,0.2318669277629563
551,4008.53,0.23990838826900404
552,4011.27,0.23766474863038528
553,4014.0,0.246900709136433
554,4016.74,0.25085106949781427
555,4019.47,0.24871973000386194
556,4022.2000000000003,0.25565729050990965
557,4024.94,0.2352066508712909
558,4027.67,0.23065881137733862
559,4030.41,0.23633127173871984
560,4033.14,0.21770813224476757
561,4035.88,0.2333659926061488
562,4038.61,0.2454210531121965
563,4041.34,0.2506017136182442
