,lambda (Angstroms),Total Flux (erg/s/cm^2/Angstrom)
0,102.00000000000001,0.010632382102662577
1,103.9,0.01244539413137005
2,104.712855,0.013221034081794883
3,106.08,0.012132541114597611
4,108.05,0.010564067332492266
5,110.06,0.008963746518053567
6,113.93,0.0058825317638547875
7,117.92999999999999,0.00269781383437558
8,120.22644299999999,0.0008694363298097084
9,120.95,0.0008427812906252498
10,124.92,0.0006965277296227629
11,126.95,0.0006217433602776928
12,128.12,0.0005786411729521991
13,131.10999999999999,0.00046849150554816054
14,132.01,0.0004353383081316268
15,133.85,0.0003675548963476026
16,136.97,0.00025262122915295276
17,138.038426,0.00021326232951072733
18,140.16,0.00021050674804910937
19,143.09,0.00020674834945493657
20,147.10000000000002,0.00020165502864100045
21,150.88,0.00019679285034182877
22,155.1,0.00019137354170571644
23,158.489319,0.0001870394946363258
24,159.07999999999998,0.00018587186291025993
25,162.04,0.00018003133312424657
26,165.80999999999997,0.00017261931208395262
27,170.07000000000002,0.00016424013813921707
28,172.82999999999998,0.00015884508744685332
29,176.86,0.00015096952573481482
30,180.14,0.00014456604719896224
31,181.81,0.0001413398907919885
32,181.970086,0.00014102911935206107
33,186.05,0.00014388988228452882
34,190.82,0.00014731517146267066
35,193.92,0.0001495616364673331
36,197.98,0.00015252802784118132
37,202.12,0.00015559653899579502
38,204.93999999999997,0.00015774825376777826
39,208.929613,0.00016066605751097996
40,210.19,0.0001657010438252087
41,216.07999999999998,0.00018969506216816168
42,220.1,0.0002060519258996848
43,223.16,0.00021847297917293375
44,226.79000000000002,0.0002334288561245331
45,229.94,0.00024978510034699507
46,234.21999999999997,0.000274427869265134
47,239.88329199999998,0.00030316499056191225
48,240.23,0.00030245398756587494
49,245.82,0.00028585803630469737
50,252.13,0.00026998492357517497
51,256.81,0.00025196152903093325
52,259.78999999999996,0.00024844631934250604
53,264.01,0.0002387265843474846
54,268.92,0.0002256746050286327
55,273.92,0.00021232301427623776
56,275.42287,0.0002083184496942966
57,279.01,0.00022262946353274673
58,284.2,0.00024357405547920048
59,290.15,0.0002654134647434393
60,296.21999999999997,0.0002908301441104864
61,301.03999999999996,0.00030895326657328156
62,308.05,0.0003385715384123263
63,316.227766,0.0003731513944229644
64,318.14000000000004,0.0003698544895437838
65,327.81,0.0003521826035776739
66,337.77000000000004,0.00033323784020410015
67,348.03000000000003,0.00031339987227108166
68,356.96,0.0002968947055516027
69,363.078055,0.00028622306689602783
70,366.12,0.00029454772136902575
71,374.64,0.00031662294781188553
72,385.14,0.00033976147687879015
73,395.02000000000004,0.0003690001061341252
74,405.15000000000003,0.00039603468370057713
75,413.64,0.00041749348434610273
76,416.86938299999997,0.00042510148315403083
77,422.29999999999995,0.00043362846219922787
78,430.15,0.0004463596343604605
79,441.17999999999995,0.00046659621511694406
80,451.46,0.00048315802592171754
81,459.84999999999997,0.0004962079844481814
82,469.47999999999996,0.0005122315746281394
83,478.630092,0.0005276742504378608
84,480.42,0.000525819964513361
85,490.48,0.0005125615430144634
86,499.59999999999997,0.0005055186917152641
87,506.55,0.0005067700833238785
88,512.41,0.0005879060222917176
89,519.54,0.0005872483813089008
90,530.42,0.000582538711337926
91,540.28,0.0005638917260517302
92,549.5408739999999,0.0006121372216033895
93,550.33,0.0006170707305560741
94,560.5600000000001,0.0006675836445482585
95,569.67,0.0007108261305178384
96,580.26,0.0006980455928030031
97,589.68,0.0007772674731359824
98,600.65,0.0007934224252859593
99,610.41,0.0008661796123400866
100,620.3299999999999,0.0009665947319688717
101,630.4,0.0010261221133863983
102,630.957344,0.0010272878408055857
103,640.65,0.0010590061431528395
104,649.56,0.0011782852043081798
105,658.6,0.0012501075935162918
106,664.69,0.0013245580538345885
107,675.49,0.0013701314612956069
108,684.89,0.001384287797419086
109,694.4200000000001,0.0016942412615953365
110,705.6999999999999,0.0016627200649435114
111,715.5200000000001,0.0019638011224682524
112,724.43596,0.002052371270500582
113,725.47,0.002062341162068349
114,735.56,0.00215901696176181
115,745.8,0.002416418617744075
116,754.43,0.0025879512828931904
117,764.9300000000001,0.0027564632231093797
118,775.57,0.003016951162528451
119,784.55,0.0032622918256847732
120,795.46,0.0034421459064236898
121,804.67,0.0036238902825561758
122,815.8700000000001,0.0037924382187867777
123,825.31,0.004167206307895428
124,831.763771,0.0038083006087566078
125,834.87,0.003631747670743514
126,844.54,0.004491733528516163
127,854.3199999999999,0.004680712891392741
128,864.2099999999999,0.005051023759373247
129,874.22,0.005442033723830768
130,884.34,0.005944295193392216
131,894.5799999999999,0.006313101759430678
132,904.94,0.006416913421946153
133,915.42,0.010170018180938642
134,926.02,0.06793833503640814
135,934.59,0.15496199884314152
136,945.41,0.32876020070881884
137,954.16,0.5305890431602678
138,954.992586,0.539903518675066
139,965.2099999999999,0.6542170851168904
140,974.14,0.11334409826871619
141,985.4200000000001,0.7091120990920751
142,994.53,0.7340479883208695
143,1006.05,1.039108157246853
144,1015.36,0.9347307198945012
145,1024.75,0.2957268719096909
146,1034.24,0.6247844106343076
147,1043.81,1.3603521387264659
148,1055.89,1.4081665332252402
149,1065.6599999999999,1.1499302347362523
150,1075.52,1.3824839242857487
151,1085.47,1.0981716018737293
152,1095.52,1.4542682661711368
153,1096.4782,1.4533243023711617
154,1105.66,1.4442763194594759
155,1115.8899999999999,1.4016420640774137
156,1126.21,1.3293387712579727
157,1134.02,1.6354245225254305
158,1144.51,1.4915371589909405
159,1155.1,1.6092657538593629
160,1165.79,1.7124933071306978
161,1173.8700000000001,1.326297946086019
162,1184.73,1.669668428642305
163,1195.69,1.0038108696015033
164,1203.98,0.7528094212029406
165,1215.12,0.3497586872873811
166,1226.36,0.9433251117747341
167,1234.87,1.7124535718625788
168,1246.29,1.975188821475174
169,1254.9299999999998,1.8994222274868047
170,1258.92541,1.7312780984666258
171,1263.63,1.5332907047107767
172,1275.3200000000002,2.1164530505914185
173,1284.16,2.2470553121470105
174,1296.04,1.818097663649322
175,1305.03,1.7685219296430745
176,1314.07,2.211116197116214
177,1326.23,2.1409985569030923
178,1335.43,1.8863078291102693
179,1344.68,2.2835701027968334
180,1354.0,2.216240378554539
181,1366.53,1.9934637492888796
182,1376.0,2.1311790294847457
183,1385.5400000000002,2.1857913117517533
184,1395.15,2.0212065960899026
185,1404.82,2.0970668822033165
186,1414.55,2.063575170091994
187,1424.3600000000001,2.1311534603476905
188,1434.23,2.106765752378651
189,1440.85,2.2316059482494683
190,1445.43977,2.260226923503006
191,1447.5,2.2730741352114143
192,1454.1899999999998,2.221304301342068
193,1464.27,2.0826325516555197
194,1474.4199999999998,2.063558803707259
195,1484.63,2.1019170572489596
196,1494.9299999999998,2.150842313025602
197,1505.29,2.063561570292205
198,1512.24,1.8733357428793564
199,1515.72,2.0027238292970955
200,1526.23,1.930255090288601
201,1533.27,1.7243102651106945
202,1543.9,1.921378529082122
203,1554.6,1.8097697947918376
204,1565.38,1.818088062488168
205,1576.23,1.9213933319227858
206,1583.51,2.011914512704723
207,1594.48,2.068326785119263
208,1605.53,2.007324059520418
209,1616.66,2.0305783359081873
210,1624.13,1.9258035214083344
211,1635.3799999999999,2.0305768007760263
212,1646.72,2.0587960823786595
213,1654.32,1.8994192711070552
214,1659.58691,1.9835590927311726
215,1665.79,2.082655526819258
216,1673.48,1.8863369213887589
217,1677.34,2.063547621393736
218,1685.08,2.165781025030659
219,1696.76,2.0540501431804343
220,1704.59,1.970702563138717
221,1716.4099999999999,1.8776797066772737
222,1724.33,1.869037142956916
223,1736.28,1.97981031007077
224,1744.29,1.9392017626717717
225,1756.3899999999999,2.0683339569878916
226,1764.49,1.895061425910253
227,1776.72,1.9707246438016701
228,1784.92,2.002763130858875
229,1793.16,2.116495625170018
230,1805.59,2.1019428793311232
231,1813.93,1.9707363917771101
232,1826.5,2.002743671326997
233,1834.9299999999998,1.934721200094343
234,1843.4,1.8014567361156273
235,1856.18,1.793186053748686
236,1864.75,1.843435607904814
237,1873.35,1.993518167501395
238,1886.34,1.8562025232176265
239,1895.05,1.784980102762536
240,1903.79,1.8907116877478987
241,1905.46072,1.8825853301970301
242,1916.99,1.8265022956440675
243,1925.8400000000001,1.801457226866683
244,1934.73,1.8562001487388926
245,1943.66,1.9214140612606958
246,1957.1299999999999,1.8139499125113887
247,1966.16,1.9661968016571765
248,1975.24,2.016587679114956
249,1984.36,1.9170295472223295
250,1993.52,1.860445405979297
251,2002.72,1.9125812553858579
252,2016.6000000000001,1.8519030107948868
253,2025.9099999999999,1.9436778344878305
254,2035.2600000000002,1.851898648830368
255,2044.65,1.9082114538224992
256,2054.09,1.8264892471266228
257,2063.57,1.8519010310803397
258,2073.1,1.9481028033460492
259,2077.88,1.8733586859725015
260,2082.67,1.9302475662613523
261,2097.1,1.8349031931022952
262,2106.78,1.8604339303039812
263,2116.51,1.869019655817659
264,2126.28,1.899415371980931
265,2136.09,1.7808160787937963
266,2145.9500000000003,1.8264597739186543
267,2155.86,1.8819994573555041
268,2165.81,1.8264541314419476
269,2175.8,1.809738796177985
270,2185.85,1.784909446888413
271,2187.7616199999998,1.7992116688742041
272,2195.94,1.8604035242752273
273,2206.07,1.809741412256246
274,2216.25,1.740257309556026
275,2226.48,1.6811942161745672
276,2236.76,1.7931511321118698
277,2247.09,1.7164000573679337
278,2257.46,1.661944990079006
279,2262.66,1.692827959230171
280,2273.11,1.7401529068512613
281,2283.6,1.7723338619273608
282,2294.14,1.6963498263222216
283,2304.73,1.6806658000358434
284,2315.37,1.6197687830682266
285,2326.05,1.3195737735556188
286,2336.79,1.5360047752255244
287,2347.58,1.494033786214191
288,2352.9900000000002,1.5861447945041527
289,2363.85,1.483600818539085
290,2374.7599999999998,1.5215168518927786
291,2385.7200000000003,1.4296918945652335
292,2396.73,1.5177939465564492
293,2402.2599999999998,1.459489977211438
294,2413.35,1.486478044112672
295,2424.49,1.549268120332667
296,2435.6800000000003,1.4862632058714234
297,2446.92,1.5669633007289407
298,2452.56,1.534790351885204
299,2463.88,1.5311094616527394
300,2475.25,1.4824445807390358
301,2486.68,1.537927711007846
302,2492.41,1.4686517789378795
303,2503.91,1.5844469222529551
304,2511.88643,1.4974273515686314
305,2515.4700000000003,1.4583311503713867
306,2527.08,1.4316143129174899
307,2532.91,1.4447458923872385
308,2544.6000000000004,1.421543049162772
309,2556.35,1.4952532016103786
310,2562.2400000000002,1.4712937767522
311,2574.07,1.5405139234292373
312,2585.9500000000003,1.529759066499668
313,2597.88,1.5226252059634935
314,2603.87,1.4708657738921032
315,2615.8900000000003,1.4606369068640377
316,2627.9700000000003,1.497956035508045
317,2634.0200000000004,1.5222445991087277
318,2646.1800000000003,1.6160237219821656
319,2652.28,1.6233722819762422
320,2664.5200000000004,1.5254303990791105
321,2676.8199999999997,1.5752375118540518
322,2682.9900000000002,1.56794106679888
323,2695.38,1.5180631730819307
324,2707.82,1.5425682757583756
325,2714.06,1.4867048256539552
326,2726.5899999999997,1.4831839218385094
327,2732.87,1.5387814688488046
328,2745.49,1.3935655585414681
329,2758.16,1.4063306446275254
330,2764.52,1.4457021858672514
331,2777.2799999999997,1.496323265461418
332,2783.68,1.455491803815859
333,2796.5299999999997,1.2444648769181352
334,2802.98,1.3181224116659702
335,2815.92,1.4890714782763557
336,2822.4100000000003,1.516651010138906
337,2835.44,1.4650530702574007
338,2841.97,1.4349375992346662
339,2855.09,1.4151376528612702
340,2868.27,1.4884757021599473
341,2874.88,1.4781962253666432
342,2884.0315,1.4804355103889724
343,2888.15,1.48144355916983
344,2894.81,1.4711635493383377
345,2908.17,1.5439035296163048
346,2928.33,1.5016164998561117
347,2948.6299999999997,1.4807874698892505
348,2969.0699999999997,1.4908464397157213
349,2989.6499999999996,1.4872304093355238
350,3010.37,1.4972843787486585
351,3031.2400000000002,1.4902013479403633
352,3052.2500000000005,1.4831173169254
353,3073.4,1.4760932857037687
354,3087.59,1.4793352647564897
355,3108.99,1.4655472331658084
356,3130.54,1.451919201353697
357,3152.2400000000002,1.4516471693201556
358,3166.79,1.444833147841445
359,3188.74,1.3955681154388533
360,3210.85,1.4213030828000701
361,3233.1,1.3823720499546186
362,3248.03,1.4176820279149518
363,3270.54,1.4371549946856883
364,3293.2099999999996,1.430287961220233
365,3308.41,1.423581938781992
366,3311.31121,1.4216909231613082
367,3323.68,1.4136285854611421
368,3331.3500000000004,1.4168093690194286
369,3339.02,1.3560831525777153
370,3346.7200000000003,1.4101629352894238
371,3354.44,1.3653267174367476
372,3362.17,1.3465044993018784
373,3369.92,1.3341252806026245
374,3377.69,1.330986061338985
375,3385.48,1.3619168415109606
376,3393.28,1.4031866214007434
377,3401.1000000000004,1.4523964007261412
378,3408.9399999999996,1.3554331794871537
379,3416.7999999999997,1.377331957683781
380,3424.68,1.4125887353160234
381,3432.5699999999997,1.445419512666073
382,3440.48,1.3995082894517374
383,3448.4199999999996,1.3426090653908243
384,3456.3700000000003,1.3363308410477184
385,3464.33,1.2998896164224198
386,3472.3199999999997,1.3673243909505435
387,3480.32,1.3147591651964747
388,3488.35,1.3577479385958282
389,3496.39,1.339037711712989
390,3504.4500000000003,1.3389844842657646
391,3512.5299999999997,1.3235722562541552
392,3520.62,1.3574280279603532
393,3528.7400000000002,1.3022647988199731
394,3536.87,1.360402569397401
395,3545.03,1.3824143391282508
396,3553.2000000000003,1.388741108576908
397,3561.39,1.37911387746118
398,3569.6,1.3109166457810668
399,3577.8300000000004,1.2780344135365687
400,3586.08,1.243150180727685
401,3594.3399999999997,1.283770947636609
402,3602.63,1.3473087136989552
403,3610.94,1.3014994791969163
404,3616.7700000000004,1.3925793146786385
405,3619.48,1.302908238204448
406,3622.18,1.3707281620124496
407,3624.8799999999997,1.4365480858204513
408,3627.59,1.3676980093462605
409,3630.29,1.2281699331542622
410,3632.99,1.3078888569622642
411,3635.7,1.2394167804880731
412,3638.4,1.2182197042960752
413,3641.11,1.3849476278218842
414,3643.81,1.414479551629886
415,3646.51,1.324057475437888
416,3649.2200000000003,1.347416398963697
417,3651.92,1.3429303227716989
418,3654.62,1.3225982465797006
419,3657.33,1.2886301701055098
420,3660.03,1.2918770939135116
421,3662.73,1.3616450177215134
422,3665.4399999999996,1.2547759412473225
423,3668.14,1.2766268650553243
424,3670.85,1.4168557885811335
425,3673.5499999999997,1.3237837123891352
426,3676.25,1.250992636197137
427,3678.96,1.1868475597229462
428,3681.66,1.238335483530948
429,3684.3599999999997,1.2846864073389497
430,3687.07,1.315994330864759
431,3689.77,1.3212972546727606
432,3692.47,1.2429891784807625
433,3695.1800000000003,1.2992301020065717
434,3697.88,1.2505050258145733
435,3700.59,1.2924139493403826
436,3703.2900000000004,1.2399568731483843
437,3705.9900000000002,1.269379796956386
438,3708.7,1.2354127204821954
439,3711.4,1.358179644290197
440,3714.1000000000004,1.414805568098199
441,3716.81,1.463365491624008
442,3719.5099999999998,1.61793341543201
443,3722.21,2.1762213392400116
444,3724.92,3.342209262765821
445,3727.62,4.367926186573823
446,3730.33,4.507874110099632
447,3733.0299999999997,3.5411230339076334
448,3735.73,2.4048209577156356
449,3738.44,1.7405858812414448
450,3741.14,1.5573068050494465
451,3743.84,1.4754847288574482
452,3746.55,1.4237776523832575
453,3749.25,1.429134576191259
454,3751.9599999999996,1.3567684997170684
455,3754.6600000000003,1.41539542352507
456,3757.36,1.5176663473330718
457,3760.0699999999997,1.5623322708588812
458,3762.7699999999995,1.579749194666883
459,3765.4700000000003,1.6153381184748845
460,3768.18,1.4739100420006939
461,3770.8799999999997,1.3500659658086955
462,3773.5800000000004,1.3769468896166972
463,3776.29,1.5963508131425066
464,3778.99,1.7166857369505082
465,3781.7000000000003,1.8022356604763174
466,3784.4,1.8097565842843193
467,3787.1,1.8122475080923213
468,3789.81,1.7785494316181303
469,3792.51,1.6704433554261322
470,3795.21,1.605981279234134
471,3797.92,1.3788882027599432
472,3800.62,1.4820241265679448
473,3801.8939600000003,1.5289525304844163
474,3803.32,1.5814830587608029
475,3806.03,1.6726589982209206
476,3808.73,1.8388009379044326
477,3811.44,1.91780787736455
478,3814.14,1.8650278170480619
479,3816.84,1.9286847567315737
480,3819.5499999999997,1.9286786961916913
481,3822.25,1.8784946358752033
482,3824.95,1.770064575558715
483,3827.66,1.6216595150188327
484,3830.3599999999997,1.6152264547023445
485,3833.07,1.5132773941624622
486,3835.77,1.4436243338459742
487,3838.47,1.4563902735294858
488,3841.1800000000003,1.5124132129896035
489,3843.88,1.7095431526731153
490,3846.58,1.7633030923566273
491,3849.2900000000004,1.9038010318167446
492,3851.9900000000002,1.8621079715002566
493,3854.69,1.9387989111837687
494,3857.4,2.0462518506438863
495,3860.1000000000004,2.084437790327398
496,3862.81,2.1129317297875154
497,3865.5099999999998,2.2085516694710274
498,3868.21,2.2746436091545394
499,3870.92,2.357055548614657
500,3873.62,2.2206124882981686
501,3876.3199999999997,2.1185644279816804
502,3879.03,1.9292183674417984
503,3881.73,1.8305773071253102
504,3884.43,1.725392246808822
505,3887.14,1.6046771862689395
506,3889.84,1.5686081259524516
507,3892.55,1.5630860654125691
508,3895.25,1.603704005096081
509,3897.95,1.630855944779593
510,3900.6600000000003,1.7780058842397104
511,3903.36,1.9398208239232224
512,3906.06,1.9444757636067342
513,3908.7699999999995,2.0112057030668518
514,3911.4700000000003,2.1214816427503638
515,3914.17,2.1440375824338753
516,3916.8799999999997,2.047603521893993
517,3919.58,2.049121461577505
518,3922.29,1.9397084010376224
519,3924.99,2.0011483407211346
520,3927.6899999999996,2.001747280404646
521,3930.4,1.9181852198647638
522,3933.1,1.8224101595482758
523,3935.7999999999997,1.7937500992317879
524,3938.51,1.8754070386919053
525,3941.21,2.035815978375417
526,3943.92,2.0301309178355345
527,3946.6200000000003,2.0958438575190463
528,3949.32,2.0956847972025585
529,3952.03,2.090540736662676
530,3954.73,2.0605296763461878
531,3957.4300000000003,2.0773526160296996
532,3960.14,1.9507415554898173
533,3962.84,1.8697844951733291
534,3965.54,1.6796374348568412
535,3968.25,1.6547003743169586
536,3970.95,1.6020283140004707
537,3973.66,1.644693253460588
538,3976.3599999999997,1.7095931931441
539,3979.06,1.746480132827612
540,3981.77,1.9322440722877294
541,3984.47,2.033867011971241
542,3987.17,2.0601539516547533
543,3989.88,2.110929891114871
544,3992.58,2.2177988307983827
545,3995.2799999999997,2.2650697704818947
546,3997.9900000000002,2.272471709942012
547,4000.69,2.2666896496255244
548,4003.3999999999996,2.1917255890856415
549,4006.1000000000004,2.2526245287691538
550,4008.8,2.2337544684526653
551,4011.5099999999998,2.219578407912783
552,4014.2099999999996,2.195894347596295
553,4016.9100000000003,2.274263287279807
554,4019.62,2.2036252267399243
555,4022.3199999999997,2.1287801664234363
556,4025.03,2.2790111058835536
557,4027.73,2.2165510455670656
558,4030.43,2.1967619852505775
559,4033.14,2.217845924710695
560,4035.84,2.195730864394207
561,4038.54,2.1361368040777187
562,4041.25,2.2584627435378364
563,4043.95,2.2038976832213484
564,4046.65,2.1772936229048603
565,4049.36,2.127153562364978
566,4052.06,2.0775105020484896
567,4054.77,2.108005441508607
568,4057.4700000000003,2.063446381192119
569,4060.17,2.146357320875631
570,4062.8799999999997,2.0659312603357485
571,4065.58,2.0678282000192603
572,4068.28,2.1147741397027726
573,4070.99,2.0725300791628896
574,4073.6899999999996,2.059987018846402
575,4076.39,2.0684269585299138
576,4079.1,2.0854018979900313
577,4081.7999999999997,2.042518837673543
578,4084.51,2.0859397771336603
579,4087.21,2.0255347168171727
580,4089.91,1.9357086565006845
581,4092.6200000000003,1.949439595960802
582,4095.32,1.850095535644314
583,4098.02,1.7828754753278258
