,lambda (Angstroms),Total Flux (erg/s/cm^2/Angstrom)
0,102.03,3.6787791915495913
1,103.92999999999999,3.66829435189855
2,104.712855,3.6639742954851298
3,106.1,3.623765064378646
4,108.08,3.5663707289368594
5,110.09,3.508106805159574
6,113.95,3.396216871274364
7,117.96,3.2799789039868594
8,120.22644299999999,3.2142821264791412
9,120.97999999999999,3.195968972562165
10,124.94999999999999,3.099488098488296
11,126.97999999999999,3.050154034852069
12,127.86,3.028767897022334
13,131.14000000000001,2.9490557230159613
14,132.05,2.926940859533031
15,133.88,2.882467388738107
16,137.0,2.8066443385287774
17,138.038426,2.7814081098082535
18,139.87,2.749592045207599
19,143.13,2.6929719927372746
20,147.14,2.6233397420681794
21,150.91,2.557855746594691
22,155.14,2.4843821415546232
23,158.489319,2.426206772809355
24,159.12,2.4179252484512954
25,162.08,2.3790573252504625
26,165.86,2.3294240684800744
27,170.10999999999999,2.27361755545665
28,172.87,2.237377869076684
29,176.9,2.1844613775602117
30,180.19,2.1412614318389482
31,181.86,2.1193349724307087
32,181.970086,2.1178894965334543
33,186.09,2.0766216351148477
34,190.87,2.0287442695973996
35,193.97,1.9976949148597247
36,198.03,1.9570286720336076
37,202.18,1.9154627564460749
38,204.99,1.8873194432174074
39,208.929613,1.847854962951163
40,209.76000000000002,1.84160152943574
41,216.14000000000001,1.7935743927735828
42,220.16,1.7633098294228189
43,223.22000000000003,1.740269121639401
44,226.85,1.7129446624316225
45,230.0,1.6893648400075163
46,233.73999999999998,1.6614921560055618
47,239.73000000000002,1.6165579503863887
48,239.88329199999998,1.615402717177002
49,245.88,1.5805722360521635
50,252.19,1.5440247111957501
51,256.88,1.5166725468918547
52,259.85,1.499565730595571
53,264.08,1.4750733731251073
54,268.99,1.4465916089400057
55,273.99,1.4175804041853195
56,275.42287,1.4092679266102985
57,279.08,1.3929884200570468
58,284.27,1.3698853807014535
59,290.21999999999997,1.3433450052725937
60,296.3,1.316296692686465
61,301.11,1.2948716708675045
62,308.13,1.2636294313749676
63,316.227766,1.2275892799978558
64,318.22,1.2209688285406244
65,327.89,1.188812735993323
66,337.85,1.155681104169008
67,348.12,1.121512515186507
68,357.05,1.0918052092426185
69,363.078055,1.071755381336236
70,366.21,1.0639550147032903
71,374.74,1.0426972423161598
72,385.24,1.0164926195465385
73,395.12,0.9919062849175995
74,405.26,0.9666422797457939
75,413.74,0.9455009348861377
76,416.86938299999997,0.9376972794633791
77,422.41,0.9271436896063752
78,430.26,0.9121953009929934
79,441.3,0.8911821170182496
80,450.53999999999996,0.873580981419823
81,459.97,0.8556211854205628
82,469.6,0.8372810131572674
83,478.630092,0.8200915080338393
84,480.54,0.8172950431576329
85,489.46999999999997,0.8041961300989425
86,499.72,0.7891928385702102
87,505.51,0.7807045945993458
88,512.54,0.7704785057020789
89,519.67,0.7600335943752631
90,530.55,0.7440931194403749
91,540.42,0.7296115797439273
92,549.5408739999999,0.7162764638414529
93,550.47,0.7152405119121831
94,559.41,0.7052869388301655
95,569.81,0.6936989708264756
96,580.4,0.6818457080179107
97,589.83,0.6713558635443726
98,599.4200000000001,0.6606288480246241
99,610.56,0.6481351313072102
100,620.48,0.6371956214421522
101,630.57,0.6259417902779956
102,630.957344,0.6255098358746867
103,639.34,0.618101403534948
104,649.73,0.6089480560611865
105,657.25,0.6023069888559232
106,664.86,0.5956160433809158
107,675.66,0.5860697120116545
108,685.06,0.5777145615050753
109,694.59,0.5694593692755325
110,704.26,0.5608322929597217
111,715.6999999999999,0.5508949063389487
112,724.43596,0.5432053321750991
113,725.6500000000001,0.5424136076782659
114,735.75,0.5358238036026988
115,744.27,0.5303417857686558
116,754.62,0.5236221077308221
117,765.12,0.5167240463156284
118,775.77,0.5099309415230749
119,784.75,0.5041042329984616
120,795.67,0.4970517421266604
121,804.88,0.49111324775676196
122,814.2,0.48508521724346626
123,825.52,0.4778434110320384
124,831.763771,0.4734825308705154
125,835.08,0.4717165100820186
126,844.75,0.4675288202892648
127,854.5400000000001,0.4628072535621645
128,864.4300000000001,0.45816628005644217
129,874.4399999999999,0.45345927961637333
130,884.5699999999999,0.44873178024195803
131,894.8100000000001,0.4438982675110584
132,905.17,0.43884579584581235
133,915.65,0.43510227524621986
134,924.1199999999999,0.4552684497969308
135,934.8199999999999,0.4846581414843697
136,945.65,0.5374557156595998
137,954.4,0.586828060030169
138,954.992586,0.5875193055104021
139,965.45,0.5998286958878345
140,974.38,0.43276060259148724
141,985.6700000000001,0.553384686027572
142,994.79,0.5630142771291747
143,1003.99,0.646716932187809
144,1015.62,0.6346194924412781
145,1025.02,0.4874413573924914
146,1034.5,0.5451265863007363
147,1044.07,0.7100982746606417
148,1056.16,0.6972677276670425
149,1065.9299999999998,0.6163611259195271
150,1075.8,0.665444179118301
151,1085.75,0.5900983962741064
152,1095.8,0.6736097683762016
153,1096.4782,0.6724351869442249
154,1105.94,0.6568721423339674
155,1116.1699999999998,0.6378489713187349
156,1123.91,0.6024637906092627
157,1134.31,0.6804293467619098
158,1144.8,0.6423332996504935
159,1155.39,0.6609632155790063
160,1166.0900000000001,0.6671242608514414
161,1174.1699999999998,0.5499587344777289
162,1185.03,0.6493006406140509
163,1196.0,0.5316988760942951
164,1204.29,0.46177834210443414
165,1215.43,0.4109941047525581
166,1223.86,0.5244607990185982
167,1235.18,0.6456693551385949
168,1243.74,0.678613011356543
169,1255.25,0.6546189272524054
170,1258.92541,0.6296270621072362
171,1263.95,0.5960286037959643
172,1275.65,0.6941889121051028
173,1284.49,0.7145675406053407
174,1296.3700000000001,0.6105206721192349
175,1305.3600000000001,0.6033050366234362
176,1314.41,0.6940904755292228
177,1323.52,0.6721473888365945
178,1335.77,0.6172607624935984
179,1345.0200000000002,0.6914990160713359
180,1354.35,0.674060535517854
181,1363.74,0.6229283293659574
182,1376.3500000000001,0.6406225494324732
183,1385.8899999999999,0.64160497928454
184,1395.5,0.5827171792717895
185,1405.17,0.5920369536606243
186,1414.92,0.6026050939182397
187,1424.7199999999998,0.6110204128438428
188,1434.6000000000001,0.6056450976382262
189,1441.22,0.6260832732798071
190,1445.43977,0.6295961923625685
191,1447.87,0.631825141448337
192,1454.56,0.6176387334499378
193,1464.64,0.582745563102574
194,1474.79,0.5815886908777979
195,1485.01,0.5871497167756097
196,1495.31,0.5919715833849502
197,1505.67,0.5689513055279374
198,1512.6200000000001,0.526883004842007
199,1516.11,0.5501880683824535
200,1526.62,0.5366640293595573
201,1533.66,0.4899488119740968
202,1544.2900000000002,0.5149612840184938
203,1555.0,0.49631009677441995
204,1565.78,0.5016781076529336
205,1576.6299999999999,0.5201788166540351
206,1583.91,0.5361335214031612
207,1594.8899999999999,0.5410320840604971
208,1605.9399999999998,0.5318233448404207
209,1613.3600000000001,0.5319170458347223
210,1624.54,0.5108004602708803
211,1635.8,0.5306666154185672
212,1643.3500000000001,0.5347271700691032
213,1654.74,0.5056337788730245
214,1659.58691,0.5173992406847885
215,1666.2099999999998,0.5338646533266981
216,1673.9,0.4918530003246728
217,1677.76,0.5355254174133831
218,1685.51,0.5502710387702497
219,1693.29,0.5253365473065623
220,1705.02,0.509700434469923
221,1716.8400000000001,0.49026628317162135
222,1724.77,0.48702582760516355
223,1736.72,0.5076666540844611
224,1744.74,0.49896186005634113
225,1756.8300000000002,0.519025593373053
226,1764.94,0.48877546088327084
227,1773.09,0.49433184463274993
228,1785.38,0.499443959145768
229,1793.62,0.5212753044335849
230,1806.05,0.5163081257840174
231,1814.3899999999999,0.48716266166998745
232,1826.96,0.49298348985783425
233,1835.4,0.4783721163419573
234,1843.87,0.4512340300055264
235,1856.6499999999999,0.4508467684494948
236,1865.22,0.459279372711217
237,1873.83,0.4827742932122004
238,1886.82,0.4542332419122903
239,1895.53,0.44148585301142684
240,1904.28,0.4574391803498246
241,1905.46072,0.4557864602866861
242,1913.07,0.4454140458229644
243,1926.33,0.43736608242853325
244,1935.22,0.44523585025836043
245,1944.15,0.45837089949574583
246,1953.1299999999999,0.4366573254925792
247,1966.66,0.46408673659916655
248,1975.74,0.4713792161148955
249,1984.86,0.4528334770381828
250,1994.02,0.4434619193690283
251,2003.23,0.45098593845932167
252,2017.1100000000001,0.4390754868820439
253,2026.4199999999998,0.451531259491233
254,2035.7800000000002,0.4344520088598699
255,2045.17,0.44534974428417556
256,2054.61,0.425803256467929
257,2064.1,0.4282154454111304
258,2073.63,0.4511463157618899
259,2078.41,0.4377728939651041
260,2083.2000000000003,0.4494408675202078
261,2092.81,0.43147120068608397
262,2107.32,0.4313962562778491
263,2117.05,0.43389013366640006
264,2126.82,0.4357392924625093
265,2136.63,0.4135955326661769
266,2146.5,0.42059794498118186
267,2156.4,0.43064054335185553
268,2166.36,0.4192863138338666
269,2176.36,0.416255865723436
270,2186.4,0.4112402990205636
271,2187.7616199999998,0.4128417805718775
272,2196.5,0.4234034623249137
273,2206.63,0.4145129330517158
274,2216.8199999999997,0.3986721256189531
275,2227.0499999999997,0.3903919994131471
276,2237.33,0.4083937747410371
277,2242.4900000000002,0.3962856530184604
278,2252.84,0.3818805704935248
279,2263.24,0.38669248950228513
280,2273.68,0.3935266897380022
281,2284.1800000000003,0.40058171181415436
282,2294.7200000000003,0.3826734151172634
283,2305.31,0.38437011995406833
284,2315.96,0.37083294663130845
285,2326.65,0.3181212545355053
286,2337.39,0.34990986397339824
287,2342.77,0.34092938899908387
288,2353.59,0.3599272608908902
289,2364.45,0.3377813140096534
290,2375.36,0.34390086866211245
291,2386.33,0.3254649451550068
292,2397.34,0.3385435028748578
293,2402.87,0.32930083250163134
294,2413.96,0.3341889526753959
295,2425.1,0.3490544743828564
296,2436.3,0.33946781793075215
297,2447.54,0.35137344270560467
298,2453.1800000000003,0.3481383957065093
299,2464.51,0.3439568032420145
300,2475.88,0.33444489200447647
301,2487.31,0.3352178026073736
302,2493.05,0.31724025867567013
303,2504.5499999999997,0.34720931142574163
304,2510.33,0.31647884872099497
305,2511.88643,0.317725699218651
306,2516.1099999999997,0.3211823653282514
307,2527.7300000000005,0.3130287946613296
308,2533.55,0.3171785528987234
309,2545.25,0.31354813079863864
310,2557.0,0.33093107655282705
311,2562.89,0.3221807897862032
312,2574.72,0.3348273841072286
313,2586.6099999999997,0.3298231398533818
314,2592.57,0.32524360808274033
315,2604.54,0.3162884123957306
316,2616.56,0.31160998456299394
317,2622.59,0.3225252077883349
318,2634.69,0.33425042852243525
319,2646.8599999999997,0.3555153042525181
320,2652.9599999999996,0.3662635824738414
321,2665.2,0.3342138131999066
322,2677.51,0.3449138989219541
323,2683.68,0.34689473213926
324,2696.06,0.33027427285728994
325,2702.28,0.3394851739288688
326,2714.75,0.3221987567845904
327,2727.28,0.31883560106543984
328,2733.57,0.33041925713300113
329,2746.19,0.29522954355154224
330,2752.52,0.301645173902522
331,2765.22,0.31100420888790015
332,2777.9900000000002,0.3202960988692606
333,2784.39,0.3013748842162228
334,2797.24,0.26007082276442034
335,2803.6899999999996,0.27131797596565566
336,2816.63,0.3128436566515448
337,2823.1299999999997,0.32933487770705333
338,2836.16,0.32030610053063413
339,2842.7000000000003,0.31036519586956113
340,2855.82,0.2949877608308336
341,2862.4,0.32548703045317917
342,2875.61,0.3298189375521433
343,2882.24,0.32493617502876193
344,2884.0315,0.3252158981195491
345,2895.54,0.32718403450565847
346,2908.9100000000003,0.35160494223675604
347,2929.0699999999997,0.33741129839673556
348,2949.3799999999997,0.33071178964719106
349,2969.82,0.33572593130939243
350,2990.41,0.33488660806206993
351,3011.13,0.33701813522649327
352,3032.0099999999998,0.33674503982075776
353,3053.02,0.3364911948267681
354,3067.12,0.3383213933315156
355,3088.38,0.33865600682165276
356,3109.7799999999997,0.3408470130629008
357,3131.34,0.33447519673398995
358,3153.0399999999995,0.33357617315619015
359,3167.6,0.33600941927173084
360,3189.5600000000004,0.31858809651742276
361,3211.6699999999996,0.32817010885359077
362,3226.4900000000002,0.3108828557926233
363,3248.85,0.33386862661291805
364,3271.37,0.34672287486305386
365,3286.4700000000003,0.3422774073043083
366,3309.2599999999998,0.338815698717301
367,3311.31121,0.3388144967660645
368,3324.53,0.33894465388915296
369,3332.19,0.3399713975960092
370,3339.88,0.32617758129127344
371,3347.57,0.3497694649865377
372,3355.2900000000004,0.33735928867021003
373,3363.03,0.30808800567948774
374,3370.7799999999997,0.31989766935156816
375,3378.55,0.3322855263492539
376,3386.3399999999997,0.335146376672545
377,3394.14,0.3361487736586388
378,3401.9700000000003,0.35671661063314064
379,3409.81,0.3288700942704452
380,3417.67,0.32559177123335514
381,3425.55,0.3402291415218704
382,3433.4500000000003,0.358420305135991
383,3441.36,0.3340627154129144
384,3449.29,0.32522531901544305
385,3457.24,0.32923931594357714
386,3465.22,0.31640925286011923
387,3473.2000000000003,0.33875338977666136
388,3481.21,0.32183246668161153
389,3489.2400000000002,0.33510213691216706
390,3497.2799999999997,0.3213421538055253
391,3505.34,0.33903466402448884
392,3513.42,0.3256662675690578
393,3521.52,0.3430462644392322
394,3529.64,0.3103760546350119
395,3537.7799999999997,0.3367441381563969
396,3545.93,0.34162226834058473
397,3554.1,0.34530139185037784
398,3562.2999999999997,0.336619155348579
399,3570.51,0.3126065655095829
400,3578.7400000000002,0.3129348689961921
401,3586.99,0.2925167658084067
402,3593.31,0.3196542566997032
403,3596.05,0.31811704230763876
404,3598.7799999999997,0.36320098125277156
405,3601.5200000000004,0.38001386686070704
406,3604.25,0.34549760580583994
407,3606.99,0.30106059141377545
408,3609.7200000000003,0.28964723035890827
409,3612.46,0.28399781596684376
410,3615.2000000000003,0.25770860157477926
411,3617.93,0.2519696405199121
412,3620.67,0.28118572612784765
413,3623.4,0.28539486507298045
414,3626.14,0.400902150680916
415,3628.8700000000003,0.3450393896260488
416,3631.61,0.3237880752339843
417,3634.35,0.34456856084191984
418,3637.08,0.3339612997870527
419,3639.82,0.33546178539498817
420,3642.55,0.331363824340121
421,3645.29,0.32158140994805656
422,3648.02,0.30287344889318935
423,3650.76,0.31726873450112486
424,3653.5,0.3309613201090604
425,3656.2299999999996,0.3505244590541932
426,3658.97,0.33158754466212875
427,3661.7,0.3230260836072616
428,3664.44,0.3579412692151971
429,3667.17,0.3483053081603299
430,3669.9100000000003,0.3489790937682654
431,3672.65,0.3078277793762009
432,3675.3799999999997,0.3387357183213338
433,3678.12,0.3578630039292693
434,3680.85,0.3364688428744021
435,3683.59,0.34243282848233764
436,3686.32,0.33060636742747046
437,3689.06,0.29050885303540597
438,3691.79,0.3314391919805388
439,3694.5299999999997,0.34108157758847435
440,3697.2699999999995,0.33584536319640984
441,3700.0,0.3478865021415427
442,3702.74,0.3860666877494782
443,3705.4700000000003,0.33923432669461107
444,3708.21,0.3116183123025465
445,3710.9399999999996,0.3397985512476794
446,3713.68,0.34508063685561485
447,3716.4199999999996,0.3271976224635504
448,3719.15,0.3283485614086832
449,3721.89,0.39281404701661876
450,3724.6200000000003,0.4556491859617516
451,3727.36,0.4868857715696871
452,3730.0899999999997,0.4494768105148199
453,3732.83,0.37962199612275543
454,3735.5699999999997,0.34714968173069094
455,3738.3,0.33716242067582375
456,3741.04,0.36521690628375936
457,3743.77,0.35386574522889214
458,3746.51,0.32067023083682766
459,3749.24,0.3174815697819605
460,3751.9799999999996,0.301603055389896
461,3754.72,0.33017424099783155
462,3757.45,0.34140947994296433
463,3760.19,0.33718576555089985
464,3762.92,0.3436682044960327
465,3765.6600000000003,0.3604603901039682
466,3768.39,0.36446312904910105
467,3771.1299999999997,0.35964011465703655
468,3773.86,0.35419905360216936
469,3776.6,0.38777093921010486
470,3779.34,0.4311791248180404
471,3782.07,0.4331982637631733
472,3784.81,0.4408771493711088
473,3787.54,0.4329979883162416
474,3790.2799999999997,0.4130689739241771
475,3793.01,0.3536519128693099
476,3795.75,0.32496119847724547
477,3798.49,0.328590184085181
478,3801.2200000000003,0.38981322303031374
479,3801.8939600000003,0.38879972139393554
480,3803.96,0.38570798893613895
481,3806.6899999999996,0.4062624866474326
482,3809.43,0.4307207044968628
483,3812.16,0.44414610220815637
484,3814.9,0.3838585200575866
485,3817.64,0.38827203790701675
486,3820.3700000000003,0.39992003561831035
487,3823.11,0.3976795534677406
488,3825.8399999999997,0.32660695117903416
489,3828.58,0.3411669690284644
490,3831.31,0.327789966739758
491,3834.05,0.3073853845891882
492,3836.79,0.32438390243861837
493,3839.52,0.364797000149912
494,3842.26,0.3888626179993422
495,3844.99,0.3730059157106358
496,3847.7299999999996,0.420546533560066
497,3850.46,0.4094430312713596
498,3853.2,0.4274951491207898
499,3855.9300000000003,0.4015335468320834
500,3858.67,0.4429574646815136
501,3861.4100000000003,0.4428039825309438
502,3864.14,0.4506912802422374
503,3866.8799999999997,0.4390689980916676
504,3869.61,0.4479893958029612
505,3872.35,0.4201246136523914
506,3875.0800000000004,0.404557411363685
507,3877.82,0.4172161292131152
508,3880.56,0.3962947470625454
509,3883.29,0.393477644773839
510,3886.0299999999997,0.3656336626232692
511,3888.76,0.3867667603345628
512,3891.5,0.387708578183993
513,3894.23,0.4198767758952866
514,3896.9700000000003,0.40362559374471685
515,3899.71,0.414858411594147
516,3902.4399999999996,0.4380168093054406
517,3905.18,0.45753602715487085
518,3907.91,0.4626749248661644
519,3910.65,0.4960807427155946
520,3913.38,0.48999884042688824
521,3916.1200000000003,0.4774050582763184
522,3918.86,0.4340212761257486
523,3921.5899999999997,0.42707127383704224
524,3924.33,0.4172673916864724
525,3927.06,0.381014889397766
526,3929.8,0.3674502072471962
527,3932.53,0.33834750495848986
528,3935.27,0.36658752280792
529,3938.0,0.39059302051921363
530,3940.74,0.41290213836864387
531,3943.4799999999996,0.422812356218074
532,3946.21,0.44601215392936766
533,3948.95,0.44414347177879787
534,3951.6800000000003,0.44151246949009143
535,3954.42,0.4190824873395217
536,3957.1499999999996,0.42353938505081523
537,3959.89,0.37800640290024545
538,3962.6299999999997,0.34158662074967566
539,3965.36,0.3229195184609693
540,3968.1,0.30985083631039945
541,3970.8300000000004,0.326809634021693
542,3973.57,0.3466804518711233
543,3976.2999999999997,0.3817001495824168
544,3979.04,0.41915646743184704
545,3981.7799999999997,0.4492766852812773
546,3984.51,0.46359068299257084
547,3987.25,0.48098140084200103
548,3989.98,0.4851490985532947
549,3992.7200000000003,0.4991921164027249
550,3995.45,0.5026160141140185
551,3998.1899999999996,0.49473383196344867
552,4000.93,0.4983825498128789
553,4003.66,0.5225743475241724
554,4006.4,0.5131836653736026
555,4009.13,0.4950956630848963
556,4011.8700000000003,0.5047370809343265
557,4014.6,0.5122524786456201
558,4017.3399999999997,0.5132353964950503
559,4020.07,0.5290167942063438
560,4022.81,0.5128274120557741
561,4025.55,0.5010189299052042
562,4028.28,0.5101049276164978
563,4031.02,0.509331445465928
564,4033.75,0.5091389431772217
565,4036.49,0.5190489610266519
566,4039.2200000000003,0.5260478587379455
567,4041.96,0.5183929765873757
568,4044.7,0.5013770944368059
569,4047.4300000000003,0.5075492921480995
570,4050.17,0.5014444099975297
571,4052.8999999999996,0.48356290770882326
572,4055.64,0.4868810255582535
573,4058.37,0.4886309232695471
574,4061.11,0.4944907411189773
575,4063.85,0.5004332589684075
576,4066.5800000000004,0.4882552566797011
577,4069.32,0.49554097452913126
578,4072.0499999999997,0.49772497224042495
579,4074.79,0.4998444900898551
580,4077.52,0.48706718780114866
581,4080.26,0.48232620565057893
582,4083.0,0.4847970235000091
583,4085.73,0.4967140212113027
584,4088.4700000000003,0.48529823906073294
585,4091.2,0.4487978367720265
586,4093.9399999999996,0.4375061546214567
587,4096.67,0.43776815233275035
588,4099.41,0.4225501701821805
589,4102.14,0.4359341678934741
590,4104.88,0.45712728574290434
591,4107.62,0.4719763035923345
592,4110.349999999999,0.4692007013036281
593,4113.09,0.47844961915305834
