,lambda (Angstroms),Total Flux (erg/s/cm^2/Angstrom)
0,100.1,0.001462913040777156
1,101.96000000000001,0.0017569553629315671
2,104.10000000000001,0.0020936916013242737
3,104.712855,0.0021904877367468615
4,106.03,0.00202008460245835
5,108.0,0.0017656700997667242
6,110.01,0.0015130228810305976
7,113.88000000000001,0.0010148581412252203
8,117.88,0.0004988914767752207
9,120.22644299999999,0.0002520055766912494
10,120.9,0.0002650883699020427
11,124.86,0.000261885658663668
12,126.89,0.0002594185968419759
13,128.07,0.00025853869046286424
14,131.05,0.0002554466607935821
15,131.96,0.000269843077907996
16,134.1,0.00026723343244079354
17,136.91,0.00028496691386002763
18,138.038426,0.00028514773591278836
19,140.1,0.0002975043910273219
20,143.03,0.0004867539302590903
21,147.04,0.000781060213644548
22,151.16,0.0008448713043049185
23,155.04,0.0009203538518200248
24,158.489319,0.000994188937100847
25,159.01,0.0010052748209272908
26,161.97,0.0010666992107012366
27,166.11999999999998,0.001160249407512681
28,169.99,0.0012428304850211848
29,173.15,0.0013167925457258024
30,177.19,0.0014077308385253774
31,180.07,0.0014753137799270546
32,181.970086,0.0015244990203315935
33,182.14999999999998,0.001529234273947641
34,185.97,0.0016261896549344568
35,191.18,0.0017493018159138577
36,193.83999999999997,0.0018350777042449914
37,197.89000000000001,0.0019429213725687098
38,202.04,0.002047584600604125
39,204.85,0.0021334563285028037
40,208.929613,0.0021836910393779464
41,210.10000000000002,0.0021987296578939203
42,215.99,0.002439678737934662
43,220.01,0.002567256643157715
44,223.07,0.0026342379292230243
45,227.21,0.002765739786840795
46,229.84,0.004178253326825031
47,234.11999999999998,0.00692638496223664
48,239.88329199999998,0.009116044613667133
49,240.11999999999998,0.00920570074662215
50,246.28,0.008830361710470656
51,252.01999999999998,0.009412453540420399
52,256.7,0.007568740318149457
53,260.28,0.009237218173762713
54,263.9,0.009802806899271087
55,268.8,0.009845488461423305
56,273.8,0.009842988198313326
57,275.42287,0.009820559495379489
58,278.89,0.009776429316257825
59,284.08,0.009868955389372606
60,290.02,0.009451792449931717
61,296.1,0.009542350468147106
62,300.91,0.009075625227623424
63,307.92,0.009311109750269784
64,316.227766,0.009529141750886337
65,318.01000000000005,0.009574173946349348
66,327.66999999999996,0.009483241378670655
67,337.62,0.009307119011341153
68,347.88,0.009092032582315957
69,356.81,0.00906737357927551
70,363.078055,0.009121968759255089
71,365.96,0.009149190397847012
72,375.34999999999997,0.008985682822114014
73,384.97999999999996,0.008488395624637043
74,394.84999999999997,0.008688489805416097
75,404.98,0.008691470812639178
76,414.40999999999997,0.008517529133282185
77,416.86938299999997,0.008438482706038475
78,422.12,0.008269046750901243
79,429.97,0.0080650722699549
80,441.0,0.008012142934306727
81,451.27,0.007815019582801128
82,459.66,0.0075532805604903224
83,470.36,0.007384734389009321
84,478.630092,0.0073160400686715504
85,480.21000000000004,0.007302210457334115
86,490.27000000000004,0.006989429926385964
87,500.53000000000003,0.006986909669176419
88,506.33,0.006780983607595974
89,512.19,0.007210983328137111
90,520.52,0.007013734579350024
91,530.1899999999999,0.006743976964611593
92,540.05,0.006337696159924837
93,549.5408739999999,0.00614662004415089
94,550.09,0.0061356586461152225
95,560.3199999999999,0.006291040146921434
96,569.42,0.006276167930629794
97,580.01,0.006077263712989303
98,589.4300000000001,0.005980063080300594
99,600.39,0.005646687318700993
100,610.15,0.0050014626185903984
101,620.06,0.005606515535793679
102,630.14,0.005379390419286017
103,630.957344,0.005380318300537527
104,640.37,0.005392828331866118
105,649.28,0.005224027784586019
106,658.32,0.005025624702946056
107,664.41,0.0050957743625492215
108,675.1999999999999,0.005027639010680283
109,684.5999999999999,0.004728109987736072
110,695.7199999999999,0.00480549535633824
111,705.4000000000001,0.004478467490157394
112,715.21,0.00462476408961668
113,724.43596,0.004559471768773288
114,726.8299999999999,0.004542414270849261
115,735.2499999999999,0.004470976353915768
116,745.48,0.0043311470308481145
117,755.85,0.004224860571394393
118,764.6,0.0038403415472651682
119,775.24,0.004056336181924031
120,784.21,0.003876574086330986
121,795.12,0.003877173815102433
122,804.33,0.003834079914276129
123,815.52,0.0037741803702754403
124,824.96,0.003715452031100597
125,831.763771,0.003480849508148786
126,834.52,0.0033852563677814725
127,844.1800000000001,0.003557341074494409
128,855.92,0.0034679926952821813
129,865.8299999999999,0.003435154896475266
130,875.86,0.0033795575350188227
131,886.0,0.0033099659911336437
132,894.2,0.0032564822100825137
133,904.55,0.0031748426815606597
134,915.03,0.0031805952101684833
135,925.62,0.005298301556347572
136,934.19,0.007483570707127061
137,945.01,0.009584139308227888
138,954.992586,0.010645943399350674
139,955.95,0.01074789060438813
140,964.79,0.011566947754471854
141,975.96,0.006059128074204345
142,985.0,0.010217956861167794
143,994.11,0.009781856121039144
144,1005.62,0.011303437023467162
145,1014.93,0.011148593920218237
146,1024.32,0.007127745071721198
147,1036.18,0.009713817338688731
148,1045.76,0.012561871345227429
149,1055.44,0.01216403017020599
150,1065.21,0.010696007031780422
151,1075.06,0.011485242148106747
152,1085.01,0.009690609082872932
153,1095.05,0.011511046054234992
154,1096.4782,0.011438203484754784
155,1105.18,0.010993980748009497
156,1115.41,0.010743612255036993
157,1125.73,0.009777707616965023
158,1136.1499999999999,0.01099162615100476
159,1144.02,0.010401638796196
160,1154.61,0.010448995722825635
161,1165.29,0.010400246504355807
162,1176.07,0.008004872457997685
163,1184.22,0.0099094449851017
164,1195.18,0.008476347648544647
165,1206.24,0.0072673834840993
166,1214.6,0.005198962672637899
167,1225.84,0.008075134217993623
168,1234.34,0.009461115847488608
169,1245.76,0.009747238102645401
170,1254.3899999999999,0.009481616855885605
171,1258.92541,0.009282564423145914
172,1266.0,0.008972588541839686
173,1274.78,0.00981365418307161
174,1283.6100000000001,0.009904476067135149
175,1295.49,0.008688805763927318
176,1304.47,0.008648929376485707
177,1313.51,0.009568997280442037
178,1325.6699999999998,0.009202386337091261
179,1334.86,0.008550492969542441
180,1344.1100000000001,0.009223827893391563
181,1356.54,0.008993694261331517
182,1365.95,0.008394916962241811
183,1375.42,0.008433438954550048
184,1384.95,0.008395026238256222
185,1394.55,0.007099444861926663
186,1404.2199999999998,0.007067034825561365
187,1413.9499999999998,0.007854245080594008
188,1423.75,0.007729129675590915
189,1433.62,0.0078003886105520856
190,1443.5600000000002,0.00792683488547752
191,1445.43977,0.007916596728099561
192,1446.89,0.007908696926143221
193,1453.5600000000002,0.007693711113874773
194,1463.6399999999999,0.007331848201181227
195,1473.7900000000002,0.0072815085738161985
196,1484.0,0.0072981261910184695
197,1494.29,0.007231563134310475
198,1504.6499999999999,0.006938948362930997
199,1511.59,0.006447672651215402
200,1518.57,0.006642791102544673
201,1525.58,0.006551977676157593
202,1536.15,0.005895919760763667
203,1543.2399999999998,0.005788782660466321
204,1553.94,0.005618558274968212
205,1564.71,0.00588241517479862
206,1575.56,0.006130406400718762
207,1586.48,0.006215443911967419
208,1593.8,0.006272840749178059
209,1604.85,0.006074578790322535
210,1615.9699999999998,0.006019096116795528
211,1623.4299999999998,0.005828998524663202
212,1634.68,0.006019188381032012
213,1646.02,0.006019154604251773
214,1653.6100000000001,0.0057758665420152636
215,1659.58691,0.005909891455119364
216,1665.08,0.006033208418280395
217,1672.76,0.005580860030018616
218,1676.6200000000001,0.006316834931230796
219,1684.3600000000001,0.006360821328998222
220,1696.03,0.006034187711678566
221,1703.8600000000001,0.0059113677884898
222,1715.67,0.005830791338571622
223,1723.5900000000001,0.005817665094426663
224,1735.5400000000002,0.006147076811909963
225,1743.5500000000002,0.006008166246808812
226,1755.6299999999999,0.006348301834022056
227,1763.74,0.005832198245636246
228,1775.96,0.006009152000250969
229,1784.1599999999999,0.006120450090908966
230,1796.53,0.0066019383105967
231,1804.82,0.0064822940802985035
232,1813.15,0.006206044040686445
233,1825.72,0.006234939213804862
234,1834.1499999999999,0.006066115150908144
235,1846.86,0.005434656491428039
236,1855.39,0.005768515405246663
237,1863.95,0.006207534212079889
238,1876.87,0.006322844803702001
239,1885.53,0.006067673587250569
240,1894.24,0.0062084388591568075
241,1902.98,0.006280306024077648
242,1905.46072,0.0062831105408086155
243,1916.17,0.006294487950921315
244,1925.02,0.005902962374722638
245,1933.9,0.005251763647418201
246,1942.8300000000002,0.006634059001604168
247,1956.29,0.006468399538820641
248,1965.3200000000002,0.007220701055987414
249,1974.4,0.00700819865464459
250,1983.51,0.007121147102196007
251,1997.2599999999998,0.007088212512056819
252,2006.48,0.006911060738887122
253,2015.74,0.0069905264309097475
254,2025.04,0.0065104195881246964
255,2034.39,0.0072180538268300475
256,2043.78,0.007749806530727722
257,2053.21,0.007300520699817718
258,2062.69,0.0071838619503981176
259,2072.21,0.008112752666170838
260,2076.99,0.01044437925665336
261,2086.58,0.011554931286512646
262,2096.21,0.010784961781564253
263,2105.88,0.010347690741808184
264,2115.6,0.011291427783542517
265,2125.37,0.010418452906767253
266,2135.1800000000003,0.009724159495184312
267,2145.03,0.011606048548793692
268,2154.94,0.011605608300191557
269,2164.88,0.010392986900483663
270,2174.8700000000003,0.010512753582266172
271,2184.91,0.012291068345539086
272,2187.7616199999998,0.012371708667321436
273,2195.0,0.012576900366785887
274,2205.1299999999997,0.012122960266450506
275,2215.31,0.010017845695728476
276,2225.53,0.011058674348697126
277,2235.81,0.013885068837201794
278,2246.13,0.013140014549397143
279,2256.49,0.010611541485283172
280,2266.91,0.01013527025670522
281,2277.37,0.010908900251817948
282,2282.62,0.013633480861219651
283,2293.16,0.011634093303713738
284,2303.74,0.013631906969898504
285,2314.38,0.01203933247161929
286,2325.06,0.009721845197030756
287,2335.79,0.00909439745205557
288,2346.57,0.0067939062366937355
289,2357.41,0.01130968885686792
290,2362.84,0.007293633972877681
291,2373.75,0.009111822734510555
292,2384.7,0.005959469719834108
293,2395.71,0.007175210540693681
294,2406.77,0.007141552891166604
295,2412.32,0.008157960678248404
296,2423.4500000000003,0.012794149170180017
297,2434.6400000000003,0.012704741497647646
298,2445.87,0.014885895048805957
299,2457.16,0.015512660435500288
300,2462.83,0.013891343893654129
301,2474.2,0.012240641727729817
302,2485.62,0.008476399091418856
303,2497.0899999999997,0.009660012984721246
304,2502.85,0.014306248196179113
305,2511.88643,0.00878562736825834
306,2514.4,0.00724990688035744
307,2520.2000000000003,0.0058843462082834135
308,2526.0,0.006419184536209387
309,2537.66,0.009522617481660568
310,2543.5099999999998,0.010061260217585905
311,2555.25,0.016560831215836066
312,2567.05,0.012800531503685458
313,2572.97,0.0159588514108099
314,2584.8399999999997,0.014322470869858403
315,2596.77,0.012972669618506138
316,2602.76,0.011275528696829686
317,2614.77,0.0101667264982764
318,2626.8399999999997,0.013733603589322348
319,2632.9,0.022254171838845004
320,2645.0499999999997,0.02986690798268993
321,2657.26,0.039997373416134095
322,2663.39,0.026738960836855855
323,2675.68,0.030129205323098995
324,2688.03,0.034426229098941365
325,2694.23,0.02540820569086224
326,2706.6600000000003,0.030888258519503595
327,2712.8999999999996,0.02269291463782395
328,2725.42,0.018790366400864154
329,2738.0,0.023426907453503593
330,2744.32,0.01349125262462293
331,2756.98,0.01818685273006135
332,2763.34,0.023580697427580177
333,2776.09,0.025318926467417444
334,2782.4900000000002,0.015336100691335761
335,2795.34,0.006832037547171754
336,2801.7799999999997,0.008264568297489559
337,2814.7100000000005,0.02240164920612453
338,2827.71,0.032214745285958614
339,2834.2200000000003,0.03020227820747552
340,2847.31,0.022339723221708453
341,2853.87,0.013377355551224726
342,2867.04,0.030118059618256632
343,2873.6499999999996,0.03950976135577227
344,2884.0315,0.036915515164376814
345,2886.92,0.03619373773877158
346,2893.5699999999997,0.04330800612741986
347,2906.93,0.05786497289017791
348,2927.0800000000004,0.05085270800766104
349,2947.3700000000003,0.04722867309122098
350,2967.7999999999997,0.04910089814085773
351,2988.3700000000003,0.04999823315657128
352,3009.08,0.05033154813836164
353,3029.94,0.053418523083805715
354,3050.9399999999996,0.056176487995326596
355,3072.09,0.0603150128705012
356,3093.39,0.058789477709329525
357,3107.66,0.06701674425158681
358,3129.21,0.062238909029838
359,3150.8999999999996,0.061792493774166
360,3172.74,0.06820182848214773
361,3187.38,0.05980291493475085
362,3209.48,0.06615744957973235
363,3231.7200000000003,0.056686614190790664
364,3246.64,0.0778635105755474
365,3269.14,0.09040102512360548
366,3291.81,0.08872379963047114
367,3307.0,0.08335904594980457
368,3311.31121,0.0815317303536676
369,3322.26,0.07689101419030431
370,3329.92,0.08665916870914091
371,3337.6,0.0823712531353374
372,3345.2900000000004,0.08160755751521383
373,3353.0,0.07545666180245013
374,3360.74,0.08642273595072628
375,3368.48,0.08367420009900242
376,3376.25,0.0657014841083184
377,3384.03,0.07039063807131433
378,3391.83,0.08539632194167014
379,3399.65,0.08777833571938583
380,3407.4900000000002,0.08557495940446141
381,3415.34,0.08228246304321693
382,3423.21,0.09732900658933233
383,3431.11,0.09293851999648758
384,3439.02,0.09207508335732277
385,3446.94,0.06225192667183789
386,3454.89,0.09079238984739285
387,3462.85,0.07534025297662775
388,3470.84,0.08471578596690248
389,3478.84,0.06806933891085715
390,3486.86,0.08276900176217172
391,3494.9,0.07478913452084615
392,3502.9500000000003,0.09178238723320055
393,3511.03,0.09177330980659477
394,3519.12,0.09092116233366894
395,3527.23,0.07090002476810299
396,3535.36,0.09090075710989692
397,3543.52,0.10435109931273069
398,3551.68,0.10079796151556446
399,3559.87,0.09493259357943805
400,3568.08,0.08920041555067153
401,3576.3,0.07894780747558496
402,3584.55,0.06029969926153822
403,3592.81,0.07198544100117142
404,3601.09,0.1045079326481645
405,3609.39,0.08494224420251749
406,3617.71,0.09333912566423035
407,3626.05,0.0972757670333031
408,3634.4100000000003,0.08336245830973572
409,3642.7900000000004,0.11347343949352824
410,3651.19,0.08666851058468066
411,3659.6,0.11989166162951301
412,3668.04,0.11580762253538518
413,3676.4999999999995,0.12097038334861725
414,3684.9700000000003,0.10248124411552927
415,3693.47,0.1128724047434811
416,3701.9800000000005,0.12148686532511288
417,3710.52,0.08482140576778449
418,3719.0699999999997,0.12543468616413606
419,3727.64,0.0984902464678475
420,3736.23,0.08498705667891884
421,3744.85,0.10721956675102999
422,3753.48,0.0681205167768211
423,3762.13,0.0869358667099721
424,3770.81,0.09271273650416291
425,3779.5,0.11430430625203368
426,3788.21,0.1285279659072643
427,3796.9399999999996,0.09682183546985486
428,3801.8939600000003,0.10463458634185176
429,3805.7000000000003,0.1106369885668221
430,3814.47,0.11908195640835353
431,3823.26,0.08606527417654755
432,3832.08,0.07108671183473539
433,3840.9100000000003,0.0655770794562545
434,3849.7599999999998,0.10295442700443619
435,3858.64,0.0987637544426117
436,3867.53,0.10703586184411851
437,3876.4500000000003,0.08521283913561914
438,3885.3900000000003,0.09384982635378232
439,3886.15,0.1275799935669595
440,3887.92,0.13105678707659585
441,3889.69,0.12140628058623218
442,3891.4500000000003,0.11812987413253724
443,3893.22,0.14661396764217358
444,3894.99,0.1329087611518099
445,3896.76,0.15458005466144625
446,3898.53,0.1529636481710826
447,3900.2999999999997,0.13660744168071892
448,3902.07,0.14872533519035527
449,3903.84,0.12487882869999159
450,3905.61,0.12901222220962794
451,3907.37,0.12828561575593297
452,3909.14,0.1257650092655693
453,3910.9100000000003,0.16514810277520564
454,3912.68,0.16889609628484198
455,3914.45,0.13743238979447833
456,3916.2200000000003,0.14200998330411466
457,3917.9900000000002,0.13148967681375098
458,3919.7599999999998,0.13109107032338732
459,3921.5299999999997,0.12227446383302368
460,3923.3,0.12083545734266
461,3925.0600000000004,0.11257475088896507
462,3926.83,0.0807414243986014
463,3928.6,0.06155857790823774
464,3930.3700000000003,0.06402450141787408
465,3932.14,0.05322051492751041
466,3933.91,0.07367235843714674
467,3935.68,0.07147147194678309
468,3937.4500000000003,0.07031347545641942
469,3939.22,0.08733814896605575
470,3940.99,0.1101696924756921
471,3942.75,0.09414032602199715
472,3944.5200000000004,0.1254159795316335
473,3946.29,0.13081927304126983
474,3948.06,0.13487106655090617
475,3949.83,0.1365348600605425
476,3951.6,0.12302455357017883
477,3953.37,0.1341504470798152
478,3955.14,0.1334179405894515
479,3956.9100000000003,0.12610463409908784
480,3958.68,0.13048282760872418
481,3960.44,0.10974182115502923
482,3962.21,0.08103107466466557
483,3963.9799999999996,0.0723373981743019
484,3965.75,0.058537541683938245
485,3967.52,0.051946735193574574
486,3969.29,0.06902396870321091
487,3971.06,0.07828865221284725
488,3972.83,0.0924717457224836
489,3974.6,0.10298736923211992
490,3976.3599999999997,0.11325026277842498
491,3978.13,0.13687005628806131
492,3979.9,0.13755244979769765
493,3981.67,0.13426354330733398
494,3983.4399999999996,0.14328163681697031
495,3985.21,0.14877713032660667
496,3986.98,0.154926023836243
497,3988.75,0.15370021734587933
498,3990.52,0.16220761085551566
499,3992.29,0.153285204365152
500,3994.05,0.16656869791145706
501,3995.8199999999997,0.1692750914210934
502,3997.5899999999997,0.16490498493072975
503,3999.36,0.15639727844036608
504,4001.13,0.1636854719500024
505,4002.8999999999996,0.16046746545963875
506,4004.67,0.15011415896927507
507,4006.44,0.16783065247891144
508,4008.21,0.16578364598854775
509,4009.98,0.1598868394981841
510,4011.74,0.16945793304448914
511,4013.51,0.17147532655412548
512,4015.2799999999997,0.1773682200637618
513,4017.0499999999997,0.16567321357339815
514,4018.82,0.16224220708303447
515,4020.59,0.16770590059267082
516,4022.3599999999997,0.16187929410230714
517,4024.13,0.17278458761194349
518,4025.9,0.17437808112157982
519,4027.6600000000003,0.15013047466788487
520,4029.43,0.15243566817752122
521,4031.2,0.15833906168715756
522,4032.9700000000003,0.1569591551967939
523,4034.74,0.16484784870643024
524,4036.5099999999998,0.16644144221606658
525,4038.28,0.1601457357257029
526,4040.05,0.16349032923533924
527,4041.8199999999997,0.15517532274497559
528,4043.59,0.1601041162546119
529,4045.35,0.14873250980091698
530,4047.1200000000003,0.14167000331055332
531,4048.89,0.15403559682018966
532,4050.66,0.154826090329826
533,4052.4300000000003,0.16202658383946233
534,4054.2,0.16534867734909867
535,4055.97,0.162876270858735
536,4057.7400000000002,0.15286976436837132
537,4059.51,0.14606635787800767
538,4061.2799999999997,0.14425585138764402
539,4063.04,0.15735114493394903
540,4064.81,0.15828973844358538
541,4066.5800000000004,0.1523128319532217
542,4068.35,0.14529632546285806
543,4070.12,0.15512061897249438
544,4071.8900000000003,0.14469101248213073
545,4073.66,0.15354300599176707
546,4075.43,0.1578833995014034
547,4077.2000000000003,0.14392889301103973
548,4078.9700000000003,0.15855168652067608
549,4080.73,0.17926438006698114
550,4082.5,0.17648157357661748
551,4084.27,0.1728797670862538
552,4086.0400000000004,0.17713176059589014
553,4087.81,0.1718446541055265
554,4089.58,0.17793384761516282
555,4091.3500000000004,0.18292924112479916
556,4093.12,0.1722200346344355
557,4094.89,0.16570682814407184
558,4096.66,0.15327752165370817
559,4098.42,0.15009651520001321
560,4100.1900000000005,0.15155340870964956
561,4101.96,0.1589760022192859
562,4103.73,0.16074099572892223
563,4105.5,0.15642378923855857
564,4107.27,0.1696112827481949
565,4109.04,0.17088527625783126
566,4110.8099999999995,0.16336046976746757
567,4112.58,0.1751911632771039
568,4114.34,0.18207985682340896
569,4116.11,0.1762025503330453
