,lambda (Angstroms),Total Flux (erg/s/cm^2/Angstrom)
0,100.04,0.02013345529880896
1,101.89999999999999,0.024211662490857065
2,104.04,0.028903793345003703
3,104.712855,0.030379084799997867
4,105.97,0.02807920198521098
5,107.94,0.024475187230092503
6,109.94999999999999,0.020797994553950396
7,114.07000000000001,0.013260664285681078
8,118.08000000000001,0.005924573500074972
9,120.22644299999999,0.0019977667404136278
10,121.11,0.0019229729434113972
11,125.08,0.001586907896071226
12,127.11,0.0014150661288797675
13,127.99,0.0013405733395281554
14,130.98,0.0010874668255467569
15,131.88,0.0010112820842283119
16,134.03,0.0008292826744308607
17,137.15,0.0005651744095300527
18,138.038426,0.0004899688866485788
19,140.02,0.00048404698053734367
20,142.95000000000002,0.0004753202449134262
21,146.96,0.00046340905785683626
22,151.07,0.0004511542887566654
23,154.95,0.0004395988454937305
24,158.489319,0.00042906702591374667
25,158.92,0.00042709469715000704
26,161.88000000000002,0.00041354622189360894
27,166.03,0.00039456492916690257
28,169.9,0.000376882428968504
29,173.05999999999997,0.0003624375279204577
30,177.09,0.00034408284654874013
31,179.97,0.00033097641172900167
32,181.970086,0.00032187895348478635
33,182.04999999999998,0.00032200068410354304
34,185.85999999999999,0.00032785260090403747
35,191.07,0.0003358997913621938
36,194.17000000000002,0.00034074422042558824
37,197.78,0.0003464758395607023
38,201.92000000000002,0.0003530919020840741
39,205.21,0.0003583899961545798
40,208.929613,0.0003644547890852987
41,209.99,0.00037413525343759914
42,215.86999999999998,0.0004283947520161992
43,219.88,0.00046553571027983657
44,222.94000000000003,0.000493890183795231
45,227.07999999999998,0.0005326570168454695
46,230.23999999999998,0.0005652981749659419
47,233.99,0.000608959472656376
48,239.88329199999998,0.0006722401259111763
49,239.99,0.0006716389351067094
50,246.14000000000001,0.0006326174587667397
51,251.88,0.0006035826175161015
52,257.15,0.0005703347103922579
53,260.13,0.0005602978048649227
54,263.75,0.0005686850562713145
55,269.27,0.0005533063648247077
56,274.28000000000003,0.0005451389301965371
57,275.42287,0.0005376527883359667
58,278.72999999999996,0.0005665554986059552
59,283.92,0.0006770198358893747
60,289.86,0.0007865791213351376
61,295.93,0.0008661488564623733
62,300.74,0.0009180071946768715
63,307.74,0.0010864050775254137
64,316.227766,0.0012741515384887873
65,317.83,0.001287677260253596
66,328.24,0.0014346517958108932
67,338.21,0.0015400543936501113
68,347.69,0.0016705007972123765
69,356.60999999999996,0.0023540206073152676
70,363.078055,0.003412929370944105
71,365.75000000000006,0.0038778739630914703
72,375.14,0.004521462779839732
73,384.76000000000005,0.004383032653867238
74,394.63,0.007336076851024356
75,404.74999999999994,0.010441147371311089
76,414.18,0.011887875719760087
77,416.86938299999997,0.011991330469251419
78,421.88000000000005,0.012175032058968653
79,429.72,0.013018172178444488
80,440.75000000000006,0.017382410573574394
81,451.01000000000005,0.02005446386768435
82,460.46,0.019815103743838255
83,470.1,0.022609958125438645
84,478.630092,0.027361614637154585
85,479.94,0.028083096142160945
86,489.99,0.026642233688695647
87,500.25,0.035785505631725105
88,506.04,0.03283005827793763
89,511.9,0.05276510238964841
90,520.22,0.053947692288869184
91,529.89,0.05452938902269908
92,539.74,0.048857856667810215
93,549.5408739999999,0.05115427080521752
94,549.78,0.05121087239924615
95,560.0,0.07175397211668948
96,570.41,0.0857499122691929
97,579.68,0.08995767981133572
98,590.46,0.09766992239000882
99,600.0500000000001,0.08830259013856867
100,609.8,0.08992403299033701
101,619.71,0.12028245094531385
102,629.7800000000001,0.1194417140034992
103,630.957344,0.121651366361236
104,640.01,0.13866605466013063
105,650.41,0.14060305460104214
106,657.94,0.13461648398133674
107,665.5600000000001,0.15627875355342766
108,674.82,0.17171007773158542
109,685.79,0.15487856555387378
110,695.3299999999999,0.18610432588428685
111,704.9999999999999,0.1588673887139613
112,716.45,0.20877852422583024
113,724.43596,0.21744920230709341
114,726.42,0.21960202225430814
115,734.83,0.22782937582849216
116,745.0500000000001,0.22888823356073476
117,755.42,0.23528632423425297
118,764.17,0.21863287914199497
119,774.8,0.2515120002470575
120,785.58,0.23857685429339562
121,794.67,0.2639580105346956
122,805.73,0.27891711273808145
123,815.06,0.2887014816854223
124,824.5,0.3008981481230319
125,831.763771,0.2611477743033854
126,834.0400000000001,0.24868488787273826
127,845.65,0.3114227559462782
128,855.4399999999999,0.3135611404802969
129,865.34,0.33285111248098986
130,875.36,0.34213985262714586
131,885.5,0.35087846091876473
132,895.75,0.35984055667705794
133,904.04,0.3606551393927898
134,914.51,0.35651611008443174
135,925.0999999999999,0.8446285489215367
136,935.81,1.3821169559041047
137,944.47,1.9655782237350137
138,954.992586,2.3847550195184657
139,955.41,2.401383765350611
140,964.25,2.6573770657144213
141,975.4100000000001,0.9785758575764267
142,984.44,2.220613899916383
143,995.84,2.2206094184850977
144,1005.05,2.900341605855086
145,1014.35,2.9679057657400905
146,1026.1000000000001,1.9207901774227574
147,1035.59,2.5553502792839073
148,1045.17,3.779501353660073
149,1054.84,3.701998400551255
150,1064.6,3.122075419957453
151,1074.46,3.5353014088247807
152,1084.3999999999999,3.0509803732610115
153,1094.43,3.7190343102122583
154,1096.4782,3.6951847916845018
155,1104.56,3.601073960038745
156,1114.78,3.5434351916465077
157,1125.09,3.1800823372312466
158,1135.5,3.8585473872348484
159,1146.01,3.651120341657313
160,1153.95,3.7534477525150067
161,1164.6299999999999,3.7880805444495373
162,1175.41,2.651153240802931
163,1186.28,3.6848768511333003
164,1194.51,3.0090239848056965
165,1205.56,2.5201954230900188
166,1213.92,1.9881514325069365
167,1225.15,3.0089736987452116
168,1233.64,3.85844458390665
169,1245.05,4.096536678098879
170,1253.68,3.994007429446725
171,1258.92541,3.8773729854267738
172,1265.28,3.73608184784886
173,1274.06,4.399518444768034
174,1285.8400000000001,4.543653245645925
175,1294.76,3.8583868520831732
176,1303.7299999999998,3.867327461919733
177,1315.8,4.554137282513632
178,1324.92,4.389392902548129
179,1334.1,4.068246526661799
180,1346.44,4.564627365611983
181,1355.78,4.460712000603451
182,1365.18,4.115351639674093
183,1374.64,4.21119528282391
184,1384.17,4.230648930732763
185,1393.76,3.4230475827207916
186,1403.4199999999998,3.430992239467856
187,1416.4099999999999,4.021711122609095
188,1426.23,4.012387790233959
189,1436.11,4.105882461937995
190,1442.7400000000002,4.240434912686757
191,1445.43977,4.272205632867595
192,1446.0700000000002,4.2796221321949846
193,1456.09,4.163006703937709
194,1466.18,3.930163279674645
195,1476.35,3.9665328599763927
196,1486.5800000000002,4.04025244370175
197,1493.44,4.058909835134394
198,1503.7900000000002,3.87626842570697
199,1510.7400000000002,3.551518822275028
200,1517.7099999999998,3.7274362199842885
201,1524.71,3.667898619405354
202,1535.28,3.202003222531163
203,1545.93,3.1580338302217843
204,1556.6399999999999,3.0932984413360147
205,1563.83,3.329766851598509
206,1574.6699999999998,3.551519470130559
207,1585.5800000000002,3.6848070926568197
208,1596.57,3.7360597197478924
209,1603.94,3.6594611402812145
210,1615.0600000000002,3.6510057747901072
211,1626.25,3.5515434132932104
212,1633.76,3.7446728418149537
213,1645.09,3.7706134883064784
214,1656.49,3.6258731387922136
215,1659.58691,3.7093917896620536
216,1664.13,3.8319132086061938
217,1671.82,3.5027794130261833
218,1675.6699999999998,3.9301720173196757
219,1683.3999999999999,3.9848872384076497
220,1695.07,3.805545101292081
221,1706.82,3.693288997512481
222,1714.7,3.519013281105396
223,1726.5900000000001,3.4786862356637407
224,1734.56,3.6848185567596206
225,1746.5800000000002,3.6259345654889144
226,1754.64,3.770689924087759
227,1766.8,3.5761769911549983
228,1774.9599999999998,3.5761843914238036
229,1783.15,3.6510718041935974
230,1795.51,3.788101954600758
231,1803.8000000000002,3.7967774090405126
232,1816.3000000000002,3.5352926177856188
233,1824.6899999999998,3.609264113895334
234,1833.1100000000001,3.519053622506038
235,1845.82,3.2841549187580616
236,1854.34,3.2993614690387263
237,1862.89,3.368432031820379
238,1875.81,3.559813415579321
239,1884.47,3.30695002419793
240,1893.16,3.180060645317528
241,1905.46072,3.3565319188795537
242,1906.29,3.368428325591212
243,1915.0900000000001,3.239159598843414
244,1923.93,3.1508788506103995
245,1932.8100000000002,3.306929080892167
246,1946.1999999999998,3.3917638887156887
247,1955.19,3.1508810599131087
248,1968.74,3.407433781795761
249,1977.83,3.510933899280138
250,1982.3899999999999,3.33749044996537
251,1996.13,3.26157206979324
252,2005.34,3.3606541228219657
253,2014.6,3.2841621489941697
254,2023.8999999999999,3.415249153681156
255,2033.24,3.2168181368829254
256,2047.33,3.299336568715144
257,2056.78,3.022896492832566
258,2066.28,3.1219343900934664
259,2075.81,3.3916962712404537
260,2085.4,3.299279120159615
261,2095.02,3.1435289529648633
262,2104.69,3.19461075891359
263,2114.41,3.2316035380057953
264,2124.17,3.253986295612783
265,2133.9700000000003,3.1218990317345536
266,2143.8199999999997,3.114688740999803
267,2153.7200000000003,3.2167404234085306
268,2163.66,3.143478084332041
269,2173.64,3.129073723770334
270,2183.6800000000003,3.057856330980801
271,2187.7616199999998,3.101361454344676
272,2193.7599999999998,3.165302707425173
273,2203.88,3.1075150413159305
274,2214.0499999999997,3.008964396619192
275,2224.27,2.9405167733349575
276,2234.54,3.0298041714632262
277,2244.86,2.9540525910039985
278,2255.22,2.8735910276747743
279,2265.6299999999997,2.926930485758054
280,2276.08,2.960689960971336
281,2286.59,2.9810014618796226
282,2297.14,2.827034979917913
283,2302.44,2.8465422496433095
284,2313.07,2.7624078019416056
285,2323.74,2.3565033713699046
286,2334.47,2.6498969664932077
287,2345.25,2.6194165830290146
288,2356.07,2.6988262166948247
289,2366.95,2.5890508760556394
290,2372.4,2.6009762100185476
291,2383.35,2.495202899356867
292,2394.35,2.588614610107691
293,2405.41,2.517884346553519
294,2416.51,2.54105010012935
295,2427.6600000000003,2.5940638751176848
296,2433.2599999999998,2.5116602733181037
297,2444.49,2.587823082566444
298,2455.77,2.552113913227289
299,2467.11,2.540205769583138
300,2472.8,2.482300206326064
301,2484.21,2.516657092659418
302,2495.6800000000003,2.2480190046877766
303,2507.2,2.522087938128639
304,2511.88643,2.398785755627239
305,2512.98,2.3700127638399127
306,2518.77,2.45316580418184
307,2524.5800000000004,2.391712841208886
308,2536.23,2.3915489102906573
309,2542.07,2.347856942345382
310,2553.8100000000004,2.413430996510188
311,2565.6,2.391074042387791
312,2577.4399999999996,2.4522190799781916
313,2583.38,2.435255095458511
314,2595.2999999999997,2.412739119789387
315,2607.28,2.3630861341756204
316,2613.29,2.3413281380538558
317,2625.36,2.3736961375231242
318,2637.48,2.379003128705189
319,2643.55,2.4511781226387814
320,2655.7599999999998,2.445339098903882
321,2668.02,2.32974506688178
322,2674.17,2.372935047555848
323,2686.5099999999998,2.3618560022742217
324,2692.7000000000003,2.297426976318527
325,2705.13,2.3131179161199356
326,2717.62,2.2602918459767016
327,2723.88,2.2654318084189233
328,2736.46,2.302018723358724
329,2742.76,2.1682056791711837
330,2755.42,2.1680295808514605
331,2768.14,2.1929094725870932
332,2774.52,2.243886415140029
333,2787.33,2.202773291958697
334,2793.76,1.9767962262244299
335,2806.65,2.0602300897835737
336,2813.12,2.2125880174195443
337,2826.11,2.2174848644042826
338,2832.6200000000003,2.1371847854104913
339,2845.69,2.122292619135705
340,2852.25,2.107621531854711
341,2865.42,2.15652334900552
342,2872.0299999999997,2.1268402534373227
343,2884.0315,2.1266299363355303
344,2885.28,2.1266082600251597
345,2891.93,2.1021932374684305
346,2911.98,2.1508531694590425
347,2932.16,2.106529101008696
348,2952.49,2.0725650320495514
349,2972.96,2.0674789626155277
350,2986.68,2.048372916077433
351,3007.38,2.0386778458632526
352,3028.23,2.024359775140273
353,3049.2200000000003,2.000916703942415
354,3070.35,1.9823336322696787
355,3091.64,1.9638505600542242
356,3113.07,1.9456074873638909
357,3127.44,1.918694438621003
358,3149.11,1.9096503651165924
359,3170.94,1.8832022910694635
360,3192.92,1.835862216513536
361,3207.66,1.839900166515612
362,3229.8900000000003,1.8102230911116874
363,3252.28,1.8140970151650444
364,3267.29,1.8056019642512833
365,3289.94,1.788803887422723
366,3311.31121,1.7770107671339093
367,3312.75,1.776216721638113
368,3320.39,1.817485226246982
369,3328.04,1.8132217302074332
370,3335.71,1.817319232871049
371,3343.4,1.7354487342378293
372,3351.11,1.8004552343077742
373,3358.83,1.7075097337293015
374,3366.5699999999997,1.7351622318539934
375,3374.34,1.699478728033432
376,3382.1200000000003,1.699418223564453
377,3389.91,1.7509817184470562
378,3397.73,1.7629862113844064
379,3405.5600000000004,1.6991267036733386
380,3413.41,1.7069271946654359
381,3421.2799999999997,1.7425436843606974
382,3429.17,1.7304721727591235
383,3437.0699999999997,1.742370660509132
384,3444.99,1.679270146962305
385,3452.94,1.7461786314702248
386,3460.89,1.6598691159781447
387,3468.87,1.6598145985408115
388,3476.8700000000003,1.6445080798066427
389,3484.88,1.6406425604240564
390,3492.92,1.6748720390962168
391,3500.97,1.6480275171199599
392,3509.04,1.606748993846867
393,3517.13,1.595607469276939
394,3525.2400000000002,1.6289119434101755
395,3533.3599999999997,1.6476864168949943
396,3541.5099999999998,1.65518288843456
397,3549.6699999999996,1.6704343593257078
398,3557.86,1.6436368282716027
399,3566.06,1.6625732965690798
400,3574.28,1.5913277635697216
401,3582.52,1.544331229273528
402,3590.78,1.5160396936804987
403,3599.0499999999997,1.5656411574390519
404,3607.35,1.5655166192523517
405,3615.67,1.5835850797688165
406,3624.0,1.6018365396368632
407,3629.87,1.5701941590156672
408,3632.5800000000004,1.6541959832944675
409,3635.28,1.5277628082216854
410,3637.99,1.7296596325004858
411,3640.7000000000003,1.7733614567792864
412,3643.4100000000003,1.8329992810580866
413,3646.11,1.7832381059853046
414,3648.8199999999997,1.570482930264105
415,3651.53,1.6491727545429056
416,3654.23,1.6490635794701234
417,3656.94,1.599004403748924
418,3659.6499999999996,1.6093362280277244
419,3662.36,1.6341590523065246
420,3665.06,1.7909738772337427
421,3667.77,1.577409701512543
422,3670.48,1.4741195257913435
423,3673.18,1.4909263507185613
424,3675.89,1.5161541749973617
425,3678.6000000000004,1.5212899992761622
426,3681.31,1.4541418235549626
427,3684.0099999999998,1.5899396484821806
428,3686.72,1.513842472760981
429,3689.4300000000003,1.4547202970397815
430,3692.13,1.4606721219669994
431,3694.8399999999997,1.5852619462457997
432,3697.55,1.4765447705246002
433,3700.26,1.4887245948034005
434,3702.96,1.3333644197306185
435,3705.6699999999996,1.326146244009419
436,3708.38,1.5092210682882192
437,3711.09,1.6305768925670197
438,3713.79,1.6057567174942378
439,3716.5,1.897950541773038
440,3719.21,2.9483163660518383
441,3721.91,5.385842190979057
442,3724.6200000000003,8.791617015257858
443,3727.33,10.905279839536659
444,3730.04,9.603917663815457
445,3732.74,6.341929488742676
446,3735.4500000000003,3.3920133130214762
447,3738.16,2.2516301373002765
448,3740.8599999999997,1.9702959622274947
449,3743.57,1.7436827865062947
450,3746.28,1.5446106107850952
451,3748.99,1.5842144350638956
452,3751.6899999999996,1.6832352599911138
453,3754.4,1.788310084269914
454,3757.11,1.7615179085487145
455,3759.81,1.8823067334759325
456,3762.5199999999995,1.877396557754733
457,3765.23,1.522612382033533
458,3767.94,1.5555192063123335
459,3770.6400000000003,1.5226160312395518
460,3773.35,1.581444855518352
461,3776.06,1.7692536797971523
462,3778.77,1.7874375040759527
463,3781.4700000000003,1.863019329003171
464,3784.18,1.905625153281971
465,3786.89,1.8921699775607714
466,3789.5899999999997,1.8623278024879897
467,3792.3,1.7163706267667902
468,3795.0099999999998,1.6063834510455903
469,3797.72,1.6109422753243907
470,3800.42,1.6767661002516088
471,3801.8939600000003,1.7576554065667438
472,3803.13,1.8254879412299956
473,3805.8399999999997,1.9063718021224005
474,3808.5400000000004,2.1063726635281177
475,3811.25,1.9660165244205225
476,3813.96,2.0792883853129274
477,3816.6699999999996,2.009657246205332
478,3819.3700000000003,2.029006107611049
479,3822.08,2.027385968503454
480,3824.79,1.9156088293958586
481,3827.4900000000002,1.8275696908015757
482,3830.2000000000003,1.7128475516939805
483,3832.91,1.5480124125863852
484,3835.6200000000003,1.6663662734787903
485,3838.32,1.734095134884507
486,3841.03,1.6676399957769121
487,3843.74,1.829178856669317
488,3846.4500000000003,1.9375447175617218
489,3849.15,1.9205195789674387
490,3851.8599999999997,2.0661244398598435
491,3854.57,1.9988023007522484
492,3857.27,1.9445391621579653
493,3859.98,2.02790502305037
494,3862.6899999999996,2.3275458839427747
495,3865.4,2.44918974483518
496,3868.1,2.379974606240897
497,3870.81,2.321831467133302
498,3873.5199999999995,2.0898493280257067
499,3876.2200000000003,2.009663189431423
500,3878.93,1.9258870503238283
501,3881.64,1.9552709112162332
502,3884.35,1.978534772108638
503,3887.05,1.937030633514355
504,3889.7599999999998,2.13176749440676
505,3892.4700000000003,2.0217803552991644
506,3895.18,1.8086202161915694
507,3897.88,1.8343770775972863
508,3900.5899999999997,1.909486938489691
509,3903.3,1.9243217993820962
510,3906.0,1.954870660787813
511,3908.71,2.0359275216802177
512,3911.42,2.1588423825726224
513,3914.13,2.1067042434650274
514,3916.83,2.0468981048707446
515,3919.5400000000004,2.0311339657631495
516,3922.25,1.9908318266555542
517,3924.95,2.104749688061271
518,3927.66,1.956021548953676
519,3930.3700000000003,1.921955409846081
520,3933.08,1.8508232707384855
521,3935.7799999999997,1.7339741321442026
522,3938.4900000000002,1.9216099930366075
523,3941.2000000000003,1.8314828539290124
524,3943.9,1.9882407153347292
525,3946.6099999999997,1.9257095762271343
526,3949.32,1.936215437119539
527,3952.03,2.059418298011944
528,3954.73,1.965491159417661
529,3957.44,1.8689550203100658
530,3960.15,1.8996678812024705
531,3962.86,1.7496117420948754
532,3965.5600000000004,1.8329876035005923
533,3968.27,1.867741464392997
534,3970.98,1.9569383252854018
535,3973.68,1.799156186691119
536,3976.3900000000003,1.9127750475835237
537,3979.1,1.8806719084759287
538,3981.81,1.8898487693683335
539,3984.51,1.9031926307740505
540,3987.2200000000003,2.014675491666455
541,3989.93,1.98055135255886
542,3992.6299999999997,2.186788213964577
543,3995.34,2.195503074856982
544,3998.05,2.1088399357493866
545,4000.7599999999998,2.1883377966417914
546,4003.4599999999996,2.049665658047509
547,4006.17,2.0348245189399137
548,4008.88,2.1113783798323182
549,4011.58,2.173681241238035
550,4014.29,2.18274310213044
551,4017.0,2.1256399630228446
552,4019.71,2.0564708239152494
553,4022.4100000000003,2.134766685320967
554,4025.12,2.1608015462133716
555,4027.83,2.0843574071057764
556,4030.5400000000004,2.060337267998181
557,4033.2400000000002,2.118483129403898
558,4035.95,2.278578990296303
559,4038.66,2.250054851188708
560,4041.36,2.089674712594425
561,4044.07,2.1521985734868294
562,4046.7799999999997,2.0084934343792344
563,4049.4900000000002,2.169282295271639
564,4052.19,2.1168661566773563
565,4054.9,2.235220017569761
566,4057.6099999999997,2.234061878462166
567,4060.31,2.279391739867883
568,4063.02,2.0891516007602875
569,4065.73,2.084991461652693
570,4068.44,2.1360263225450975
571,4071.14,2.1276621839508145
572,4073.85,1.9783560448432191
573,4076.5600000000004,2.077657905735624
574,4079.26,1.991523767141341
575,4081.97,1.962307628033746
576,4084.68,2.000525488926151
577,4087.3900000000003,1.8251813498185556
578,4090.09,1.8281902112242727
579,4092.7999999999997,1.9088430721166776
580,4095.5099999999998,1.8705619330090824
581,4098.22,1.959239793901487
582,4100.92,2.324824655307204
583,4103.63,2.290988516199609
584,4106.34,2.048268377092014
585,4109.04,1.8897352384977306
586,4111.75,1.8564770993901356
587,4114.46,1.8720629602825405
588,4117.17,1.8820478211749452
589,4119.87,1.910633682580662
