,lambda (Angstroms),Total Flux (erg/s/cm^2/Angstrom)
0,100.09,0.006446601242491938
1,101.94999999999999,0.007733423440316752
2,104.09,0.009191079132437798
3,104.712855,0.00961983540089927
4,106.02000000000001,0.008903377314429911
5,108.0,0.007823122425677374
6,110.0,0.006825909596634401
7,113.86999999999999,0.004724801200436256
8,117.87,0.002537757542350303
9,120.22644299999999,0.0018969448069418055
10,120.89000000000001,0.0020724272129599396
11,125.14000000000001,0.002153184554171633
12,126.88,0.0021987655244559506
13,128.06,0.0022211410215453144
14,131.04,0.0022732820396184554
15,131.95,0.002446586058560253
16,134.09,0.0024764613668409644
17,136.9,0.002720750491265637
18,138.038426,0.002749222184897603
19,140.09,0.0028520362901435945
20,143.02,0.004561232291770133
21,147.03,0.007059276652357992
22,151.15,0.007533447910617836
23,155.03,0.008113080755775165
24,158.489319,0.008642046465821939
25,159.0,0.008719883073859905
26,161.95999999999998,0.009182329983014197
27,166.11,0.009869339382673084
28,169.98,0.01046577119633089
29,173.14,0.010973728666914524
30,177.18,0.011610933407787271
31,180.06,0.012093226292369825
32,181.970086,0.012399907715936857
33,182.14000000000001,0.012427506098870908
34,185.95000000000002,0.013100457528304873
35,191.16,0.013905165178528226
36,193.82,0.014489823998028057
37,197.88,0.015168959038317269
38,202.03,0.015879694978514373
39,204.83999999999997,0.01639865196452735
40,208.929613,0.01666671700446292
41,210.09,0.01674545283224027
42,215.98,0.01832276771896782
43,219.99,0.019104654288709326
44,223.04999999999998,0.019511049102527028
45,227.20000000000002,0.02034078203629941
46,229.83,0.030291120160593713
47,234.1,0.04971480426353542
48,239.88329199999998,0.0644706246252691
49,240.11,0.06504791927326807
50,246.26999999999998,0.06196851533676702
51,252.0,0.06547249894778148
52,257.28000000000003,0.052264105573637726
53,260.26,0.06323554094201872
54,263.88,0.06680919135595804
55,268.79,0.06664110912735087
56,273.78,0.0661775950294385
57,275.42287,0.0658321884111145
58,278.87,0.06512364683474899
59,284.06,0.06543814366653723
60,290.01,0.062223185121092164
61,296.08,0.06238117783187342
62,300.89,0.05877885235227834
63,307.90000000000003,0.059884686570165754
64,316.227766,0.060708776453501145
65,317.98,0.06087480404541834
66,327.65000000000003,0.059749902623950635
67,338.38,0.057972656724018023
68,347.85999999999996,0.05612368308642612
69,356.78000000000003,0.05559504502236284
70,363.078055,0.055670563419556104
71,365.94,0.05571393924921422
72,375.32000000000005,0.054215154073026094
73,384.95,0.05073450577380522
74,394.83,0.051689004351551625
75,404.95000000000005,0.051348385931186596
76,414.39,0.04996467400547061
77,416.86938299999997,0.049424742894542906
78,422.09000000000003,0.048284960273562834
79,429.94,0.04687317530987251
80,440.96999999999997,0.04624233766025414
81,451.23999999999995,0.04489407731922235
82,459.63,0.043186521899431035
83,470.33,0.04192962952854104
84,478.630092,0.041375082276624564
85,480.18,0.04126854750997758
86,490.24,0.03923102684605289
87,500.5,0.03913170787867046
88,506.3,0.03788857707839579
89,512.16,0.040206710787083794
90,520.48,0.03892844936324151
91,530.16,0.03726110347588655
92,540.02,0.03485670111541961
93,549.5408739999999,0.03365639880863159
94,550.06,0.033591334489995996
95,560.28,0.034445543690548294
96,569.39,0.034284977234289145
97,579.97,0.03304632853975326
98,589.39,0.03237143195161262
99,600.35,0.030494708256705895
100,610.11,0.02694451087875975
101,620.02,0.030140720211193538
102,630.0999999999999,0.02878767914872457
103,630.957344,0.028787418982777608
104,640.33,0.028792392894747398
105,650.7400000000001,0.027824117982336048
106,658.27,0.02670566391024599
107,664.3599999999999,0.027015940258316586
108,675.1600000000001,0.026651182107111728
109,684.5500000000001,0.02500431874231417
110,695.6700000000001,0.02535506383107361
111,705.35,0.023516079339993702
112,716.81,0.024342687246215213
113,724.43596,0.023966798612730992
114,726.79,0.02385028052022145
115,735.2,0.023421221949990453
116,745.43,0.0226868592658688
117,755.8,0.022077444726832478
118,764.55,0.02006392879466586
119,775.19,0.021146557821151254
120,784.16,0.020161151831261593
121,795.0699999999999,0.020163874423268703
122,804.28,0.0199378338249539
123,815.4699999999999,0.019580652707131677
124,824.91,0.01927410477574278
125,831.763771,0.018015581642649218
126,834.46,0.017518150665032102
127,844.12,0.018411232758733576
128,855.87,0.017948933421362178
129,865.78,0.017780387018523833
130,875.8000000000001,0.01745388527720797
131,885.94,0.017133072257552992
132,894.14,0.016818771571046998
133,904.5,0.016396387874436983
134,914.9699999999999,0.01616796883934945
135,925.56,0.0270183685259228
136,934.13,0.038088918064537874
137,944.9399999999999,0.04878921707415619
138,954.992586,0.05411406347967856
139,955.89,0.05458987172373871
140,964.73,0.05875308178274974
141,975.9,0.030906113090346247
142,984.93,0.051780975311259095
143,994.05,0.04945562908254648
144,1005.5600000000001,0.05675829846933572
145,1014.86,0.055981275341372205
146,1024.25,0.03619525376378324
147,1036.11,0.04899999029091794
148,1045.7,0.06250333993638352
149,1055.3700000000001,0.060526262071070924
150,1065.1399999999999,0.05346541481728559
151,1074.99,0.05714746005272208
152,1084.9399999999998,0.04843687589968585
153,1094.98,0.05714480329702416
154,1096.4782,0.05676496876962667
155,1105.11,0.05457484625182526
156,1115.34,0.05333365024612097
157,1125.66,0.048538007794618684
158,1136.07,0.054192468897318415
159,1143.95,0.051399633420783734
160,1154.53,0.0515150045703095
161,1165.22,0.05115749339719328
162,1176.0,0.039462375778279074
163,1184.15,0.04863214096435044
164,1195.1100000000001,0.04207666045384026
165,1206.16,0.0362409234975321
166,1214.52,0.026040286976741496
167,1225.76,0.03981298419041537
168,1234.26,0.04621982653171678
169,1245.68,0.04740043085379469
170,1254.31,0.046214124995610124
171,1258.92541,0.04526739289219395
172,1265.92,0.0438348349859352
173,1274.69,0.04761581828598372
174,1283.53,0.0478340230490885
175,1295.4099999999999,0.04225256135063656
176,1304.39,0.04205891903985386
177,1316.46,0.046213611312554616
178,1325.5800000000002,0.04434135192788444
179,1334.7700000000002,0.041389974006270515
180,1344.02,0.044342047338704824
181,1356.4599999999998,0.04323540734470296
182,1365.8600000000001,0.040448753812257814
183,1375.33,0.04044878174286893
184,1384.86,0.04035810092752827
185,1394.4599999999998,0.034048851575243864
186,1404.13,0.03366152368601573
187,1413.8600000000001,0.03775566705083581
188,1423.6599999999999,0.03689909187871215
189,1433.53,0.03732655816964476
190,1443.47,0.03784307592363362
191,1445.43977,0.03779177254648202
192,1446.79,0.037756600778914885
193,1453.47,0.03673045795833946
194,1463.5500000000002,0.03508300477998611
195,1473.69,0.03484304265414257
196,1483.9099999999999,0.03476288193164543
197,1494.19,0.03444498226165808
198,1504.55,0.03305131399501715
199,1511.49,0.030851905735317528
200,1518.47,0.031640148177291105
201,1525.4799999999998,0.03127962114551958
202,1536.05,0.028145046562662947
203,1546.7,0.027317253383152718
204,1553.84,0.026638368631819096
205,1564.61,0.027951897557328468
206,1575.4599999999998,0.028998257886184247
207,1586.38,0.02933256944296812
208,1593.7,0.029468507849163904
209,1604.75,0.028602491686385685
210,1615.8700000000001,0.028211036751535565
211,1623.3300000000002,0.027445327613587554
212,1634.58,0.02827608495917534
213,1645.9099999999999,0.028017843708109526
214,1653.51,0.027194247026017717
215,1659.58691,0.027665457324412265
216,1664.97,0.028083463225271613
217,1672.6499999999999,0.026216587069370575
218,1676.51,0.02847434155351406
219,1684.25,0.028539883083895046
220,1695.9199999999998,0.02732373806574854
221,1703.75,0.026583371125552556
222,1715.56,0.025685594042064105
223,1723.48,0.025510698631291157
224,1735.43,0.026587329482460762
225,1743.44,0.026045125601110844
226,1755.5200000000002,0.0270196531058915
227,1763.6299999999999,0.025457822035011624
228,1775.85,0.025577477474450334
229,1784.0500000000002,0.02605045793299349
230,1796.4099999999999,0.027274351307090255
231,1804.71,0.02702574457610345
232,1813.04,0.02546422168825766
233,1825.6,0.025877760683294497
234,1834.0300000000002,0.025293290605918745
235,1846.74,0.022972978816660643
236,1855.27,0.02388655154975493
237,1863.83,0.025123438125990227
238,1876.75,0.025824203238719205
239,1885.4099999999999,0.024556292625424542
240,1894.12,0.024670898417364896
241,1902.8600000000001,0.025244118052446265
242,1905.46072,0.025198809468183925
243,1916.05,0.025011222626207544
244,1924.8899999999999,0.023511672891292166
245,1933.78,0.021948194899957585
246,1947.18,0.02605903217961075
247,1956.17,0.025120237675437754
248,1965.2,0.027721456566129402
249,1974.27,0.027027518851685684
250,1983.3799999999999,0.027402464532106603
251,1997.13,0.02739995401682533
252,2006.3500000000001,0.027022121533123996
253,2015.61,0.027332462444287303
254,2024.91,0.025632216750315243
255,2034.26,0.027963722799923978
256,2043.6499999999999,0.02975007224439735
257,2053.08,0.027769265083735357
258,2067.31,0.027640035306829718
259,2072.08,0.030858247644437602
260,2076.86,0.04045722833076164
261,2086.44,0.04558972640084203
262,2096.0699999999997,0.042453396214503225
263,2105.75,0.04110922777174521
264,2115.4700000000003,0.04516821272385183
265,2125.23,0.04110614107082309
266,2135.04,0.03916754116137514
267,2144.8999999999996,0.04653249299550799
268,2154.8,0.04642383822450547
269,2164.74,0.04138442684836759
270,2174.73,0.04195739721581051
271,2184.77,0.04950488932683422
272,2187.7616199999998,0.0497083087699573
273,2194.8599999999997,0.05019307986711552
274,2204.99,0.0484938135386001
275,2215.17,0.03989044379286595
276,2225.39,0.04464511931335681
277,2235.66,0.05605374141662893
278,2245.98,0.053414540102682324
279,2256.35,0.042447305371516975
280,2266.7599999999998,0.040358065906576646
281,2277.23,0.043039704340973844
282,2282.48,0.05466161553300682
283,2293.01,0.04643271186674153
284,2303.6,0.054918226099813755
285,2314.23,0.048178305599111
286,2324.91,0.03963552168118951
287,2335.64,0.036244264346049285
288,2346.42,0.02708442359369033
289,2357.25,0.04519452942411264
290,2362.69,0.02895212563071443
291,2373.5899999999997,0.03600875067703051
292,2384.55,0.02372105362268411
293,2395.56,0.02836860315111898
294,2406.61,0.028243507945778863
295,2417.72,0.032488130639776264
296,2423.2999999999997,0.051901665278165594
297,2434.48,0.051551587188056774
298,2445.7200000000003,0.06055138699728546
299,2457.01,0.06340495338929543
300,2462.67,0.05600790856013478
301,2474.04,0.049138895484594776
302,2485.46,0.032140778991836025
303,2496.93,0.037830539081858544
304,2502.69,0.05680328741826044
305,2511.88643,0.033528381623664755
306,2514.24,0.02757138825574227
307,2520.0299999999997,0.022229633230963348
308,2525.8399999999997,0.024587667187100565
309,2537.4999999999995,0.038452163061207266
310,2543.35,0.040444434979176755
311,2555.0899999999997,0.06876000677694799
312,2566.88,0.052193826027009574
313,2572.8,0.06567771437818552
314,2584.68,0.058283379042369715
315,2596.6099999999997,0.052320991158844234
316,2602.59,0.0450653464527686
317,2614.61,0.04064316398336573
318,2626.6800000000003,0.055039918966253196
319,2632.73,0.09317788069338404
320,2644.88,0.12565885159993603
321,2657.0899999999997,0.17183472944923647
322,2663.2200000000003,0.11331281710003183
323,2675.5099999999998,0.12771859087299678
324,2687.86,0.14730946158871014
325,2694.05,0.10675324618225392
326,2706.49,0.13131671231208988
327,2712.73,0.094511834357924
328,2725.25,0.07614463641142451
329,2737.83,0.09650054540767342
330,2744.14,0.05482018388671401
331,2756.81,0.07545938829708553
332,2763.16,0.09944275473795838
333,2775.92,0.1060624745624525
334,2782.31,0.062216468965157645
335,2795.16,0.02791764420377437
336,2808.06,0.03354503689468145
337,2814.53,0.0924117672210511
338,2827.52,0.1350800453260808
339,2834.04,0.1254957131047408
340,2847.1200000000003,0.08970330662389309
341,2853.69,0.050609211854843426
342,2866.86,0.12379714078811832
343,2873.4700000000003,0.16773680398090093
344,2884.0315,0.15599778780782697
345,2886.73,0.15299856301422268
346,2893.3799999999997,0.1864862560796755
347,2906.74,0.2521215421480138
348,2926.89,0.22013772113581453
349,2947.18,0.20312489997762476
350,2967.61,0.21076787867344454
351,2988.18,0.2147108572232738
352,3008.8900000000003,0.21473563562711265
353,3029.75,0.2295902138745331
354,3050.75,0.2421019919759631
355,3071.89,0.2612274699314026
356,3093.19,0.2535675477199959
357,3107.47,0.29248283282896836
358,3129.0099999999998,0.26924061036729224
359,3150.69,0.2674390877596257
360,3172.53,0.2966460649851129
361,3187.18,0.2602019497082534
362,3209.27,0.2879635266730433
363,3231.52,0.245708803470987
364,3246.4300000000003,0.3430857879230023
365,3268.94,0.4003673644498209
366,3291.5899999999997,0.39311194083064893
367,3306.79,0.36690622498025544
368,3311.31121,0.3582726646037262
369,3322.0499999999997,0.3377660061973705
370,3329.71,0.38689745350209115
371,3337.3799999999997,0.3627666006074707
372,3345.0800000000004,0.3594491471148269
373,3352.79,0.3271010934228421
374,3360.52,0.38253513933217503
375,3368.27,0.3687297848428258
376,3376.0299999999997,0.28624813015413547
377,3383.81,0.303924475066763
378,3391.61,0.37650061958070824
379,3399.43,0.3879434636959713
380,3407.27,0.38001760741255225
381,3415.12,0.36291945092979205
382,3423.0,0.43233419384900856
383,3430.89,0.39430923656888406
384,3438.79,0.4063107790894183
385,3446.72,0.2703517210119294
386,3454.67,0.40263436253575824
387,3462.6299999999997,0.331863103860246
388,3470.61,0.37494114478605156
389,3478.6099999999997,0.29784498531317494
390,3486.63,0.36643602544161613
391,3494.67,0.3281215651713751
392,3502.73,0.40646360450245195
393,3510.8,0.4074205436341876
394,3518.89,0.3573311823672411
395,3527.0099999999998,0.33350772050227134
396,3535.14,0.40281085843796044
397,3543.29,0.4646336959749674
398,3551.46,0.44784733311329217
399,3559.64,0.4208892700522758
400,3567.8500000000004,0.39372820639323614
401,3576.07,0.3305463425348554
402,3584.3199999999997,0.2601958780784514
403,3592.5800000000004,0.3149617134227063
404,3600.86,0.46692864836827896
405,3609.1600000000003,0.37609618291516944
406,3617.48,0.41427621706337775
407,3625.82,0.43184105081290386
408,3634.1800000000003,0.4191284841637478
409,3642.5600000000004,0.5050619171159095
410,3650.95,0.3814166498687302
411,3659.3700000000003,0.5350262820235275
412,3667.8100000000004,0.5157017137796427
413,3676.26,0.5412837453364168
414,3684.73,0.4554628764945086
415,3693.23,0.4565285070545772
416,3701.7400000000002,0.5425982374153047
417,3710.28,0.37371026717800887
418,3718.8300000000004,0.560429296741372
419,3727.4,0.43709322590605293
420,3735.9900000000002,0.3754937546720516
421,3744.6099999999997,0.47271228284002703
422,3753.24,0.2727040108086614
423,3761.89,0.3781414383786135
424,3770.56,0.4080174655498835
425,3779.2599999999998,0.5054607921231301
426,3787.97,0.5658364184970357
427,3796.7000000000003,0.4253360444722591
428,3801.8939600000003,0.4634228637782632
429,3805.4500000000003,0.48949898481884485
430,3814.23,0.5245148462651726
431,3823.0199999999995,0.3671195075536946
432,3831.83,0.3032918685266045
433,3840.6600000000003,0.2870189291839023
434,3849.52,0.4455046893677822
435,3858.39,0.44145454939385603
436,3867.29,0.46656620894651185
437,3876.2000000000003,0.3613744683413617
438,3885.1400000000003,0.4045411272627935
439,3894.09,0.4073699860264193
440,3896.31,0.5408786509934862
441,3898.08,0.5302587230618234
442,3899.8500000000004,0.6898179951301606
443,3901.6299999999997,0.5260052670406917
444,3903.4,0.607021339109029
445,3905.17,0.612207711177366
446,3906.94,0.5169253832457033
447,3908.72,0.49031825515623445
448,3910.49,0.5757421272245716
449,3912.26,0.6092912992929087
450,3914.04,0.59555437120344
451,3915.81,0.5843554432717771
452,3917.58,0.5452421153401144
453,3919.35,0.5583541874084514
454,3921.13,0.4705940593189826
455,3922.9,0.5368470313873198
456,3924.67,0.600809903455657
457,3926.44,0.45501077552399416
458,3928.2200000000003,0.3267772474345253
459,3929.99,0.2212697195028625
460,3931.76,0.27495039157119966
461,3933.53,0.20085186363953683
462,3935.3100000000004,0.385706435550068
463,3937.08,0.3751776076184052
464,3938.85,0.4364440796867423
465,3940.6200000000003,0.4201493517550795
466,3942.3999999999996,0.27860062366561067
467,3944.17,0.41440449573394783
468,3945.94,0.442276967802285
469,3947.71,0.4654319398706222
470,3949.49,0.6553518117811534
471,3951.2599999999998,0.6151031838494905
472,3953.03,0.5622507559178277
473,3954.8100000000004,0.5631182278283589
474,3956.58,0.5520306998966961
475,3958.35,0.4107532719650332
476,3960.12,0.4209268440333704
477,3961.9,0.3500196159439015
478,3963.67,0.2769975880122387
479,3965.44,0.2924712600805759
480,3967.21,0.23536683214891305
481,3968.9900000000002,0.2740146040594442
482,3970.7599999999998,0.2865036761277814
483,3972.53,0.36195324819611857
484,3974.3,0.4386034202644557
485,3976.0800000000004,0.6262106921749869
486,3977.85,0.5646536642433241
487,3979.62,0.5478473363116613
488,3981.3900000000003,0.5312610083799983
489,3983.1699999999996,0.5751846802905295
490,3984.94,0.6522127523588668
491,3986.71,0.6991673244272039
492,3988.4900000000002,0.628145196337735
493,3990.2599999999998,0.6599609684060723
494,3992.0299999999997,0.5201504404744094
495,3993.8,0.6793089125427465
496,3995.5800000000004,0.6491833844532778
497,3997.35,0.7047981565216149
498,3999.12,0.657555728589952
499,4000.89,0.6946036006582893
500,4002.6699999999996,0.6593350725688204
501,4004.44,0.5989833446371576
502,4006.21,0.6669728167054948
503,4007.98,0.7215192887738319
504,4009.76,0.7098045606843632
505,4011.5299999999997,0.7673786327527004
506,4013.3,0.7688915048210374
507,4015.07,0.7387728768893747
508,4016.8500000000004,0.7268577487999058
509,4018.62,0.7425779208682429
510,4020.39,0.7481872929365802
511,4022.17,0.6387429648471113
512,4023.9399999999996,0.6136076369154484
513,4025.71,0.6473602089837857
514,4027.48,0.6329776810521228
515,4029.26,0.668552652962654
516,4031.0299999999997,0.6154331250309912
517,4032.8,0.5622051970993283
518,4034.57,0.7575374691676654
519,4036.3500000000004,0.7080688410781967
520,4038.12,0.7506787131465338
521,4039.89,0.714883085214871
522,4041.6600000000003,0.7667765572832081
523,4043.4399999999996,0.6802405291937393
524,4045.21,0.6065057012620765
525,4046.98,0.6625878733304137
526,4048.75,0.6214677453987508
527,4050.5299999999997,0.6683300173092821
528,4052.2999999999997,0.6969366893776192
529,4054.07,0.6232940614459563
530,4055.84,0.6273896335142936
531,4057.62,0.6475143054248247
532,4059.39,0.6220673774931619
533,4061.16,0.625609349561499
534,4062.94,0.6298577214720302
535,4064.7100000000005,0.6127399935403673
536,4066.48,0.7421744656087046
537,4068.25,0.7091615376770417
538,4070.03,0.6684611095875729
539,4071.7999999999997,0.6279676816559101
540,4073.57,0.5846882537242473
541,4075.34,0.6794183257925843
542,4077.1200000000003,0.6117803977031155
543,4078.89,0.6306169697714528
544,4080.66,0.7217150418397899
545,4082.4300000000003,0.7639279139081271
546,4084.2099999999996,0.6957773858186582
547,4085.98,0.6666602578869953
548,4087.75,0.7067990299553326
549,4089.52,0.7550451020236697
550,4091.2999999999997,0.7158804739342008
551,4093.0699999999997,0.738257046002538
552,4094.84,0.6881873180708752
553,4096.62,0.6193726899814065
554,4098.39,0.5708394620497436
555,4100.16,0.5276740341180808
556,4101.929999999999,0.5957749061864179
557,4103.71,0.6431714780969491
558,4105.4800000000005,0.6165890501652862
559,4107.25,0.6347577222336235
560,4109.0199999999995,0.7186016943019606
561,4110.8,0.6951770662124918
562,4112.57,0.687410038280829
563,4114.34,0.6862960103491661
564,4116.11,0.6978082824175033
565,4117.89,0.7382553543280345
566,4119.66,0.6819966263963716
567,4121.429999999999,0.6661034984647087
568,4123.21,0.69005747037524
569,4124.98,0.6461546424435771
570,4126.75,0.6482051145119142
571,4128.5199999999995,0.6840694865802515
572,4130.3,0.6768335584907826
573,4132.07,0.7230499305591198
574,4133.84,0.732402902627457
