,lambda (Angstroms),Total Flux (erg/s/cm^2/Angstrom)
0,100.05,0.0048715335007987895
1,101.91000000000001,0.005860926021395751
2,104.04,0.006987035854498712
3,104.712855,0.007344843853249957
4,105.97,0.006808516273130089
5,107.95,0.005969455709735965
6,109.94999999999999,0.005153338158832816
7,114.08,0.003413938988217799
8,118.09,0.0017283162426569721
9,120.22644299999999,0.001311373767943456
10,121.11999999999999,0.0015084975269794596
11,125.08,0.001623840893263744
12,127.11999999999999,0.0016624192940768606
13,128.0,0.0017040404865844793
14,130.98,0.0017566537975761884
15,131.89,0.001968050848919294
16,134.03,0.002002390112517367
17,137.15,0.0023295344314080155
18,138.038426,0.0023585151233875526
19,140.02,0.0024617139756789408
20,142.96,0.005702986503451528
21,146.96,0.012116343881373413
22,151.08,0.012796168770632959
23,154.95,0.013608211761272382
24,158.489319,0.01443391765516533
25,158.93,0.014536557964379528
26,161.88000000000002,0.015213028913931342
27,166.04000000000002,0.016288035405502714
28,169.9,0.017128090275085765
29,173.05999999999997,0.017885921360029405
30,177.09,0.01876411014873917
31,179.97,0.019416997719827044
32,181.970086,0.019887776144105376
33,182.06,0.019909070110251403
34,185.87,0.02079805214450584
35,191.07,0.021929043792307163
36,194.18,0.02279937925858834
37,197.79000000000002,0.023654120844850413
38,201.92999999999998,0.02465383911829224
39,205.21,0.025400954465366922
40,208.929613,0.025447522547080312
41,209.99,0.025462692916579564
42,215.88,0.027922342110264467
43,219.89000000000001,0.028976159829564373
44,222.95,0.02938339542085059
45,227.09,0.030561131220826057
46,230.25,0.045779360720324236
47,233.99,0.07606582088745184
48,239.88329199999998,0.09428266882965058
49,240.0,0.09464297147292954
50,246.15,0.08873312461596122
51,251.89,0.09311081021612413
52,257.15999999999997,0.0765776339988521
53,260.14,0.08911877296897153
54,263.76,0.09330581420113003
55,269.28000000000003,0.092230267461217
56,274.28999999999996,0.0909551893874916
57,275.42287,0.09063731846265104
58,278.74,0.08971865360877623
59,283.92,0.08890416862433395
60,289.87,0.0839462022232854
61,295.94,0.08396037157549302
62,300.75,0.08112300051851092
63,307.75,0.0811366394584538
64,316.227766,0.08114748838274821
65,317.84,0.08114429685341557
66,328.25,0.07911032204184112
67,338.21999999999997,0.07641556354314782
68,347.70000000000005,0.0736434702565267
69,356.62,0.07195904864084525
70,363.078055,0.07136692012819719
71,365.77,0.07112670462469488
72,375.15,0.06888285243943816
73,384.77,0.06430703836458
74,394.64,0.06476391315472031
75,404.77,0.06358727756445907
76,414.19,0.06158841839760212
77,416.86938299999997,0.06081782820937255
78,421.89,0.05937173958812417
79,429.74,0.05749827490722381
80,440.76,0.05607523571187069
81,451.03,0.053934342568832894
82,460.46999999999997,0.051877143857024056
83,470.10999999999996,0.05024388419793113
84,478.630092,0.049166197090006525
85,479.96,0.04899599675144456
86,490.01000000000005,0.046577184078278315
87,500.27000000000004,0.046036983737314574
88,506.06,0.04447654518232626
89,511.92,0.04602743740473878
90,520.24,0.044669208375809115
91,529.9100000000001,0.042755697196752644
92,539.76,0.0400875337310126
93,549.5408739999999,0.038585132825871525
94,549.8,0.03854547739396918
95,560.02,0.038808663154396836
96,570.4300000000001,0.038452136595302104
97,579.7,0.03689293395334167
98,590.48,0.03605393550886126
99,600.0699999999999,0.0338855947498105
100,609.82,0.029526659932214573
101,619.73,0.03303579105607349
102,629.8,0.03155154812138723
103,630.957344,0.03152678039489119
104,640.0300000000001,0.031338486988080075
105,650.4300000000001,0.0302131772272034
106,657.9699999999999,0.02899356590056781
107,665.58,0.029130030556310936
108,674.84,0.028604687653838053
109,684.23,0.02676913300435421
110,695.35,0.027019220490801455
111,705.02,0.025113939770832473
112,716.48,0.025699313457404904
113,724.43596,0.02523804384039189
114,726.45,0.025120951866686794
115,734.86,0.02461017795826829
116,745.08,0.02372825630023772
117,755.45,0.023087806320416095
118,764.19,0.020690642104057272
119,774.8199999999999,0.021959827033131152
120,785.6,0.020837813640413975
121,794.7,0.020791445451756617
122,805.76,0.020510971191696138
123,815.09,0.020049791576292497
124,824.52,0.019689653079694818
125,831.763771,0.018264781968879637
126,834.0699999999999,0.017809591090256663
127,845.6700000000001,0.018678150452527863
128,855.47,0.018127058534446634
129,865.37,0.01787644057638499
130,875.3900000000001,0.017588737370346837
131,885.5300000000001,0.01722617891633218
132,895.7800000000001,0.016871459818339058
133,904.07,0.016411733103962184
134,914.54,0.01773150271801214
135,925.13,0.03237204708408559
136,935.84,0.049149576202182535
137,944.5000000000001,0.0693720591398781
138,954.992586,0.08372321521183156
139,955.44,0.08433533579691793
140,964.28,0.09161531250807547
141,975.45,0.035629779664594685
142,984.47,0.07853285327711064
143,995.87,0.07853245369647671
144,1005.09,0.10020344275494646
145,1014.39,0.09747511599179773
146,1026.1299999999999,0.05288487166928524
147,1035.63,0.0769200203520903
148,1045.21,0.11825322321327687
149,1054.8799999999999,0.11502951952514265
150,1064.64,0.09525499928768763
151,1074.49,0.10736249250091183
152,1084.43,0.08708706916481522
153,1094.47,0.10935133855169553
154,1096.4782,0.1083292307343596
155,1104.6000000000001,0.10419424261244256
156,1114.82,0.1004250149292681
157,1125.13,0.09034055674790521
158,1135.54,0.10809389579077741
159,1146.05,0.0997293020578847
160,1153.99,0.10275269366215033
161,1164.67,0.10370186121045724
162,1175.45,0.07463246598299926
163,1186.32,0.09857995025735285
164,1194.55,0.07531693581190023
165,1205.6,0.05929133908987696
166,1213.96,0.04123323503592994
167,1225.19,0.07208734731752983
168,1233.68,0.09632597365508842
169,1245.1,0.10249924266273495
170,1253.73,0.09833866711422268
171,1258.92541,0.09373167223642362
172,1265.3300000000002,0.08805400757583166
173,1274.1,0.10560623965204864
174,1285.89,0.10831313065302907
175,1294.8000000000002,0.08907250499728143
176,1303.78,0.0878502804755515
177,1315.8400000000001,0.10416061585060019
178,1324.96,0.09947305359690564
179,1334.15,0.0894870324772288
180,1346.49,0.10202391238834826
181,1355.8200000000002,0.09856455353670682
182,1365.22,0.08927784581908305
183,1374.69,0.09156892923547699
184,1384.2099999999998,0.09157048346188358
185,1393.81,0.07794681898431037
186,1403.47,0.07921144547875235
187,1416.46,0.08409682592003612
188,1426.27,0.084679184844516
189,1436.1599999999999,0.08448552506501612
190,1442.79,0.08744949247269213
191,1445.43977,0.0879329791724588
192,1446.12,0.08805709464852321
193,1456.1399999999999,0.08526569088751622
194,1466.23,0.07939532807827862
195,1476.3999999999999,0.07885177635677751
196,1486.6299999999999,0.07939510545107874
197,1493.49,0.07976230872448112
198,1503.84,0.07547910945038706
199,1510.79,0.06805845394749298
200,1517.76,0.07158833871653303
201,1524.77,0.06980214402944131
202,1535.33,0.06108615761065548
203,1545.98,0.06381396241557319
204,1556.69,0.060806778036293245
205,1563.8799999999999,0.06250637579660857
206,1574.72,0.0659021231849004
207,1585.63,0.06790427152496165
208,1596.6299999999999,0.06884556108872641
209,1603.9999999999998,0.0669731512964488
210,1615.11,0.06651089235585123
211,1626.31,0.06337360463895717
212,1633.82,0.06651052675021837
213,1645.1399999999999,0.06681762066492904
214,1656.54,0.06250809566737615
215,1659.58691,0.06422467059998195
216,1664.19,0.06681836415544258
217,1671.8700000000001,0.06024922673487893
218,1675.73,0.06712558001048105
219,1683.46,0.06884878755462728
220,1695.1299999999999,0.0648522563179114
221,1706.88,0.062367633024731334
222,1714.76,0.059290485463007164
223,1726.65,0.058752986071014736
224,1734.6100000000001,0.06194567645282636
225,1746.64,0.06039654096202157
226,1754.6999999999998,0.06352935127325295
227,1766.8600000000001,0.058617958690693826
228,1775.02,0.05943638893134494
229,1783.21,0.06040074215082197
230,1795.57,0.06382937942710235
231,1803.86,0.06309812257599912
232,1816.36,0.058354153753467135
233,1824.75,0.059301026831783656
234,1833.17,0.05716069288892611
235,1845.88,0.052142204918175575
236,1854.3999999999999,0.052745940904737776
237,1862.9599999999998,0.05447313086306786
238,1875.8700000000001,0.05782693275115682
239,1884.5300000000002,0.05372739263890666
240,1893.23,0.0522670964984244
241,1905.46072,0.054443523981121664
242,1906.35,0.0546015671178252
243,1915.1499999999999,0.052749660794162996
244,1923.9899999999998,0.05096126935084778
245,1932.87,0.050610002787879554
246,1946.27,0.05510191770412119
247,1955.25,0.051903198342020444
248,1968.81,0.056901342779650046
249,1977.8899999999999,0.05715918061841677
250,1982.45,0.055603076977973634
251,1996.1999999999998,0.05446561709725144
252,2005.41,0.05509405829714588
253,2014.67,0.05396303309747406
254,2023.97,0.05408568277814923
255,2033.3100000000002,0.05383703733917139
256,2042.69,0.05637018678054054
257,2056.85,0.053341274423374996
258,2066.35,0.053339578505785114
259,2075.88,0.05767356874845548
260,2085.4700000000003,0.07724111131164632
261,2095.09,0.0720859300350974
262,2104.7599999999998,0.07110002235898225
263,2114.48,0.07565009828330081
264,2124.2400000000002,0.07158644908796635
265,2134.04,0.0674319447729789
266,2143.89,0.07705664405842519
267,2153.79,0.0775879769443052
268,2163.73,0.07092538471053221
269,2173.7200000000003,0.07109081607719296
270,2183.75,0.0804901123242007
271,2187.7616199999998,0.08063730051158097
272,2193.83,0.08086134812873876
273,2203.96,0.07884379186004847
274,2214.13,0.06680887967321923
275,2224.35,0.07224421258871631
276,2234.62,0.0880533506065397
277,2244.93,0.08390113270622412
278,2255.29,0.06979927990823485
279,2265.7,0.06697054221257188
280,2276.1600000000003,0.07142658961923525
281,2286.67,0.08785454212822488
282,2297.2200000000003,0.07551821871907559
283,2302.52,0.0867265595656641
284,2313.15,0.07594989432023687
285,2323.82,0.06151500315667071
286,2334.55,0.06057425811589611
287,2345.33,0.048839958177447816
288,2356.15,0.07192428232086057
289,2367.0299999999997,0.05133556258706489
290,2372.48,0.05990568874063231
291,2383.43,0.04477493615009346
292,2394.44,0.05131722968234618
293,2405.4900000000002,0.05065455729645994
294,2416.59,0.05570776001290001
295,2427.75,0.08054018885213166
296,2433.34,0.08057348929221272
297,2444.57,0.0934292652747012
298,2455.86,0.09790121737998124
299,2467.19,0.08574235356712231
300,2472.88,0.077521074211856
301,2484.3,0.05520346958318444
302,2495.7599999999998,0.062264179036373914
303,2507.28,0.08879752461235497
304,2511.88643,0.05769270950583869
305,2513.06,0.04976803833274829
306,2518.86,0.04428209926353289
307,2524.6600000000003,0.046064150194317505
308,2536.31,0.06433649008115211
309,2542.16,0.0667734890372021
310,2553.9,0.1116038253695144
311,2565.6800000000003,0.085734130122039
312,2577.53,0.10700259210993514
313,2583.47,0.09585954751146282
314,2595.3900000000003,0.0875029667347305
315,2607.37,0.07716629358831663
316,2613.38,0.07106468622521586
317,2625.45,0.09202121952427969
318,2637.57,0.15312852084860892
319,2643.65,0.20331948072087966
320,2655.8500000000004,0.2828016988856335
321,2661.9700000000003,0.17937005717811658
322,2674.2599999999998,0.2032741717883481
323,2686.6,0.236274484423845
324,2692.79,0.17244953995169962
325,2705.22,0.2132988490326742
326,2717.71,0.15503095574396727
327,2723.9799999999996,0.1226494081122465
328,2736.5499999999997,0.15594401166396418
329,2742.8599999999997,0.09190380245245572
330,2755.52,0.12234676244965108
331,2761.8700000000003,0.15874691165835492
332,2774.62,0.16907150810102797
333,2787.42,0.10461150256896642
334,2793.85,0.05322461861809489
335,2806.75,0.0625711891365641
336,2813.2200000000003,0.14969968360590485
337,2826.2,0.21653297096479868
338,2832.7200000000003,0.20357511345940485
339,2845.7900000000004,0.14594319726377636
340,2852.3500000000004,0.08740701817859482
341,2865.5199999999995,0.20355281803349712
342,2872.1200000000003,0.2804263573685279
343,2884.0315,0.25636420777591684
344,2885.38,0.2536401858375513
345,2892.0299999999997,0.3143288804625706
346,2912.0800000000004,0.42750436425680166
347,2932.27,0.37199684793787524
348,2952.59,0.34287283151387393
349,2973.06,0.35951941496863254
350,2986.78,0.36485240387919865
351,3007.48,0.3661984871480556
352,3028.3300000000004,0.3938343702956724
353,3049.3199999999997,0.41201385333013174
354,3070.46,0.4523908362433509
355,3091.7400000000002,0.4406830190434126
356,3113.17,0.5160986017222341
357,3127.54,0.4765938901074262
358,3149.22,0.47727727258418073
359,3171.05,0.5289152549396952
360,3193.03,0.4560662371739693
361,3207.77,0.5074995252601023
362,3230.0,0.4256834072923096
363,3252.39,0.6077212891951941
364,3267.41,0.713015677055012
365,3290.0600000000004,0.6994589587477468
366,3311.31121,0.6568322765582282
367,3312.86,0.6537256176407764
368,3320.5,0.6160564995953937
369,3328.15,0.6758385813955012
370,3335.8199999999997,0.7096861628865895
371,3343.51,0.6460856440686583
372,3351.22,0.637529624941708
373,3358.95,0.7189339055057383
374,3366.69,0.6038448859152589
375,3374.45,0.47224406601576013
376,3382.23,0.5693531458072422
377,3390.03,0.6895555252897048
378,3397.8399999999997,0.6036832046176578
379,3405.67,0.7311498836365914
380,3413.53,0.670239662191996
381,3421.3900000000003,0.7218969407474006
382,3429.28,0.6881589188392764
383,3437.19,0.6996722966221326
384,3445.11,0.4427508742504794
385,3453.0499999999997,0.7401901515698066
386,3461.0099999999998,0.6006147285801147
387,3468.9900000000002,0.6618990052814034
388,3476.99,0.6166465816736728
389,3484.9999999999995,0.6811627579114324
390,3493.04,0.5760775336856631
391,3501.09,0.6617358093053842
392,3509.16,0.7377667846160859
393,3517.25,0.6013660596177683
394,3525.36,0.6185826343104314
395,3533.48,0.7561140088485848
396,3541.63,0.8219176829232092
397,3549.79,0.8204674568433239
398,3557.98,0.7149511302999098
399,3566.18,0.7664959036019858
400,3574.3999999999996,0.5442236765950427
401,3582.6400000000003,0.5345479492790801
402,3590.9,0.46582772165409814
403,3599.1800000000003,0.813631193720097
404,3607.47,0.664750665631586
405,3615.79,0.6980552370795463
406,3624.1299999999997,0.608304308218487
407,3632.48,0.8878843792029182
408,3640.85,0.82713904987833
409,3649.2400000000002,0.7224833202447225
410,3657.66,0.957292190147586
411,3666.09,0.9868881598959398
412,3674.54,0.9517012293352745
413,3683.0099999999998,0.7902250984655895
414,3691.5,0.7603105672868854
415,3700.01,0.925171335799162
416,3708.54,0.6736814040024192
417,3717.09,1.031976371896657
418,3725.6600000000003,0.5942085394818756
419,3734.25,0.8112617067580749
420,3742.86,0.7733793737252548
421,3751.48,0.487149940537925
422,3760.1299999999997,0.8889589068870662
423,3768.7999999999997,0.7483639729271881
424,3777.4900000000002,0.9275907386582908
425,3786.2000000000003,1.0533863040803741
426,3794.9300000000003,0.8013596691934379
427,3801.8939600000003,0.7454978457047376
428,3803.67,0.7312512398697627
429,3812.44,0.933888132598863
430,3821.23,0.7137629250833321
431,3830.04,0.5102894173231695
432,3838.87,0.49665840931837546
433,3847.7200000000003,0.79119000106895
434,3856.5899999999997,0.808194092574893
435,3865.48,0.7993668838362046
436,3874.39,0.6855137748528847
437,3883.32,0.7083824656249332
438,3886.7000000000003,0.8122272242822149
439,3890.75,0.8359032747443422
440,3894.7999999999997,0.8969750252064695
441,3898.85,0.9522895756685968
442,3902.9,0.8966505261307242
443,3906.9500000000003,0.9926427765928515
444,3911.0099999999998,0.963637726932663
445,3915.0600000000004,0.9433003773947903
446,3919.11,0.9575068278569177
447,3923.16,0.731628078319045
448,3927.21,0.6714700287811722
449,3931.2599999999998,0.5144528792432997
450,3935.3100000000004,0.531413429705427
451,3939.37,0.6510769800452386
452,3943.42,0.7804828305073659
453,3947.4700000000003,0.8942265809694933
454,3951.52,0.9268345314316205
455,3955.5699999999997,0.8328897818937478
456,3959.62,0.7598218323558752
457,3963.67,0.6794359828180024
458,3967.7200000000003,0.6907901332801297
459,3971.7799999999997,0.7148357836199414
460,3975.8300000000004,0.8343408340820686
461,3979.88,0.9917259845441959
462,3983.93,1.1775758350063232
463,3987.98,1.1861327854684505
464,3992.0299999999997,1.2605967359305779
465,3996.0800000000004,1.3411466863927053
466,4000.14,1.2511776367325167
467,4004.19,1.274585587194644
468,4008.2400000000002,1.4713045376567715
469,4012.29,1.409852488118899
470,4016.3399999999997,1.4142134385810263
471,4020.39,1.4593053890431535
472,4024.44,1.268347339505281
473,4028.5,1.3464702898450924
474,4032.5499999999997,1.3241962403072198
475,4036.6000000000004,1.4074841907693472
476,4040.65,1.3388831412314743
477,4044.7,1.3598700916936017
478,4048.75,1.376552042155729
479,4052.7999999999997,1.3167749926178562
480,4056.8500000000004,1.3238729430799836
481,4060.91,1.3100938934197952
482,4064.96,1.2969138438819225
483,4069.01,1.2481667943440498
484,4073.06,1.3702017448061772
485,4077.11,1.2998726952683044
486,4081.16,1.3908076457304317
487,4085.21,1.450857596192559
488,4089.27,1.3659465465323706
489,4093.3199999999997,1.4130294969944979
490,4097.37,1.3429214474566253
491,4101.42,1.4275003979187526
492,4105.47,1.3210733483808799
493,4109.5199999999995,1.3365712988430072
494,4113.57,1.3338292493051347
495,4117.62,1.449031199767262
496,4121.679999999999,1.3374251501070735
497,4125.7300000000005,1.3075651005692008
498,4129.78,1.3795060510313282
499,4133.83,1.2525790014934555
500,4137.88,1.3247359519555828
501,4141.929999999999,1.2822239024177102
502,4145.9800000000005,1.3112818528798373
503,4150.04,1.328172803219649
504,4154.09,1.3053607536817764
505,4158.14,1.3607287041439036
506,4162.1900000000005,1.340069654606031
507,4166.24,1.3047676050681583
508,4170.29,1.3236025555302855
509,4174.34,1.3579325059924128
510,4178.39,1.3328074564545402
511,4182.45,1.2100164067943517
512,4186.5,1.2994923572564792
513,4190.55,1.2805543077186063
514,4194.6,1.3183282581807336
515,4198.65,1.352390208642861
516,4202.7,1.4184661591049883
517,4206.75,1.4136801095671157
518,4210.8099999999995,1.4004320599069273
519,4214.860000000001,1.4498280103690546
520,4218.91,1.283729960831182
521,4222.96,1.2976139112933094
522,4227.01,1.3132198617554367
523,4231.0599999999995,1.3438858122175639
524,4235.110000000001,1.4100697626796912
525,4239.16,1.4292267131418186
526,4243.219999999999,1.51767966348163
527,4247.27,1.5341466139437574
528,4251.32,1.4299185644058847
529,4255.37,1.393655514868012
530,4259.42,1.4665654653301394
531,4263.469999999999,1.4340144157922667
532,4267.52,1.414915366254394
533,4271.58,1.4756583165942057
534,4275.63,1.4525172670563329
535,4279.68,1.3595952175184602
536,4283.7300000000005,1.3430791679805876
537,4287.78,1.293310118442715
538,4291.83,1.2438630689048422
539,4295.88,1.2302460193669695
540,4299.93,1.1450719698290968
541,4303.99,1.1510949201689085
542,4308.04,1.1430258706310357
543,4312.09,1.2690958210931629
544,4316.14,1.4157677715552903
545,4320.19,1.4811987220174179
546,4324.24,1.5026156724795452
547,4328.29,1.6539756229416724
548,4332.349999999999,1.476301573281484
549,4336.400000000001,1.6552105237436112
550,4340.45,1.6180244742057386
551,4344.5,1.619318424667866
552,4348.55,1.6262623751299932
553,4352.599999999999,1.5841343255921205
554,4356.650000000001,1.6817952760542478
555,4360.7,1.8116252265163753
556,4364.759999999999,1.7495811768561869
557,4365.15832,1.7416752576137335
558,4368.81,1.6691961975320693
559,4372.86,1.561694225866767
560,4376.91,1.564063254201465
561,4380.96,1.5242422825361628
562,4385.009999999999,1.5370503108708606
563,4389.06,1.5344153392055584
564,4393.12,1.6029063676102187
565,4397.17,1.6391743959449163
566,4401.22,1.6120044242796143
567,4405.27,1.6936774526143121
568,4409.32,1.6681224809490098
569,4413.37,1.640360509283708
570,4417.42,1.6829245376184057
571,4421.47,1.7588475659531038
572,4425.53,1.6927065943577637
573,4429.58,1.7765396226924615
574,4433.63,1.8351906510271594
575,4437.68,1.802102679361857
576,4441.73,1.758360707696555
577,4445.78,1.830778736031253
578,4449.83,1.8189437643659507
579,4453.889999999999,1.7019097927706108
