,lambda (Angstroms),Total Flux (erg/s/cm^2/Angstrom)
0,102.07000000000001,0.0011555298733411557
1,103.97,0.0013512323765222842
2,104.712855,0.001427775183457288
3,105.9,0.0013259638999526923
4,108.12,0.0011356041921841557
5,109.88,0.00098531694789919
6,114.0,0.0006321905059593825
7,118.01,0.0002884407442873855
8,120.22644299999999,0.00010416093854757097
9,121.02999999999999,0.00010316550743773729
10,125.0,8.928474582138923e-05
11,127.03,8.204207507046064e-05
12,127.91,7.91188095232601e-05
13,130.89,6.841311664751276e-05
14,132.1,6.576735152011195e-05
15,133.94,5.9268697194147116e-05
16,137.06,5.036336116316327e-05
17,138.038426,4.700876466118411e-05
18,139.93,4.7774399118634796e-05
19,142.86,7.149006135100381e-05
20,146.85999999999999,0.00011310208921089325
21,150.98,0.00011815808620657935
22,154.85,0.0001243138883360224
23,158.489319,0.0001308322552491415
24,158.82,0.00013139963970118903
25,162.15,0.00013645789265506438
26,165.92,0.0001443250685217641
27,170.17999999999998,0.00015055318581410916
28,172.94,0.0001562281477218256
29,176.97,0.0001625935598551943
30,179.85000000000002,0.00016780394619368108
31,181.93,0.00017163093632703265
32,181.970086,0.00017169563295548997
33,186.17000000000002,0.0001796711230084609
34,190.94,0.00018974931147182507
35,194.04999999999998,0.00019690161317435385
36,198.10999999999999,0.00020484303501109566
37,201.79,0.00021353608879415227
38,205.07000000000002,0.00022022138673122448
39,208.929613,0.000222388569410419
40,209.85,0.00022322934485167174
41,216.23,0.0002457725073852081
42,220.25,0.00025647759161480317
43,222.8,0.00026137393384999404
44,226.94,0.00027321658477300986
45,230.09,0.00040053716047530445
46,233.83,0.0006323152557535844
47,239.83,0.0007656147904246218
48,239.88329199999998,0.0007652944850806822
49,245.98,0.0007239655361728844
50,251.70999999999998,0.0007497878182351323
51,256.97999999999996,0.0006275596771300796
52,259.96,0.0007175226489530287
53,264.18,0.0007404455875747891
54,269.1,0.0007320910397120074
55,274.1,0.0007206228219652778
56,275.42287,0.000717674080055987
57,279.19,0.0007119807313465443
58,283.72999999999996,0.0007072722677994653
59,289.67,0.0006710705480924942
60,295.74,0.0006762917067421046
61,301.24,0.0006547935218282426
62,308.25,0.000657400747056211
63,316.227766,0.0006580680261274267
64,318.35,0.0006568829351686333
65,328.02,0.000638636252472919
66,337.99,0.0006152244328786819
67,348.26000000000005,0.0005925121763859223
68,357.20000000000005,0.0005758525568099464
69,363.078055,0.0005677526868796048
70,366.36,0.0005648164362807748
71,374.89000000000004,0.0005506107068412657
72,385.39,0.0005210051427011899
73,395.28000000000003,0.0005230875436206806
74,405.42,0.0005161593096796931
75,413.90999999999997,0.0005046761058178605
76,416.86938299999997,0.0004999427173337458
77,421.60999999999996,0.0004919585806140256
78,430.43,0.00048056562511325583
79,441.46999999999997,0.00047582606244562554
80,450.72,0.00046694696591704046
81,460.16,0.00045639742102732757
82,469.79,0.00045187872777648704
83,478.630092,0.0004546939922263043
84,479.63,0.00045471867624752164
85,489.66999999999996,0.00044079845629757433
86,499.93,0.00045326406997422177
87,505.71999999999997,0.0004561529776923299
88,511.57,0.0005918382854904183
89,519.88,0.0005956129965677031
90,529.5500000000001,0.0005978931427912099
91,539.39,0.0005732524559079947
92,549.42,0.0006282140026113841
93,549.5408739999999,0.0006293788267961364
94,559.64,0.0007278362220582464
95,570.04,0.0008002574658634423
96,580.64,0.0008067962605110457
97,590.0699999999999,0.0008935809227305647
98,599.66,0.0008811488056240099
99,609.41,0.000923004509191381
100,619.31,0.0011243849758905578
101,629.3700000000001,0.0011677912632636607
102,630.957344,0.0011834944967870757
103,639.6,0.0012700951083275114
104,649.99,0.001353892826069029
105,657.5200000000001,0.0013728864203513798
106,665.13,0.0015172318642409804
107,674.38,0.0016245592250791936
108,685.34,0.0015711126212723634
109,694.8699999999999,0.0018841554557359496
110,704.5400000000001,0.0017490135270122225
111,715.99,0.002165587752049795
112,724.43596,0.0022691442748561308
113,725.95,0.0022876603100981862
114,734.36,0.0023998691917821047
115,744.5699999999999,0.002529171958963176
116,754.9300000000001,0.002659395966602343
117,765.43,0.0026297527986690666
118,774.29,0.0029674334017272736
119,785.0699999999999,0.0030155058826491095
120,794.16,0.00325878405440973
121,805.1999999999999,0.0034426503521255997
122,814.53,0.003587179508619174
123,825.86,0.0038243198712206955
124,831.763771,0.003508550704617564
125,835.4200000000001,0.003312509878603578
126,845.1,0.004066489935564405
127,854.88,0.004169284922865737
128,864.78,0.004454014026575673
129,874.79,0.004661601153660164
130,884.92,0.004890062397153261
131,895.17,0.005094755757054962
132,905.54,0.00515245723336527
133,916.02,0.006020001733050132
134,924.5,0.024106579625924905
135,935.2,0.04796352917235888
136,946.0300000000001,0.0856644869282355
137,954.79,0.1158087024260637
138,954.992586,0.11614018258242954
139,965.84,0.13389002855025967
140,974.78,0.03040868039184546
141,986.07,0.12182543854525751
142,995.1899999999999,0.12267420780647258
143,1004.4,0.16395617577750224
144,1016.03,0.15442850905688066
145,1025.43,0.07043690430418564
146,1034.92,0.11554543826130526
147,1044.49,0.19985550107159342
148,1054.1599999999999,0.1962087624483423
149,1063.91,0.1613340226782597
150,1076.23,0.18609104606621688
151,1086.1899999999998,0.15301380328570174
152,1096.24,0.19086245921500122
153,1096.4782,0.19063277145031057
154,1103.84,0.183533825497067
155,1114.05,0.17853056740310672
156,1124.36,0.16133150482242792
157,1134.77,0.1944045377550306
158,1145.27,0.1781166666495866
159,1155.86,0.18565829150609595
160,1163.8700000000001,0.18954703211994298
161,1174.64,0.137317248900359
162,1185.51,0.18101366119405654
163,1193.73,0.13326779238579467
164,1204.78,0.10273609660339886
165,1215.92,0.06557978678295638
166,1224.35,0.12408591855258563
167,1235.68,0.17567321020737797
168,1244.25,0.19085152569560132
169,1255.76,0.18480190927430035
170,1258.92541,0.1769407807804591
171,1264.46,0.16319618491420806
172,1276.16,0.19984572225327882
173,1285.01,0.20687065049693487
174,1293.92,0.17206887893207337
175,1305.89,0.16931851713281496
176,1314.94,0.20123354601474575
177,1324.05,0.19306427508815896
178,1336.31,0.1752694142143989
179,1345.5700000000002,0.19892634376651813
180,1354.9,0.1926168735420335
181,1364.29,0.1760771035090313
182,1373.74,0.18142973366751153
183,1386.4599999999998,0.1822619742617833
184,1396.0700000000002,0.15765600493088328
185,1405.74,0.16095543579146568
186,1415.49,0.16970986690735798
187,1425.3,0.17049289821473268
188,1435.18,0.17010012974550354
189,1441.8,0.17648425087239655
190,1445.43977,0.17737491311423828
191,1448.46,0.17811397057790934
192,1455.14,0.17326028847020303
193,1465.2299999999998,0.16244501549613766
194,1475.39,0.16132474270956634
195,1485.61,0.1624447700837043
196,1495.91,0.16357259767212123
197,1506.2800000000002,0.15621062544803224
198,1513.23,0.1421401440635174
199,1516.72,0.14952465341143734
200,1523.72,0.1454506721608469
201,1534.2900000000002,0.1287407004724553
202,1544.9199999999998,0.13480712894477295
203,1555.63,0.12844625763136958
204,1566.41,0.13204428650546027
205,1573.64,0.13954310587092186
206,1584.5500000000002,0.1441183350932159
207,1595.53,0.146459364503004
208,1606.59,0.1418140941270711
209,1614.01,0.14115841400144524
210,1625.2,0.13511824397371566
211,1636.46,0.14148617413348014
212,1644.02,0.14213869438284246
213,1655.4099999999999,0.1332669248908103
214,1659.58691,0.13673300730970736
215,1666.89,0.14279337893062613
216,1670.73,0.1293333540429064
217,1678.4399999999998,0.14378280485428163
218,1686.1899999999998,0.14713235644807646
219,1693.97,0.13922430862868596
220,1705.71,0.1341903382688345
221,1713.5900000000001,0.12844789240549298
222,1725.46,0.12697592458850515
223,1733.43,0.1335746804856077
224,1745.44,0.13023491540708845
225,1753.5,0.13636867306463504
226,1765.66,0.12639191092018925
227,1773.8100000000002,0.12874437033817993
228,1786.1,0.12993591073659774
229,1794.3500000000001,0.13574257211063742
230,1806.78,0.13450281524752378
231,1815.1200000000001,0.1261058783820075
232,1823.5000000000002,0.12727224229891082
233,1836.14,0.12323338954350004
234,1844.62,0.1142178554164523
235,1853.13,0.11474582187621923
236,1865.9800000000002,0.11714947322851128
237,1874.59,0.1232345416443272
238,1883.24,0.11474691084256271
239,1896.3,0.11059766630255759
240,1905.0500000000002,0.11554273745684206
241,1905.46072,0.11537156075898582
242,1913.84,0.11187893421816814
243,1927.11,0.10908049963251784
244,1936.0,0.11110647548282446
245,1944.94,0.11554165007244664
246,1953.92,0.10857862365352128
247,1967.46,0.116341382260175
248,1976.54,0.11850525331988075
249,1985.6699999999998,0.11290822311890206
250,1994.83,0.1095830921615127
251,2004.04,0.11161965994343892
252,2013.2900000000002,0.10882642671681757
253,2027.2399999999998,0.11162037498585889
254,2036.6000000000001,0.10708823898573179
255,2046.0,0.10958190197705711
256,2055.4500000000003,0.10250046370769801
257,2064.9300000000003,0.10392722468192825
258,2074.47,0.11110198414333715
259,2079.25,0.10733076362190472
260,2084.04,0.1098335428483354
261,2093.66,0.10464740029264918
262,2103.3199999999997,0.10488805672841543
263,2113.0299999999997,0.10561631190349725
264,2122.79,0.10634846581789462
265,2132.58,0.10016631897588132
266,2147.37,0.10156014606542406
267,2157.28,0.1041649961977681
268,2167.23,0.10063074532156462
269,2177.24,0.09993645293253979
270,2187.29,0.09856538953496741
271,2187.7616199999998,0.09872728726697781
272,2197.38,0.10202952099895521
273,2207.53,0.09924646504121258
274,2212.62,0.09499947736388153
275,2222.83,0.09262400261230004
276,2233.09,0.09721422886585279
277,2243.4,0.09369916612453984
278,2253.75,0.09010295418733429
279,2264.15,0.091146883255263
280,2274.61,0.09284091352935286
281,2285.1,0.09434744440652329
282,2295.65,0.08928375648985483
283,2306.25,0.08973342957832066
284,2316.89,0.08672342347089387
285,2327.59,0.07283728856962825
286,2332.95,0.08154999632002229
287,2343.72,0.07863777282594463
288,2354.54,0.08371731033700125
289,2365.41,0.07798382885319213
290,2376.33,0.0796509583745173
291,2387.29,0.07419850869994987
292,2392.7999999999997,0.07788985946574674
293,2403.8399999999997,0.07545569139939415
294,2414.94,0.0763617245392027
295,2426.0899999999997,0.07999440868414551
296,2437.28,0.07731595363319575
297,2442.9,0.080420816610288
298,2454.18,0.07917205336857994
299,2465.5099999999998,0.07830091113200613
300,2476.89,0.0758503299005666
301,2482.6,0.07657187468690056
302,2494.06,0.07116599506367587
303,2505.5699999999997,0.07896819644558545
304,2511.34,0.07154498243808051
305,2511.88643,0.07165615936849039
306,2517.13,0.07272287262640822
307,2522.94,0.07059476742304803
308,2534.5800000000004,0.07111877686072225
309,2546.28,0.07033457583158037
310,2552.15,0.07417669016140406
311,2563.93,0.07235614850984069
312,2575.76,0.07527982646926389
313,2587.65,0.07428282396187098
314,2593.62,0.07311217751366782
315,2605.5899999999997,0.07099217438385341
316,2617.62,0.06972721078722292
317,2623.65,0.07219804387220365
318,2635.7599999999998,0.07408533965315166
319,2647.93,0.07905402496728355
320,2654.03,0.08054308750764548
321,2666.2799999999997,0.0741719621993559
322,2672.4300000000003,0.07644519435070439
323,2684.7599999999998,0.07665838841999334
324,2697.1600000000003,0.07291037194466347
325,2703.37,0.07462460362919585
326,2715.8500000000004,0.0709756565314445
327,2722.1099999999997,0.07034142782696345
328,2734.68,0.07285074002898795
329,2747.2999999999997,0.06496246184199901
330,2753.63,0.06633780259289916
331,2766.3399999999997,0.06838659370568606
332,2772.7200000000003,0.07064405406757278
333,2785.5200000000004,0.06672714448013552
334,2791.94,0.055903124530811504
335,2804.83,0.058838464243150056
336,2817.77,0.06915850356647518
337,2824.27,0.07194003299472969
338,2837.31,0.06969378154002796
339,2843.85,0.06765675065707173
340,2856.97,0.06479232857994852
341,2863.56,0.07024936730797886
342,2876.7799999999997,0.0706076644528288
343,2883.4100000000003,0.0699812628696484
344,2884.0315,0.0699753628895834
345,2896.72,0.06985500601388574
346,2910.09,0.07454825388504818
347,2930.26,0.07157718067348096
348,2950.57,0.07016647743962223
349,2971.02,0.07071064418347203
350,2991.62,0.07044212090343809
351,3012.35,0.07065919760270489
352,3033.24,0.07039507427649572
353,3047.24,0.07026873204734643
354,3068.36,0.0701665886845155
355,3089.6299999999997,0.07006398529780085
356,3111.04,0.06996178188879468
357,3132.61,0.06858245845431254
358,3147.07,0.06846441615191978
359,3168.88,0.06868091267922365
360,3190.85,0.06534360918105152
361,3212.97,0.06692345565899564
362,3227.8,0.06394859329768965
363,3250.17,0.06748717973582755
364,3272.7000000000003,0.06943736614848944
365,3287.8,0.06868131374419272
366,3310.59,0.06811358011545614
367,3311.31121,0.0680860579095875
368,3318.2299999999996,0.06782200894143225
369,3325.88,0.06784131565660965
370,3333.54,0.06944150234134938
371,3341.23,0.06603308893477608
372,3348.93,0.0709388454977651
373,3356.65,0.06807815199987875
374,3364.39,0.06125698844111706
375,3372.1400000000003,0.06184052485191769
376,3379.92,0.0678255411714053
377,3387.71,0.06753394746045523
378,3395.52,0.0658671636886298
379,3403.35,0.06930706985592901
380,3411.19,0.06455500599279056
381,3419.06,0.06577254203833907
382,3426.94,0.0667103380534499
383,3434.84,0.07003596400768539
384,3442.76,0.06463371990104551
385,3450.69,0.06631228576396797
386,3458.6499999999996,0.06527201153557739
387,3466.6200000000003,0.06439327727674915
388,3474.61,0.06652498295704554
389,3482.6200000000003,0.06443654857646658
390,3490.65,0.06671799413501227
391,3498.7000000000003,0.062285069632682606
392,3506.7599999999998,0.06615051509991526
393,3514.84,0.06275818050627256
394,3522.9500000000003,0.06618984582131683
395,3531.07,0.06470428110592344
396,3539.21,0.06669016632965467
397,3547.3700000000003,0.06857755149251057
398,3555.54,0.06719481662492878
399,3563.7400000000002,0.06629242166603397
400,3571.96,0.062032496646263806
401,3580.1899999999996,0.06134323159605596
402,3588.44,0.056350746484972764
403,3596.71,0.06252163131301422
404,3605.01,0.06488544604974263
405,3613.3199999999997,0.06085439075603338
406,3621.65,0.060874055401448766
407,3630.0,0.0699131399859888
408,3638.36,0.06542143454009117
409,3646.7500000000005,0.06499187900288049
410,3655.16,0.06591743340479446
411,3663.5800000000004,0.07016542777627077
412,3672.03,0.06702883205643403
413,3680.4900000000002,0.06522442630615964
414,3680.58,0.08299111603222055
415,3683.3199999999997,0.06923939769229716
416,3686.06,0.06490115935237377
417,3688.81,0.07547287098201269
418,3691.55,0.05748525264208931
419,3694.29,0.05361590430216592
420,3697.04,0.04908034593180486
421,3699.7799999999997,0.04849330759188147
422,3702.5200000000004,0.06088976925195808
423,3705.27,0.06767087088159701
424,3708.0099999999998,0.06266672254167363
425,3710.75,0.06947577420175023
426,3713.49,0.06930249586182685
427,3716.2400000000002,0.06898306749146578
428,3718.98,0.08685269915154238
429,3721.7200000000003,0.158819730811619
430,3724.47,0.28446512244125793
431,3727.21,0.3453204141013345
432,3729.9500000000003,0.29984530576141116
433,3732.7,0.2093224973910501
434,3735.44,0.1197269890511267
435,3738.18,0.08196667071120331
436,3740.9300000000003,0.08115070234084225
437,3743.67,0.061386004000918856
438,3746.41,0.05711474566099547
439,3749.15,0.05219330732107208
440,3751.9,0.07166239895071101
441,3754.6400000000003,0.07410553061078763
442,3757.38,0.07384558227086424
443,3760.1299999999997,0.07876286390050316
444,3762.87,0.0824156855605798
445,3765.6099999999997,0.0684590372206564
446,3768.36,0.06699296885029532
447,3771.1,0.06603951051037193
448,3773.84,0.07785675217044855
449,3776.59,0.07546073380008748
450,3779.3300000000004,0.0818875654601641
451,3782.07,0.0782625571202407
452,3784.81,0.08530017878031732
453,3787.56,0.08805416040995624
454,3790.2999999999997,0.07804578207003285
455,3793.04,0.07948413373010947
456,3795.79,0.06774553535974841
457,3798.5299999999997,0.06179568701982501
458,3801.27,0.05823368867990162
459,3801.8939600000003,0.06124388537053223
460,3804.02,0.07150063165788627
461,3806.76,0.08696270505568524
462,3809.5,0.0859462184534842
463,3812.25,0.08479138182718753
464,3814.99,0.0884087552249865
465,3817.7299999999996,0.08509110862278545
466,3820.4700000000003,0.09351181202058441
467,3823.22,0.08809742539428776
468,3825.96,0.07694632879208671
469,3828.7,0.07410544218988567
470,3831.4500000000003,0.072036485563589
471,3834.19,0.06796619896138797
472,3836.93,0.060034352359186936
473,3839.68,0.06655934573289027
474,3842.4199999999996,0.07243058913068924
475,3845.1600000000003,0.0788101425284882
476,3847.91,0.09410235590219154
477,3850.65,0.0992210192999905
478,3853.39,0.09226249269778947
479,3856.1299999999997,0.09896519609558843
480,3858.88,0.09890179946929176
481,3861.62,0.09055231286709073
482,3864.36,0.09522572626488969
483,3867.11,0.10219582963859303
484,3869.8500000000004,0.10036372303639199
485,3872.59,0.08797538643419095
486,3875.3399999999997,0.09404714980789429
487,3878.08,0.08223409320569326
488,3880.8199999999997,0.08071718660349222
489,3883.57,0.07972392997719556
490,3886.31,0.07674513337499451
491,3889.05,0.07811255677279348
492,3891.8,0.08359330014649682
493,3894.5400000000004,0.06607855354429579
494,3897.28,0.08646213694209473
495,3900.02,0.0870060303398937
496,3902.77,0.08527590371359703
497,3905.5099999999998,0.095253027111396
498,3908.25,0.09968214050919497
499,3911.0,0.1000758238828983
500,3913.74,0.10158511728069726
501,3916.48,0.09453990067849623
502,3919.23,0.09313680405219957
503,3921.9700000000003,0.09130073744999853
504,3924.71,0.08469682084779749
505,3927.46,0.08142208422150082
506,3930.2,0.0756062476192998
507,3932.9399999999996,0.06805269101709875
508,3935.68,0.07354959441489772
509,3938.43,0.07657158778860106
510,3941.17,0.08481493118640002
511,3943.91,0.08563859458419898
512,3946.6600000000003,0.08213531795790231
513,3949.4,0.08690721135570129
514,3952.14,0.09070979475350024
515,3954.89,0.09605257812720358
516,3957.6299999999997,0.08351845152500255
517,3960.37,0.0769657449228015
518,3963.12,0.07100765829650485
519,3965.86,0.07202437169430381
520,3968.6,0.06975483509210277
521,3971.3399999999997,0.06520774848990173
522,3974.09,0.07354924186360508
523,3976.83,0.08617033526140402
524,3979.57,0.089724658659203
525,3982.3199999999997,0.08561061203290632
526,3985.0600000000004,0.09694321543070529
527,3987.8,0.09729798882850425
528,3990.5499999999997,0.09352279220220759
529,3993.29,0.09289247560000656
530,3996.0299999999997,0.09563509899780552
531,3998.78,0.08783287237150886
532,4001.52,0.09828676576930782
533,4004.26,0.09883461916710679
534,4007.0,0.09369259256490575
535,4009.7500000000005,0.09868862593860908
536,4012.4900000000002,0.10312957933640804
537,4015.23,0.09515440273420701
538,4017.98,0.10164386610791035
539,4020.72,0.10389785950570932
540,4023.46,0.10024135290350827
541,4026.21,0.1006074462772116
542,4028.95,0.09692731967501057
543,4031.69,0.08936590307280953
544,4034.44,0.10880722644651288
545,4037.1800000000003,0.10178961984431184
546,4039.92,0.10259761324211081
547,4042.6600000000003,0.09447663663990975
548,4045.41,0.0956899400136131
549,4048.1499999999996,0.09949646341141205
550,4050.89,0.09519767680921101
551,4053.64,0.09427529018291436
552,4056.38,0.09543389358071332
553,4059.12,0.09138332697851229
554,4061.8700000000003,0.10064286035221562
555,4064.61,0.09927962375001458
556,4067.35,0.10221144714781355
557,4070.1,0.09761265052151688
558,4072.8399999999997,0.09895251391931585
559,4075.58,0.09829067731711481
560,4078.3199999999997,0.08903095071491378
561,4081.07,0.08979113408861711
562,4083.81,0.08835697748641608
563,4086.5499999999997,0.09235656088421504
564,4089.3,0.08583496425791837
565,4092.04,0.08891249765571733
566,4094.78,0.0875413910535163
567,4097.53,0.08502321442721963
568,4100.2699999999995,0.0872180978250186
569,4103.01,0.09061877122281757
570,4105.76,0.0865126145965209
