,lambda (Angstroms),Total Flux (erg/s/cm^2/Angstrom)
0,100.09,6.133821777622014
1,101.94999999999999,6.116757531906825
2,104.09,6.097124475008705
3,104.712855,6.091410200403905
4,106.02000000000001,6.028417064508441
5,107.99,5.933480024077543
6,110.0,5.836615328003419
7,114.13,5.637584882836211
8,117.87,5.45734908019099
9,120.22644299999999,5.343788814017937
10,120.89000000000001,5.316978840425345
11,125.14000000000001,5.145264296280479
12,126.88,5.074962341736966
13,128.05,5.027690337819772
14,131.04,4.9068841055875465
15,131.94,4.870521025653024
16,134.09,4.783653668028695
17,136.9,4.670120051789247
18,138.038426,4.624123745525188
19,140.09,4.564874892398157
20,143.02,4.480257355051569
21,147.03,4.36444973575557
22,151.14000000000001,4.245754145844408
23,155.02,4.133700888260602
24,158.489319,4.03350797707826
25,159.0,4.022357979063898
26,161.95000000000002,3.957948897613867
27,166.11,3.8671211760385993
28,169.98,3.782625194756097
29,173.14,3.7136310602252838
30,177.17,3.6256417052254326
31,180.05,3.5627609752071328
32,181.970086,3.52083861086555
33,182.13,3.5181749326083693
34,185.95000000000002,3.454545413556834
35,191.16,3.367762745070071
36,193.82,3.3234552793869248
37,197.88,3.2558280948801017
38,202.02,3.1868683553577344
39,204.83,3.1400623489625863
40,208.929613,3.071775333554884
41,210.07999999999998,3.057369120621366
42,215.97000000000003,2.9836090805654663
43,219.98,2.9333921436444523
44,223.04000000000002,2.8950719872910726
45,227.19,2.8431018417699563
46,229.82,2.810166564645586
47,234.09,2.756693707276504
48,239.88329199999998,2.6841447782669836
49,240.1,2.6820534874589113
50,246.26,2.622607788868427
51,252.0,2.567215231541732
52,257.27,2.516358250960092
53,260.25,2.4876004739955304
54,263.87,2.452666506417151
55,268.78,2.405283676116104
56,273.77,2.3571288259902903
57,275.42287,2.341178183690192
58,278.86,2.3157222832222035
59,284.05,2.277284370921332
60,290.0,2.2332177682582355
61,296.07,2.1882624596959355
62,300.88,2.1526388776276764
63,307.89,2.100721810077345
64,316.227766,2.0389711284595595
65,317.96999999999997,2.0293336855593473
66,327.64,1.975842554326586
67,338.37,1.9164878538217365
68,347.85,1.864047759487632
69,356.77,1.8147054142499186
70,363.078055,1.779811462773302
71,365.92,1.768038383992257
72,375.31,1.7291392196445505
73,384.94,1.6892457781605639
74,394.81,1.6483582865122972
75,404.94,1.6063936757725605
76,414.37,1.5673288478684737
77,416.86938299999997,1.556974873751886
78,422.08000000000004,1.5404908251059815
79,429.92,1.5156886088678339
80,440.95000000000005,1.4807947588055472
81,451.22,1.4483051420747948
82,459.61,1.421762989410313
83,470.32,1.3878814432540933
84,478.630092,1.3615921975632324
85,480.16999999999996,1.3578455446586937
86,490.22,1.3333933851782953
87,500.49,1.3084061991945275
88,506.28,1.294320210029292
89,512.14,1.2800734542704388
90,520.47,1.2598076550879327
91,530.14,1.2362820067901734
92,540.0,1.2122922553765945
93,549.5408739999999,1.189088944252907
94,550.04,1.1881630740812454
95,560.26,1.1692028413369018
96,569.37,1.1523023473389398
97,579.9499999999999,1.1326654486211747
98,589.38,1.1151781777679495
99,600.33,1.0948603177647236
100,610.09,1.0767631727841958
101,620.0,1.0583879769930757
102,630.0699999999999,1.0397124486293237
103,630.957344,1.0380661150681758
104,640.3100000000001,1.0243115159084848
105,650.72,1.0090200833553535
106,658.25,0.9979574077503509
107,664.34,0.9890131116694121
108,675.1400000000001,0.9731330206889299
109,684.53,0.9593233467611776
110,695.65,0.9430325005531255
111,705.33,0.9287869216691378
112,716.7900000000001,0.9119958547192928
113,724.43596,0.9007674519119763
114,726.76,0.8982357507716924
115,735.18,0.8890673166829282
116,745.4,0.8779736278977535
117,755.7700000000001,0.8666967761212112
118,764.53,0.8571808269053472
119,775.16,0.8456423081904347
120,784.14,0.8359081503805648
121,795.0500000000001,0.8240454969550995
122,804.25,0.8140563604512242
123,815.44,0.801890057615206
124,824.8800000000001,0.7916948618451424
125,831.763771,0.784074567701409
126,834.4300000000001,0.7818584349321613
127,844.1,0.7742197943748544
128,855.8399999999999,0.7647015498138636
129,865.75,0.7567342521938106
130,875.77,0.7486866715991657
131,885.9200000000001,0.7405647422163668
132,894.11,0.7340090765626601
133,904.47,0.7255998561374586
134,914.94,0.7181341197376649
135,925.53,0.7275190374564985
136,934.1,0.7474938293451107
137,944.9100000000001,0.7863090761147603
138,954.992586,0.8172464756996831
139,955.86,0.8199233447796551
140,964.7,0.8373823419791867
141,975.8699999999999,0.6936301477618527
142,984.9,0.8086604713265326
143,994.01,0.8099063044133803
144,1005.52,0.8702672231652591
145,1014.83,0.8555951050575258
146,1024.22,0.7206047464719604
147,1036.0800000000002,0.7803653406333227
148,1045.66,0.9206357584129056
149,1055.34,0.9114616005951983
150,1065.1,0.8464070422996584
151,1074.96,0.8894544084068281
152,1084.91,0.8254152864764366
153,1094.94,0.897400664068213
154,1096.4782,0.8942687302598837
155,1105.08,0.8779998896240552
156,1115.3,0.8641795868841828
157,1125.62,0.8291283858787541
158,1136.04,0.8985202866077688
159,1143.91,0.8659004431084738
160,1154.5,0.8823888667860427
161,1165.18,0.8910952320246103
162,1175.96,0.7776094989976217
163,1184.1100000000001,0.8803977403547685
164,1195.07,0.7723970904497783
165,1206.12,0.6933051821057873
166,1214.49,0.6159832472787098
167,1225.72,0.751128522056717
168,1234.22,0.8757803694844162
169,1245.6399999999999,0.9065427875578662
170,1254.2700000000002,0.8871225172403417
171,1258.92541,0.8650398591372722
172,1265.88,0.8333570371520754
173,1274.6499999999999,0.9226805460827309
174,1286.45,0.9380469285663946
175,1295.3600000000001,0.840822267628212
176,1304.34,0.8430418717556105
177,1316.41,0.9297179766350868
178,1325.54,0.905448348760159
179,1334.73,0.8565573480843006
180,1343.9799999999998,0.9260405746075118
181,1356.41,0.912212242681405
182,1365.8200000000002,0.8632871750688013
183,1375.2800000000002,0.8800908967887555
184,1384.82,0.8854957214408025
185,1394.42,0.8170501732919189
186,1404.0800000000002,0.8362218523421047
187,1413.8100000000002,0.8503410964578715
188,1423.61,0.8575565056392196
189,1433.48,0.8583995798861485
190,1443.42,0.8785249191986585
191,1445.43977,0.8803947589108155
192,1446.75,0.8817921972429928
193,1453.42,0.8703853296877542
194,1463.5,0.8361064716732405
195,1473.6399999999999,0.8360322883134025
196,1483.86,0.8403207711597984
197,1494.1399999999999,0.8458390286608699
198,1504.5,0.8184901523681753
199,1511.44,0.7698621207589764
200,1518.42,0.7952249722528946
201,1525.43,0.7898918610741504
202,1535.9999999999998,0.7350792460728204
203,1546.6499999999999,0.7622544972777241
204,1553.79,0.7429273811841103
205,1564.5600000000002,0.754500181698365
206,1575.4,0.7787339026430746
207,1586.32,0.7950730897940183
208,1593.65,0.8034858434402101
209,1604.69,0.7955549799005048
210,1615.82,0.7962743283428128
211,1623.28,0.7755981770741349
212,1634.53,0.8023875748257939
213,1645.8600000000001,0.8066190387836867
214,1653.4499999999998,0.7764319826001395
215,1659.58691,0.7960861378768166
216,1664.91,0.8136529516044203
217,1672.6,0.7725491407272643
218,1676.4599999999998,0.8157271664768324
219,1684.19,0.8307624387680657
220,1695.87,0.8030952239377429
221,1703.7,0.7853019041499496
222,1715.51,0.7606162596168922
223,1723.4199999999998,0.7588156061658773
224,1735.37,0.7860195527221825
225,1743.3799999999999,0.7740159071921409
226,1755.46,0.8012828240457113
227,1763.5700000000002,0.7660703864366429
228,1775.79,0.7711346943795759
229,1783.99,0.7818520438993836
230,1796.35,0.807653042931679
231,1804.6499999999999,0.8069816003724601
232,1812.9799999999998,0.7649118201895331
233,1825.54,0.7793885350637749
234,1833.97,0.761268662801821
235,1846.68,0.722212089557523
236,1855.2099999999998,0.7202625252165425
237,1863.77,0.7333231232518539
238,1876.69,0.7712640866415996
239,1885.3500000000001,0.7273189925978844
240,1894.05,0.7051262817225584
241,1905.46072,0.7325520732765154
242,1907.18,0.7367890800314546
243,1915.99,0.7155627968058411
244,1924.83,0.7055787028541471
245,1933.7099999999998,0.7256853279343459
246,1947.12,0.7414466333764029
247,1956.1100000000001,0.707791485794307
248,1965.1299999999999,0.7500362274861305
249,1974.2,0.76641531796782
250,1983.3200000000002,0.7365376572393756
251,1997.06,0.7240185446945482
252,2006.28,0.7396591815458355
253,2015.5400000000002,0.7265910374290159
254,2024.85,0.7507219421020623
255,2034.1899999999998,0.7189378360490282
256,2043.5800000000002,0.73458427878586
257,2053.02,0.7146685703125578
258,2067.25,0.719087115908417
259,2072.0099999999998,0.7500806807036589
260,2076.79,0.7186321050148468
261,2086.37,0.7368775131531695
262,2096.0,0.710875070081358
263,2105.68,0.7207233757994126
264,2115.4,0.7237575005493599
265,2125.1600000000003,0.7315877443312
266,2134.97,0.7055020369029062
267,2144.83,0.7072688782644784
268,2154.73,0.7254548386579431
269,2164.67,0.7143592180833009
270,2174.66,0.7103646462985247
271,2184.7,0.6994748233036143
272,2187.7616199999998,0.7053271374836292
273,2194.79,0.7191416518048324
274,2204.92,0.7085607619210418
275,2215.09,0.6913381520377099
276,2225.32,0.6768009621550665
277,2235.59,0.6993005522728819
278,2245.9100000000003,0.6855934923912708
279,2256.2799999999997,0.6700110825102334
280,2266.69,0.6798859526296549
281,2277.15,0.6888619727496499
282,2282.4,0.6963399228098769
283,2292.94,0.6726648029307897
284,2303.52,0.6749547630521614
285,2314.15,0.6574682731741066
286,2324.83,0.5731684332966255
287,2335.5699999999997,0.6353087134198326
288,2346.35,0.6270858735434987
289,2357.1800000000003,0.6478916836677382
290,2362.61,0.6244621937300301
291,2373.52,0.6315820638551874
292,2384.47,0.6102934139808037
293,2395.48,0.6304477841071083
294,2406.53,0.6150700342338716
295,2417.64,0.6210636043613234
296,2423.2200000000003,0.636103464425336
297,2434.4,0.6194149245535907
298,2445.64,0.6370910046825339
299,2456.93,0.6317334348120505
300,2462.59,0.6290809548769809
301,2473.96,0.6165381450074152
302,2485.38,0.6278891851384232
303,2496.85,0.6001344752700049
304,2502.6,0.6368729253359677
305,2511.88643,0.610007765447136
306,2514.16,0.6034959365846115
307,2519.9500000000003,0.6174036499749741
308,2525.76,0.6006641794737664
309,2537.42,0.6028705706882099
310,2543.2700000000004,0.5954579324038612
311,2555.0099999999998,0.6139255880520232
312,2566.8,0.607942633971259
313,2572.72,0.625323802066414
314,2584.59,0.6223634124193681
315,2596.52,0.619415371097611
316,2602.51,0.6075109455722694
317,2614.52,0.6046085686842306
318,2626.5899999999997,0.6131183401214806
319,2632.64,0.6179709629214278
320,2644.7999999999997,0.6399884568466108
321,2657.0,0.641398282988653
322,2663.13,0.6158541702223185
323,2675.42,0.6290414188522937
324,2687.77,0.6270899158075578
325,2693.97,0.6126631094207268
326,2706.4,0.6182206708097091
327,2712.64,0.6050335966397372
328,2725.16,0.6041531805166527
329,2737.7400000000002,0.6182082127188568
330,2744.05,0.5813393449283885
331,2756.72,0.5844736996185257
332,2763.07,0.5932049640449165
333,2775.8300000000004,0.6059101412229869
334,2782.2200000000003,0.5960056378662368
335,2795.07,0.5413359375322403
336,2807.9700000000003,0.5611243274693177
337,2814.44,0.603239888546286
338,2827.4300000000003,0.6087662009712964
339,2833.9500000000003,0.5924027523193387
340,2847.0299999999997,0.5873440872322824
341,2853.5899999999997,0.5827656707971837
342,2866.77,0.6006705862522752
343,2873.37,0.5970169020340357
344,2884.0315,0.5971320638636933
345,2886.64,0.5972247559559563
346,2893.29,0.5937487363272337
347,2913.35,0.6100651366652523
348,2926.7900000000004,0.5997072727840445
349,2947.0800000000004,0.5934575969544532
350,2967.5099999999998,0.5968131965010994
351,2988.0800000000004,0.5948190714239829
352,3008.79,0.596038321723104
353,3029.6499999999996,0.5951120527824794
354,3050.6499999999996,0.5920261592180922
355,3071.79,0.5900170410299423
356,3093.09,0.5890635089860639
357,3107.36,0.5862743919782636
358,3128.9,0.5810535891507922
359,3150.5899999999997,0.5811440670835751
360,3172.43,0.5780440257766124
361,3187.07,0.5648446079774396
362,3209.17,0.5711294066549177
363,3231.4100000000003,0.5607897807086334
364,3246.33,0.5694451136619355
365,3268.83,0.572643427700092
366,3291.4900000000002,0.56950732788252
367,3306.6800000000003,0.5677820062042799
368,3311.31121,0.5695059380148374
369,3321.94,0.5736467671244143
370,3329.6,0.5788042457279182
371,3337.28,0.5710897819779064
372,3344.97,0.5634798970511367
373,3352.6800000000003,0.5685328697708514
374,3360.41,0.5609562001370505
375,3368.1499999999996,0.5617874093264916
376,3375.92,0.5411279549856594
377,3383.7,0.5489794794680694
378,3391.5,0.5664064615969635
379,3399.32,0.5790720013723422
380,3407.1600000000003,0.552402898794205
381,3415.0099999999998,0.5604789750393102
382,3422.8799999999997,0.5740880089308996
383,3430.77,0.5695688004689734
384,3438.6800000000003,0.5714957496535316
385,3446.61,0.547204256484574
386,3454.56,0.5593885209621008
387,3462.52,0.5406669642628699
388,3470.5000000000005,0.5506285652101232
389,3478.5,0.5372113238038609
390,3486.52,0.5470986400440829
391,3494.56,0.5478989139307893
392,3502.6099999999997,0.5549155666407378
393,3510.69,0.5433484558204129
394,3518.78,0.5400838238233301
395,3526.89,0.5428950494727317
396,3535.02,0.5529550327686177
397,3543.17,0.5632768737109879
398,3551.34,0.5630356722998425
399,3559.53,0.5564570285351814
400,3567.73,0.5562347635937626
401,3575.96,0.5304440351220703
402,3584.2000000000003,0.52232208547362
403,3592.46,0.5201356934716542
404,3600.7400000000002,0.5448989591161727
405,3602.8300000000004,0.5293813331737867
406,3605.55,0.5270970730956575
407,3608.2799999999997,0.5001185918407705
408,3611.01,0.4547529105858834
409,3613.73,0.42059705050775426
410,3616.46,0.4516348692528673
411,3619.19,0.5398830879979802
412,3621.92,0.5574717067430932
413,3624.64,0.5893352466649641
414,3627.37,0.5742645654100771
415,3630.1,0.51623788415519
416,3632.82,0.5565946240770608
417,3635.55,0.5434326428221739
418,3638.2799999999997,0.5262256615672868
419,3641.01,0.5240611803123998
420,3643.73,0.5502684202342706
421,3646.46,0.5982222389793835
422,3649.19,0.5390922577244965
423,3651.92,0.5097848764696096
424,3654.6400000000003,0.5507718163914803
425,3657.37,0.6042942351365934
426,3660.1,0.6162265538817063
427,3662.82,0.5435805938035772
428,3665.55,0.5243772125486901
429,3668.2799999999997,0.5478497312938031
430,3671.01,0.5491876500389161
431,3673.73,0.540248989960787
432,3676.4599999999996,0.5260540087058999
433,3679.19,0.5774050274510129
434,3681.92,0.5531057461961258
435,3684.6400000000003,0.5324517861179967
436,3687.37,0.5460302048631097
437,3690.1,0.4979152236082227
438,3692.82,0.5768500635300935
439,3695.55,0.5304685822752064
440,3698.2799999999997,0.5738518010203195
441,3701.01,0.5711969197654324
442,3703.73,0.5573551596873032
443,3706.4599999999996,0.5750662784324163
444,3709.19,0.5376683971775292
445,3711.92,0.5484099159226422
446,3714.6400000000003,0.600499455844513
447,3717.37,0.573100474589626
448,3720.1,0.642505893334739
449,3722.82,0.8343216332566098
450,3725.55,1.3109782520017228
451,3728.2799999999997,1.771977270746836
452,3731.01,1.8210332894919488
453,3733.73,1.4289607294138196
454,3736.4599999999996,0.9079426481589326
455,3739.19,0.6670240669040456
456,3741.91,0.6157600068259164
457,3744.6400000000003,0.6084295255710294
458,3747.37,0.5901891443161423
459,3750.1,0.5577294630612553
460,3752.82,0.5619946029831262
461,3755.55,0.6053779217282391
462,3758.2799999999997,0.6086769404733521
463,3761.01,0.6412204592184652
464,3763.73,0.6609135991403359
465,3766.4599999999996,0.6291192178854489
466,3769.19,0.5755580366305618
467,3771.91,0.5526275765524327
468,3774.6400000000003,0.5806881952975457
469,3777.37,0.6353839140426587
470,3780.1,0.6753171327877717
471,3782.82,0.7045369727096424
472,3785.5499999999997,0.7362572914547555
473,3788.28,0.7085780101998684
474,3791.01,0.7060631289449815
475,3793.73,0.6304230688668522
476,3796.46,0.5990139876119652
477,3799.19,0.5894595063570782
478,3801.8939600000003,0.6091061018802956
479,3801.91,0.6092228422136543
480,3804.6400000000003,0.6463527089478788
481,3807.37,0.6595965756821033
482,3810.1000000000004,0.6950277424163278
483,3812.82,0.7263821081735038
484,3815.5499999999997,0.7074220749077282
485,3818.28,0.7245884416419527
486,3821.01,0.7060311083761772
487,3823.73,0.7013115741333533
488,3826.46,0.6910372408675778
489,3829.19,0.6387001076018022
490,3831.91,0.5989569733589784
491,3834.6400000000003,0.5619599400932028
492,3837.37,0.5671311068274273
493,3840.1000000000004,0.5669261735616518
494,3842.82,0.6185586393188278
495,3845.5499999999997,0.6465124060530523
496,3848.28,0.6822062727872767
497,3851.0,0.7135781385444527
498,3853.73,0.7631762052786772
499,3856.46,0.7640918720129019
500,3859.19,0.7428201387471262
501,3861.91,0.7741222045043024
502,3864.64,0.7897125712385268
503,3867.37,0.8272973379727513
504,3870.1000000000004,0.8540600047069757
505,3872.82,0.8324946704641518
506,3875.5499999999997,0.7771802371983763
507,3878.28,0.7123748039326008
508,3881.0,0.7028218696897768
509,3883.73,0.7030896364240012
510,3886.46,0.6731323031582258
511,3889.19,0.6720866698924503
512,3891.9100000000003,0.6608351356496263
513,3894.64,0.6546236023838508
514,3897.37,0.6493576691180752
515,3900.1000000000004,0.6752274358522998
516,3902.82,0.7074223016094758
517,3905.5499999999997,0.7333270683437003
518,3908.28,0.7685304350779247
519,3911.0,0.7905689008351008
520,3913.7300000000005,0.7929204675693253
521,3916.46,0.7852728343035498
522,3919.19,0.7697625010377742
523,3921.9100000000003,0.7578281667949502
524,3924.64,0.7593917335291748
525,3927.37,0.7228324002633992
526,3930.1000000000004,0.6900206669976238
527,3932.82,0.6605395327547998
528,3935.5499999999997,0.6344697994890244
529,3938.28,0.6896540662232488
530,3941.0,0.7262619319804248
531,3943.7299999999996,0.7339369987146492
532,3946.46,0.7337319654488738
533,3949.19,0.7500753321830982
534,3951.9100000000003,0.7435871979402744
535,3954.64,0.7414207646744988
536,3957.37,0.7384312314087232
537,3960.09,0.7116293971658993
538,3962.82,0.6696415639001239
539,3965.5499999999997,0.6303855306343483
540,3968.28,0.6130366973685727
541,3971.0,0.6039737631257489
542,3973.7299999999996,0.6166049298599733
543,3976.46,0.6222487965941979
544,3979.19,0.6505877633284223
545,3981.9100000000003,0.6772313290855984
546,3984.64,0.7329759958198228
547,3987.37,0.7604392625540473
548,3990.09,0.7592921283112233
549,3992.82,0.7786300950454478
550,3995.5499999999997,0.8074941617796724
551,3998.28,0.7986382285138968
552,4001.0,0.7861612942710727
553,4003.7299999999996,0.7799145610052973
554,4006.46,0.7847527277395218
555,4009.19,0.8050186944737463
556,4011.9100000000003,0.8043620602309224
557,4014.64,0.7957687269651468
558,4017.37,0.7953532936993712
559,4020.09,0.7978663594565473
560,4022.8199999999997,0.8132465261907719
561,4025.55,0.8264202929249963
562,4028.28,0.8142895596592208
563,4031.0,0.8270644254163969
564,4033.73,0.8074912921506213
565,4036.46,0.7838380588848458
566,4039.1899999999996,0.7959961256190703
567,4041.9100000000003,0.8116077913762464
568,4044.64,0.8178819581104708
569,4047.3700000000003,0.7984313248446953
570,4050.09,0.8000687906018713
571,4052.8199999999997,0.7766430573360958
572,4055.55,0.8115663240703204
573,4058.28,0.8025001908045448
574,4061.0,0.8032444565617209
575,4063.73,0.7829534232959453
576,4066.46,0.8092607900301698
577,4069.18,0.8103203557873458
578,4071.9100000000003,0.7890312225215703
579,4074.64,0.7805604892557949
580,4077.3700000000003,0.7785516559900193
581,4080.09,0.7556025217471953
582,4082.8199999999997,0.7430515884814198
583,4085.55,0.7634927552156443
584,4088.28,0.7638830219498689
585,4091.0,0.7399707877070449
586,4093.73,0.6939552544412693
587,4096.46,0.6980580211754939
588,4099.18,0.7134415869326699
589,4101.91,0.7310459536668944
590,4104.64,0.7055715204011188
591,4107.37,0.6887304871353432
592,4110.09,0.6722604528925193
593,4112.82,0.6948906196267438
594,4115.55,0.7040542863609683
595,4118.280000000001,0.7237599530951928
596,4121.0,0.730002618852369
597,4123.73,0.7406196855865934
