,lambda (Angstroms),Total Flux (erg/s/cm^2/Angstrom)
0,102.07000000000001,0.015710510620247854
1,103.97,0.018372711729435495
2,104.712855,0.019413569849952104
3,105.9,0.01802568474219658
4,108.12,0.015430295532416375
5,109.88,0.013372697870654149
6,114.0,0.008556041933562322
7,118.01,0.0038679958280850085
8,120.22644299999999,0.0012769812752612933
9,121.02999999999999,0.0012335929853723253
10,125.0,0.0010189932103563653
11,127.03,0.0009092606826008491
12,127.91,0.0008617121456156996
13,130.89,0.0007006484290455338
14,132.1,0.0006353727099784526
15,133.94,0.0005359560927458664
16,137.06,0.00036759433291669877
17,138.038426,0.00031475725103663444
18,139.93,0.00031132085961571245
19,142.86,0.0003094775121595055
20,146.85999999999999,0.0003121416805230454
21,150.98,0.00030679394270749147
22,154.85,0.0003025713806817163
23,158.489319,0.00029897287674359276
24,158.82,0.0002983069699014255
25,162.15,0.0002914797579983166
26,165.92,0.00028519628518308536
27,170.17999999999998,0.0002773159863520814
28,172.94,0.0002732252006305857
29,176.97,0.00026679745727637295
30,179.85000000000002,0.00026263815130611666
31,181.93,0.000259699156994265
32,181.970086,0.00025964302299159565
33,186.17000000000002,0.0002700579983122659
34,190.94,0.0002834434805255861
35,194.04999999999998,0.000292762953582908
36,198.10999999999999,0.0003043408585066145
37,201.79,0.00031677427868376717
38,205.07000000000002,0.00032675034123296853
39,208.929613,0.00033595942521118065
40,209.85,0.00034256596381202555
41,216.22,0.0003995241133201376
42,220.23999999999998,0.0004345287762750213
43,222.79,0.0004560537893434179
44,226.94,0.0004931929145331612
45,230.09,0.0006038644071470628
46,233.83,0.000810163312980711
47,239.83,0.0009731014084357614
48,239.88329199999998,0.0009733730979003589
49,245.98,0.0009406696656831005
50,251.70999999999998,0.0009778077250033985
51,256.97999999999996,0.0008771917645527825
52,259.96,0.0009578099491556599
53,264.18,0.0009871596783583923
54,269.09,0.000988335237217496
55,274.1,0.0009847417351572327
56,275.42287,0.0009838768924444268
57,279.19,0.0010182221664167125
58,283.72999999999996,0.0010623978836538416
59,289.67,0.0010816215454134339
60,295.74,0.0011503600891643974
61,301.23,0.0011893760901846265
62,308.25,0.0012613582177186896
63,316.227766,0.0013432898630724131
64,318.35,0.001346535285838013
65,328.02,0.001344915960595042
66,337.99,0.0013344427841035815
67,348.26000000000005,0.0013168060563636314
68,357.19,0.0013045339042002673
69,363.078055,0.0013008933440894388
70,366.36,0.0013204583247437536
71,374.89000000000004,0.0013571264637552648
72,385.39,0.0013682774566768198
73,395.28000000000003,0.001445361093819123
74,405.42,0.001494632778411939
75,413.90999999999997,0.0015241955498313678
76,416.86938299999997,0.0015307964053459802
77,421.6,0.0015358902129578816
78,430.43,0.0015537183564935182
79,441.46999999999997,0.0015830388621145182
80,450.72,0.001593906807494432
81,460.16,0.0016051405441848523
82,469.79,0.0016192710721857789
83,478.630092,0.0016414152591147785
84,479.63,0.0016399209694243169
85,489.66999999999996,0.0015969480221856036
86,499.93,0.0015862129127564004
87,505.71,0.0015605515606608063
88,511.57,0.001622299695041398
89,519.88,0.001603439977755172
90,529.5500000000001,0.0015708425305641003
91,539.39,0.0015145723671349232
92,549.42,0.001520481109086687
93,549.5408739999999,0.0015206833264079875
94,559.64,0.0015530348358693028
95,570.04,0.001578587626025133
96,580.64,0.001542991719837806
97,590.0699999999999,0.0015864898372579483
98,599.66,0.0015623287976035646
99,609.4,0.001497312985691813
100,619.31,0.001647589631888378
101,629.3700000000001,0.001655547505827575
102,630.957344,0.0016553314116811066
103,639.6,0.0016691404348351578
104,649.99,0.0017300139458825096
105,657.51,0.0017602005746675032
106,665.13,0.0018075867463884679
107,674.38,0.0018134304679657538
108,685.34,0.0017911723737481383
109,694.8699999999999,0.0019965628155461422
110,704.5400000000001,0.0019404426174545054
111,715.99,0.002121352283623146
112,724.43596,0.002156945285925042
113,725.95,0.002162676144438155
114,734.35,0.002204239638153546
115,744.5699999999999,0.002342553922173938
116,754.9300000000001,0.0024251874977562534
117,765.43,0.002445022364900492
118,774.29,0.0026343353880336306
119,785.0600000000001,0.002738804174618721
120,794.15,0.002824674462460733
121,805.1999999999999,0.0029145218321696698
122,814.53,0.00298284704840355
123,825.86,0.0031823500012363335
124,831.763771,0.0029162446134591265
125,835.4200000000001,0.002744859330151629
126,845.09,0.003271330691545688
127,854.88,0.0033248988878277815
128,864.78,0.0034977202660905725
129,874.79,0.0036823738263340616
130,884.92,0.003927839221465584
131,895.17,0.004089814451485141
132,905.53,0.004060070863485394
133,916.02,0.006042186763281018
134,924.5,0.039189698428702076
135,935.2,0.08589337703955176
136,946.0300000000001,0.16561428513819682
137,954.78,0.23978038143211594
138,954.992586,0.240166406548946
139,965.84,0.2598750020053489
140,974.78,0.038527447304992295
141,986.06,0.20133215593809936
142,995.1899999999999,0.22689817415798122
143,1004.4,0.35531427676533195
144,1016.03,0.35044230709361524
145,1025.43,0.1531455726212044
146,1034.92,0.2327023205846961
147,1044.49,0.4781113529356566
148,1054.1599999999999,0.4693577657709532
149,1063.91,0.3553094629937185
150,1076.23,0.43606085866392064
151,1086.1899999999998,0.3300827149037917
152,1096.24,0.4650578535795653
153,1096.4782,0.46449811858272744
154,1103.84,0.44719591046936447
155,1114.05,0.42414187415081334
156,1124.36,0.37631807675176715
157,1134.76,0.5029039243802753
158,1145.26,0.45237631092828834
159,1155.86,0.48917563639580625
160,1163.8700000000001,0.5052079438481476
161,1174.64,0.3338549654788238
162,1185.51,0.49029612602900496
163,1193.73,0.3151772052123066
164,1204.77,0.215125661925646
165,1215.92,0.15879175145044078
166,1224.35,0.3315243023647027
167,1235.68,0.5265197819446062
168,1244.24,0.5839638534542245
169,1255.76,0.5500310169811874
170,1258.92541,0.5183014878066498
171,1264.46,0.46282732398975385
172,1276.16,0.6257228323097923
173,1285.01,0.662760416808283
174,1293.91,0.49936020347908155
175,1305.89,0.49025062396404406
176,1314.94,0.6432220171517662
177,1324.05,0.6142971129462577
178,1336.3,0.5289566451616826
179,1345.5700000000002,0.6566923479075593
180,1354.8899999999999,0.6343965528257438
181,1364.29,0.5564137612196209
182,1373.74,0.5920796717858059
183,1386.4499999999998,0.5989347239864631
184,1396.0600000000002,0.5180827415040332
185,1405.74,0.5387669620628344
186,1415.48,0.5487801852284049
187,1425.3,0.571977711869668
188,1435.18,0.5654412411177004
189,1441.8,0.6030746287312607
190,1445.43977,0.6107595655221869
191,1448.46,0.6171363969946864
192,1455.14,0.5961765405736302
193,1465.2299999999998,0.54251270849452
194,1475.38,0.5437377786032446
195,1485.61,0.5589830516290822
196,1495.91,0.5719896272073939
197,1506.2800000000002,0.5375466053381794
198,1513.23,0.4692619587623801
199,1516.72,0.509809386021439
200,1523.72,0.49026674126883535
201,1534.2800000000002,0.41827252632776457
202,1544.9199999999998,0.4725335143038069
203,1555.63,0.4440410048323232
204,1566.41,0.45125389791331344
205,1573.64,0.48462996154740984
206,1584.5500000000002,0.5145393593687089
207,1595.53,0.526520059742482
208,1606.59,0.516907263033368
209,1614.01,0.5204875335956081
210,1625.19,0.48802664126216383
211,1636.46,0.5252978522104718
212,1644.01,0.5350709275130205
213,1655.4099999999999,0.48912714320163736
214,1659.58691,0.5076524558054208
215,1666.88,0.5400002375787519
216,1670.73,0.4703692627919222
217,1678.4399999999998,0.5450017158811541
218,1686.1799999999998,0.57464227695906
219,1693.97,0.5362982513514227
220,1705.71,0.5121927775858691
221,1713.5800000000002,0.4824448732813627
222,1725.46,0.48024133679628805
223,1733.43,0.518104659120695
224,1745.44,0.5051891572532081
225,1753.5,0.5450222035436373
226,1765.65,0.4936879389566291
227,1773.8000000000002,0.5086633092130805
228,1786.1,0.5193443845694425
229,1794.3400000000001,0.5615869787919162
230,1806.78,0.5564668914287573
231,1815.1200000000001,0.5086718122801442
232,1823.5000000000002,0.5217160437830967
233,1836.14,0.49827320967776473
234,1844.6100000000001,0.4544629651467393
235,1853.13,0.4565480339301707
236,1865.97,0.4736563530826658
237,1874.59,0.5181445484950106
238,1883.24,0.47476245189602956
239,1896.29,0.45656482696924305
240,1905.04,0.48470045699917547
241,1905.46072,0.48381133906506757
242,1913.84,0.4660980928473467
243,1927.1,0.45762484135688264
244,1936.0,0.46932358643492705
245,1944.94,0.4948478177829852
246,1953.91,0.4628920388335536
247,1967.46,0.5122186878006887
248,1976.54,0.5265621710937948
249,1985.6599999999999,0.4971229406569144
250,1994.83,0.4824600930575512
251,2004.03,0.4971184351606983
252,2013.2900000000002,0.4780421566688659
253,2027.2399999999998,0.5016819683361379
254,2036.6000000000001,0.4758281555193396
255,2046.0,0.49824382897255515
256,2055.44,0.4714489886957843
257,2064.9300000000003,0.47361113125653054
258,2074.46,0.5133690600872906
259,2079.24,0.49252181935392564
260,2084.04,0.5145458717555677
261,2093.66,0.48463316969385833
262,2103.3199999999997,0.48577505390216275
263,2113.0299999999997,0.49250782094798423
264,2122.7799999999997,0.49822037426381943
265,2132.58,0.45963861041717174
266,2147.36,0.4768936371872276
267,2157.27,0.49592443558311755
268,2167.23,0.47799011681652465
269,2177.23,0.4746787843199453
270,2187.28,0.46923963466088314
271,2187.7616199999998,0.4703479535388433
272,2197.38,0.4924880016107353
273,2207.52,0.4779877766284336
274,2212.61,0.4502123696106905
275,2222.82,0.43693766378531573
276,2233.08,0.47251987164346015
277,2243.3900000000003,0.4502177931851239
278,2253.75,0.42701322841030676
279,2264.15,0.43694357458230504
280,2274.6,0.45125123443782256
281,2285.1,0.46713530797685926
282,2295.65,0.43797679519941524
283,2306.24,0.4411369933687866
284,2316.89,0.418480107958381
285,2327.58,0.32422993349479073
286,2332.95,0.38270570310475527
287,2343.72,0.36811115053479576
288,2354.5299999999997,0.40651330891165166
289,2365.4,0.36660968370873065
290,2376.32,0.3804559721893288
291,2387.29,0.34869227435344624
292,2392.79,0.37452177954056076
293,2403.8399999999997,0.3594180035983089
294,2414.9300000000003,0.37042723860287247
295,2426.08,0.40065819002765907
296,2437.28,0.3854047551359649
297,2442.9,0.41015829316352553
298,2454.17,0.40559447742875826
299,2465.5,0.4001174781142141
300,2476.88,0.38398919248318913
301,2482.59,0.3884844551410843
302,2494.0499999999997,0.36350589140369016
303,2505.56,0.4154988413498152
304,2511.34,0.3603178231646373
305,2511.88643,0.3611140334477961
306,2517.13,0.3687525173197649
307,2522.93,0.35383910299742954
308,2534.5800000000004,0.3638357690568768
309,2546.27,0.35811613087961824
310,2552.14,0.39269800914304787
311,2563.92,0.37686026143320134
312,2575.76,0.4029611073682962
313,2587.65,0.3957095480075089
314,2593.61,0.38766801673835055
315,2605.5899999999997,0.37289134784497524
316,2617.61,0.36619017471489423
317,2623.65,0.38792323497232434
318,2635.7599999999998,0.4109926523096553
319,2647.92,0.45492966435110405
320,2654.03,0.47639861719429916
321,2666.2799999999997,0.41603401970315995
322,2672.4199999999996,0.4397164693688257
323,2684.7599999999998,0.44290656234509856
324,2697.1499999999996,0.41536155002548925
325,2703.37,0.4330118912177434
326,2715.8500000000004,0.4032997693655461
327,2722.1099999999997,0.3987295063210946
328,2734.67,0.42244877599548575
329,2747.29,0.3556012393148183
330,2753.63,0.3689844677969552
331,2766.3399999999997,0.38825492158369973
332,2772.7200000000003,0.40754834582913096
333,2785.5099999999998,0.374379291142464
334,2791.9300000000003,0.29610391115118945
335,2804.82,0.3188181458727581
336,2817.77,0.4004921742392681
337,2824.26,0.43414328683375836
338,2837.2999999999997,0.4185766056676804
339,2843.84,0.40257901296628856
340,2856.97,0.3758334222676227
341,2863.55,0.43551862532952507
342,2876.77,0.4447760250982712
343,2883.3999999999996,0.4367379228642913
344,2884.0315,0.43688737107497017
345,2896.71,0.4398891284950218
346,2910.08,0.49028849951382936
347,2930.25,0.4662912557927635
348,2950.56,0.4558881117682296
349,2971.02,0.46885146741855144
350,2991.61,0.47015102278708154
351,3012.35,0.47913427783046747
352,3033.23,0.47933353257038536
353,3047.23,0.481696202223587
354,3068.3500000000004,0.48749055644327405
355,3089.6200000000003,0.49225711033781683
356,3111.04,0.49702366390721536
357,3132.6,0.4881989171731459
358,3147.06,0.4895003858292385
359,3168.88,0.49536683853158564
360,3190.8399999999997,0.4636116909304648
361,3212.96,0.4868188429825234
362,3227.79,0.45450831083659343
363,3250.1600000000003,0.4997056623467449
364,3272.6899999999996,0.5271679135100759
365,3287.8,0.5212972807572099
366,3310.59,0.5179455313569575
367,3311.31121,0.5180687687973118
368,3318.2200000000003,0.5192490435161425
369,3325.8700000000003,0.5169603265253421
370,3333.54,0.5364256087058076
371,3341.22,0.5077032904719059
372,3348.92,0.5554606714092701
373,3356.6400000000003,0.5317788515179003
374,3364.38,0.4579723307977964
375,3372.1400000000003,0.4654981092489583
376,3379.91,0.5308292872857532
377,3387.7000000000003,0.5309078644938139
378,3395.5099999999998,0.5094720408731406
379,3403.34,0.554864816423733
380,3411.18,0.5026546915599585
381,3419.05,0.5144360654530827
382,3426.9300000000003,0.5253112389318398
383,3434.83,0.559079911581863
384,3442.75,0.5030080834031518
385,3450.68,0.5207788548100738
386,3458.64,0.5208573249738946
387,3466.61,0.5090751947233482
388,3474.6,0.5344113636440677
389,3482.6099999999997,0.5151820317360531
390,3490.64,0.5358291989993044
391,3498.69,0.4910267654338217
392,3506.75,0.5409508314539717
393,3514.84,0.5049746962310208
394,3522.94,0.5424078605937026
395,3531.06,0.5028066241276504
396,3539.2000000000003,0.5463471868328641
397,3547.36,0.5643540487093436
398,3555.54,0.552887109757089
399,3563.73,0.5428810703904674
400,3571.95,0.49866662978074455
401,3580.18,0.49989038875665465
402,3588.44,0.4425548464894636
403,3596.71,0.5128924038079055
404,3605.0,0.5421294602976132
405,3613.31,0.49224361595858684
406,3621.64,0.49236127079082637
407,3629.9900000000002,0.6016270247943318
408,3633.22,0.4699795909537716
409,3635.9599999999996,0.4231685774171974
410,3638.71,0.444563063466256
411,3641.45,0.5935097499296818
412,3644.19,0.6560444363931075
413,3646.94,0.6742857224421661
414,3649.6800000000003,0.5083972089055919
415,3652.42,0.5447675953690175
416,3655.16,0.5516245818324433
417,3657.91,0.626371267881502
418,3660.6499999999996,0.6801189543449276
419,3663.3900000000003,0.6142367408083534
420,3666.14,0.7500981268574121
421,3668.88,0.6350405133208378
422,3671.62,0.46796919978426355
423,3674.3700000000003,0.5772336858333222
424,3677.11,0.632754372296748
425,3679.85,0.5500073587601737
426,3682.6,0.6040275448092324
427,3685.3399999999997,0.659390631272658
428,3688.0800000000004,0.5585574177360838
429,3690.82,0.5572185041995095
430,3693.5699999999997,0.6210501902485681
431,3696.31,0.6709362767119939
432,3699.0499999999997,0.6210520631754196
433,3701.8,0.5637172492244783
434,3704.54,0.576682035687904
435,3707.28,0.5660438221513298
436,3710.03,0.5083152082003884
437,3712.7700000000004,0.6266846946638142
438,3715.51,0.5944926811272399
439,3718.2599999999998,0.8013989671762985
440,3721.0,1.0953906536397242
441,3723.74,1.31558154010315
442,3726.48,1.2397704265665757
443,3729.23,0.9705989126156344
444,3731.97,0.8779227990790601
445,3734.71,0.6843331855424859
446,3737.46,0.6327905715915445
447,3740.2000000000003,0.5697848580549703
448,3742.94,0.547561944518396
449,3745.69,0.5748271305674546
450,3748.43,0.5697055170308802
451,3751.1699999999996,0.645873803494306
452,3753.92,0.6613569895433646
453,3756.66,0.5663161760067904
454,3759.4,0.6043416624702161
455,3762.14,0.6967445489336419
456,3764.8900000000003,0.6061527349827006
457,3767.63,0.5894858214461263
458,3770.37,0.652887407909552
459,3773.12,0.7126207939586107
460,3775.8599999999997,0.7683387804220365
461,3778.6,0.7485197668854621
462,3781.35,0.7102953529345208
463,3784.09,0.6645092393979465
464,3786.83,0.6533984258613722
465,3789.5800000000004,0.6820423119104309
466,3792.32,0.6421273983738567
467,3795.06,0.6328289848372823
468,3797.8,0.6572603713007081
469,3800.5499999999997,0.7017051573497668
470,3801.8939600000003,0.6937427763057427
471,3803.2899999999995,0.685471855866366
472,3806.03,0.8033296659864891
473,3808.7799999999997,0.7707398757785833
474,3811.52,0.7802766858987064
475,3814.2599999999998,0.7509614960188293
476,3817.01,0.7161259058109235
477,3819.75,0.6336943159310465
478,3822.4900000000002,0.6396452260511696
479,3825.23,0.6304256361712925
480,3827.9800000000005,0.6229365459633868
481,3830.7200000000003,0.6535148560835098
482,3833.46,0.6324346662036328
483,3836.21,0.5891670759957269
484,3838.95,0.61781448611585
485,3841.6899999999996,0.752182396235973
486,3844.44,0.8387494060280671
487,3847.18,0.8447007161481902
488,3849.92,0.8155037262683132
489,3852.67,0.8410342360604074
490,3855.4100000000003,0.8499801461805304
491,3858.15,0.8062038563006534
492,3860.8900000000003,0.8056928664207764
493,3863.64,0.8573480762128707
494,3866.3799999999997,0.9127116863329936
495,3869.12,0.8238967964531166
496,3871.87,0.7909915062452109
497,3874.61,0.7827179163653338
498,3877.35,0.7602589264854569
499,3880.1000000000004,0.7178577362775512
500,3882.84,0.6639150463976741
501,3885.58,0.606386556517797
502,3888.33,0.6247069663098914
503,3891.0699999999997,0.6139900764300144
504,3893.81,0.6600933865501373
505,3896.5499999999997,0.7418573966702603
506,3899.3,0.8254299064623546
507,3902.04,0.8758679165824775
508,3904.7799999999997,0.8043906267026005
509,3907.53,0.7897294364946948
510,3910.27,0.8114027466148177
511,3913.01,0.8542752567349408
512,3915.7599999999998,0.8061208665270351
513,3918.4999999999995,0.8153819766471581
514,3921.24,0.791110486767281
515,3923.99,0.6660796965593753
516,3926.73,0.6703757066794983
517,3929.47,0.6520538167996212
518,3932.21,0.7061563269197442
519,3934.96,0.7152953367118385
520,3937.7000000000003,0.7664425468319614
521,3940.44,0.7389397569520845
522,3943.1899999999996,0.7721149667441787
523,3945.9300000000003,0.7966251768643018
524,3948.67,0.7935922869844246
525,3951.42,0.774872596776519
526,3954.16,0.7663626068966419
527,3956.8999999999996,0.7410664170167649
528,3959.65,0.6646601268088592
529,3962.39,0.5752539369289822
530,3965.13,0.5358903470491052
531,3967.87,0.5948785571692281
532,3970.6200000000003,0.6846774669613224
533,3973.36,0.6738423770814455
534,3976.1000000000004,0.6650956872015683
535,3978.85,0.7654150969936626
536,3981.5899999999997,0.8054110071137857
537,3984.33,0.8584102172339086
538,3987.08,0.8236532270260029
539,3989.82,0.8619154371461258
540,3992.56,0.9261054472662489
541,3995.3100000000004,0.870267157058343
542,3998.05,0.8498572671784661
543,4000.79,0.8572663772985891
544,4003.53,0.9486844874187121
545,4006.2799999999997,0.9196406972108063
546,4009.02,0.9485250073309293
547,4011.7599999999998,0.9610172174510523
548,4014.51,0.9483653272431465
549,4017.25,0.9680684373632695
550,4019.99,0.9187363474833925
551,4022.7400000000002,0.9368588572754867
552,4025.48,0.9347323673956097
553,4028.2200000000003,0.9256314775157327
554,4030.97,0.922948687307827
555,4033.7099999999996,0.9418244974279499
556,4036.45,0.8379179075480729
557,4039.1899999999996,0.931621517668196
558,4041.94,0.9012773274602902
559,4044.68,0.9101051375804132
560,4047.42,0.8679443477005362
561,4050.17,0.9018284574926304
562,4052.9100000000003,0.9837501676127534
563,4055.65,0.9698025777328764
564,4058.3999999999996,1.0004548875249706
565,4061.14,0.9664905976450936
566,4063.88,0.9188923077652166
567,4066.63,0.9358720175573109
568,4069.37,0.8310987276774339
569,4072.1099999999997,0.8423693377975568
570,4074.85,0.7839347479176798
571,4077.6,0.8875242577097741
572,4080.34,0.9143594678298971
573,4083.08,0.8716863779500201
574,4085.83,0.8183308877421143
575,4088.57,0.8125790978622373
576,4091.3100000000004,0.8416208079823603
577,4094.06,0.8065880177744545
578,4096.8,0.7897244278945775
579,4099.54,0.7500458380147005
580,4102.29,0.7674202478067949
