,lambda (Angstroms),Total Flux (erg/s/cm^2/Angstrom)
0,102.03,0.022762575603291486
1,103.92,0.026613207379105813
2,104.712855,0.0282285474102962
3,106.1,0.025870480940881586
4,108.07000000000001,0.02252159460612262
5,110.08,0.019104710614648152
6,113.95,0.01252593395364757
7,117.95,0.005726164823931738
8,120.22644299999999,0.001856343623823297
9,120.97999999999999,0.0017970697629000685
10,124.94,0.0014855806371413811
11,126.97,0.0013259032013102966
12,128.15,0.0012330857818848083
13,131.13,0.0009986826198056457
14,132.04,0.00092710343779616
15,133.88,0.000782371499955891
16,137.0,0.0005369569524466524
17,138.038426,0.0004552759680105079
18,139.86,0.00045021656359349677
19,143.12,0.00044116635486437253
20,147.13,0.0004300379074051953
21,150.91,0.00041954532687524753
22,155.13,0.0004078331540232954
23,158.489319,0.0003985128230265798
24,159.11,0.0003958657264927837
25,162.07,0.00038324450824343847
26,165.85,0.0003671314078960989
27,170.1,0.0003490166146905186
28,172.87,0.000337216663819611
29,176.89,0.0003200943662852975
30,180.18,0.00030608374917761287
31,181.85,0.00029898032163450263
32,181.970086,0.00029846931613505373
33,186.07999999999998,0.00030416833206047
34,190.85999999999999,0.00031081745480353496
35,193.96,0.00031513620798669426
36,198.02,0.0003208037106897997
37,202.17,0.0003266091964478999
38,204.98,0.0003305577232094088
39,208.929613,0.0003360923735008556
40,210.24,0.00034705922774563484
41,216.13,0.00039646360357191776
42,220.14,0.000430109274047197
43,223.21,0.00045587021704697456
44,226.82999999999998,0.00048631083270794963
45,229.98999999999998,0.0005137288914341049
46,234.27,0.000551592952088518
47,239.88329199999998,0.0006003139276758227
48,240.27,0.0005977874887625154
49,245.87,0.0005600883916504215
50,252.18,0.0005181942187723303
51,256.87,0.0004853910469659517
52,259.84,0.0004669762770011449
53,264.06,0.0004393055219131027
54,268.97,0.00040678328381303457
55,273.97,0.00037366583532009366
56,275.42287,0.00036404798910876965
57,279.07,0.000391720782382514
58,284.25,0.0004311589130350712
59,290.21000000000004,0.0004758555496160061
60,296.28000000000003,0.0005225984883150452
61,301.1,0.0005589158093083512
62,308.11,0.0006129952815621014
63,316.227766,0.0006758087084097355
64,318.21000000000004,0.0006659533644825745
65,327.86999999999995,0.0006177552225388068
66,337.84000000000003,0.0005678860658535714
67,348.1,0.0005166203144101901
68,357.03,0.0004724249468576179
69,363.078055,0.0004426698814536721
70,366.19,0.00045713271163117387
71,374.71999999999997,0.0004966319236461476
72,385.22,0.0005435630142741931
73,395.1,0.0005908781312270585
74,405.23999999999995,0.0006381154852049989
75,413.71999999999997,0.0006776562374074585
76,416.86938299999997,0.0006920375332170566
77,422.38,0.0007079567041475852
78,430.24,0.0007309345166845278
79,441.27,0.0007640443861988372
80,450.51,0.0007914617852117312
81,459.95,0.0008187844300907053
82,469.58,0.0008471588885424551
83,478.630092,0.0008737033865209769
84,480.52,0.0008682560693321299
85,489.45000000000005,0.0008421923707002879
86,499.7,0.0008133337497622837
87,505.48,0.0007999773439065115
88,512.52,0.0008035025049403115
89,519.65,0.0007841548421805094
90,530.53,0.0007535790546872911
91,540.39,0.0007224086035215621
92,549.5408739999999,0.0007073044802189609
93,550.44,0.0007078212865745465
94,559.38,0.0007153808181666623
95,569.78,0.00071769210234541
96,580.37,0.0007076765646005
97,589.8,0.0007170308343894991
98,599.39,0.0007122866962427866
99,610.5300000000001,0.0007129407687188681
100,620.45,0.0007364125767047505
101,630.53,0.0007401952767549213
102,630.957344,0.0007402878295016185
103,639.3,0.000763128304479662
104,649.6899999999999,0.0008021517763514279
105,658.73,0.0008279411340723871
106,664.83,0.0008572115831982554
107,675.63,0.0008877297964047109
108,685.03,0.000903873524565885
109,694.5600000000001,0.0009802348170526926
110,704.22,0.0009863457738651332
111,715.6600000000001,0.0010724636345208602
112,724.43596,0.0011066984096873393
113,725.62,0.00111057861522551
114,735.7099999999999,0.0011420536903788815
115,744.23,0.0011985307144925315
116,754.5799999999999,0.0012434953089263668
117,765.08,0.0012816797337143156
118,775.73,0.001350464888856378
119,784.71,0.0014126413393893095
120,795.6199999999999,0.001461713813811835
121,804.84,0.0015114519129113485
122,814.16,0.0015572938655802706
123,825.48,0.0016436834896373736
124,831.763771,0.00158884648013452
125,835.04,0.0015516755341884174
126,844.71,0.001706925536801986
127,854.49,0.0017388380513377365
128,864.39,0.0018023951243340479
129,874.4000000000001,0.0018659797092525406
130,884.52,0.0019474768060932148
131,894.76,0.00200979446139445
132,905.12,0.0020316476751562466
133,915.6,0.0027487954473786043
134,924.08,0.013947768911924941
135,934.7800000000001,0.03001989870799166
136,945.6,0.05911483306251895
137,954.35,0.08271957378360155
138,954.992586,0.08381998756255594
139,965.4,0.10165817680510315
140,974.33,0.022799402737013558
141,985.62,0.10764753897119815
142,994.7400000000001,0.10838825098676623
143,1003.9399999999999,0.13949934030071648
144,1015.5699999999999,0.12755114005302534
145,1024.96,0.05162859545063324
146,1034.45,0.09979034247121887
147,1044.02,0.1762971667901867
148,1056.11,0.17832773600819304
149,1065.88,0.1539537635731163
150,1075.74,0.17832576559871952
151,1085.7,0.15324083924730042
152,1095.74,0.18756929019426352
153,1096.4782,0.18725900031469056
154,1105.88,0.18330143051182282
155,1116.1100000000001,0.182877744743207
156,1123.85,0.1702846704666589
157,1134.25,0.20091163371264087
158,1144.74,0.18709241702517457
159,1155.34,0.19678010264127152
160,1166.03,0.20508210832392026
161,1174.1100000000001,0.15853623207656778
162,1184.97,0.1994970867738143
163,1195.94,0.1500183437746241
164,1204.23,0.11571618101589239
165,1215.3700000000001,0.06101252703129996
166,1223.79,0.13464120881314304
167,1235.12,0.19807794608015988
168,1243.68,0.22117494352108347
169,1255.1899999999998,0.21965042092120388
170,1258.92541,0.20959661776011004
171,1263.89,0.19623921694942953
172,1275.5800000000002,0.2408195554475085
173,1284.42,0.25214911390114564
174,1296.31,0.21964846503392224
175,1305.29,0.21713873233184774
176,1314.34,0.2556547040519174
177,1326.5,0.24984277224153592
178,1335.7,0.23265295343762887
179,1344.96,0.2616008384241311
180,1354.28,0.25743062720104265
181,1363.6699999999998,0.24025862040009838
182,1376.28,0.24984621701778661
183,1385.8200000000002,0.25506981969286563
184,1395.43,0.23265862679008878
185,1405.1,0.24137403767772125
186,1414.84,0.2469901529874979
187,1424.65,0.25042367271941873
188,1434.52,0.2504259962417489
189,1441.1499999999999,0.26221241508197674
190,1445.43977,0.2641674020296818
191,1447.8,0.26524301122313715
192,1454.48,0.2616101654024844
193,1464.56,0.2492735998527569
194,1474.7099999999998,0.2487123380144896
195,1484.9399999999998,0.2515818804178912
196,1495.2299999999998,0.2556669260025443
197,1505.59,0.24871227529865775
198,1512.54,0.22999524379363728
199,1516.03,0.24194502883643998
200,1526.5400000000002,0.23697838608568242
201,1533.58,0.2166480593525394
202,1544.22,0.2332002234944937
203,1554.9199999999998,0.22272379081769964
204,1565.6999999999998,0.22581196238257437
205,1576.55,0.23917743765890934
206,1583.83,0.24813752365077282
207,1594.8100000000002,0.25507800581981965
208,1605.8600000000001,0.2481393917003267
209,1613.27,0.24928088458490202
210,1624.46,0.23972687788832953
211,1635.72,0.2515876749032172
212,1643.27,0.255672675210713
213,1654.66,0.23918017911831257
214,1659.58691,0.24830381479762464
215,1666.13,0.2604224738410351
216,1673.82,0.23808765141992697
217,1677.68,0.26404964601739417
218,1685.42,0.27269684295635677
219,1693.2,0.2598425553833761
220,1704.94,0.2539309011280042
221,1716.75,0.2493061739767315
222,1724.68,0.24874344448396327
223,1736.63,0.2628638715408888
224,1744.65,0.258072676896248
225,1756.74,0.2733472581613719
226,1764.8500000000001,0.2516319983648586
227,1773.0000000000002,0.263481954056402
228,1785.29,0.2665305127618091
229,1793.5300000000002,0.28295470330148
230,1805.96,0.2803637162150854
231,1814.3000000000002,0.26962964547489787
232,1826.87,0.27087681259670154
233,1835.3,0.2647199767046415
234,1843.78,0.24594516017265225
235,1856.56,0.2510881086067534
236,1865.1200000000001,0.2605041230508775
237,1873.73,0.2727719568550724
238,1886.72,0.25931358660147097
239,1895.4299999999998,0.2545964591258075
240,1904.18,0.2635332471382007
241,1905.46072,0.26309443713354724
242,1912.97,0.2605148951010835
243,1926.2299999999998,0.2563519769431426
244,1935.12,0.2534161398825019
245,1944.05,0.27527438285758393
246,1953.03,0.2641157008773193
247,1966.56,0.28362094796050624
248,1975.6399999999999,0.28755331606954815
249,1984.7600000000002,0.27780846421431277
250,1993.92,0.2721038923948
251,2003.12,0.27399240061100993
252,2017.01,0.2708524680157008
253,2026.3200000000002,0.274599621330148
254,2035.67,0.27333905468031783
255,2045.07,0.28293026307514096
256,2054.5099999999998,0.2733287515056868
257,2063.99,0.2745816199719553
258,2073.52,0.29284536348287704
259,2078.2999999999997,0.29149907775173395
260,2083.09,0.2969090870295215
261,2092.7000000000003,0.2848710906118886
262,2107.21,0.28419734857028056
263,2116.94,0.28880909225981555
264,2126.71,0.29147541598507326
265,2136.52,0.2720340197460536
266,2146.39,0.2854914935606179
267,2156.29,0.29146195240197426
268,2166.25,0.2809211812969145
269,2176.25,0.2802678902275775
270,2186.29,0.284159979193963
271,2187.7616199999998,0.2861121384024786
272,2196.38,0.2975524742465788
273,2206.52,0.28878350929961505
274,2216.71,0.2739078642493624
275,2226.94,0.27078103511647883
276,2237.2200000000003,0.29416292588030646
277,2247.54,0.28158403256150305
278,2252.72,0.26893069386078583
279,2263.1200000000003,0.27141703237672044
280,2273.57,0.28094549078936615
281,2284.06,0.2921766651193809
282,2294.61,0.27661026332544913
283,2305.2,0.2831946774488863
284,2315.84,0.2749876114690348
285,2326.53,0.22993956538589444
286,2337.2599999999998,0.25571863522012306
287,2342.65,0.238187380085593
288,2353.47,0.27042678573390183
289,2364.33,0.24173040729957965
290,2375.2400000000002,0.2567584487619687
291,2386.21,0.2279279141004112
292,2397.22,0.24546649535622267
293,2402.75,0.23939309593248403
294,2413.8399999999997,0.24564500902303346
295,2424.98,0.27132234201029415
296,2436.17,0.26346329489426606
297,2447.42,0.2798451716542914
298,2453.06,0.27798521600331744
299,2464.38,0.2755807206187385
300,2475.7599999999998,0.26333444911021303
301,2487.18,0.2628634935190566
302,2492.92,0.2540189776615051
303,2504.42,0.28907595390508656
304,2510.2000000000003,0.248440953964904
305,2511.88643,0.24697673593529829
306,2515.98,0.24342029459821996
307,2527.6,0.2374571049901473
308,2533.42,0.24585590864600076
309,2545.1200000000003,0.24767060671704638
310,2556.87,0.2748125970875409
311,2562.76,0.26374458996262284
312,2574.59,0.2827188680122356
313,2586.4700000000003,0.27962883836129737
314,2592.4399999999996,0.27523991891549754
315,2604.4,0.2636089769436775
316,2616.42,0.2571564257311962
317,2622.4500000000003,0.2794225970447351
318,2634.5600000000004,0.2995365319712618
319,2646.7200000000003,0.33777505919723744
320,2652.82,0.3578623197300048
321,2665.07,0.31622513309498845
322,2677.37,0.33358463875942107
323,2683.54,0.3422282885114169
324,2695.9300000000003,0.3144754803148575
325,2702.14,0.3316475239064125
326,2714.61,0.3047482033889714
327,2727.1400000000003,0.30073337363086894
328,2733.43,0.3215706049015422
329,2746.0499999999997,0.2664428612824478
330,2752.3799999999997,0.28358568639268017
331,2765.08,0.3040180304527041
332,2777.8399999999997,0.32071286527206666
333,2784.25,0.2865961780614173
334,2797.1000000000004,0.2092760990197879
335,2803.55,0.22843890564869768
336,2816.49,0.3197679127460763
337,2822.98,0.3498692132145452
338,2836.0099999999998,0.34054530645093195
339,2842.5499999999997,0.3223329992188497
340,2855.67,0.2928205785942445
341,2862.25,0.34805966520172144
342,2875.46,0.36130473071612423
343,2882.09,0.35727740962305005
344,2884.0315,0.35815484073461823
345,2895.4,0.3632943747786142
346,2908.76,0.41157823266962745
347,2928.92,0.3925173691279229
348,2949.23,0.38481010511343783
349,2969.6699999999996,0.3959228406892095
350,2990.25,0.40085887582371943
351,3010.9799999999996,0.40774011048544884
352,3031.85,0.4137722447059164
353,3052.87,0.42183887845360335
354,3066.96,0.4309309340437513
355,3088.22,0.4353027670349895
356,3109.6200000000003,0.4458533995849657
357,3131.1800000000003,0.43611163163064276
358,3152.88,0.44055476323505804
359,3167.44,0.4542058173438269
360,3189.39,0.4272502481602746
361,3211.5,0.449863378472423
362,3226.3199999999997,0.4230362317617057
363,3248.69,0.4750725612543678
364,3271.21,0.5083344902742494
365,3286.31,0.5063270426810084
366,3309.09,0.5033244708814036
367,3311.31121,0.5010496219140336
368,3324.36,0.4876849776697284
369,3332.02,0.502664016142335
370,3339.7,0.4639179534099093
371,3347.3999999999996,0.5303243894724513
372,3355.12,0.5113191243299609
373,3362.85,0.44965735858495426
374,3370.61,0.46560019103239914
375,3378.38,0.5001899228773278
376,3386.16,0.5003512541197404
377,3393.9700000000003,0.5039845835546043
378,3401.79,0.564321312386952
379,3409.64,0.49740353941175125
380,3417.5,0.4840116658340343
381,3425.37,0.5259924916538012
382,3433.27,0.5742444156660196
383,3441.18,0.5167415390757217
384,3449.12,0.4959435606778754
385,3457.0699999999997,0.5123503816775128
386,3465.04,0.48722620147211787
387,3473.02,0.5443012206642068
388,3481.0299999999997,0.5035197380487472
389,3489.06,0.5434163542282553
390,3497.1000000000004,0.502695469805247
391,3505.16,0.5488146841772066
392,3513.2400000000002,0.5159265973441337
393,3521.34,0.5658695093060284
394,3529.46,0.4774241200628908
395,3537.5899999999997,0.5572122302172371
396,3545.7499999999995,0.5690585385640347
397,3553.92,0.5852051463083162
398,3562.12,0.5565015522450492
399,3570.33,0.49618095757926595
400,3578.56,0.5067456617084505
401,3586.8100000000004,0.4591669646326025
402,3595.08,0.5261087663517222
403,3603.3599999999997,0.5904849674683257
404,3611.67,0.5074502667773807
405,3620.0,0.5630061648814033
406,3628.3399999999997,0.6062559623829098
407,3636.7,0.5319083586793839
408,3645.09,0.6094705531683096
409,3653.49,0.5612163470547188
410,3661.91,0.6565172397360959
411,3670.35,0.6214634312124405
412,3678.8199999999997,0.6274212208812366
413,3687.3,0.5898277099475165
414,3695.8,0.6322257978087641
415,3701.81,0.49595923569654043
416,3704.54,0.5076619712096235
417,3707.2699999999995,0.48252360672270656
418,3710.0,0.49468824223578955
419,3712.73,0.5454399777488725
420,3715.46,0.47750071326195564
421,3718.19,0.41430914877503866
422,3720.9199999999996,0.5494505842881218
423,3723.65,0.5650495198012048
424,3726.38,0.6831194553142879
425,3729.11,0.837019990827371
426,3731.83,0.9403180269429702
427,3734.56,0.7989846624560532
428,3737.29,0.5842719979691363
429,3740.02,0.6379387334822193
430,3742.7500000000005,0.6068694689953024
431,3745.48,0.7698474045083854
432,3748.21,0.6707092400214684
433,3750.94,0.39232967553455145
434,3753.67,0.38380091104763453
435,3756.3999999999996,0.5993346465607176
436,3759.13,0.6851236820738006
437,3761.86,0.6793797175868838
438,3764.5899999999997,0.6458716530999667
439,3767.31,0.5178611892155659
440,3770.04,0.437165224728649
441,3772.7699999999995,0.49964916024173206
442,3775.5,0.553561295754815
443,3778.23,0.6454690312678981
444,3780.96,0.7907262667809811
445,3783.69,0.7720239022940643
446,3786.4199999999996,0.7605655378071473
447,3789.15,0.7728454733202303
448,3791.88,0.8345354088333133
449,3794.61,0.6388716443463965
450,3797.34,0.5951756798594795
451,3800.0699999999997,0.7057129153725625
452,3801.8939600000003,0.6890130434716055
453,3802.79,0.6808090627371752
454,3805.52,0.6820640325230661
455,3808.2500000000005,0.7805521023089571
456,3810.98,0.813640872094848
457,3813.71,0.894379341880739
458,3816.44,0.8317792116666299
459,3819.17,0.7873471814525209
460,3821.8999999999996,0.7172288512384118
461,3824.63,0.6427381210243028
462,3827.36,0.5277842908101936
463,3830.0899999999997,0.5398044605960846
464,3832.82,0.5659378303819755
465,3835.5499999999997,0.47525620016786646
466,3838.2699999999995,0.5185067704307322
467,3841.0,0.4989098402166231
468,3843.73,0.6087836100025141
469,3846.46,0.753954579788405
470,3849.19,0.782497749574296
471,3851.9199999999996,0.8219792193601869
472,3854.65,0.8941602891460778
473,3857.38,0.8970169589319688
474,3860.11,0.8393088287178597
475,3862.84,0.8658748985037507
476,3865.5699999999997,0.9127015682896417
477,3868.3,1.0453605380755326
478,3871.0299999999997,0.9093526078614235
479,3873.7500000000005,0.8696582781242891
480,3876.48,0.90267504791018
481,3879.21,0.775094017696071
482,3881.94,0.794892287481962
483,3884.67,0.7322488572678529
484,3887.3999999999996,0.6589847270537439
485,3890.13,0.5673215968396348
486,3892.86,0.5784903666255257
487,3895.5899999999997,0.6444231364114166
488,3898.32,0.7310634061973076
489,3901.0499999999997,0.8065200759831985
490,3903.78,0.7907183457690895
491,3906.51,0.8478193155549805
492,3909.23,0.9082295858178462
493,3911.96,1.0040194556037372
494,3914.69,0.9703088253896279
495,3917.4199999999996,0.9145631951755189
496,3920.15,0.9026285649614099
497,3922.88,0.8580233347473007
498,3925.61,0.8847625045331917
499,3928.34,0.8090740743190827
500,3931.0699999999997,0.7033989441049736
501,3933.8,0.6190955138908646
502,3936.5299999999997,0.5739564836767556
503,3939.2599999999998,0.6225724534626463
504,3941.9900000000002,0.7240906232485373
505,3944.71,0.7732732935114031
506,3947.44,0.885571463297294
507,3950.17,0.9085011330831849
508,3952.8999999999996,0.9171878028690759
509,3955.63,0.8922513726549669
510,3958.36,0.9169703424408577
511,3961.0899999999997,0.7866189122267486
512,3963.82,0.7164861820126396
513,3966.5499999999997,0.6013301517985306
514,3969.28,0.5212838215844215
515,3972.01,0.4383513913703124
516,3974.74,0.5130722611562034
517,3977.4700000000003,0.6374772309420943
518,3980.19,0.78091970120496
519,3982.9199999999996,0.939944070990851
520,3985.65,0.9078645407767418
521,3988.38,0.9190477105626328
522,3991.11,0.9727719803485237
523,3993.84,0.9716459501344147
524,3996.5699999999997,0.9779371199203056
525,3999.3,1.0281982897061965
526,4002.0299999999997,1.0260761594920875
527,4004.7599999999998,1.0554130292779784
528,4007.4900000000002,1.0145738990638695
529,4010.22,1.0441557688497605
530,4012.9500000000003,1.0892216386356515
531,4015.67,1.048056508898517
532,4018.3999999999996,1.039672378684408
533,4021.13,1.121305248470299
534,4023.86,1.1226031182561897
535,4026.5899999999997,1.1313329880420808
536,4029.32,1.1237278578279717
537,4032.0499999999997,1.0788917276138628
538,4034.78,1.0107645973997537
539,4037.51,1.0878944671856445
540,4040.24,1.1450393369715353
541,4042.9700000000003,1.1126422067574262
542,4045.7,1.0575600765433173
543,4048.4300000000003,1.0357119463292082
544,4051.15,1.051590816592074
545,4053.88,1.083885686377965
546,4056.61,1.118691556163856
547,4059.34,1.1099604259497466
548,4062.0699999999997,1.0690632957356376
549,4064.8,1.0936381655215286
550,4067.5299999999997,1.0243710353074196
551,4070.2599999999998,1.0131439050933104
552,4072.9900000000002,1.0064767748792014
553,4075.72,1.0146576446650923
554,4078.4500000000003,0.9940363144509833
555,4081.18,0.9771520842368743
556,4083.91,1.0184512540227653
557,4086.63,1.004502124285631
558,4089.36,1.0104899940715217
559,4092.0899999999997,0.9943992638574127
560,4094.82,0.9191290336433037
561,4097.55,0.8727923034291946
562,4100.28,0.7751981732150856
563,4103.01,0.7780116430009765
564,4105.74,0.7608965127868674
565,4108.47,0.7851392825727584
566,4111.2,0.8372474523586494
567,4113.93,0.9019822221445403
568,4116.66,0.9959100919304312
569,4119.39,1.030759561716322
570,4122.11,1.029537431979188
571,4124.84,0.9813097017650788
572,4127.57,0.9612219715509698
573,4130.3,0.9980048413368607
574,4133.03,0.9960995111227516
575,4135.76,1.0109917809086426
576,4138.49,1.0980066506945336
577,4141.22,1.1047745204804245
578,4143.95,1.1045283902663154
579,4146.679999999999,1.0403842600522064
580,4149.41,1.0893751298380974
581,4152.14,1.1096779996239883
