,lambda (Angstroms),Total Flux (erg/s/cm^2/Angstrom)
0,101.98,0.006210218123532524
1,104.11,0.00739934188513405
2,104.712855,0.007736617957896359
3,106.05,0.0071212645418497564
4,108.02000000000001,0.0062170639029057026
5,110.03,0.005304653119516094
6,113.9,0.0035349134494077335
7,117.9,0.001706604214851292
8,120.22644299999999,0.0008834035634815114
9,120.92,0.0009447799714283777
10,124.88000000000001,0.0009502576637144971
11,126.91,0.0009401985193561193
12,128.09,0.0009433527635221851
13,131.07,0.0009257831496364876
14,131.98,0.001020271812510318
15,134.12,0.0010086948790487763
16,136.93,0.0011417800028679672
17,138.038426,0.0011409632826268935
18,140.12,0.0011825240635319721
19,143.06,0.003039417703941568
20,147.06,0.0070561219221859164
21,150.84,0.0073797288884268255
22,155.06,0.007807562358674613
23,158.489319,0.008213735361866164
24,159.04000000000002,0.008278734818532158
25,162.0,0.008601051708126013
26,166.15,0.00918364276617145
27,170.02,0.00960774990222828
28,173.18,0.009983262878956855
29,176.80999999999997,0.010397166510452019
30,180.10000000000002,0.01070634509381816
31,181.970086,0.010927336848240644
32,182.18,0.01095246592503282
33,185.99999999999997,0.01138744749525621
34,191.20999999999998,0.011922529977157746
35,193.87,0.01236761682972168
36,197.93,0.012741538341529786
37,202.07,0.013249039833866131
38,204.88,0.01358851289992051
39,208.929613,0.01351783038469452
40,210.14000000000001,0.013499005143444577
41,216.03,0.014737439729913496
42,220.04,0.015261435772653795
43,223.1,0.015409419785318462
44,227.25,0.015991654443017277
45,229.88000000000002,0.02386684985259508
46,234.16,0.03916470036704108
47,239.88329199999998,0.04817639079578067
48,240.16,0.048610936802935205
49,245.76000000000002,0.045052848310955546
50,252.06,0.047484837507478415
51,256.75,0.03905637502044545
52,259.71999999999997,0.0453397770702348
53,263.94,0.04746124570663584
54,268.84999999999997,0.04679888077884653
55,273.85,0.04604603712529325
56,275.42287,0.04581543634339607
57,278.94,0.0453134180805521
58,284.12,0.04491273603797473
59,290.07,0.042320125178257485
60,296.15,0.04213522451824389
61,300.96000000000004,0.04081330190727919
62,307.97,0.04064290267591484
63,316.227766,0.04058240205926089
64,318.06,0.040562624709552325
65,327.72,0.03945090247075089
66,337.68,0.03792341041086867
67,347.94,0.036460738529905654
68,356.87000000000006,0.035619516522400814
69,363.078055,0.03538991717650235
70,366.02000000000004,0.0352887912741369
71,375.40999999999997,0.03410586538597129
72,385.03999999999996,0.0317018141076928
73,394.92,0.0320803388813801
74,405.05,0.03157982970703316
75,413.53000000000003,0.030522792589712137
76,416.86938299999997,0.03005174247831731
77,422.19,0.029298786202795125
78,430.04,0.028379425318127573
79,441.07,0.02774557754005329
80,451.34000000000003,0.026694418013233447
81,459.74,0.02556641470989492
82,470.44,0.024712280383023224
83,478.630092,0.02429997546862925
84,480.29,0.02421377886013725
85,490.35,0.022914023659597764
86,499.46999999999997,0.022748524571235922
87,506.42,0.021826708741837373
88,512.28,0.022789434042517154
89,519.41,0.02211650619163778
90,530.28,0.021070901894434578
91,540.14,0.019621666717762675
92,549.5408739999999,0.018833634523805824
93,550.18,0.01878044756553496
94,560.41,0.019036560498397394
95,569.52,0.018989871555912224
96,580.11,0.018221419020136388
97,589.53,0.01780746925743493
98,600.49,0.01658681832333642
99,610.25,0.014264338951365488
100,620.1700000000001,0.01628066270444421
101,630.24,0.015515672512256985
102,630.957344,0.015512971263979616
103,640.4799999999999,0.015483662888085737
104,649.39,0.014863821482759514
105,658.43,0.014203811414953783
106,664.52,0.014402226380336869
107,675.3199999999999,0.014178341343577809
108,684.71,0.013155169492173406
109,694.24,0.013370102927329531
110,705.52,0.012267247444492292
111,715.33,0.012754551452769481
112,724.43596,0.012470170303867012
113,725.28,0.012443667078556733
114,735.37,0.01219375418125824
115,745.6,0.011734312740290593
116,754.24,0.011420734045279794
117,764.73,0.010130499023212282
118,775.37,0.010869711704356392
119,784.35,0.010227089403291926
120,795.26,0.010275850750216947
121,804.47,0.010139300127410295
122,815.66,0.009937516386997004
123,825.1,0.009761719442448167
124,831.763771,0.009023337381756135
125,834.66,0.008700350051125518
126,844.3199999999999,0.009242124288768859
127,854.1,0.008969977746755595
128,865.9799999999999,0.008863490560751754
129,876.01,0.008719437561120563
130,884.11,0.008521069934299762
131,894.35,0.008363294070269514
132,904.7099999999999,0.008115945426582663
133,915.1800000000001,0.008779670901543923
134,925.78,0.015816270698543862
135,934.35,0.02386319285140136
136,945.1700000000001,0.03318518288569752
137,953.9100000000001,0.040329131767374835
138,954.992586,0.04059073523285517
139,964.96,0.04300343978657304
140,973.89,0.01684432840805566
141,985.1600000000001,0.03554253586204325
142,994.28,0.03595229977334465
143,1005.79,0.0469231486460507
144,1015.1,0.04627875784717088
145,1024.49,0.02589754085453054
146,1033.97,0.03619720689390962
147,1045.94,0.05651656015249272
148,1055.6200000000001,0.05472672070747052
149,1065.3899999999999,0.04470914429446774
150,1075.25,0.05072894091348439
151,1085.2,0.040691120564520455
152,1095.24,0.05202451324757595
153,1096.4782,0.051724897659264565
154,1105.37,0.04957182275055661
155,1115.6000000000001,0.04745338384903827
156,1125.92,0.04239886313900219
157,1133.73,0.05165778064429464
158,1144.22,0.04766416874039168
159,1154.8,0.04922064502797095
160,1165.49,0.04955743466069519
161,1176.27,0.034868582484901676
162,1184.43,0.047327915179291746
163,1195.39,0.035593029386462714
164,1203.67,0.027774373002829107
165,1214.81,0.020468193592964565
166,1226.05,0.035018309951413626
167,1234.55,0.047098110258069946
168,1245.97,0.05022706299948349
169,1254.61,0.047967259381778864
170,1258.92541,0.04603061663050974
171,1266.22,0.042758889413548724
172,1274.99,0.05186676057186753
173,1283.83,0.05344051293669516
174,1295.7099999999998,0.04305377769847708
175,1304.69,0.04266116247632234
176,1313.7299999999998,0.05139326828831801
177,1325.89,0.048970747876135194
178,1335.08,0.0436528162735069
179,1344.34,0.05057244587738742
180,1353.65,0.04885780634305996
181,1366.1799999999998,0.04385571230813803
182,1375.6499999999999,0.045186155531544994
183,1385.18,0.04518691978910238
184,1394.79,0.037944385425526986
185,1404.4499999999998,0.03847211192374359
186,1414.1899999999998,0.041405969800827426
187,1423.99,0.04178926871206167
188,1433.8600000000001,0.04178936882980473
189,1440.48,0.04345445293106705
190,1445.43977,0.04375469027232898
191,1447.13,0.0438570028675073
192,1453.8100000000002,0.042369809499477454
193,1463.8899999999999,0.039184715315384505
194,1474.03,0.03909661199924338
195,1484.25,0.03954772984037136
196,1494.54,0.039730228694109804
197,1504.9,0.03751307856045872
198,1511.8500000000001,0.03359533909821209
199,1515.33,0.035582279439418094
200,1525.84,0.034614361475646574
201,1536.41,0.030020404379826882
202,1543.4999999999998,0.031214066942801186
203,1554.2,0.02988167172754379
204,1564.98,0.030930407669555498
205,1575.82,0.03275784447951903
206,1586.75,0.0339843325914103
207,1594.07,0.034377278481533276
208,1605.12,0.03352084832932821
209,1616.25,0.033366339334392245
210,1623.7099999999998,0.03172198724973615
211,1634.96,0.03352153999070384
212,1646.3,0.03375176403359927
213,1653.89,0.03157820382950547
214,1659.58691,0.032697085855713445
215,1665.36,0.0338314561180874
216,1673.0500000000002,0.030299628501183208
217,1676.9,0.03406567522093859
218,1684.64,0.03501931288610914
219,1696.3200000000002,0.032914716778769615
220,1704.15,0.03165367395167471
221,1715.96,0.029889011577729527
222,1723.88,0.029550328258369164
223,1735.83,0.03129736067423326
224,1743.8400000000001,0.030517776862607444
225,1755.93,0.03210010406828082
226,1764.04,0.0296886808208045
227,1776.27,0.02996604281628717
228,1784.46,0.03045125802013043
229,1796.8300000000002,0.03210455480542239
230,1805.13,0.031811161629830095
231,1813.46,0.02922271162348264
232,1826.03,0.029763629537073583
233,1834.46,0.02862680009487562
234,1842.93,0.026299014878337454
235,1855.7,0.026300243920227374
236,1864.27,0.026972639267838702
237,1872.8700000000001,0.02882839778469487
238,1885.8500000000001,0.02654430901129872
239,1894.5600000000002,0.025473369148719335
240,1903.3,0.026913582455384794
241,1905.46072,0.026726306054530198
242,1916.4999999999998,0.02576682746451247
243,1925.3400000000001,0.02506525369464173
244,1934.23,0.025703603116117878
245,1943.1599999999999,0.026847717090671533
246,1956.63,0.025003322839522342
247,1965.6599999999999,0.02721726319676977
248,1974.73,0.0277836281070947
249,1983.8500000000001,0.026414046208766518
250,1993.0,0.025695680225246466
251,2006.82,0.026349948313525474
252,2016.0800000000002,0.02551779735096857
253,2025.3899999999999,0.02628910957975855
254,2034.7299999999998,0.025107767723356662
255,2044.13,0.025985237696571035
256,2053.56,0.02431153358459354
257,2063.04,0.02453448266396293
258,2072.56,0.02646276629640983
259,2077.34,0.027202145389172032
260,2086.93,0.029273589489504568
261,2096.56,0.027513688142914612
262,2106.2400000000002,0.027575689987671542
263,2115.96,0.028473896385505983
264,2125.73,0.028018955974687305
265,2135.54,0.026454150116946136
266,2145.4,0.02814545745055185
267,2155.3,0.028666059337235074
268,2165.25,0.02718992441526518
269,2175.24,0.026940454046372797
270,2185.28,0.028335256868827298
271,2187.7616199999998,0.02846391644882429
272,2195.37,0.02886023497905251
273,2205.5,0.028271144790760573
274,2215.68,0.025555800030956827
275,2225.9100000000003,0.026210640699641276
276,2236.1800000000003,0.02980739571111628
277,2246.5099999999998,0.02860205723677712
278,2256.88,0.02561840310522851
279,2267.29,0.025211023316470457
280,2272.52,0.02621563113633553
281,2283.01,0.029675560033158584
282,2293.55,0.026519364358469834
283,2304.13,0.02860361302657164
284,2314.77,0.02608826820885928
285,2325.45,0.021364557733937473
286,2336.19,0.0229874037732015
287,2346.97,0.02058737415525608
288,2352.38,0.025247711517678646
289,2363.2400000000002,0.020962920585314335
290,2374.15,0.022554875081438223
291,2385.11,0.019339435006050298
292,2396.12,0.021047450359150573
293,2407.18,0.02061395114073904
294,2412.72,0.02143106261723091
295,2423.86,0.026460072084400484
296,2435.05,0.026154626980058254
297,2446.29,0.02919143730420422
298,2457.58,0.03000117305683838
299,2463.25,0.027118008647399553
300,2474.62,0.02525091308561482
301,2486.04,0.02077633295231828
302,2497.51,0.021302738247509938
303,2503.2700000000004,0.02741132360934986
304,2511.88643,0.02156343237204777
305,2514.83,0.019565215406201552
306,2520.62,0.018901892114124172
307,2526.4300000000003,0.018812757981659656
308,2532.26,0.022697703008807992
309,2543.94,0.022900562222717528
310,2555.69,0.034046838495272076
311,2567.4799999999996,0.02774962308705233
312,2573.4,0.033260574332458534
313,2585.2799999999997,0.03068549514249666
314,2597.2099999999996,0.028766943851566928
315,2603.2,0.026361832155618138
316,2615.22,0.024885497082946274
317,2627.29,0.029753829909306556
318,2633.35,0.04528641527200277
319,2645.5,0.05684089473681449
320,2657.7099999999996,0.0798610316804648
321,2663.84,0.050882794101806
322,2676.13,0.056672597683907734
323,2682.3,0.06594625842447467
324,2694.68,0.04845163822483427
325,2707.12,0.05956989550403244
326,2713.36,0.044482633303244375
327,2725.8900000000003,0.03477951680070042
328,2732.17,0.043453032919138074
329,2744.78,0.029130533055045548
330,2757.4500000000003,0.0363037406697916
331,2763.81,0.045359553426680695
332,2776.56,0.047589077679878175
333,2782.96,0.032347198755992984
334,2795.8100000000004,0.019791878807254762
335,2802.2599999999998,0.022294267782401726
336,2815.19,0.042679084472114936
337,2828.1800000000003,0.057920398640666726
338,2834.7,0.05343513467445869
339,2847.79,0.03801788464107477
340,2854.35,0.02561146899409246
341,2867.5299999999997,0.0514671451789664
342,2874.14,0.07365923743101623
343,2884.0315,0.06928227656142913
344,2887.4100000000003,0.06778743889125341
345,2894.06,0.0864880231726816
346,2907.42,0.11904447168394183
347,2927.5699999999997,0.10269775435623926
348,2947.8700000000003,0.09298239689954635
349,2968.2999999999997,0.0962034493310618
350,2988.8799999999997,0.09749555163358693
351,3009.5899999999997,0.09545356382432042
352,3030.46,0.10484596587746421
353,3051.4599999999996,0.10872834781881638
354,3072.61,0.12333702963117818
355,3086.79,0.11884211743729121
356,3108.19,0.14444479903466914
357,3129.74,0.13077368050305674
358,3151.4300000000003,0.13313836185105332
359,3173.28,0.1482722430614602
360,3187.92,0.12559213047200285
361,3210.02,0.13858571146742585
362,3232.27,0.11549419233385848
363,3247.1899999999996,0.16955277950361916
364,3269.7,0.20093366014646855
365,3292.3599999999997,0.1976222406603276
366,3307.56,0.1810088275893063
367,3311.31121,0.17879907425270178
368,3322.83,0.17201343501007785
369,3330.49,0.18598200908997087
370,3338.16,0.1590117830054773
371,3345.86,0.18806855642782408
372,3353.57,0.17308532968578427
373,3361.2999999999997,0.1630052026149714
374,3369.05,0.16753747521538534
375,3376.8199999999997,0.14557064748702614
376,3384.6,0.15523001959428043
377,3392.3999999999996,0.18830309137276158
378,3400.23,0.20547706265808302
379,3408.06,0.18395483394340445
380,3415.92,0.17403850473556623
381,3423.8,0.21356277519895486
382,3431.69,0.20438744549795695
383,3439.6,0.1951588154681859
384,3447.5299999999997,0.1362673851096417
385,3455.48,0.18249055442232442
386,3463.44,0.14662862357062056
387,3471.42,0.19234349239014356
388,3479.43,0.14127596071650692
389,3487.4500000000003,0.16902252887848365
390,3495.49,0.15627169671168728
391,3503.55,0.2102546642161178
392,3511.62,0.20214863155616175
393,3519.7200000000003,0.19705789840304602
394,3527.83,0.13854656508554372
395,3535.96,0.19339373143926827
396,3544.1099999999997,0.21347259746421976
397,3552.29,0.2194083629960115
398,3560.47,0.20053672852780324
399,3568.6800000000003,0.15141609356643534
400,3576.91,0.16598275827629427
401,3585.1499999999996,0.11670082282176665
402,3593.42,0.17135458687407934
403,3601.7,0.2326795507620055
404,3610.01,0.17447371415677196
405,3618.3300000000004,0.21409677738715183
406,3626.67,0.22208374028875857
407,3630.14,0.23267378324662133
408,3632.89,0.21797393804031662
409,3635.64,0.19498309283401188
410,3638.38,0.2085023477920937
411,3641.13,0.202869002585789
412,3643.88,0.21532295737948426
413,3646.62,0.2135879123375661
414,3649.37,0.1913673671312614
415,3652.12,0.20537962192495665
416,3654.87,0.23513017671865194
417,3657.61,0.26252303167673374
418,3660.3599999999997,0.268122586470429
419,3663.11,0.2730885412641243
420,3665.85,0.2783094962222062
421,3668.6000000000004,0.2802853510159014
422,3671.35,0.2452861058095967
423,3674.0899999999997,0.27227866076767854
424,3676.84,0.2372818155613738
425,3679.5899999999997,0.24783267035506906
426,3682.33,0.23436312531315093
427,3685.08,0.2131155801068462
428,3687.8300000000004,0.23332583490054148
429,3690.57,0.2381918898586233
430,3693.3199999999997,0.2570743446523186
431,3696.07,0.25773269944601385
432,3698.8199999999997,0.2654353542397091
433,3701.56,0.263231809197791
434,3704.31,0.24044866399148623
435,3707.06,0.2307812187851815
436,3709.7999999999997,0.23217067374326333
437,3712.55,0.24073742853695862
438,3715.3,0.2305531833306539
439,3718.0400000000004,0.24593503828873572
440,3720.79,0.22570859308243102
441,3723.54,0.22253564787612629
442,3726.28,0.22619800283420813
443,3729.0299999999997,0.2180154576279034
444,3731.78,0.20342211242159866
445,3734.5299999999997,0.18844116721529394
446,3737.27,0.18679212217337576
447,3740.02,0.18302887696707104
448,3742.7700000000004,0.2016352317607663
449,3745.51,0.17919028671884815
450,3748.2599999999998,0.17914934151254341
451,3751.01,0.2042653963062387
452,3753.75,0.19947695126432052
453,3756.5,0.2191020060580158
454,3759.25,0.2193827608517111
455,3761.9900000000002,0.22061511580979293
456,3764.74,0.2253784706034882
457,3767.49,0.22621932539718348
458,3770.23,0.2381296803552653
459,3772.98,0.23890213514896058
460,3775.73,0.2599358899426559
461,3778.48,0.2691843447363511
462,3781.2200000000003,0.26546029969443297
463,3783.97,0.26784175448812825
464,3786.7200000000003,0.2714901092818235
465,3789.46,0.24504176423990534
466,3792.2099999999996,0.22932321903360062
467,3794.96,0.22013987382729588
468,3797.7,0.21593172878537775
469,3800.4500000000003,0.22255508357907303
470,3801.8939600000003,0.2247768154597659
471,3803.2,0.22678634284620316
472,3805.94,0.226080107189305
473,3808.69,0.23712517140227218
474,3811.44,0.22355043561523938
475,3814.18,0.22127319995834122
476,3816.93,0.21962826417130843
477,3819.68,0.1985809283842756
478,3822.43,0.1830728925972428
479,3825.17,0.17976675694034464
480,3827.92,0.16689142115331185
481,3830.67,0.153575285366279
482,3833.41,0.14749434970938088
483,3836.1600000000003,0.1496251139223481
484,3838.91,0.15987717813531527
485,3841.6499999999996,0.17310234247841713
486,3844.4,0.19199260669138432
487,3847.1499999999996,0.1994546709043515
488,3849.8900000000003,0.19717483524745336
489,3852.64,0.19288199946042053
490,3855.3900000000003,0.19161976367338773
491,3858.13,0.18973762801648958
492,3860.8799999999997,0.18556139222945675
493,3863.63,0.19708035644242394
494,3866.3799999999997,0.21288662065539116
495,3869.12,0.20281238499849302
496,3871.87,0.2035443492114602
497,3874.62,0.20109111342442737
498,3877.36,0.20491047776752924
499,3880.11,0.20249014198049642
500,3882.86,0.2092554061934636
501,3885.6000000000004,0.21262377053656548
502,3888.35,0.21666253474953265
503,3891.1,0.23637109896249986
504,3893.84,0.25727446330560166
505,3896.5899999999997,0.2612016275185689
506,3899.34,0.27490979173153607
507,3902.0899999999997,0.2804586559445033
508,3904.8300000000004,0.2751889202876051
509,3907.58,0.2812952845005723
510,3910.3300000000004,0.2926214487135395
511,3913.07,0.3026316130566414
512,3915.8199999999997,0.29743647726960853
513,3918.57,0.27463054148257576
514,3921.31,0.2620884058256776
515,3924.06,0.23657617003864478
516,3926.81,0.21272893425161196
517,3929.55,0.1823931985947138
518,3932.3,0.15178536280768098
519,3935.0499999999997,0.14379812702064818
520,3937.79,0.16320359136375007
521,3940.54,0.18540565557671726
522,3943.29,0.2070908197896844
523,3946.04,0.2255273840026516
524,3948.78,0.26294944834575346
525,3951.5299999999997,0.2804332125587206
526,3954.28,0.2866915767716879
527,3957.02,0.2892518411147897
528,3959.7700000000004,0.2607191053277569
529,3962.52,0.22750376954072407
530,3965.2599999999998,0.19679063388382592
531,3968.01,0.1772610980967931
532,3970.7599999999998,0.1789078623097603
533,3973.5,0.20410602665286218
534,3976.25,0.24319429086582933
535,3978.9999999999995,0.2887439550787965
536,3981.74,0.3242203194218984
537,3984.49,0.3424387836348656
538,3987.2400000000002,0.35683094784783276
539,3989.99,0.3703616120608
540,3992.73,0.38087877640390183
541,3995.48,0.385895340616869
542,3998.23,0.3911399048298362
543,4000.97,0.395803669172938
544,4003.7200000000003,0.4008456333859053
545,4006.47,0.4108032975988724
546,4009.2100000000005,0.40160646194197425
547,4011.96,0.40507732615494146
548,4014.71,0.41549109036790866
549,4017.4500000000003,0.4271740547110105
550,4020.2,0.4372584189239777
551,4022.9500000000003,0.4319617831369449
552,4025.69,0.4276301474800468
553,4028.4399999999996,0.41754441169301393
554,4031.19,0.3972214759059811
555,4033.9399999999996,0.3935973401189483
556,4036.6800000000003,0.4094105044620502
557,4039.43,0.41374286867501736
558,4042.1800000000003,0.41764443288798453
559,4044.92,0.3930918972310864
560,4047.67,0.4155925614440536
561,4050.42,0.4089277256570208
562,4053.1600000000003,0.3953976900001226
563,4055.91,0.41042345421308984
564,4058.66,0.40092051842605697
565,4061.4,0.38701038276915883
566,4064.15,0.39375004698212607
567,4066.9,0.39686621119509324
568,4069.65,0.3921270754080604
569,4072.3900000000003,0.39081073975116226
570,4075.14,0.3947630039641295
571,4077.8900000000003,0.4025415681770967
572,4080.63,0.4134895325201985
573,4083.3799999999997,0.42413139673316574
