,lambda (Angstroms),Total Flux (erg/s/cm^2/Angstrom)
0,100.04,15.998502105395337
1,101.89999999999999,15.953997722405472
2,104.03,15.903033025669185
3,104.712855,15.886694294292303
4,105.97,15.728689404828389
5,107.94,15.481088983223344
6,109.94,15.22971799789276
7,114.07000000000001,14.71063691216127
8,118.08000000000001,14.206638086442629
9,120.22644299999999,13.936861357165917
10,121.11,13.843757348627141
11,125.07000000000001,13.426475961496628
12,127.10000000000001,13.212566564360053
13,127.99,13.118783628198122
14,130.97,12.804768851021421
15,131.87,12.709932183308476
16,134.02,12.483377899868477
17,137.14000000000001,12.154610771501968
18,138.038426,12.059939957425742
19,140.01,11.91144165967732
20,142.94,11.690755215205622
21,146.95,11.388723758306963
22,151.06,11.079160073640042
23,154.94,10.786919964351512
24,158.489319,10.519586662791054
25,158.91,10.495631831457278
26,161.87,10.327080629585057
27,166.01999999999998,10.09076733305282
28,169.89000000000001,9.870398122378294
29,173.05,9.690458436132424
30,177.08,9.460978447990778
31,179.95000000000002,9.2975523230095
32,181.970086,9.182522763489981
33,182.04000000000002,9.179485562218044
34,185.85,9.013971806544568
35,191.06,8.787639367403873
36,194.16,8.65296949308747
37,198.23,8.476161036115878
38,201.91,8.316295141452455
39,205.19,8.173805865373668
40,208.929613,8.011350079433534
41,209.96999999999997,7.9773708732570885
42,215.86,7.785003627706945
43,219.87,7.6540370289833835
44,222.93,7.554097331275331
45,227.07000000000002,7.418885175757962
46,230.23,7.315689036747752
47,233.97,7.1935587589290195
48,239.88329199999998,7.000444455768018
49,239.97,6.998262392103441
50,246.13,6.843227648633369
51,251.86,6.69902219300361
52,257.14,6.566125482700693
53,260.11,6.49138899084155
54,263.73,6.400287395650308
55,269.25,6.261363236739075
56,274.26,6.135274805354261
57,275.42287,6.106008542121863
58,278.72,6.0423261410763445
59,283.9,5.942277021951639
60,289.84,5.827544052404003
61,295.90999999999997,5.710306682544551
62,300.72,5.617401109007322
63,307.72,5.4822013380171795
64,316.227766,5.317880084651928
65,317.80999999999995,5.295055536786931
66,328.21999999999997,5.144882743936641
67,338.19,5.001056251420372
68,347.67,4.864298654760166
69,357.41,4.723790129125314
70,363.078055,4.642025373100791
71,365.73,4.613376769097978
72,375.11,4.512040820187824
73,384.74,4.407998263784223
74,394.6,4.30148422631065
75,404.73,4.192047655920153
76,414.15,4.090278070163048
77,416.86938299999997,4.0608986840401275
78,421.85,4.01980732500463
79,429.7,3.9550427975215223
80,440.72,3.8641281122953006
81,450.99,3.779397550115872
82,460.43,3.701513402209563
83,470.07,3.6219809692374416
84,478.630092,3.551359141410841
85,479.90999999999997,3.5432381804725983
86,489.96,3.479464971817881
87,500.21999999999997,3.4143669005918706
88,506.01,3.3776278765976606
89,511.87000000000006,3.340475955346352
90,520.19,3.287683557674188
91,529.86,3.226323156372286
92,539.71,3.1638131963664184
93,549.5408739999999,3.1014443203109074
94,549.75,3.1004322924111607
95,559.97,3.0509796200019252
96,570.38,3.0006016037338097
97,579.65,2.9557247069189754
98,590.42,2.903607906818245
99,600.02,2.857135167748513
100,609.77,2.8099303263901914
101,619.67,2.762054999943281
102,629.74,2.7133166124226347
103,630.957344,2.7074248381761734
104,639.97,2.672847097926596
105,650.37,2.6329549756855917
106,657.9,2.6040652823788832
107,665.52,2.574841084672493
108,674.78,2.539314040060791
109,685.74,2.4972468543106547
110,695.2800000000001,2.460696569944386
111,704.96,2.423530854500836
112,716.41,2.3796520303302104
113,724.43596,2.3488646734521255
114,726.38,2.3433299265195537
115,734.7900000000001,2.3193876715261292
116,745.01,2.2903144766209214
117,755.3700000000001,2.260827968017012
118,764.1199999999999,2.2359096551981708
119,774.75,2.205686245368194
120,785.53,2.17501180786818
121,794.6300000000001,2.149118842052584
122,805.6800000000001,2.117670508426503
123,815.01,2.0911167619701843
124,824.45,2.0642846837291695
125,831.763771,2.0433834466579612
126,835.92,2.0344954689650256
127,845.5999999999999,2.0140336306349735
128,855.39,1.9932151563761697
129,865.29,1.9721933258886164
130,875.31,1.950916889906062
131,885.4499999999999,1.9293987635285075
132,895.6999999999999,1.9076288386222018
133,903.9899999999999,1.889991807500907
134,914.46,1.8682667605371
135,925.0400000000001,1.8544726400445426
136,935.7600000000001,1.8440884194244844
137,944.41,1.847068735118188
138,954.992586,1.8418215894191137
139,955.3499999999999,1.8416608116859035
140,964.19,1.834465422699363
141,975.35,1.7515740125760833
142,984.38,1.7879781366429994
143,995.78,1.7660013598504023
144,1004.99,1.77329391891533
145,1014.2900000000001,1.7482676604792635
146,1026.04,1.6704536156272445
147,1035.53,1.679852600244635
148,1045.1100000000001,1.716604207361031
149,1054.78,1.695321116976433
150,1064.54,1.653122239090841
151,1074.39,1.6502927737042543
152,1084.33,1.608237610816674
153,1094.3700000000001,1.6145555484835439
154,1096.4782,1.6093401850194347
155,1104.49,1.5925452828549214
156,1114.71,1.5723659607908873
157,1125.03,1.544377176867127
158,1135.44,1.5511088872696126
159,1145.94,1.5221259919983448
160,1153.89,1.515734324150099
161,1164.56,1.5023530737172965
162,1175.34,1.4475273652387948
163,1186.21,1.4615081310865392
164,1194.4299999999998,1.411046406217033
165,1205.49,1.3686834745312968
166,1213.8400000000001,1.3264701792441456
167,1225.07,1.3536021923968755
168,1236.41,1.377072877503906
169,1244.98,1.3760172261253572
170,1253.61,1.3570532376309723
171,1258.92541,1.3401219724703908
172,1265.21,1.3231811978438295
173,1273.98,1.3438607925245374
174,1285.77,1.3364032477452383
175,1294.68,1.2976234154311117
176,1303.65,1.285504028690627
177,1315.72,1.2988815299216583
178,1324.84,1.2820189571152794
179,1334.02,1.2563643298825427
180,1346.3600000000001,1.263108136194964
181,1355.7,1.2477219638252732
182,1365.09,1.2224909961002846
183,1374.56,1.2173802558068187
184,1384.08,1.2078807201580546
185,1393.6799999999998,1.1787873119408137
186,1406.57,1.1681490693449557
187,1416.3200000000002,1.1602009750618199
188,1426.1399999999999,1.1509161672812673
189,1436.03,1.1385623460032972
190,1442.65,1.1377193409618245
191,1445.43977,1.1361052364527815
192,1445.98,1.1359910371310562
193,1456.0,1.1239702876189093
194,1466.1,1.105948040705468
195,1476.26,1.0969981707410554
196,1486.49,1.0902813905505102
197,1493.35,1.0864595883894994
198,1503.7,1.0714411620970123
199,1510.64,1.052415562534707
200,1517.6200000000001,1.0542777142717543
201,1524.62,1.045292891658478
202,1535.1899999999998,1.0218122475124312
203,1545.83,1.022257893140251
204,1556.55,1.0069452413667765
205,1563.73,1.0033530496005874
206,1574.5700000000002,1.0016973517251708
207,1585.49,0.9976083564484599
208,1596.48,0.9917374509456162
209,1603.85,0.9820258028513525
210,1614.96,0.9732164512465667
211,1626.16,0.9576090150653246
212,1633.66,0.9585943336939572
213,1644.99,0.9508819642356116
214,1656.39,0.9316614845511328
215,1659.58691,0.9337496434703749
216,1664.03,0.9377816116471228
217,1671.7199999999998,0.9199634563691261
218,1675.5700000000002,0.933541006587554
219,1683.3000000000002,0.9336417741689693
220,1694.97,0.9187466934024907
221,1706.7199999999998,0.9073232583548363
222,1714.6,0.8986482616590477
223,1726.48,0.8912835509044829
224,1734.4499999999998,0.8949513556423718
225,1746.47,0.88462862489575
226,1754.54,0.8889281867821694
227,1766.7,0.8694977360434906
228,1774.8500000000001,0.8696636436487343
229,1783.05,0.8670311298282436
230,1795.41,0.8700908933866259
231,1803.69,0.8630975252849596
232,1816.2,0.8476537245661376
233,1824.5800000000002,0.8443107136130019
234,1833.0,0.8344667255192787
235,1845.71,0.8159445390975181
236,1854.22,0.8138475524374722
237,1867.0800000000002,0.8120005017385072
238,1875.6999999999998,0.8142502279418452
239,1884.35,0.8004984212897421
240,1893.05,0.7928757932119045
241,1905.46072,0.7907654958438262
242,1906.17,0.7907575398455824
243,1914.97,0.7841104960436128
244,1923.81,0.776595427951634
245,1937.15,0.768685027233648
246,1946.0900000000001,0.7781939984166469
247,1955.07,0.767891545309637
248,1968.6200000000001,0.7744098670691039
249,1977.71,0.7721590971645691
250,1982.2699999999998,0.7650783281035486
251,1996.01,0.756133484485473
252,2005.22,0.7534329417109115
253,2014.4799999999998,0.7464623185738388
254,2023.78,0.7446913711467571
255,2033.12,0.7396414994296665
256,2047.2099999999998,0.7394954932740126
257,2056.66,0.7290593047593974
258,2066.15,0.724926391954773
259,2075.69,0.7326208987876377
260,2085.27,0.7360283813304933
261,2094.9,0.7235485835108377
262,2104.57,0.7179408614011731
263,2114.28,0.7168778150014997
264,2124.04,0.7129774882393152
265,2133.8399999999997,0.6974046371871216
266,2143.69,0.7015918057724166
267,2153.59,0.7011720939952005
268,2163.5299999999997,0.6901838579279759
269,2173.5099999999998,0.6854974975707421
270,2183.5499999999997,0.6842283007784946
271,2187.7616199999998,0.6853840223351957
272,2193.63,0.6878212214107291
273,2203.75,0.6797933615725716
274,2213.92,0.6662074662609054
275,2224.14,0.6615571354757307
276,2234.41,0.6732547692170472
277,2244.7200000000003,0.6631828145795566
278,2255.08,0.6501703244685575
279,2265.49,0.6487157988840496
280,2275.95,0.6516010378260333
281,2286.45,0.6565122883892097
282,2297.0099999999998,0.6428960563841759
283,2307.61,0.6453639360003349
284,2312.93,0.6367966816190112
285,2323.61,0.6062183844775563
286,2334.33,0.6155220989572946
287,2345.11,0.6020301308688225
288,2355.93,0.6199029744015435
289,2366.81,0.597274635366054
290,2377.73,0.6033388079517576
291,2383.21,0.5841597000552059
292,2394.21,0.5909363958832956
293,2405.2599999999998,0.5842469562378767
294,2416.3599999999997,0.5858162811189491
295,2427.52,0.6005150234318108
296,2433.11,0.5951199974935399
297,2444.34,0.6021091101434899
298,2455.63,0.5986103402252292
299,2466.96,0.5927732819281616
300,2472.65,0.5834186850428733
301,2484.06,0.5767937499881919
302,2495.5299999999997,0.5684519323653
303,2507.05,0.5890968792688993
304,2511.88643,0.5624303097863785
305,2512.83,0.5572986450874732
306,2518.62,0.5524904562819147
307,2524.43,0.54965527580518
308,2536.08,0.5541944273449458
309,2547.78,0.5529355997067706
310,2553.66,0.5700086483809188
311,2565.44,0.5586041540580381
312,2577.29,0.5678638888860403
313,2583.2300000000005,0.5632968625466592
314,2595.15,0.5569437265255441
315,2607.1299999999997,0.5472539154909001
316,2613.14,0.5412038183024015
317,2625.2,0.553717540583052
318,2637.32,0.5676494878501732
319,2643.4,0.5918457198125574
320,2655.6000000000004,0.6049851003949731
321,2667.86,0.5705729059638599
322,2674.01,0.5818869670771267
323,2686.35,0.5845262059613081
324,2692.54,0.5644147837322223
325,2704.97,0.5744211600961099
326,2717.46,0.5528775614464683
327,2723.7200000000003,0.5486402683682652
328,2736.29,0.5587262030339183
329,2742.6,0.5196904307777743
330,2755.2599999999998,0.5287850029231337
331,2767.98,0.5396493000549638
332,2774.36,0.5486673569497026
333,2787.1600000000003,0.5205673873968273
334,2793.59,0.4752173651136251
335,2806.48,0.48236633304045623
336,2812.9500000000003,0.5369559274149013
337,2825.94,0.5592351369858506
338,2832.4500000000003,0.5526637480179428
339,2845.53,0.5387044950685985
340,2852.0800000000004,0.5149123227583381
341,2865.2499999999995,0.5527142072887004
342,2871.8500000000004,0.5606055558004988
343,2884.0315,0.5534726003982098
344,2885.11,0.5529106462548861
345,2891.7599999999998,0.5566714726167651
346,2911.8100000000004,0.5864919438281444
347,2931.99,0.5695118548029893
348,2952.3100000000004,0.5612187547538736
349,2972.7799999999997,0.5672256928933718
350,2993.38,0.5671491707963352
351,3007.2,0.5707051825739543
352,3028.0499999999997,0.5701513907912742
353,3049.04,0.5724155879846334
354,3070.1699999999996,0.5759330741540325
355,3091.45,0.5760899985120451
356,3112.88,0.5798502610586715
357,3127.2499999999995,0.5714349795278748
358,3148.93,0.5709957723888576
359,3170.75,0.5760431542258801
360,3192.7299999999996,0.5530567234640906
361,3207.4700000000003,0.567023362798541
362,3229.7,0.5431263623511079
363,3252.09,0.5756671493048628
364,3267.1,0.5958278173788183
365,3289.75,0.5909067838595038
366,3311.31121,0.5862326394739223
367,3312.55,0.5860201237006248
368,3320.19,0.5819787082944561
369,3327.84,0.5996133944388026
370,3335.5099999999998,0.6161038836841801
371,3343.2000000000003,0.5842318760305887
372,3350.9100000000003,0.5808479714780281
373,3358.63,0.6045153684759832
374,3366.3700000000003,0.574153868574969
375,3374.13,0.5422376717749859
376,3381.9100000000003,0.5583885780760338
377,3389.71,0.5983593874781128
378,3397.52,0.576383798430707
379,3405.36,0.5941897140348478
380,3413.21,0.5849093311895042
381,3421.07,0.6041097498946759
382,3428.9599999999996,0.5923139732513942
383,3436.8700000000003,0.5887743997091432
384,3444.79,0.534439227717408
385,3452.73,0.6069985588267037
386,3460.69,0.5775588930370303
387,3468.6699999999996,0.578331530348388
388,3476.66,0.569279969210261
389,3484.68,0.5849674127236806
390,3492.71,0.5707545577876155
391,3500.7599999999998,0.5577784059525817
392,3508.83,0.5896896572185786
393,3516.92,0.5598232115856066
394,3525.03,0.5752337690536654
395,3533.15,0.5968797280722398
396,3541.3,0.6144205917423606
397,3549.46,0.615429856962997
398,3557.6400000000003,0.5926611252846643
399,3565.85,0.612548498257878
400,3574.0699999999997,0.5464004727816073
401,3582.2999999999997,0.5490651488558521
402,3590.56,0.5160382295816432
403,3598.8399999999997,0.5886570134084654
404,3607.14,0.5693684003363186
405,3615.4500000000003,0.5686991888146872
406,3623.79,0.5594492819446023
407,3632.14,0.6463021766250329
408,3640.51,0.6052088744064944
409,3648.9,0.5847354752889868
410,3654.6400000000003,0.7451490652848757
411,3657.38,0.6113125901261188
412,3660.1099999999997,0.5400920134168464
413,3662.84,0.567241436707574
414,3665.57,0.5691252599983017
415,3668.2999999999997,0.5646774832890293
416,3671.04,0.6282733081302723
417,3673.77,0.589317131421
418,3676.4999999999995,0.5442355547117276
419,3679.23,0.5781654780024551
420,3681.96,0.5632984012931828
421,3684.7000000000003,0.5613949261344258
422,3687.43,0.5239428494251535
423,3690.1600000000003,0.5228669727158809
424,3692.89,0.5423021960066086
425,3695.6299999999997,0.5819907208478516
426,3698.36,0.5443445441385792
427,3701.09,0.5508739674293068
428,3703.8199999999997,0.6161343907200345
429,3706.55,0.614403614010762
430,3709.29,0.5940632388520052
431,3712.02,0.5700990621427328
432,3714.75,0.5898375854334603
433,3717.48,0.626605908724188
434,3720.21,0.5449779320149155
435,3722.95,0.6323475568561586
436,3725.6800000000003,0.8225417801468862
437,3728.41,0.9625324034376138
438,3731.14,0.9182881267283415
439,3733.8700000000003,0.823984950019069
440,3736.61,0.7132547748603121
441,3739.3399999999997,0.5840431981510398
442,3742.07,0.5866184214417673
443,3744.7999999999997,0.546243044732495
444,3747.54,0.606757869573738
445,3750.27,0.5366895928644656
446,3753.0,0.6048732161551932
447,3755.73,0.6147504394459208
448,3758.46,0.6249429627366485
449,3761.2000000000003,0.6248465875778915
450,3763.93,0.5949633108686192
451,3766.66,0.5204798341593467
452,3769.3900000000003,0.6263256574500743
453,3772.12,0.6444508807408019
454,3774.8599999999997,0.578345805582045
455,3777.59,0.6450982288727726
456,3780.3199999999997,0.6764445521635002
457,3783.05,0.7252940754542277
458,3785.78,0.7075402987449554
459,3788.5200000000004,0.6475361235861985
460,3791.25,0.6408201468769261
461,3793.98,0.5410951701676536
462,3796.7099999999996,0.5589534934583813
463,3799.44,0.5698132167491088
464,3801.8939600000003,0.6440641575985455
465,3802.18,0.6527281543405546
466,3804.9100000000003,0.6251030508100446
467,3807.64,0.6493193472795344
468,3810.3700000000003,0.6533037437490244
469,3813.11,0.6996290603521023
470,3815.8399999999997,0.6806160568215922
471,3818.57,0.6166994532910822
472,3821.3,0.5845136497605721
473,3824.0299999999997,0.6189429462300621
474,3826.77,0.6425014628331399
475,3829.5,0.6267147593026299
476,3832.23,0.5790396557721199
477,3834.96,0.5571879522416098
478,3837.69,0.5612571487110998
479,3840.4300000000003,0.6109670653141775
480,3843.16,0.6808630617836675
481,3845.8900000000003,0.6861574582531574
482,3848.62,0.6765567547226474
483,3851.35,0.7059646511921374
484,3854.09,0.6835883677952153
485,3856.82,0.7007333642647051
486,3859.5499999999997,0.6846191607341952
487,3862.28,0.7125714572036851
488,3865.0099999999998,0.7394322536731751
489,3867.75,0.7485440702762529
490,3870.48,0.7213678667457428
491,3873.21,0.7237997632152329
492,3875.94,0.6665785596847227
493,3878.68,0.7065116762878005
494,3881.4100000000003,0.6312783727572905
495,3884.14,0.5957690692267804
496,3886.87,0.6119435656962704
497,3889.6,0.6097902621657605
498,3892.34,0.5395030787688382
499,3895.0699999999997,0.6369449752383283
500,3897.8,0.6460965717078181
501,3900.5299999999997,0.6688816681773081
502,3903.26,0.661233864646798
503,3906.0,0.6621827812498758
504,3908.7300000000005,0.6730566777193658
505,3911.46,0.6527336741888558
506,3914.19,0.7358509706583457
507,3916.92,0.6778414671278357
508,3919.66,0.6825504837309135
509,3922.39,0.6839269802004035
510,3925.1200000000003,0.6100156766698934
511,3927.85,0.6162196731393834
512,3930.5899999999997,0.6271392897424612
513,3933.32,0.5259852862119512
514,3936.0499999999997,0.5432512826814411
515,3938.78,0.582702179150931
516,3941.5099999999998,0.6569770756204211
517,3944.2500000000005,0.6405687922234988
518,3946.98,0.6936654886929888
519,3949.71,0.6913181851624788
520,3952.44,0.7170144816319688
521,3955.17,0.6945807781014587
522,3957.91,0.6865780947045366
523,3960.6400000000003,0.6684746911740265
524,3963.37,0.6205690876435165
525,3966.1000000000004,0.5706982841130064
526,3968.83,0.5183045805824964
527,3971.5699999999997,0.5254764971855742
528,3974.3,0.5956998936550641
529,3977.0299999999997,0.6273880901245541
530,3979.7599999999998,0.669301386594044
531,3982.4900000000002,0.7103172830635339
532,3985.23,0.7199507996666119
533,3987.96,0.7499529961361018
534,3990.69,0.6742100926055917
535,3993.4199999999996,0.7419958890750816
536,3996.1600000000003,0.7570026056781595
537,3998.89,0.8006989021476494
538,4001.6200000000003,0.7942399986171393
539,4004.35,0.7672335950866294
540,4007.08,0.7900187915561193
541,4009.82,0.7260745081591972
542,4012.5499999999997,0.779256204628687
543,4015.2799999999997,0.7208951010981771
544,4018.01,0.7992576975676671
545,4020.74,0.803217994037157
546,4023.48,0.8169751106402348
547,4026.21,0.7719686071097247
548,4028.9399999999996,0.7480796035792148
549,4031.67,0.7593538000487047
550,4034.4,0.7362894965181946
551,4037.1400000000003,0.7878302131212724
552,4039.87,0.7782296095907624
553,4042.6,0.7879029060602525
554,4045.33,0.7891704025297424
555,4048.0699999999997,0.7740716191328202
556,4050.8,0.7841208156023102
557,4053.53,0.7510011120718001
558,4056.2599999999998,0.73266730854129
559,4058.9900000000002,0.74588240501078
560,4061.73,0.7636546216138578
561,4064.4599999999996,0.7639032180833478
562,4067.19,0.7777853145528377
563,4069.92,0.7570135110223276
564,4072.65,0.7406810074918176
565,4075.39,0.7407321240948955
566,4078.12,0.7228471205643855
567,4080.85,0.7225134170338754
568,4083.58,0.7518121135033653
569,4086.3100000000004,0.7678776099728553
570,4089.05,0.7101802265759332
571,4091.7799999999997,0.7524938230454231
572,4094.51,0.732207119514913
573,4097.24,0.692585915984403
574,4099.97,0.6780606124538929
575,4102.71,0.7018979290569708
576,4105.4400000000005,0.7164107255264607
577,4108.17,0.7179572219959507
578,4110.900000000001,0.7107096184654407
579,4113.64,0.7128471350685184
580,4116.37,0.6995227315380085
581,4119.1,0.7583082280074983
582,4121.83,0.7383369244769884
583,4124.5599999999995,0.7585385209464783
584,4127.3,0.7168278375495561
585,4130.03,0.7466723340190461
586,4132.76,0.766619230488536
587,4135.49,0.790665826958026
588,4138.22,0.7754857234275159
589,4140.96,0.7594894400305938
590,4143.69,0.7540856365000839
591,4146.42,0.7533881329695736
592,4149.15,0.7334895294390635
593,4151.88,0.7849005259085535
594,4154.62,0.7961711425116315
595,4157.35,0.7950006389811213
