,lambda (Angstroms),Total Flux (erg/s/cm^2/Angstrom)
0,101.99,0.0034338812739847305
1,103.89,0.004019504302449164
2,104.712855,0.004274743057879826
3,106.07000000000001,0.003952968707769853
4,108.03999999999999,0.0034974292609154106
5,110.05,0.0030718967938202627
6,113.91,0.002201714940592768
7,117.92,0.0012980510614626498
8,120.22644299999999,0.0015594761964825546
9,120.94000000000001,0.0018097652006112501
10,124.89999999999999,0.0020683693898549665
11,126.92999999999999,0.002163511552522831
12,128.10999999999999,0.002242704558408585
13,131.09,0.0023762250139505734
14,132.0,0.002731865052387892
15,134.14000000000001,0.0028171351647569708
16,136.95000000000002,0.003407883788942537
17,138.038426,0.0034736771075498467
18,140.14000000000001,0.00362406565863963
19,143.07999999999998,0.009168478633427736
20,147.09,0.020868626320128522
21,150.86,0.021899162641540484
22,155.09,0.02329735182975603
23,158.489319,0.024624126550519706
24,159.06,0.024846742241119837
25,162.02,0.025893592077002845
26,166.18,0.027735051846351933
27,170.04999999999998,0.02903818288178005
28,172.81,0.03026429772875204
29,176.83999999999997,0.03168588875530897
30,180.12,0.032721128573449595
31,181.79000000000002,0.03348172473085656
32,181.970086,0.03354152134276321
33,186.03,0.034892948789332835
34,190.8,0.03662299824018502
35,193.9,0.037995111782667575
36,197.96,0.039329448422176984
37,202.1,0.040902301153105294
38,204.91,0.04195141636419431
39,208.929613,0.0418783816854391
40,210.17000000000002,0.0418571100118774
41,216.06,0.045791274642152
42,220.07999999999998,0.04739963506892685
43,223.14000000000001,0.04784430285647189
44,226.76000000000002,0.04964065468356766
45,229.92,0.07509786462103246
46,234.19,0.12488315042260677
47,239.88329199999998,0.15583859378739517
48,240.2,0.1575598860955532
49,245.79,0.14603606131268754
50,252.1,0.154326212049739
51,256.79,0.12573939286697697
52,259.76,0.1480543043866351
53,263.98,0.15573405812837163
54,268.89,0.15430961757669537
55,273.89,0.15217818646500875
56,275.42287,0.15123779882612975
57,278.98,0.14906296541952285
58,284.17,0.14873014094575487
59,290.12,0.14041753292669523
60,296.19,0.1397835538215369
61,301.0,0.13443152112041473
62,308.02,0.13504806258364185
63,316.227766,0.1350541956399583
64,318.11,0.13505209894625034
65,327.77,0.13198369766199788
66,337.72999999999996,0.12720266031301708
67,347.98999999999995,0.12259708689930794
68,356.92,0.12118846003922777
69,363.078055,0.12231203089333663
70,366.08000000000004,0.12286395795706312
71,374.6,0.11925719034075039
72,385.1,0.11002573870092833
73,394.97999999999996,0.11415760630079101
74,405.10999999999996,0.11495752743303889
75,413.59,0.11183383525154451
76,416.86938299999997,0.10993119417420619
77,422.25,0.10680813181687746
78,430.1,0.10342472431135417
79,441.14,0.10319179222715329
80,451.41,0.10015747642056425
81,459.8,0.09521891788918331
82,470.51000000000005,0.09262796420967322
83,478.630092,0.09262778560096221
84,480.37000000000006,0.09262626564050468
85,490.43,0.08644479545178532
86,499.53999999999996,0.08845675422720943
87,506.49,0.08389698654215977
88,512.36,0.09368079062687322
89,519.48,0.09071931081139789
90,530.36,0.08603665446415468
91,540.22,0.07828542089946552
92,549.5408739999999,0.07549610033225271
93,550.27,0.07527814314624291
94,560.5,0.08010005453339887
95,569.6,0.08196358360701757
96,580.19,0.0788195383860969
97,589.62,0.0777360755689787
98,600.58,0.07090271216753484
99,610.34,0.06233204745967972
100,620.26,0.07321828759267943
101,630.34,0.06944485256653399
102,630.957344,0.06954209327848829
103,640.58,0.07106135507630666
104,649.4900000000001,0.06818449360810305
105,658.53,0.06437127969423541
106,664.6199999999999,0.0670955005088976
107,675.4200000000001,0.06709852963834775
108,684.81,0.06078646990923082
109,694.3399999999999,0.06394009985401417
110,705.62,0.056604140722551
111,715.4399999999999,0.06220093213469922
112,724.43596,0.06143413184397892
113,725.3900000000001,0.061352723940257176
114,735.48,0.0603758607600203
115,745.71,0.058064444463308384
116,754.35,0.05661167641799158
117,764.8399999999999,0.05023682147639744
118,775.48,0.05444708462429434
119,784.46,0.050701807581823854
120,795.38,0.05188250449677067
121,804.59,0.051763075191519764
122,815.78,0.05105683466755043
123,825.23,0.05047396430548517
124,831.763771,0.04561591174153643
125,834.78,0.04337209927073673
126,844.45,0.04809356696760236
127,854.23,0.04678288574478394
128,864.12,0.04688781560228147
129,874.12,0.046244216540094946
130,884.25,0.045503003300099994
131,894.48,0.044774453769483184
132,904.8399999999999,0.04345388006105794
133,915.32,0.043053514803886465
134,925.92,0.07773748799796876
135,934.49,0.1125865948916749
136,945.3100000000001,0.1423755502463891
137,954.0500000000001,0.16010665244603806
138,954.992586,0.16094842822387348
139,965.1,0.16997708462440742
140,974.0300000000001,0.08176363354150802
141,985.31,0.13849604480521402
142,994.4300000000001,0.13317876582693378
143,1005.94,0.15899988753307348
144,1015.25,0.16083910065941243
145,1024.64,0.11078501046138044
146,1034.1200000000001,0.14074201652343124
147,1046.1,0.18338761869889203
148,1055.78,0.17635191645001563
149,1065.55,0.15079971046122198
150,1075.41,0.16269860073251108
151,1085.36,0.13912508726388295
152,1095.4,0.1638259700553376
153,1096.4782,0.16300412206178
154,1105.54,0.15609604668712448
155,1115.77,0.15148821618879443
156,1126.09,0.13470907398520054
157,1133.89,0.1553771595289958
158,1144.39,0.14702119391487406
159,1154.98,0.14668031659548844
160,1165.66,0.14400672757083893
161,1173.74,0.10338007669825763
162,1184.6,0.13626396426308032
163,1195.56,0.1165199388220542
164,1203.8500000000001,0.09986884063719048
165,1214.99,0.07860743178563656
166,1226.23,0.11230214992823388
167,1234.73,0.1319366444310877
168,1246.16,0.13500525786257236
169,1254.79,0.1307244354578228
170,1258.92541,0.12842579119836608
171,1266.41,0.12426656685240882
172,1275.1799999999998,0.1378300479834619
173,1284.02,0.13910452976208332
174,1295.9,0.11977713966366951
175,1304.8899999999999,0.11922582282993718
176,1313.93,0.13438780645875362
177,1326.0900000000001,0.12833951895061288
178,1335.28,0.11895280396707562
179,1344.54,0.1289317896311066
180,1353.8600000000001,0.12512847585019612
181,1366.38,0.1154462916724065
182,1375.8500000000001,0.1154474792791423
183,1385.3899999999999,0.11412346753344638
184,1395.0000000000002,0.09086745643531871
185,1404.66,0.08880225579973981
186,1414.4,0.10578013590423893
187,1424.2099999999998,0.10336892665630631
188,1434.0800000000002,0.10553151796343224
189,1440.7,0.10700097920488852
190,1445.43977,0.10700052412922567
191,1447.3500000000001,0.10700033788388415
192,1454.03,0.10336998974906475
193,1464.1100000000001,0.09736612801269055
194,1474.26,0.09736684681981374
195,1484.47,0.09781392609279185
196,1494.76,0.09692134598690985
197,1505.13,0.09213260650216774
198,1512.0700000000002,0.08480594038605298
199,1515.56,0.08758706748328056
200,1526.06,0.08618411900789076
201,1536.6399999999999,0.07524211115364085
202,1543.74,0.07136244627980584
203,1554.44,0.07006120935726577
204,1565.21,0.0754195929782231
205,1576.06,0.07915327722032031
206,1583.33,0.08081067366640757
207,1594.31,0.0809927189178571
208,1605.3600000000001,0.07878718471280402
209,1616.4899999999998,0.07752829112889086
210,1623.95,0.07524221905018533
211,1635.21,0.07824363647562448
212,1646.54,0.078066614444561
213,1654.14,0.0752424034528503
214,1659.58691,0.07658369628157242
215,1665.61,0.07806716725835904
216,1673.3,0.07153138328792469
217,1677.15,0.07970325158621178
218,1684.89,0.07988720045082011
219,1696.57,0.07594457271679238
220,1704.41,0.07353372725148609
221,1716.22,0.06990382688856936
222,1724.14,0.06879100595933137
223,1736.0900000000001,0.07203042353453416
224,1744.1100000000001,0.07038946827538155
225,1756.2,0.07253128378870388
226,1764.3,0.06863168306561958
227,1776.53,0.06800292651706143
228,1784.73,0.0689508214640625
229,1792.97,0.07137186867909774
230,1805.4,0.07072132347071033
231,1813.73,0.06570324578882242
232,1826.3,0.06661258851855455
233,1834.73,0.064800526506752
234,1843.2,0.0599268367629836
235,1855.98,0.060201891399895034
236,1864.5400000000002,0.06160718675920348
237,1873.15,0.06421077495355461
238,1886.13,0.0596555209306368
239,1894.8400000000001,0.05789691479507331
240,1903.59,0.060624110927543974
241,1905.46072,0.06029387961658456
242,1916.78,0.05829425969507322
243,1925.63,0.05593189286599542
244,1934.5200000000002,0.056840743113396354
245,1943.4499999999998,0.06020200043727604
246,1956.92,0.056187835941493215
247,1965.9499999999998,0.06089979595656977
248,1975.0300000000002,0.06145818231724474
249,1984.14,0.05978528648527877
250,1993.3000000000002,0.05855764699891124
251,2007.1200000000001,0.05950888692231742
252,2016.38,0.05855606012714675
253,2025.69,0.05855535967757451
254,2035.04,0.057623956304481014
255,2044.43,0.05964639000786626
256,2053.87,0.054524310056849934
257,2063.35,0.05553475718231236
258,2072.87,0.06075244138425352
259,2077.65,0.07103746202346348
260,2087.24,0.07988553110924243
261,2096.88,0.07489767654061984
262,2106.56,0.07404183904847599
263,2116.28,0.07860303863281087
264,2126.0499999999997,0.07437958456274418
265,2135.86,0.07103291756915625
266,2145.7200000000003,0.07951555692116674
267,2155.62,0.08024710334965598
268,2165.57,0.07369944612374364
269,2175.57,0.07386465524342975
270,2185.61,0.08306320143959459
271,2187.7616199999998,0.0830228351167907
272,2195.7,0.08287494677149584
273,2205.83,0.08117599707233276
274,2216.0099999999998,0.06925604028679672
275,2226.24,0.0748938664148877
276,2236.52,0.08982798545660572
277,2246.84,0.08618146682922537
278,2257.21,0.07235696111547205
279,2262.42,0.0692580947154089
280,2272.8599999999997,0.07353059308073343
281,2283.35,0.08941126435968498
282,2293.89,0.07698523855226358
283,2304.48,0.08818027565846921
284,2315.12,0.07769077567830186
285,2325.8,0.06418399802903615
286,2336.54,0.06272114387612288
287,2347.32,0.05169845205411123
288,2352.73,0.07317494730855623
289,2363.59,0.05388449014834783
290,2374.5,0.06143256590176646
291,2385.46,0.04747575456881213
292,2396.47,0.05326144614948484
293,2407.54,0.052771551226509984
294,2413.09,0.05733003463911067
295,2424.22,0.08095223321248825
296,2435.41,0.08132386528221829
297,2446.65,0.09336416026557533
298,2452.3,0.0982107895054301
299,2463.61,0.085344178567865
300,2474.99,0.07765722170937774
301,2486.41,0.05511822718179211
302,2492.14,0.060847721083450115
303,2503.64,0.08732074121766774
304,2511.88643,0.060562112828112996
305,2515.2000000000003,0.04980972702712637
306,2526.81,0.04680878518670994
307,2532.64,0.06488793370267652
308,2544.3300000000004,0.06700706005801951
309,2556.0699999999997,0.11271078528571211
310,2567.87,0.08590461916022427
311,2573.7900000000004,0.10738968564642018
312,2585.67,0.09615223771669175
313,2597.6,0.08749135865931293
314,2603.59,0.07762513356679834
315,2615.6099999999997,0.07144887247964886
316,2627.68,0.09202564026484901
317,2633.74,0.15552403359362388
318,2645.9,0.20499305934905335
319,2652.0,0.29086362177570796
320,2664.24,0.18060144572689682
321,2676.5299999999997,0.20497106855043531
322,2682.7000000000003,0.23969582939837938
323,2695.09,0.17245604996661718
324,2707.53,0.21558866940720453
325,2713.77,0.15547372867643808
326,2726.29,0.1204160463127849
327,2732.58,0.15403650445436806
328,2745.19,0.0915598900609442
329,2757.8599999999997,0.12179203431433987
330,2764.22,0.15833439087721252
331,2776.98,0.16770510310083753
332,2783.3799999999997,0.10342075876158988
333,2796.23,0.054295458955444215
334,2802.67,0.06305341371407627
335,2815.61,0.14774153187815994
336,2822.1000000000004,0.21401578550914163
337,2835.13,0.20064699164345465
338,2848.21,0.14172639665011724
339,2854.78,0.08424675847685834
340,2867.96,0.19924275122822024
341,2874.57,0.280761702152841
342,2884.0315,0.26105475999589517
343,2887.8399999999997,0.2531222870097388
344,2894.5,0.3193740839358
345,2907.8500000000004,0.4387997777740757
346,2928.0099999999998,0.3786528684691797
347,2948.31,0.34610485909966643
348,2968.7400000000002,0.3623901496701513
349,2989.3199999999997,0.36740494017140335
350,3010.04,0.366531730608038
351,3030.91,0.39634992097543986
352,3051.92,0.4130847112782244
353,3073.07,0.45920390151639157
354,3087.26,0.44563559496696326
355,3108.66,0.5295925850897424
356,3130.2000000000003,0.4851933751479041
357,3151.9,0.4885165651322175
358,3166.4500000000003,0.5418103584166304
359,3188.4,0.4621950482855556
360,3210.5,0.5137887380852479
361,3232.75,0.4283112278157075
362,3247.68,0.6204571209247305
363,3270.19,0.7322964105351865
364,3292.86,0.7172333000717941
365,3308.05,0.6646793930608134
366,3311.31121,0.6570390193705262
367,3323.32,0.6289046856007968
368,3330.99,0.6555281179275929
369,3338.66,0.5869433502543888
370,3346.3599999999997,0.6911417823164917
371,3354.07,0.6676362142903637
372,3361.81,0.6088878459995425
373,3369.56,0.6216391776204901
374,3377.3199999999997,0.6018988091532068
375,3385.11,0.6074380404212304
376,3392.9100000000003,0.679954771601023
377,3400.73,0.7576856026043535
378,3408.57,0.676834633431222
379,3416.43,0.6004444640816282
380,3424.31,0.7628467945555726
381,3432.2000000000003,0.8061527249412858
382,3440.11,0.689312955150537
383,3448.04,0.5488030851833261
384,3455.99,0.6643509150396532
385,3463.96,0.5525672447195181
386,3471.94,0.7069039743111519
387,3479.95,0.5276692036380929
388,3487.9700000000003,0.6285767328768026
389,3496.0099999999998,0.5852190619390504
390,3504.07,0.7858179908248359
391,3512.15,0.7116898195341594
392,3520.2400000000002,0.789368748155252
393,3528.3599999999997,0.5108433765116516
394,3536.49,0.73498250477982
395,3538.4700000000003,0.935901987310075
396,3541.17,0.8272394634876955
397,3543.87,0.7758672396653159
398,3546.58,0.9399365157547055
399,3549.28,0.9476307919323259
400,3551.98,0.7545108681099464
401,3554.6899999999996,0.7750036441993359
402,3557.3900000000003,0.8001270203769564
403,3560.09,0.7584915965545769
404,3562.7999999999997,0.6391733726439663
405,3565.5,0.7296564488215869
406,3568.2000000000003,0.7279364249992074
407,3570.91,0.6213674010885968
408,3573.6099999999997,0.7026516772662172
409,3576.31,0.7693579534438378
410,3579.02,0.6241109295332272
411,3581.72,0.6179796057108478
412,3584.4199999999996,0.5505225818884683
413,3587.13,0.5249037579778577
414,3589.83,0.5937182341554782
415,3592.5299999999997,0.7287971103330987
416,3595.2400000000002,0.8442365864224882
417,3597.94,0.8042152626001087
418,3600.64,0.7573080387777292
419,3603.3500000000004,0.7864616148671187
420,3606.05,0.7014143910447392
421,3608.75,0.7377806672223597
422,3611.46,0.7509037433117491
423,3614.1600000000003,0.7045882194893697
424,3616.86,0.7013617956669902
425,3619.5699999999997,0.7875374717563797
426,3622.2700000000004,0.8123919479340002
427,3624.9700000000003,0.8460148241116207
428,3627.68,0.90405570020101
429,3630.38,0.8347165763786306
430,3633.0800000000004,0.8237977525562511
431,3635.79,0.7930245286456405
432,3638.49,0.8518769048232611
433,3641.19,0.8350407810008816
434,3643.9,0.799157057090271
435,3646.6,0.7497752332678915
436,3649.2999999999997,0.8197632094455121
437,3652.0099999999998,0.8225036855349015
438,3654.71,0.943327161712522
439,3657.41,0.9091694378901425
440,3660.12,0.9184724139795319
441,3662.82,1.0606520901571526
442,3665.52,0.9424679663347729
443,3668.23,0.9222380424241624
444,3670.93,0.902389718601783
445,3673.63,0.8743105947794034
446,3676.34,0.8376735708687929
447,3679.04,0.8753310470464134
448,3681.7400000000002,0.8768389232240339
449,3684.4500000000003,0.8363287993134234
450,3687.15,0.8593541754910439
451,3689.85,0.9152481516686644
452,3692.56,1.019605827758054
453,3695.26,1.0289138039356742
454,3697.96,1.044515780113295
455,3700.6699999999996,0.9992175562026843
456,3703.3700000000003,0.8964721323803049
457,3706.07,0.8917399085579254
458,3708.7799999999997,0.8491316846473147
459,3711.4799999999996,0.8524146608249352
460,3714.1800000000003,0.9077168370025558
461,3716.89,0.9317058130919452
462,3719.5899999999997,0.8390735892695658
463,3722.29,0.7013613654471862
464,3725.0,0.7832336415365757
465,3727.7,0.8214290177141962
466,3730.3999999999996,0.7420837938918167
467,3733.11,0.6754837699812062
468,3735.81,0.6894715461588267
469,3738.5099999999998,0.6344948223364472
470,3741.2200000000003,0.7356257984258366
471,3743.92,0.6952275746034572
472,3746.62,0.7117973507810776
473,3749.3300000000004,0.6953338268704672
474,3752.03,0.7677423030480877
475,3754.73,0.8079818792257081
476,3757.44,0.7746803553150976
477,3760.1400000000003,0.7519267314927182
478,3762.84,0.8208924076703386
479,3765.5499999999997,0.8370277837597281
480,3768.25,0.8389658599373486
481,3770.9500000000003,0.8875437361149691
482,3773.66,0.9433790122043585
483,3776.36,0.981036588381979
484,3779.0600000000004,0.9777031645595996
485,3781.77,0.9699532406489889
486,3784.47,0.9859858168266095
487,3787.18,0.9048608929159989
488,3789.88,0.8365974690936194
489,3792.58,0.8272924452712399
490,3795.29,0.7626289213606294
491,3797.99,0.7299770975382499
492,3800.69,0.7936171737158704
493,3801.8939600000003,0.8214103353470874
494,3803.4,0.8561769525739619
495,3806.1,0.9238515337152589
496,3808.8,0.8927064148565558
497,3811.51,0.7838775959280058
498,3814.21,0.7778540770693027
499,3816.91,0.8124451582105996
500,3819.6200000000003,0.7152899392820494
501,3822.32,0.6502002204233465
502,3825.02,0.6567105015646434
503,3827.7299999999996,0.5600937826360933
504,3830.4300000000003,0.5137725637773902
505,3833.13,0.5647759449186872
506,3835.8399999999997,0.587206125990137
507,3838.5399999999995,0.570369507131434
508,3841.2400000000002,0.542289788272731
509,3843.95,0.6762892693441809
510,3846.6499999999996,0.6567093504854778
511,3849.3500000000004,0.6938822316267748
512,3852.06,0.6964082126982247
513,3854.7599999999998,0.7071681938395217
514,3857.4599999999996,0.6509543749808185
515,3860.17,0.6921046560522685
516,3862.87,0.7106648371935654
517,3865.5699999999997,0.6800032183348624
518,3868.28,0.7656412994063123
519,3870.98,0.7426724805476093
520,3873.68,0.7367026616889063
521,3876.3900000000003,0.735570342760356
522,3879.09,0.712816623901653
523,3881.79,0.69727130504295
524,3884.5,0.7164195861143999
525,3887.2000000000003,0.7639750672556969
526,3889.9,0.8577937483969938
527,3892.61,0.9039999294684438
528,3895.31,0.9439707106097406
529,3898.01,0.9364948917510376
530,3900.72,0.9411716728224875
531,3903.42,0.9574192539637845
532,3906.1200000000003,0.9746349351050815
533,3908.83,1.0308471161765314
534,3911.5299999999997,1.0507520973178284
535,3914.23,1.0696900784591252
536,3916.94,1.0378940595305752
537,3919.64,0.9730196406718721
538,3922.34,0.882861721813169
539,3925.0499999999997,0.7396586028846189
540,3927.75,0.686780084025916
541,3930.45,0.5541780651672129
542,3933.16,0.4260007462386628
543,3935.86,0.4709357273799597
544,3938.56,0.5531021085212566
545,3941.27,0.6468097895927065
546,3943.97,0.8045896707340036
547,3946.67,0.9114267518753005
548,3949.38,0.9949122329467505
549,3952.08,1.0087928140880473
550,3954.7799999999997,1.0030387952293442
551,3957.4900000000002,0.9293907763007941
552,3960.19,0.8840975574420911
553,3962.89,0.7554228385833881
554,3965.6000000000004,0.646002719654838
555,3968.3,0.589519800796135
556,3971.0,0.6314804819374319
557,3973.7099999999996,0.7339563630088818
558,3976.4100000000003,0.8862494441501787
559,3979.11,1.0737776252914757
560,3981.8199999999997,1.1640416063629255
561,3984.5199999999995,1.2463485875042226
562,3987.2200000000003,1.3168215686455196
563,3989.93,1.2807205497169694
564,3992.6299999999997,1.3421565308582664
565,3995.3300000000004,1.3468385119995634
566,3998.04,1.3271454930710134
567,4000.74,1.3789514742123103
568,4003.4399999999996,1.4440454553536073
569,4006.15,1.427687436425057
570,4008.85,1.4986974175663539
571,4011.5499999999997,1.5885903987076508
572,4014.26,1.5460883797791007
573,4016.96,1.5273703609203977
574,4019.66,1.5264043420616946
575,4022.37,1.5348983231331446
576,4025.07,1.5110703042744416
577,4027.77,1.4790112854157385
578,4030.48,1.4263422664871885
579,4033.1800000000003,1.4423752476284855
580,4035.89,1.4721722286999355
581,4038.59,1.4847092098412324
