,lambda (Angstroms),Total Flux (erg/s/cm^2/Angstrom)
0,100.1,3.9136576265342575
1,101.96000000000001,3.90277299006547
2,104.10000000000001,3.8902484047029935
3,104.712855,3.8866619585811746
4,106.03,3.846163720337149
5,108.01,3.7852856959146317
6,110.01,3.7237981128433013
7,113.88000000000001,3.604811314172927
8,117.88,3.4818272027002672
9,120.22644299999999,3.409778907008978
10,120.91,3.392186755200127
11,124.87,3.2901307345985518
12,126.9,3.2378096718419367
13,128.07,3.2076573734255627
14,131.05,3.1308504080582145
15,131.96,3.107430343112146
16,134.10999999999999,3.0520154417615437
17,136.91,2.9798956650351776
18,138.038426,2.9508127897636163
19,140.1,2.912838152019852
20,143.04000000000002,2.8592378888564394
21,147.04,2.7867310776824112
22,151.16,2.710883816324161
23,155.04,2.6394931167343523
24,158.489319,2.576033675184555
25,159.01999999999998,2.568656213961279
26,161.98000000000002,2.5275008933030074
27,166.13,2.4698316690692828
28,170.0,2.416013116735664
29,173.16000000000003,2.3720819300058875
30,177.19,2.316041090015066
31,180.07,2.275988772185396
32,181.970086,2.2495699551702284
33,182.16,2.247556669703257
34,185.97,2.2071655026425994
35,191.18,2.151913796024219
36,193.83999999999997,2.123743781564547
37,197.89999999999998,2.0806813935471524
38,202.05,2.036681469465333
39,204.86,2.0068927012316196
40,208.929613,1.963608068619232
41,210.10999999999999,1.954166936823252
42,216.0,1.9073915703869133
43,220.01,1.875460787130595
44,223.07,1.8510386928801377
45,227.22,1.8180025028019027
46,229.85,1.7990827489330457
47,234.13,1.7689590219487454
48,239.88329199999998,1.724999383970166
49,240.13,1.7235665340901403
50,245.72,1.6882088477929948
51,252.03,1.6497325211856628
52,256.71,1.6188462811694484
53,260.28,1.5982175092981052
54,263.91,1.5762314360675795
55,268.81,1.5458236684010302
56,273.81,1.51475418180251
57,275.42287,1.5047434140640348
58,278.90000000000003,1.4881403401127864
59,284.09,1.463418282625716
60,290.03000000000003,1.4346201958832883
61,296.10999999999996,1.4058204981065274
62,300.92,1.382758878855504
63,307.93,1.3494821289221004
64,316.227766,1.3101136892489103
65,318.02,1.3037540503391178
66,327.68,1.2692899013103147
67,337.64000000000004,1.2337419628458346
68,347.90000000000003,1.1971174329456777
69,356.82,1.165347279991545
70,363.078055,1.1430938167747418
71,365.96999999999997,1.1353732138243016
72,375.36,1.1102527179919368
73,384.99,1.0842784017708853
74,394.86,1.0580996951611474
75,404.99,1.0311035317136654
76,414.43,1.0058824287586576
77,416.86938299999997,0.9993575243776438
78,422.13,0.9885726061081097
79,429.98,0.9725059043218924
80,441.01,0.9500165888553985
81,451.28000000000003,0.9290354365389074
82,459.67,0.9118833320145301
83,470.38000000000005,0.890057166874353
84,478.630092,0.8732636966469997
85,480.23,0.8707527137568211
86,490.28000000000003,0.854910382590253
87,500.55,0.8388515858896903
88,506.35,0.8297074672661984
89,512.21,0.8206564415879805
90,520.53,0.8076123636660059
91,530.21,0.7923925301702467
92,540.07,0.77687041751031
93,549.5408739999999,0.7620266866699738
94,550.11,0.7613442237955428
95,560.34,0.7491756885090767
96,569.44,0.7383240977674498
97,580.03,0.7256309261835129
98,589.4499999999999,0.7143850700663564
99,600.41,0.7012393404544629
100,610.1700000000001,0.6893193115008059
101,620.08,0.6778063935898695
102,630.1600000000001,0.6657490112606829
103,630.957344,0.6648002278068817
104,640.4,0.6558818386312876
105,649.3000000000001,0.64743096042736
106,658.34,0.6388468571370787
107,664.4300000000001,0.6331189248806833
108,675.22,0.6229217550109781
109,684.62,0.6139680737843581
110,695.74,0.6035140346396757
111,705.42,0.5942968382403478
112,715.23,0.5850914469751199
113,724.43596,0.5763915646398587
114,725.18,0.5758684407492265
115,735.27,0.5687897506669636
116,745.5,0.5615982273030835
117,754.13,0.5555238528719706
118,764.62,0.5480482595565159
119,775.26,0.5407027871536143
120,784.2399999999999,0.5343718745184587
121,795.15,0.5267476663581525
122,804.3599999999999,0.5202946641889116
123,815.5500000000001,0.5124592624653711
124,824.99,0.5058476547620449
125,831.763771,0.5010427242316645
126,834.54,0.4995619851786806
127,844.2099999999999,0.49456442125416267
128,855.95,0.4884095132754819
129,865.86,0.48322361422874216
130,875.89,0.4779756691208915
131,883.99,0.4737278359959074
132,894.23,0.46836865278111267
133,904.5799999999999,0.4629419305102998
134,915.0600000000001,0.45767101717328335
135,925.65,0.45345865478024866
136,934.22,0.45057814441591354
137,945.0400000000001,0.44707584890574964
138,954.992586,0.44342671635376657
139,955.98,0.4430757895946587
140,964.8199999999999,0.43936886767930694
141,976.0000000000001,0.4277443449628323
142,985.03,0.4278195968072184
143,994.14,0.42324715276096775
144,1005.65,0.419849347995617
145,1014.96,0.41471487322277467
146,1024.35,0.4050493425592957
147,1033.83,0.4027582735188505
148,1045.8,0.4014117453823389
149,1055.48,0.39614668661530195
150,1065.24,0.38897794495762833
151,1075.1,0.38533156043665906
152,1085.05,0.37807348253872325
153,1095.09,0.37537431426382145
154,1096.4782,0.3745973812534637
155,1105.22,0.3705123703168886
156,1115.45,0.36583088107566003
157,1125.77,0.3604641980317228
158,1136.18,0.3581003781850767
159,1144.06,0.35384521657013246
160,1154.6399999999999,0.3498414708739254
161,1165.33,0.34552959486329654
162,1176.11,0.337897611049959
163,1184.26,0.3370945080268883
164,1195.22,0.3298002196081332
165,1206.28,0.3234318526308128
166,1214.64,0.31806986873475507
167,1225.88,0.31666468815201715
168,1234.38,0.315969095673968
169,1245.8,0.31195138848581266
170,1254.44,0.30788155742577217
171,1258.92541,0.3055321759222273
172,1266.04,0.30265805065637863
173,1274.8200000000002,0.3021534504258286
174,1283.66,0.2998926260661404
175,1295.53,0.2941639541849755
176,1304.5100000000002,0.29134174519063155
177,1313.56,0.2905518383789599
178,1325.71,0.2864099822284835
179,1334.8999999999999,0.2825616857821562
180,1344.15,0.28127381720669054
181,1353.47,0.27810329781389714
182,1365.99,0.2733354592004022
183,1375.46,0.27083152948476336
184,1385.0000000000002,0.26799364695179667
185,1394.6,0.263726280289692
186,1404.26,0.26101015949844897
187,1414.0,0.2585605322016885
188,1423.8,0.2557293617757899
189,1433.6699999999998,0.25273042953256347
190,1443.61,0.2501580334720091
191,1445.43977,0.24966215341304537
192,1446.9299999999998,0.24939216144036605
193,1453.61,0.2477017939646869
194,1463.69,0.24493145054629678
195,1473.83,0.24276706192303532
196,1484.0500000000002,0.2407237753599453
197,1494.3400000000001,0.23864670422450543
198,1504.6899999999998,0.23603240988419424
199,1511.6399999999999,0.23376561148659392
200,1518.62,0.2327351909865579
201,1525.63,0.23104995438408618
202,1536.2,0.22789503195924654
203,1543.29,0.2267976204169464
204,1553.99,0.2242163802148855
205,1564.76,0.22214975444047466
206,1575.6100000000001,0.22029879372623526
207,1586.53,0.218284012439646
208,1593.85,0.21688500744533892
209,1604.8999999999999,0.2143844823815284
210,1616.03,0.2120395673778893
211,1623.49,0.21011331223888233
212,1634.74,0.2081547408255005
213,1646.07,0.20586993747229024
214,1653.6699999999998,0.20375137118858347
215,1659.58691,0.20280190894336161
216,1665.1299999999999,0.20225727437887345
217,1672.82,0.20035091897150975
218,1676.67,0.20078614764012476
219,1684.41,0.19987332695573007
220,1696.0900000000001,0.19768705864129463
221,1703.9199999999998,0.19631635565824423
222,1715.73,0.19437408702352826
223,1723.6499999999999,0.19320640274182208
224,1735.59,0.19195977378682558
225,1743.61,0.19060986195105745
226,1755.69,0.1894357824203742
227,1763.8000000000002,0.18749486428595033
228,1776.0200000000002,0.1859962781795804
229,1784.22,0.18495572874650074
230,1796.5900000000001,0.1839272648090379
231,1804.88,0.18244423107730248
232,1813.21,0.1807226723239423
233,1825.78,0.17903193727835556
234,1834.21,0.17751725097093343
235,1846.9199999999998,0.17488199534965998
236,1855.4499999999998,0.17408674448817593
237,1864.0100000000002,0.1733863488604732
238,1876.93,0.17178647187566964
239,1885.5900000000001,0.17012899469390505
240,1894.3,0.16903301023510947
241,1903.04,0.16790109301009531
242,1905.46072,0.16753625088616358
243,1916.2299999999998,0.1663315871906434
244,1925.0800000000002,0.16486766211422252
245,1933.96,0.16318468692906807
246,1942.8899999999999,0.16397522722935753
247,1956.3600000000001,0.16228454640795767
248,1965.3899999999999,0.16233327767913505
249,1974.46,0.1611069291386676
250,1983.5700000000002,0.16039589078655525
251,1992.73,0.1593590309198869
252,2006.54,0.15766864019950588
253,2015.8000000000002,0.15664259930372543
254,2025.11,0.15519450189338896
255,2034.4599999999998,0.15499267567140762
256,2043.8500000000001,0.1546444856377814
257,2053.28,0.1530686927925104
258,2062.7599999999998,0.15185562543268333
259,2072.2799999999997,0.1519026092612114
260,2077.06,0.15489051626965303
261,2086.64,0.15569429288071385
262,2096.28,0.15353105527430735
263,2105.95,0.15178120055916733
264,2115.67,0.1517568173294712
265,2125.44,0.14964325558521907
266,2135.25,0.14749464102932203
267,2145.1,0.1488517336617802
268,2155.0099999999998,0.1480305520767711
269,2164.95,0.14537234338302837
270,2174.95,0.14451938047181836
271,2184.98,0.14545921045187474
272,2187.7616199999998,0.1452413028519276
273,2195.07,0.14492069834679513
274,2205.2,0.14352207554931304
275,2215.38,0.14001891775283054
276,2225.61,0.1402424949573477
277,2235.88,0.14290327816266446
278,2246.2,0.14123415636898087
279,2256.57,0.13741919957629686
280,2266.98,0.13632672878441252
281,2277.45,0.1368107119937277
282,2282.7,0.13941386709868517
283,2293.23,0.13633912430919984
284,2303.82,0.13777077552091402
285,2314.4500000000003,0.13492304273342787
286,2325.14,0.1307607339471413
287,2335.87,0.1294212211616544
288,2346.65,0.126053466377167
289,2357.48,0.13038384059367927
290,2362.92,0.1253636877024352
291,2373.82,0.1265649269203469
292,2384.7799999999997,0.12232770713945812
293,2395.79,0.12290109635956889
294,2406.85,0.1219504815806793
295,2412.39,0.12282488669143442
296,2423.53,0.12708508691414414
297,2434.72,0.1262346081378535
298,2445.9500000000003,0.12770594536236246
299,2457.24,0.12765584658807103
300,2462.9100000000003,0.12540050970142508
301,2474.28,0.12299014292873295
302,2485.7000000000003,0.11865646115704043
303,2497.17,0.11876274438634753
304,2502.93,0.12372418850150088
305,2511.88643,0.11657362931565989
306,2514.48,0.11455066493540461
307,2520.2799999999997,0.11294803144285834
308,2526.0899999999997,0.11318030874429041
309,2537.7499999999995,0.11558172352306804
310,2543.6,0.11591118800041358
311,2555.3399999999997,0.1217874581310182
312,2567.13,0.11722413223151461
313,2573.05,0.12002086626670873
314,2584.93,0.11771276551301048
315,2596.8599999999997,0.11559894872920408
316,2602.84,0.1135881195282684
317,2614.86,0.1118263878902673
318,2626.9300000000003,0.11489937022215804
319,2632.9799999999996,0.12279477057907101
320,2645.1400000000003,0.13001426805676702
321,2657.35,0.13835671950435496
322,2663.47,0.12466645941911647
323,2675.77,0.12774513601250967
324,2681.94,0.13083735989716302
325,2694.32,0.12247256884238318
326,2706.75,0.1269997417574952
327,2712.9900000000002,0.11900756519999711
328,2725.5099999999998,0.11544606326091446
329,2738.09,0.11882978808570199
330,2744.41,0.10772297388003087
331,2757.0699999999997,0.11127794105664536
332,2763.43,0.11579220802688771
333,2776.18,0.1171164903493075
334,2782.58,0.10745174849546331
335,2795.43,0.09844015575766682
336,2801.8700000000003,0.0995081520797361
337,2814.81,0.1124326534877449
338,2827.7999999999997,0.12161325286564556
339,2834.32,0.12030055453954178
340,2847.4,0.11386079906324775
341,2853.96,0.10438074191305746
342,2867.1400000000003,0.1203083743765471
343,2873.75,0.12696273119624865
344,2884.0315,0.12352880697518356
345,2887.0099999999998,0.12258101957668137
346,2893.6600000000003,0.1274851209021678
347,2907.02,0.1397216271741225
348,2927.17,0.13256093322052126
349,2947.46,0.12905780771587766
350,2967.8900000000003,0.13121135066019163
351,2988.47,0.1309154526569602
352,3009.1800000000003,0.1315260824991894
353,3030.04,0.13241044139387317
354,3051.04,0.13359011873751458
355,3072.19,0.13587033513361055
356,3093.49,0.13497725058216112
357,3107.7700000000004,0.13996147237583723
358,3129.31,0.13572305230831513
359,3151.0,0.13454090129324758
360,3172.84,0.13806498933063463
361,3187.4900000000002,0.12963228345369876
362,3209.5800000000004,0.1348078465785101
363,3231.83,0.12472904935927304
364,3246.75,0.1409329297767554
365,3269.25,0.14988169764494258
366,3291.9100000000003,0.14729728516908136
367,3307.1099999999997,0.14388148248447896
368,3311.31121,0.14328553311982142
369,3322.37,0.14183920376801584
370,3330.0299999999997,0.14744375422289174
371,3337.71,0.14438585721159236
372,3345.4,0.14379467146720537
373,3353.11,0.1381000182566431
374,3360.84,0.14644175757990557
375,3368.59,0.14512681943699282
376,3376.36,0.13015739382790478
377,3384.14,0.1328152494857291
378,3391.94,0.14543359767737818
379,3399.76,0.149009208402852
380,3407.6,0.14264632166215058
381,3415.45,0.1415345061883615
382,3423.33,0.15244387451530955
383,3431.22,0.14929309410916997
384,3439.13,0.1479050062368551
385,3447.06,0.127659440898365
386,3454.9999999999995,0.14128782682678728
387,3462.9700000000003,0.13197499655594663
388,3470.95,0.1402560475520184
389,3478.9500000000003,0.12624292108191487
390,3486.97,0.1364016371456361
391,3495.01,0.1311139357431821
392,3503.0699999999997,0.1476906968745528
393,3511.14,0.1444400892728359
394,3519.2400000000002,0.14362950547185604
395,3527.3500000000004,0.12757041293778862
396,3535.4799999999996,0.14148112293754594
397,3543.6299999999997,0.151436145471128
398,3551.8,0.14996662053853477
399,3559.9900000000002,0.14543974813976632
400,3568.19,0.13093912700791022
401,3576.42,0.13114618967679123
402,3584.66,0.1181612836125846
403,3592.93,0.12623143134911513
404,3601.21,0.15113907035255797
405,3609.51,0.13511073188982559
406,3617.8300000000004,0.1407723759609179
407,3626.17,0.14651819256583504
408,3634.53,0.13248508170457685
409,3642.91,0.15628855337714342
410,3651.31,0.13562735758353475
411,3659.7200000000003,0.16110605305683842
412,3668.16,0.1571934923308792
413,3676.62,0.16168609413874474
414,3685.0899999999997,0.14633385721352266
415,3693.59,0.15413842408903766
416,3702.1,0.1605782622314651
417,3710.64,0.13168431417462956
418,3719.19,0.16281389738470645
419,3727.7599999999998,0.14334927312860807
420,3736.36,0.11943592267324679
421,3744.9700000000003,0.14942387348479788
422,3753.6000000000004,0.1169757368301737
423,3762.26,0.13393160397628667
424,3770.9300000000003,0.13595206238931198
425,3779.6200000000003,0.15340552333616206
426,3788.33,0.16577607681683687
427,3797.07,0.13895564409824876
428,3801.8939600000003,0.1453507973919607
429,3805.8199999999997,0.15058617243818745
430,3814.59,0.16009243742718876
431,3823.39,0.1351257600387294
432,3832.2000000000003,0.12156501185778314
433,3841.04,0.11257228129937624
434,3849.8900000000003,0.14710402994848243
435,3858.7599999999998,0.1454234470126149
436,3867.66,0.1515854616992867
437,3876.58,0.1390025848009847
438,3885.5099999999998,0.13858360711019582
439,3894.47,0.1321038570419463
440,3896.21,0.1576648891492282
441,3897.9799999999996,0.14846559887904945
442,3899.75,0.1553133486088707
443,3901.53,0.14767130754620503
444,3903.3,0.13333414727602627
445,3905.0699999999997,0.14955512700584753
446,3906.85,0.15118630594318186
447,3908.62,0.15109388567300314
448,3910.3900000000003,0.16035884540282436
449,3912.1699999999996,0.1735145843401587
450,3913.94,0.15552261406997997
451,3915.72,0.1551569530073143
452,3917.4900000000002,0.15572678273713556
453,3919.2599999999998,0.15376019246695682
454,3921.04,0.13841883140429118
455,3922.81,0.1437573311341124
456,3924.58,0.13565657086393362
457,3926.3599999999997,0.12451162980126801
458,3928.13,0.11303324953108923
459,3929.91,0.1013082984684236
460,3931.6800000000003,0.09767630819824484
461,3933.45,0.09459333792806608
462,3935.23,0.10239521686540043
463,3937.0,0.10999706659522168
464,3938.77,0.11689082632504293
465,3940.5499999999997,0.12182577526237728
466,3942.32,0.12609101499219852
467,3944.09,0.13874693472201977
468,3945.8700000000003,0.1440407236593541
469,3947.64,0.15024933338917534
470,3949.42,0.15263302232650972
471,3951.19,0.15562521205633095
472,3952.9599999999996,0.1614462417861522
473,3954.74,0.15773628072348655
474,3956.5099999999998,0.1507011604533078
475,3958.28,0.14343500018312905
476,3960.0600000000004,0.13401695912046338
477,3961.83,0.12857818885028463
478,3963.61,0.120538497787619
479,3965.38,0.10628079751744024
480,3967.1499999999996,0.0970381672472615
481,3968.93,0.10411346618459585
482,3970.7,0.11944369591441709
483,3972.4700000000003,0.1324277556442383
484,3974.2499999999995,0.1320395045815727
485,3976.02,0.13910232431139394
486,3977.79,0.15775900404121518
487,3979.57,0.16592534297854952
488,3981.3399999999997,0.17040607270837077
489,3983.12,0.17386001164570514
490,3984.89,0.17571264137552636
491,3986.6600000000003,0.1740725711053476
492,3988.4399999999996,0.172408710042682
493,3990.21,0.1807958397725032
494,3991.98,0.18303146950232446
495,3993.76,0.17624400843965882
496,3995.5299999999997,0.17783533816948005
497,3997.31,0.1808554771068144
498,3999.08,0.18925030683663566
499,4000.8500000000004,0.19131913656645688
500,4002.6299999999997,0.18738567550379126
501,4004.4,0.1825683052336125
502,4006.17,0.17890063496343375
503,4007.9500000000003,0.1841557739007681
504,4009.72,0.19042350363058932
505,4011.49,0.19256093336041058
506,4013.27,0.19569147229774492
507,4015.0400000000004,0.20088650202756617
508,4016.8199999999997,0.20228634096490056
509,4018.59,0.19594437069472176
510,4020.36,0.19664960042454302
511,4022.1400000000003,0.20540103936187737
512,4023.91,0.20072746909169864
513,4025.68,0.19993889882151988
514,4027.46,0.19272593775885422
515,4029.2299999999996,0.18925526748867547
516,4031.0099999999998,0.1915927064260098
517,4032.78,0.18421383615583106
518,4034.55,0.1871699658856523
519,4036.3300000000004,0.19955830482298664
520,4038.1,0.1942500345528079
521,4039.87,0.20405726428262913
522,4041.65,0.18929770321996348
523,4043.4199999999996,0.18821213294978473
524,4045.19,0.18316886267960597
525,4046.97,0.18518480161694034
526,4048.7400000000002,0.19435543134676156
527,4050.5200000000004,0.19571177028409592
528,4052.29,0.20005970001391715
529,4054.06,0.19488812974373843
530,4055.84,0.1901076686810728
531,4057.6099999999997,0.18693539841089402
532,4059.38,0.18664232814071524
533,4061.16,0.1855019670780496
534,4062.9300000000003,0.17507899680787087
535,4064.7100000000005,0.1820434357452052
536,4066.48,0.18703816547502647
537,4068.25,0.1914547952048477
538,4070.03,0.19648203414218204
539,4071.7999999999997,0.18106696387200333
540,4073.57,0.18593019360182453
541,4075.35,0.18521853253915893
542,4077.1200000000003,0.18379346226898013
543,4078.8999999999996,0.1888747012063145
544,4080.67,0.19405163093613575
545,4082.44,0.20138906066595696
546,4084.2200000000003,0.18975889960329134
547,4085.99,0.19972962933311258
548,4087.7599999999998,0.20320765906293384
549,4089.54,0.2001594980002682
550,4091.3100000000004,0.20068842773008944
551,4093.08,0.19673595745991068
552,4094.86,0.19875449639724502
553,4096.63,0.18196632612706626
554,4098.41,0.17238376506440062
555,4100.18,0.17458349479422186
556,4101.95,0.1710595245240431
557,4103.73,0.1802107634613775
558,4105.5,0.18397609319119873
559,4107.27,0.18755082292101993
560,4109.05,0.18719846185835431
561,4110.82,0.19027339158817555
562,4112.6,0.20022523052550992
563,4114.37,0.19830306025533115
564,4116.139999999999,0.1944165899851524
565,4117.92,0.19247032892248675
566,4119.69,0.195280958652308
567,4121.46,0.19602468838212925
568,4123.240000000001,0.19667842731946358
569,4125.01,0.19516875704928482
570,4126.78,0.19700138677910606
571,4128.56,0.1894599257164404
572,4130.33,0.1851525554462617
573,4132.11,0.18612719438359604
574,4133.88,0.1940086241134173
575,4135.650000000001,0.1993833538432385
576,4137.43,0.19911819278057288
577,4139.2,0.19684872251039412
578,4140.97,0.19048615224021537
579,4142.75,0.18823899117754972
