,lambda (Angstroms),Total Flux (erg/s/cm^2/Angstrom)
0,101.99,1.990697279709569
1,103.89,1.985023953404852
2,104.712855,1.9825669402957704
3,106.06,1.9614372165458491
4,108.03,1.9305381256978411
5,110.03999999999999,1.8990116422469383
6,113.91,1.8383113979465033
7,117.91,1.7755721274565324
8,120.22644299999999,1.7392391446206918
9,120.94000000000001,1.7298558190083402
10,124.89999999999999,1.6777815320776903
11,126.92999999999999,1.6510868849970057
12,128.1,1.6357013003500134
13,131.09,1.5963825839592112
14,132.0,1.5844160200757653
15,134.14000000000001,1.5562748654969258
16,136.95000000000002,1.5193231663406535
17,138.038426,1.5050102862662704
18,140.14000000000001,1.48525663391673
19,143.07999999999998,1.4576222789539366
20,147.08,1.4200245525137833
21,150.86,1.384494637788556
22,155.07999999999998,1.3448289682385377
23,158.489319,1.3127832601639815
24,159.06,1.3087279152172824
25,162.02,1.287693712777573
26,166.17,1.2582032000083605
27,170.04999999999998,1.2306313519696035
28,172.81,1.2110183980637605
29,176.83,1.1824517008471267
30,180.12,1.1590724869659716
31,181.970086,1.145925513911119
32,182.21,1.1446248674818515
33,186.02,1.1239697168670486
34,190.79,1.0981101283957955
35,193.89,1.0813041154372225
36,197.95,1.0592936561429993
37,202.1,1.0367952934113804
38,204.91,1.0215614753253592
39,208.929613,0.9997699418425909
40,210.17000000000002,0.9947143642653166
41,216.04999999999998,0.9707487850859777
42,220.07,0.9543641308767052
43,223.13,0.94189220439608
44,226.76000000000002,0.9270971522147889
45,229.91,0.9142593511393218
46,234.19,0.8968168226540615
47,239.88329199999998,0.8736135732700341
48,240.19,0.8726503314150048
49,245.79,0.8550615434442712
50,252.08999999999997,0.8352750068853205
51,256.78,0.8205434378084684
52,259.75,0.8112164240112058
53,263.98,0.797931324221953
54,268.88,0.7825415250674361
55,273.88,0.7668375673797452
56,275.42287,0.7619917370193376
57,278.97,0.7534417434847768
58,284.16,0.7409318636703587
59,290.11,0.726589549973001
60,296.19,0.7119345049994825
61,301.0,0.7003402458215345
62,308.01,0.683443590620866
63,316.227766,0.663635743825572
64,318.09999999999997,0.660265195078178
65,327.77,0.6428562369681898
66,337.72999999999996,0.6249250021081194
67,347.98999999999995,0.6064535704962396
68,356.91,0.5903948736257747
69,363.078055,0.5792906829680666
70,366.07,0.5752569861546895
71,374.6,0.5637564695834295
72,385.09000000000003,0.5496126635898283
73,394.96999999999997,0.5362930016365989
74,405.09999999999997,0.5226358196848563
75,413.58,0.5112027056032991
76,416.86938299999997,0.5067677002755979
77,422.23999999999995,0.5012379828279248
78,430.09,0.4931556024129919
79,441.13,0.4817895333118252
80,451.4,0.4712157034314736
81,459.78999999999996,0.462577294430125
82,470.5,0.451550902727879
83,478.630092,0.4431811528539764
84,480.36,0.44181154317875715
85,490.42,0.4338459744315501
86,499.53,0.4266344205981946
87,506.47999999999996,0.421154235422649
88,512.35,0.41670130015600826
89,519.47,0.41108331496693135
90,530.35,0.40249283324092616
91,540.21,0.39467739613610897
92,549.5408739999999,0.38745123681412025
93,550.26,0.38702937069232185
94,560.48,0.380972705591748
95,569.59,0.3755739666457375
96,580.18,0.3691488125603093
97,589.61,0.3636631932706409
98,600.5699999999999,0.3571022328003582
99,610.3299999999999,0.35143844811879255
100,620.25,0.34563615246539797
101,630.32,0.33971420758841375
102,630.957344,0.3393307176448356
103,640.57,0.33475032428209134
104,649.48,0.330764564723074
105,658.5100000000001,0.32661091526090485
106,664.61,0.32383186501735767
107,675.4,0.3187042316422963
108,684.8,0.3142076525620759
109,694.3299999999999,0.31039593667010784
110,705.61,0.3048817357738434
111,715.42,0.30083188444118797
112,724.43596,0.29668465421762735
113,725.3800000000001,0.2963669150018746
114,735.47,0.29296980302729425
115,745.6999999999999,0.28993282125822023
116,754.33,0.2872376158547883
117,764.8299999999999,0.2838731122677622
118,775.47,0.28063019588624233
119,784.45,0.2779756834965762
120,795.3599999999999,0.2744072392971043
121,804.57,0.27149054317362703
122,815.76,0.26782213638516783
123,825.2099999999999,0.2652713827568443
124,831.763771,0.2619397747522217
125,834.76,0.26068560493945625
126,844.4300000000001,0.2601118803437154
127,854.2099999999999,0.25785563463778516
128,864.1,0.25599841282166547
129,874.11,0.25415199079443007
130,884.23,0.2525035146570054
131,894.47,0.2505227433084649
132,904.82,0.247829743849735
133,915.3,0.25253567207896316
134,925.9000000000001,0.3775909550970755
135,934.47,0.5597995196032286
136,945.29,0.8709900364009624
137,954.03,1.1500696301913682
138,954.992586,1.160305012145066
139,965.0799999999999,1.2676245309347007
140,974.01,0.37657729403316387
141,985.2900000000001,1.1002029263680648
142,994.41,1.1611962950643675
143,1005.92,1.6194923341756007
144,1015.23,1.569160008469743
145,1024.62,0.7813416851208705
146,1034.1,1.1465013644236062
147,1046.0800000000002,2.0536529173821267
148,1055.76,2.0172914025773254
149,1065.53,1.6235794904241323
150,1075.3799999999999,1.9143047806279243
151,1085.3400000000001,1.5384434740725708
152,1095.3799999999999,2.0070213698742023
153,1096.4782,1.9978492314932879
154,1105.51,1.9228414401366574
155,1115.74,1.8462229716528575
156,1126.07,1.6697792180421387
157,1133.8700000000001,2.102251978142467
158,1144.36,1.9185711683286784
159,1154.95,2.0367180733879704
160,1165.64,2.099904693320344
161,1173.72,1.4853668550652994
162,1184.58,2.0519812902819106
163,1195.54,1.4537124403716029
164,1203.83,1.071136903350029
165,1214.97,0.7660198402112673
166,1226.21,1.435346291945587
167,1234.71,2.1210790561574835
168,1246.13,2.308262294663349
169,1254.77,2.199992259697559
170,1258.92541,2.095745799256911
171,1266.38,1.9091886298835532
172,1275.1599999999999,2.4150203691316103
173,1283.9999999999998,2.5095830040920686
174,1295.88,1.979146355147526
175,1304.86,1.9820147467702538
176,1313.9,2.451318034105383
177,1326.06,2.33035289848538
178,1335.25,2.0729654251015126
179,1344.5099999999998,2.4466333300487797
180,1353.83,2.3719691307084485
181,1366.3600000000001,2.1223808519815868
182,1375.8300000000002,2.219402891922259
183,1385.36,2.2421398275753317
184,1394.97,1.9431296241782734
185,1404.64,2.022754316493616
186,1414.3700000000001,2.0743339045213607
187,1424.1799999999998,2.1227543534989732
188,1434.05,2.121276698188987
189,1440.67,2.224058191790597
190,1445.43977,2.240775297077397
191,1447.32,2.2474512912583533
192,1454.0,2.1840637790318276
193,1464.0800000000002,2.0233421557918008
194,1474.23,2.022257118501496
195,1484.4399999999998,2.047628726310953
196,1494.73,2.073395860920092
197,1505.0900000000001,1.9501525814789533
198,1512.04,1.7424764722013555
199,1515.53,1.858461828837497
200,1526.03,1.8176667212958024
201,1536.61,1.58987714055379
202,1543.7,1.716805203175636
203,1554.3999999999999,1.6328959126331473
204,1565.1799999999998,1.6743651488903408
205,1576.03,1.7697359710972564
206,1583.3,1.8432839690183878
207,1594.28,1.870292022274787
208,1605.3300000000002,1.8449306614809085
209,1616.46,1.855815827486712
210,1623.92,1.7685307015570888
211,1635.1699999999998,1.8741051577624162
212,1646.51,1.8892780816173858
213,1654.1100000000001,1.773019127587207
214,1659.58691,1.8375363694394908
215,1665.5700000000002,1.9082062077433932
216,1673.26,1.7522627541823559
217,1677.12,1.903142414683578
218,1684.86,1.970335252061676
219,1696.54,1.8606368154436117
220,1704.3700000000001,1.7884839765121527
221,1716.1799999999998,1.6819458963358398
222,1724.1100000000001,1.6740656392826507
223,1736.0600000000002,1.7705871737359158
224,1744.0700000000002,1.7280679821853424
225,1756.1599999999999,1.8240481312681855
226,1764.27,1.7004455215958825
227,1776.49,1.7144420271204763
228,1784.6999999999998,1.7516029993264435
229,1797.0700000000002,1.8410543776684423
230,1805.3600000000001,1.8404434153770253
231,1813.69,1.6820274858369162
232,1826.2700000000002,1.733295286123282
233,1834.7,1.6658519384614432
234,1843.16,1.539612365363085
235,1855.94,1.522026329405991
236,1864.51,1.5616415963737298
237,1873.1100000000001,1.7035326379049498
238,1886.1,1.5498700238922227
239,1894.8000000000002,1.4703806473017127
240,1903.55,1.5827415616503377
241,1905.46072,1.571389588762278
242,1916.74,1.504600666374047
243,1925.5900000000001,1.4717055693265555
244,1934.48,1.5434952978291323
245,1943.41,1.5805338518817769
246,1956.88,1.4667866058671206
247,1965.9099999999999,1.6037217237949346
248,1974.99,1.6532131236603336
249,1984.1000000000001,1.5543348926882834
250,1993.26,1.5135729436538177
251,2007.08,1.5701986712022553
252,2016.3400000000001,1.5156582860429593
253,2025.6499999999999,1.5969801828212482
254,2034.9999999999998,1.488367905149605
255,2044.39,1.5341384530280295
256,2053.83,1.474366282844039
257,2063.31,1.4868229382101161
258,2072.83,1.5735154191262612
259,2077.61,1.4666495723593678
260,2087.2,1.5284742479881315
261,2096.83,1.446457749166963
262,2106.51,1.4747235322833794
263,2116.23,1.4839531409498636
264,2126.0,1.5030630315539326
265,2135.82,1.4254552040955866
266,2145.6800000000003,1.428047202187308
267,2155.58,1.4818130258290976
268,2165.5299999999997,1.4490581314084718
269,2175.52,1.435875062537914
270,2185.57,1.394938731992458
271,2187.7616199999998,1.4070509196505907
272,2195.65,1.4507854737503205
273,2205.79,1.4188755445687489
274,2215.97,1.369541144266145
275,2226.2000000000003,1.3219829050622516
276,2236.48,1.380856826957068
277,2246.7999999999997,1.3387152777308529
278,2257.17,1.2950558896033477
279,2267.5899999999997,1.3233516625745532
280,2272.81,1.3436606812798975
281,2283.3,1.361093879789297
282,2293.84,1.296644239397407
283,2304.4300000000003,1.2911767601042266
284,2315.0699999999997,1.2414054419097567
285,2325.76,1.011868584813997
286,2336.49,1.1808716565972053
287,2347.27,1.165634189479124
288,2352.69,1.2098398525793095
289,2363.55,1.1531464432191643
290,2374.46,1.1659671949577295
291,2385.41,1.1187234755752626
292,2396.43,1.1713381817309902
293,2407.49,1.1238384167656859
294,2413.04,1.141245298722518
295,2424.17,1.1691459592954079
296,2435.36,1.1241614131867501
297,2446.6099999999997,1.1720176603965446
298,2452.25,1.1517202323310547
299,2463.56,1.1468322728593014
300,2474.94,1.1147657389257426
301,2486.36,1.1496177338711515
302,2497.84,1.079031522135013
303,2503.6000000000004,1.1599586807064277
304,2511.88643,1.1071043246134216
305,2515.15,1.0863184913788988
306,2526.76,1.0817713454570397
307,2532.58,1.0842558614548676
308,2544.2799999999997,1.0586722492855523
309,2556.02,1.0990625410062562
310,2567.82,1.0872711885619897
311,2573.74,1.126233964284866
312,2585.6200000000003,1.1166354196206383
313,2597.55,1.1119575048189347
314,2603.54,1.080802362349345
315,2615.56,1.0739659813001852
316,2627.63,1.0883992301135497
317,2633.69,1.0933161694514941
318,2645.8399999999997,1.1326862260448973
319,2658.06,1.1279503644458346
320,2664.18,1.0748366596188084
321,2676.48,1.1013346057997844
322,2682.6499999999996,1.0918185308352824
323,2695.0299999999997,1.0636192847962973
324,2707.4700000000003,1.0708823945923416
325,2713.7099999999996,1.0454139014353736
326,2726.24,1.0456388449839615
327,2732.52,1.0736919557170128
328,2745.14,0.9966397330181445
329,2757.81,0.9990159401818005
330,2764.17,1.0123436586948906
331,2776.92,1.0396152736385855
332,2783.33,1.0283284220142
333,2796.17,0.9177237707104385
334,2802.62,0.9609821229760723
335,2815.55,1.0311150054248546
336,2822.04,1.0289433615805081
337,2835.07,0.9892149037543388
338,2848.1600000000003,0.978605201763199
339,2854.7200000000003,0.9786746397263864
340,2867.9,1.00283567148779
341,2874.51,0.9876051393135017
342,2884.0315,0.9892975306994137
343,2887.7799999999997,0.9899939795981794
344,2894.4399999999996,0.9792894891239671
345,2907.7999999999997,1.0035995340585802
346,2927.9500000000003,0.9821850726388536
347,2948.25,0.9675936082805188
348,2968.6800000000003,0.9659044280420567
349,2989.26,0.9578548448649861
350,3009.98,0.9561939522785478
351,3030.85,0.9502999567535011
352,3051.86,0.9402895518190865
353,3073.0099999999998,0.9304097374753041
354,3087.19,0.9225317130121913
355,3108.59,0.910810460437395
356,3130.1400000000003,0.9012418049239902
357,3151.84,0.8956962464719771
358,3166.39,0.8841853614269637
359,3188.34,0.8614767647439365
360,3210.44,0.865643265122301
361,3232.6899999999996,0.8527705625620572
362,3247.61,0.851140016935143
363,3270.1200000000003,0.8496039826146445
364,3292.79,0.8406674518262972
365,3307.9900000000002,0.8353251873806474
366,3311.31121,0.838613398614486
367,3323.26,0.8505109181236058
368,3330.92,0.8395085147674353
369,3338.6,0.8249672372510659
370,3346.29,0.825148622654597
371,3354.01,0.8073077968178298
372,3361.74,0.8181803339009632
373,3369.49,0.7970085968238977
374,3377.26,0.7901482855866333
375,3385.0400000000004,0.8168455372692696
376,3392.85,0.8188099777116075
377,3400.67,0.8353795810738458
378,3408.5,0.7977350473559849
379,3416.36,0.8085288023978255
380,3424.2400000000002,0.8176503832794673
381,3432.13,0.8214077270810096
382,3440.04,0.8125566967223532
383,3447.9700000000003,0.7914997922034978
384,3455.92,0.7795166135244435
385,3463.89,0.7694403606851903
386,3471.8700000000003,0.7746602707658378
387,3479.88,0.7714160696061868
388,3487.9,0.7749679313664364
389,3495.94,0.7819765189664871
390,3504.0,0.766733732406339
391,3512.0800000000004,0.763533271685992
392,3520.17,0.7687110738855457
393,3528.29,0.7688814648448009
394,3536.42,0.7775561187239567
395,3544.57,0.7759815984429137
396,3552.75,0.7812756669215724
397,3560.93,0.7797048354002309
398,3569.14,0.7577897926385913
399,3577.3700000000003,0.7316894757167526
400,3585.62,0.7238054846347152
401,3593.8799999999997,0.7271541564725783
402,3602.17,0.7434686170701431
403,3610.4700000000003,0.7403461405876084
404,3618.79,0.745398189944875
405,3627.14,0.772326728061843
406,3635.5,0.7572869290987118
407,3643.88,0.7624601559753815
408,3652.2799999999997,0.7492460086918525
409,3660.7000000000003,0.7610478872481247
410,3669.1400000000003,0.7528394916441977
411,3677.59,0.7463837589601716
412,3678.15,0.7166412824746029
413,3680.89,0.6947232225273565
414,3683.63,0.7052197625801102
415,3686.37,0.7301135026328638
416,3689.1099999999997,0.7136047426856174
417,3691.85,0.713852182738371
418,3694.5899999999997,0.7347197227911246
419,3697.33,0.7357806628438782
420,3700.08,0.7174376658165325
421,3702.82,0.6941369058692861
422,3705.56,0.7121574459220397
423,3708.2999999999997,0.7274937859747933
424,3711.04,0.7279852260275469
425,3713.7799999999997,0.7982676660803005
426,3716.52,1.0104908061330542
427,3719.2599999999998,1.6003828461858076
428,3721.9999999999995,2.822338286238561
429,3724.7400000000002,4.114737726291315
430,3727.48,4.342458166344069
431,3730.23,3.291960469316723
432,3732.97,1.9751729093694763
433,3735.71,1.1512313494222302
434,3738.45,0.8751623894749836
435,3741.1899999999996,0.8189184295277373
436,3743.93,0.7936246695804909
437,3746.6699999999996,0.7501512096332446
438,3749.4100000000003,0.7455182496859982
439,3752.15,0.7589836897387519
440,3754.8900000000003,0.8117778297915054
441,3757.63,0.8566411698442591
442,3760.3799999999997,0.8629847728169132
443,3763.12,0.8459472128696669
444,3765.8599999999997,0.7851887529224205
445,3768.6,0.7337845929751741
446,3771.34,0.7695375330279277
447,3774.0800000000004,0.8333126730806814
448,3776.82,0.8692691131334349
449,3779.56,0.9198263531861886
450,3782.3,0.9223107932389422
451,3785.04,0.9062901332916958
452,3787.78,0.9017791733444493
453,3790.5299999999997,0.8594398763171036
454,3793.2700000000004,0.8089305163698571
455,3796.01,0.7811152564226109
456,3798.75,0.7540320964753645
457,3801.4900000000002,0.805727936528118
458,3801.8939600000003,0.8166293780126874
459,3804.23,0.8796800640480631
460,3806.9700000000003,0.9132477976043971
461,3809.71,0.9418945311607312
462,3812.45,0.9608614647170652
463,3815.19,0.9657563982733994
464,3817.94,0.9260307345069464
465,3820.6800000000003,0.8948101680632805
466,3823.42,0.8909202016196147
467,3826.1600000000003,0.8747477351759487
468,3828.9,0.8047272687322828
469,3831.64,0.769073502288617
470,3834.38,0.7656308358449511
471,3837.12,0.7846382694012852
472,3839.86,0.8227611029576193
473,3842.6,0.8507977365139534
474,3845.3399999999997,0.9049855700702876
475,3848.09,0.9188233063038345
476,3850.83,0.9582475398601686
477,3853.57,0.9720491734165028
478,3856.31,0.9938227069728368
479,3859.05,0.997212740529171
480,3861.79,1.0472931740855052
481,3864.5299999999997,1.1367425076418392
482,3867.27,1.1832428411981732
483,3870.0099999999998,1.1151751747545073
484,3872.75,1.0167257083108416
485,3875.49,0.9519922418671756
486,3878.2400000000002,0.9230443781007226
487,3880.98,0.8922306116570567
488,3883.72,0.8830127452133909
489,3886.46,0.936753078769725
490,3889.2,0.9107383123260591
491,3891.94,0.8568234458823932
492,3894.68,0.8831110794387274
493,3897.4199999999996,0.8879246129950614
494,3900.16,0.9045327465513955
495,3902.9,0.9245977801077296
496,3905.6400000000003,0.9412873136640637
497,3908.39,0.9537420498976107
498,3911.13,0.9688453834539448
499,3913.87,0.985128017010279
500,3916.6099999999997,0.938371250566613
501,3919.35,0.9293972841229471
502,3922.0899999999997,0.9365292176792812
503,3924.8300000000004,0.9034783512356154
504,3927.57,0.8701834847919495
505,3930.3100000000004,0.8652767183482836
506,3933.05,0.8840403519046177
507,3935.79,0.8999976854609518
508,3938.54,0.9263621216944988
509,3941.2799999999997,0.934917355250833
510,3944.0199999999995,0.933874288807167
511,3946.76,0.9230703223635012
512,3949.5000000000005,0.9255250559198352
513,3952.2400000000002,0.9413603894761694
514,3954.98,0.9106684230325035
515,3957.7200000000003,0.8744859565888377
516,3960.46,0.8377746901451717
517,3963.2000000000003,0.8505190237015058
518,3965.94,0.8669643572578399
519,3968.69,0.9084176934913869
520,3971.4300000000003,0.823837327047721
521,3974.17,0.8201912606040551
522,3976.9100000000003,0.8075570941603892
523,3979.65,0.8605247277167233
524,3982.39,0.8938077612730574
525,3985.13,0.9052505948293915
526,3987.87,0.9308468283857256
527,3990.61,0.9199614619420597
528,3993.35,0.9646730954983939
529,3996.1000000000004,0.9633405317319409
530,3998.84,0.9509097652882751
531,4001.58,0.9425867988446092
532,4004.32,0.9300339324009432
533,4007.06,0.9417208659572773
534,4009.8,0.9495846995136115
535,4012.54,0.9406110330699456
536,4015.2799999999997,0.9595372666262797
537,4018.02,0.9319362001826138
538,4020.7599999999998,0.9438672337389479
539,4023.5,0.940750067295282
540,4026.25,0.964592803528829
541,4028.9900000000002,0.9304845370851631
542,4031.73,0.9274079706414972
543,4034.47,0.9457648041978313
544,4037.21,0.9289823377541654
545,4039.95,0.9485185713104995
546,4042.69,0.9470283048668336
547,4045.43,0.9503776384231678
548,4048.1699999999996,0.9398177719795019
549,4050.91,0.9357244055358359
550,4053.6499999999996,0.93045173909217
551,4056.4,0.9621439753257172
552,4059.14,0.9286864088820512
553,4061.88,0.9633522424383854
554,4064.62,0.9628784759947194
555,4067.3599999999997,0.9772496095510536
556,4070.1,0.9408638431073877
557,4072.8399999999997,0.9141169766637218
558,4075.58,0.9412180102200559
559,4078.3199999999997,0.9312681437763899
560,4081.0600000000004,0.918105277332724
561,4083.8,0.9191771108890581
562,4086.5499999999997,0.8821768471226051
563,4089.29,0.8766193806789393
564,4092.0299999999997,0.8453580142352733
565,4094.77,0.8646096477916075
566,4097.51,0.9366111813479416
567,4100.25,1.0018612149042756
568,4102.990000000001,0.9799133484606098
569,4105.7300000000005,0.877397082016944
570,4108.47,0.8173813155732781
571,4111.21,0.8540808491296121
572,4113.95,0.8505974826859463
573,4116.7,0.8795652189194934
574,4119.44,0.8921468524758274
575,4122.179999999999,0.8743881860321614
576,4124.92,0.8676920195884955
577,4127.66,0.8831204531448297
578,4130.400000000001,0.8752853867011637
579,4133.14,0.8925034202574978
580,4135.88,0.907769453813832
581,4138.62,0.8901732873701661
582,4141.36,0.8563904209265002
583,4144.1,0.8721035544828343
584,4146.85,0.8796378907163814
585,4149.59,0.8818486242727155
586,4152.33,0.8723053578290496
587,4155.07,0.8857817913853837
588,4157.81,0.8936861249417178
589,4160.55,0.8885761584980519
