,lambda (Angstroms),Total Flux (erg/s/cm^2/Angstrom)
0,102.07000000000001,0.013309874685607435
1,103.97,0.015555649412003469
2,104.712855,0.01643697168413894
3,105.9,0.015290119541909484
4,108.12,0.013147509834080922
5,109.88,0.01151439220715378
6,114.0,0.007557876978210678
7,118.01,0.0037036680447005235
8,120.22644299999999,0.002144782198808497
9,121.02999999999999,0.002329945490980345
10,125.0,0.002373315967328789
11,127.03,0.002375291586217289
12,127.91,0.0024037432535187076
13,130.89,0.002414018354153057
14,132.1,0.0025871651466925073
15,133.94,0.002605592269231837
16,137.06,0.0028593209987550477
17,138.038426,0.0028793444330560513
18,139.93,0.0030007222205484687
19,142.86,0.005477970269494572
20,146.85999999999999,0.009580270336315191
21,150.97,0.010288786404973377
22,154.85,0.011150138469789378
23,158.489319,0.01200816344548955
24,158.82,0.01208584269565372
25,162.14,0.012781861024910406
26,165.92,0.013825968520268917
27,170.17999999999998,0.014755706015038037
28,172.94,0.015539941011649017
29,176.97,0.01651492392336722
30,179.85000000000002,0.017237403919830852
31,181.93,0.01775163058394347
32,181.970086,0.017761362374304628
33,186.17000000000002,0.01879463455602111
34,190.94,0.020087048063169737
35,194.04999999999998,0.020978268358186978
36,198.10999999999999,0.02206248019026736
37,201.79,0.023201461407522488
38,205.07000000000002,0.02401328618811945
39,208.929613,0.024417892663297778
40,209.85,0.024518071163468793
41,216.22,0.02708334353352698
42,220.23999999999998,0.02836768617522775
43,222.79,0.028968376731530476
44,226.94,0.030268243911395695
45,230.09,0.04558720695153436
46,233.83,0.07461539443411169
47,239.83,0.09784018927247107
48,239.88329199999998,0.09779876462496832
49,245.98,0.09300628782418308
50,251.70999999999998,0.09915027158546898
51,256.97999999999996,0.07989506577778603
52,259.96,0.09664756255067118
53,264.18,0.10234094207468979
54,269.09,0.10232301095216165
55,274.1,0.10206248408375719
56,275.42287,0.10175592560366208
57,279.19,0.10091376552628206
58,283.72999999999996,0.10162934765507409
59,289.67,0.09686697497776674
60,295.74,0.09733870156846446
61,301.23,0.0925700175788319
62,308.25,0.09453035805110503
63,316.227766,0.09612122245646233
64,318.35,0.09652888733208827
65,328.02,0.09517831063655748
66,337.99,0.09299022550166172
67,348.26000000000005,0.09043176192740099
68,357.19,0.08978455538230379
69,363.078055,0.09029668819900734
70,366.36,0.09060023013109711
71,374.89000000000004,0.0885622731785855
72,385.39,0.08326858449143759
73,395.28000000000003,0.0854173224327811
74,405.42,0.08524670421490682
75,413.90999999999997,0.08333482064787005
76,416.86938299999997,0.08225950021941836
77,421.6,0.08053601419525752
78,430.43,0.07836044054287376
79,441.46999999999997,0.07783925960036903
80,450.72,0.07574323460778128
81,460.15,0.07286870046939183
82,469.79,0.07123168066090037
83,478.630092,0.07051566018690865
84,479.63,0.07043132170357033
85,489.66999999999996,0.06710804464955797
86,499.92,0.06724248857349953
87,505.71,0.06496287696565774
88,511.57,0.06941039235046724
89,519.88,0.06751405247807254
90,529.5500000000001,0.06461914846290326
91,539.39,0.06045125142988716
92,549.42,0.0583900733769246
93,549.5408739999999,0.058410736792293264
94,559.63,0.06014840417347535
95,570.04,0.060280126201646765
96,580.64,0.0583709507260096
97,590.0699999999999,0.05743657882645691
98,599.66,0.05386327797632856
99,609.4,0.047373114360035544
100,619.3,0.05385081179316687
101,629.3700000000001,0.051550024091311555
102,630.957344,0.051604105543160014
103,639.59,0.05191075878241507
104,649.98,0.050283640112479024
105,657.51,0.04814802728431555
106,665.12,0.04915802114589271
107,674.38,0.0487172604833703
108,685.34,0.04549379697783622
109,694.8699999999999,0.046555001393188425
110,704.5400000000001,0.04288279251558673
111,715.9799999999999,0.04500386914849641
112,724.43596,0.044403617286277994
113,725.94,0.044296311594148374
114,734.35,0.043596290497634686
115,744.5699999999999,0.04222883789283446
116,754.9200000000001,0.041281236947660054
117,765.43,0.0372580518912559
118,774.29,0.03971940423190854
119,785.0600000000001,0.03769472249475605
120,794.15,0.03804619392551592
121,805.1999999999999,0.03779092499371137
122,814.52,0.037197505514578476
123,825.85,0.03669630938812186
124,831.763771,0.03444408900251189
125,835.4200000000001,0.03304612375332805
126,845.09,0.03521312490968777
127,854.88,0.034331431985257746
128,864.77,0.0341647056601696
129,874.79,0.03368935491422591
130,884.92,0.033146240427558274
131,895.17,0.03261136186010089
132,905.53,0.03186625955191958
133,916.02,0.03170869282288272
134,924.49,0.054247474787139885
135,935.2,0.07719850057665516
136,946.0300000000001,0.09912836228538068
137,954.78,0.11143723472779511
138,954.992586,0.11160040243818631
139,965.84,0.11993564207818636
140,974.77,0.061356082614191405
141,986.06,0.10377443744638594
142,995.18,0.09979806692996558
143,1004.39,0.1164023417045016
144,1016.02,0.115866540969198
145,1025.4199999999998,0.07576418469130859
146,1034.91,0.10117685370437557
147,1044.49,0.1311681880083989
148,1054.1499999999999,0.12701540923771681
149,1063.91,0.11116521412365292
150,1076.23,0.11936970061901489
151,1086.18,0.10140317445252557
152,1096.23,0.12019423194265445
153,1096.4782,0.12001780608890715
154,1103.83,0.11478943079841454
155,1114.05,0.11217580308176617
156,1124.35,0.10138703444365675
157,1134.76,0.1147726095385384
158,1145.26,0.10886063859677639
159,1155.85,0.10935732161837068
160,1163.8700000000001,0.10835011924190104
161,1174.64,0.08204785019020798
162,1185.5,0.10323645510187127
163,1193.72,0.088704550421749
164,1204.77,0.0762178381449423
165,1215.91,0.056284949831491925
166,1224.34,0.08489975773253441
167,1235.67,0.09925299223061407
168,1244.24,0.10226010851909974
169,1255.75,0.09947031094389204
170,1258.92541,0.09759983743209814
171,1264.45,0.09434860767014526
172,1276.15,0.10343582336247584
173,1285.0,0.10439134536052076
174,1293.91,0.09135999954160327
175,1305.88,0.09094278505760302
176,1314.93,0.10108473433243992
177,1324.05,0.096989326154154
178,1336.3,0.09031820185766251
179,1345.5600000000002,0.09743665877313099
180,1354.8899999999999,0.09478507823547665
181,1364.28,0.08846902988085989
182,1373.74,0.08867473407312033
183,1386.4499999999998,0.08826664651325038
184,1396.0600000000002,0.07327617616310482
185,1405.73,0.07244196799599684
186,1415.48,0.08238912273960565
187,1425.29,0.08088923966625206
188,1435.17,0.08201180913977565
189,1441.79,0.08315065000159004
190,1445.43977,0.08315087047683745
191,1448.45,0.08315103471711781
192,1455.13,0.08070499870216745
193,1465.22,0.0767249168173098
194,1475.38,0.07654946707002004
195,1485.6,0.07672547915493132
196,1495.9,0.07584936368277734
197,1506.2700000000002,0.07277865034819123
198,1513.22,0.06761961257814557
199,1516.71,0.06967024915117301
200,1523.71,0.06871686290796154
201,1534.27,0.06154553537534542
202,1544.9099999999999,0.05959758028566402
203,1555.6200000000001,0.058245757333550495
204,1566.4,0.061545786519004865
205,1573.63,0.06443729729923076
206,1584.5400000000002,0.06563264045445405
207,1595.52,0.06623944574724523
208,1606.58,0.06414286348297114
209,1613.9999999999998,0.063556600065167
210,1625.19,0.061547291770661844
211,1636.45,0.06385062561372457
212,1644.0,0.06414386616568936
213,1655.3999999999999,0.061265794283887856
214,1659.58691,0.06247757304433336
215,1666.88,0.06458974852419219
216,1670.72,0.059194604858348585
217,1678.4299999999998,0.07195475421677196
218,1686.1799999999998,0.0724548824953428
219,1693.9599999999998,0.06778814746402423
220,1705.7,0.06717157552730443
221,1713.5800000000002,0.06888887279635451
222,1725.45,0.06968890985011399
223,1733.42,0.07552355718949585
224,1745.43,0.07330413546377144
225,1753.49,0.07980942287348511
226,1765.64,0.0706645123682768
227,1773.7900000000002,0.07536067984832226
228,1786.09,0.07675834279366694
229,1794.3300000000002,0.08709925034404419
230,1806.77,0.08338043450990498
231,1815.1100000000001,0.0818663143606509
232,1823.49,0.08074787313154426
233,1836.1299999999999,0.07801575189814237
234,1844.6000000000001,0.06876236073936753
235,1853.1200000000001,0.07589693073077701
236,1865.96,0.08435739409811245
237,1874.5800000000002,0.08397368638989057
238,1883.2299999999998,0.08225630537177933
239,1896.28,0.08632501556988892
240,1905.04,0.08573305908218318
241,1905.46072,0.08580927115576178
242,1913.83,0.08732106711933003
243,1927.1,0.08075883260165653
244,1935.99,0.0658319371335241
245,1944.93,0.09289889729268001
246,1953.9,0.09225941882820894
247,1967.45,0.10396213382335018
248,1976.53,0.10020546373891345
249,1985.6499999999999,0.10229740215630741
250,1994.82,0.10159336620098972
251,2004.02,0.09702709162204501
252,2013.28,0.09747065979584632
253,2027.2299999999998,0.0901409398092943
254,2036.5900000000001,0.10228255923767232
255,2045.99,0.11059535716788099
256,2055.43,0.10417694359992034
257,2064.92,0.10087451565924804
258,2074.45,0.11659037622040641
259,2079.23,0.1433967021891721
260,2084.03,0.15223152240885313
261,2093.65,0.14240445709913052
262,2103.31,0.13413818029123858
263,2113.02,0.143714689110635
264,2122.77,0.1363091864318621
265,2132.57,0.12262206938037754
266,2147.35,0.14536802080681202
267,2157.26,0.1460362721353618
268,2167.22,0.13228320909119995
269,2177.22,0.13380953454886876
270,2187.27,0.1508067456338259
271,2187.7616199999998,0.15113456839834796
272,2197.37,0.15754660641319967
273,2207.51,0.15081123035021154
274,2212.6,0.12720969690241968
275,2222.81,0.1344302368823892
276,2233.07,0.16611578832161422
277,2243.38,0.1561126512200947
278,2253.74,0.12987812557783068
279,2264.14,0.12692880910297105
280,2274.59,0.13820910408736692
281,2285.0899999999997,0.16352651053101824
282,2295.64,0.14216382843392508
283,2306.23,0.16138315550423626
284,2316.88,0.14656789632565403
285,2327.5699999999997,0.11332654631447621
286,2332.94,0.11204767703851504
287,2343.71,0.08526312536214598
288,2354.52,0.1369459228531813
289,2365.39,0.0909892840953232
290,2376.31,0.11322671679672058
291,2387.2799999999997,0.07438314095737346
292,2392.7799999999997,0.09002138147547654
293,2403.83,0.08943210397093816
294,2414.92,0.1003539656338042
295,2426.0699999999997,0.1494146210477768
296,2437.27,0.1477542879210049
297,2442.89,0.17003137594132114
298,2454.16,0.17524885885750688
299,2465.49,0.16212115552479925
300,2476.87,0.14455926365134705
301,2482.58,0.11489097229832317
302,2494.04,0.12061069875967977
303,2505.55,0.17230593668029184
304,2511.33,0.09656202137022563
305,2511.88643,0.09495252664326068
306,2517.12,0.07981256467452308
307,2522.92,0.08493098021062867
308,2534.56,0.11321997773481295
309,2546.26,0.11967933993695694
310,2552.13,0.1810563192640155
311,2563.91,0.14624357437010577
312,2575.75,0.1782776241541558
313,2587.64,0.1641638695031722
314,2593.6,0.15149334084717034
315,2605.5699999999997,0.13446527910013303
316,2617.6,0.12156661203105545
317,2623.63,0.1620708771660066
318,2635.74,0.2380480030008753
319,2647.91,0.31455922351370375
320,2654.0099999999998,0.4061680824396079
321,2666.2599999999998,0.2785823958563825
322,2672.41,0.3133237503472531
323,2684.75,0.35004225578096737
324,2697.14,0.26812005677964806
325,2703.36,0.32087470506147164
326,2715.8300000000004,0.24466719896409864
327,2722.0899999999997,0.2131604436978953
328,2734.66,0.2569071287304551
329,2747.28,0.15422110932798141
330,2753.61,0.1986539478527311
331,2766.3199999999997,0.24897542046719692
332,2772.7000000000003,0.26988605455691306
333,2785.5,0.17600091918831848
334,2791.92,0.07855766973000773
335,2804.81,0.0957502663783527
336,2817.75,0.24703115859166408
337,2824.25,0.33864698203729965
338,2837.29,0.32055422538054384
339,2843.83,0.2558826452781526
340,2856.95,0.17592848152534313
341,2863.54,0.32373839698791823
342,2876.7599999999998,0.40206252436504164
343,2883.3900000000003,0.3770335362795899
344,2884.0315,0.3798287083901291
345,2896.7,0.43502955638124424
346,2910.07,0.574950032110961
347,2930.2400000000002,0.5091922954967788
348,2950.55,0.47658275862845767
349,2970.9999999999995,0.49814542150599744
350,2991.6,0.5077001841112453
351,3012.33,0.5114794464805068
352,3033.21,0.5395931085774766
353,3047.22,0.5626413831454146
354,3068.34,0.6073800448067171
355,3089.6099999999997,0.599387806195728
356,3111.02,0.6728841673305996
357,3132.59,0.6283493281750266
358,3147.05,0.632948701926089
359,3168.86,0.688044162334849
360,3190.83,0.6051677224531643
361,3212.94,0.6654563823173406
362,3227.77,0.5732055553967496
363,3250.15,0.7700948147708003
364,3272.68,0.8887605738725592
365,3287.78,0.8749161464618429
366,3310.5699999999997,0.8303062050916292
367,3311.31121,0.82598505630471
368,3318.2,0.7858241646972179
369,3325.8500000000004,0.7787826992334502
370,3333.52,0.8501381330756597
371,3341.21,0.7863061662238461
372,3348.91,0.9176169990250211
373,3356.63,0.8886813311321733
374,3364.37,0.5886945625453024
375,3372.12,0.6575909936114201
376,3379.89,0.893334623983515
377,3387.69,0.8435580533145755
378,3395.5,0.7677250822986242
379,3403.32,0.9914726109356619
380,3411.17,0.8079682385316649
381,3419.03,0.7951952657806566
382,3426.9100000000003,0.8541987923356253
383,3434.81,0.9697050181965711
384,3442.73,0.746036343363494
385,3450.67,0.821943167836394
386,3458.62,0.9014007919622824
387,3466.6000000000004,0.8453277150471366
388,3474.59,0.9228015377849792
389,3482.6000000000004,0.8653712598287989
390,3490.63,0.9317182811785957
391,3498.6699999999996,0.791389302181381
392,3506.74,1.0010738221431321
393,3514.82,0.8405725417578715
394,3522.92,0.9675177606785882
395,3531.0399999999995,0.7902609789052818
396,3539.1800000000003,0.9904635964379526
397,3547.34,1.0397524132766003
398,3555.52,0.9661006294212253
399,3563.7200000000003,0.9443366448718272
400,3571.93,0.7502995599754178
401,3580.1699999999996,0.8247402740379738
402,3588.42,0.6087579877535185
403,3596.69,0.8943552007750403
404,3604.98,1.022327413102539
405,3613.29,0.777511924736015
406,3621.62,0.753018935675468
407,3629.9700000000003,1.185396545920898
408,3638.3399999999997,0.9593406554723052
409,3646.7300000000005,1.0140759643296895
410,3655.1299999999997,1.030778672840062
411,3663.56,1.2683733803094006
412,3672.0000000000005,1.1126240874317275
413,3680.4700000000003,1.07757279351302
414,3688.95,1.012867499247301
415,3697.46,1.1262682039405476
416,3705.98,1.1741659082867828
417,3714.52,1.0515646119389952
418,3723.09,0.8569349145501731
419,3731.67,1.0210090168143395
420,3740.27,0.6154362183844831
421,3748.89,0.8003001192606037
422,3753.0,0.5730839766388932
423,3755.71,0.8083686825987874
424,3758.43,0.87528268821167
425,3761.1499999999996,0.9492377938245525
426,3763.8700000000003,0.9476430994374352
427,3766.59,0.9245406050503178
428,3769.2999999999997,1.0421337110102118
429,3772.02,1.0689866166230944
430,3774.74,1.002943522235977
431,3777.46,0.9630351278488597
432,3780.1800000000003,1.0104193334617424
433,3782.89,1.1822592394216365
434,3785.6099999999997,1.153169145034519
435,3788.33,0.9542471506474015
436,3791.05,0.9425281562602841
437,3793.7599999999998,0.8834287622201782
438,3796.48,0.8178488678330608
439,3799.2,0.7176551734459434
440,3801.8939600000003,0.9151538435242609
441,3801.9199999999996,0.9170628792471056
442,3804.6400000000003,0.961697504526668
443,3807.35,1.025250430080938
444,3810.0699999999997,0.9830031553605005
445,3812.79,1.0392272806400629
446,3815.5099999999998,1.0526912059196256
447,3818.23,1.044055131199188
448,3820.94,0.896892756753458
449,3823.66,0.8918808820330205
450,3826.3799999999997,0.899357607312583
451,3829.1,0.7859043325921454
452,3831.82,0.615943857871708
453,3834.5299999999997,0.627561383425978
454,3837.25,0.6913920087055404
455,3839.97,0.6182319339851029
456,3842.69,0.6802122592646654
457,3845.4100000000003,0.8021177845442279
458,3848.12,0.9366449100984979
459,3850.8399999999997,1.0349352353780603
460,3853.56,1.0825241606576228
461,3856.28,1.0182550859371855
462,3858.99,0.9441747114914554
463,3861.71,1.097610936771018
464,3864.43,1.0690598620505805
465,3867.1499999999996,0.8201064873301429
466,3869.8700000000003,0.9542693126097054
467,3872.58,0.9552495381639753
468,3875.2999999999997,0.7953614634435379
469,3878.02,0.8298458887231003
470,3880.74,0.9636492140026628
471,3883.46,0.9973626392822253
472,3886.17,0.9384945648364953
473,3888.89,0.9602075901160578
474,3891.6099999999997,0.8911327153956203
475,3894.33,1.1012560406751828
476,3897.05,1.0855019659547454
477,3899.7599999999998,1.0967368915090152
478,3902.48,1.068262816788578
479,3905.2,1.1905537420681402
480,3907.9199999999996,1.296783667347703
481,3910.6400000000003,1.1105815926272653
482,3913.35,1.2512525181815353
483,3916.0699999999997,1.4215444434610978
484,3918.79,1.2571343687406602
485,3921.51,1.3074982940202229
486,3924.22,1.2215472195744927
487,3926.94,1.0388651448540551
488,3929.66,0.8651525701336177
489,3932.3799999999997,0.5987506954131802
490,3935.1000000000004,0.5287000206927427
491,3937.81,0.5788628462470127
492,3940.5299999999997,0.6904900715265752
493,3943.25,0.8475493968061376
494,3945.97,1.1570946220857001
495,3948.69,1.2321025473652627
496,3951.4,1.3111254729195327
497,3954.12,1.2568523981990951
498,3956.8399999999997,1.1944073234786576
499,3959.56,1.14730324875822
500,3962.28,1.0903061740377826
501,3964.99,0.8863784995920526
502,3967.71,0.6843731248716152
503,3970.43,0.6162238501511776
504,3973.1499999999996,0.6880462754307402
505,3975.86,0.8232925009850102
506,3978.58,1.0655637262645725
507,3981.2999999999997,1.338361651544135
508,3984.02,1.3472515768236977
509,3986.74,1.47241950210326
510,3989.45,1.46245542765753
511,3992.17,1.4753533529370926
512,3994.89,1.635984278216655
513,3997.6099999999997,1.6760692034962175
514,4000.3300000000004,1.60925612877578
515,4003.04,1.59512805433005
516,4005.7599999999998,1.6814429796096126
517,4008.48,1.731190904889175
518,4011.2,1.7247898301687374
519,4013.92,1.6769667554482999
520,4016.63,1.8361666810025699
521,4019.35,1.8617836062821325
522,4022.0699999999997,1.761152531561695
523,4024.79,1.7039494568412574
524,4027.51,1.8254423821208199
525,4030.22,1.82198130767509
526,4032.94,1.6561562329546524
527,4035.66,1.641866158234215
528,4038.3799999999997,1.7093190835137775
529,4041.09,1.8339560090680473
530,4043.81,1.84957793434761
531,4046.5299999999997,1.7116348596271724
532,4049.25,1.595250784906735
533,4051.97,1.6879387101862975
534,4054.68,1.7097616357405674
535,4057.4,1.69377656102013
536,4060.12,1.6783044862996923
537,4062.8399999999997,1.585691411579255
538,4065.56,1.5132243368588174
539,4068.27,1.6823422624130873
540,4070.99,1.63868118769265
541,4073.71,1.6346191129722123
542,4076.43,1.6544040382517748
543,4079.15,1.6870629635313372
544,4081.86,1.7837928890856074
545,4084.58,1.8193308143651699
546,4087.2999999999997,1.7846637396447322
547,4090.02,1.752540664924295
548,4092.7400000000002,1.7876145902038574
549,4095.45,1.7787305157581272
550,4098.17,1.6384484410376898
551,4100.889999999999,1.4825433663172523
552,4103.61,1.5673672915968149
553,4106.32,1.5230462171510848
554,4109.04,1.5453491424306471
555,4111.76,1.6680250677102098
556,4114.48,1.6267539929897723
557,4117.2,1.678659918269335
558,4119.91,1.6861698438236048
559,4122.63,1.7191637691031671
560,4125.349999999999,1.7569106943827297
561,4128.07,1.7502276196622921
562,4130.79,1.8346395449418549
563,4133.5,1.8068164704961247
564,4136.22,1.716823395775687
565,4138.94,1.7510763210552498
566,4141.66,1.7847632463348122
567,4144.38,1.7157911716143748
568,4147.09,1.7933510971686446
569,4149.8099999999995,1.729800022448207
570,4152.53,1.6782249477277698
571,4155.25,1.7686768730073321
572,4157.97,1.7632777982868948
573,4160.68,1.8237497238411646
574,4163.4,1.868794649120727
575,4166.12,1.8685105744002897
576,4168.84,1.787665499679852
577,4171.55,1.702049425234122
578,4174.2699999999995,1.7020993505136846
579,4176.99,1.686833275793247
580,4179.71,1.6750112010728095
581,4182.429999999999,1.751329126352372
582,4185.14,1.760330051906642
583,4187.86,1.8054259771862047
584,4190.58,1.759477902465767
585,4193.3,1.7848908277453295
586,4196.0199999999995,1.727892753024892
587,4198.73,1.708575678579162
588,4201.45,1.7548026038587246
589,4204.17,1.688939529138287
