,lambda (Angstroms),Total Flux (erg/s/cm^2/Angstrom)
0,102.00000000000001,0.013517348743746362
1,103.89,0.015809335307447613
2,104.712855,0.01680777909773435
3,106.07000000000001,0.015443157214425709
4,108.03999999999999,0.013465492483967058
5,110.05,0.011462946626595517
6,113.91999999999999,0.007584819107775707
7,117.92,0.003575812016489057
8,120.22644299999999,0.0014896036818179755
9,120.95,0.0015316183602590487
10,124.91,0.001437781465149605
11,126.94,0.0013799481658889555
12,128.10999999999999,0.0013545990559702568
13,131.1,0.0012701574639558022
14,132.01,0.0013277365229079252
15,134.15,0.001268151209894235
16,136.96,0.0013133469040211194
17,138.038426,0.0012894960428429865
18,140.15,0.0013379256258673185
19,143.07999999999998,0.002659913969096076
20,147.09,0.005117875991740212
21,150.87,0.0054586703696940355
22,155.09,0.005876503024446717
23,158.489319,0.006287101901306509
24,159.07000000000002,0.006356727714670532
25,162.02999999999997,0.006681419431146187
26,166.18,0.007213378428907663
27,170.06,0.007668263665368995
28,172.82,0.008049589225326025
29,176.83999999999997,0.008523906671350393
30,180.13000000000002,0.008888505096081781
31,181.8,0.009148368953012303
32,181.970086,0.009167587595826275
33,186.03,0.009639931821549598
34,190.81,0.010294932962849928
35,193.91,0.010751001046120015
36,197.97,0.0112520920196931
37,202.10999999999999,0.011830228234124765
38,204.92,0.01224203981928249
39,208.929613,0.012372329058026193
40,210.17999999999998,0.01241813215819168
41,216.07000000000002,0.013749721982126152
42,220.09,0.01437309075839382
43,223.15,0.014684805200030404
44,226.76999999999998,0.015348523003535121
45,229.93,0.022993072688362443
46,234.2,0.03780892957260696
47,239.88329199999998,0.048051067267582785
48,240.21,0.04863689284607911
49,245.80999999999997,0.0460179769967622
50,252.11,0.04892420541628069
51,256.8,0.03998549201747779
52,259.77,0.047570175558107934
53,263.99,0.050239259578801265
54,268.90000000000003,0.050218958664489485
55,273.90000000000003,0.04985334058474226
56,275.42287,0.04971156251114081
57,278.99,0.04940955470272628
58,284.18,0.04954280005037062
59,290.13,0.04724160562233282
60,296.2,0.04748799386129258
61,301.02,0.04569442765236111
62,308.03000000000003,0.04635794011613507
63,316.227766,0.04700113373562542
64,318.12,0.04713531911911723
65,327.79,0.04646090865883404
66,337.75,0.045277093003775026
67,348.01,0.04401778025067207
68,356.93999999999994,0.04348943063223061
69,363.078055,0.04360513364628623
70,366.09000000000003,0.04367901773152298
71,374.62,0.04270921674528578
72,385.12,0.04008559090056237
73,394.99,0.04094472640652238
74,405.13,0.04078118419076092
75,413.61,0.03979177870854621
76,416.86938299999997,0.03932916563585385
77,422.27,0.03855726241585558
78,430.12,0.03752921971126857
79,441.15000000000003,0.037121597681766066
80,451.43,0.036053495210026654
81,459.82,0.034697669223850224
82,470.53,0.0338574091389933
83,478.630092,0.03349146742211009
84,480.39,0.03340588282113113
85,490.45,0.031830887729441766
86,499.56,0.031813973456550106
87,506.51,0.030735250097977427
88,512.38,0.032372072196564246
89,519.51,0.03148572626179832
90,530.38,0.030202674577239328
91,540.25,0.028255661649309503
92,549.5408739999999,0.027303591443392814
93,550.29,0.02722781549731355
94,560.52,0.027847323556414786
95,569.63,0.02784127565010122
96,580.22,0.026839234198085787
97,589.65,0.02640801228189074
98,600.61,0.024827184943449838
99,610.37,0.021655462642064506
100,620.28,0.02459096471104723
101,630.3599999999999,0.023542998399780416
102,630.957344,0.023545772133629277
103,640.61,0.023605042619666443
104,649.52,0.022820779460656564
105,658.55,0.021863879424084257
106,664.65,0.022219741481327777
107,675.4499999999999,0.021927972500709738
108,684.84,0.020539601831450167
109,694.37,0.0209240914717011
110,705.65,0.019338644980833375
111,715.47,0.02015099383364179
112,724.43596,0.019793040783318245
113,725.42,0.01975338990594966
114,735.5100000000001,0.019403793365612716
115,745.75,0.018804340167094348
116,754.38,0.018348179766389906
117,764.88,0.016508883693690413
118,775.52,0.017628246073354926
119,784.5000000000001,0.016742386803560497
120,795.41,0.016823011198498453
121,804.62,0.01667710438615918
122,815.8100000000001,0.016385255685825148
123,825.26,0.016170576220395604
124,831.763771,0.0150731834549474
125,834.82,0.014552748502252733
126,844.4799999999999,0.015450951677717076
127,854.26,0.015029686942317622
128,864.1500000000001,0.014918324955293018
129,874.16,0.014741585057404622
130,884.2800000000001,0.014467727907891074
131,894.52,0.014230822847513733
132,904.88,0.013872939876272593
133,915.36,0.014630738994167657
134,925.9599999999999,0.029600650201198925
135,934.53,0.04759079523367609
136,945.3499999999999,0.07153999193745705
137,954.0899999999999,0.08977620576287718
138,954.992586,0.09053618248395309
139,965.14,0.09908940405256224
140,974.0699999999999,0.03299098953844159
141,985.35,0.08593881909955235
142,994.4699999999999,0.08633143257449295
143,1005.98,0.11294278338551997
144,1015.29,0.10861401484952184
145,1024.69,0.055193341150447474
146,1034.1699999999998,0.08302144397308311
147,1046.14,0.13479331728394264
148,1055.82,0.1314273864108533
149,1065.59,0.10811004037468772
150,1075.45,0.12323537917544587
151,1085.3999999999999,0.09952649281312778
152,1095.45,0.12580510960294722
153,1096.4782,0.12525926971972062
154,1105.58,0.12042413692495332
155,1115.81,0.11607164256825246
156,1126.14,0.10442669548079209
157,1133.94,0.12607238248154803
158,1144.43,0.11552435102487238
159,1155.02,0.12012246683743719
160,1165.71,0.12178402991924245
161,1173.79,0.0876737992738717
162,1184.65,0.11603684271338575
163,1195.61,0.08586821342214027
164,1203.8999999999999,0.06608461204217447
165,1215.04,0.04432599783556182
166,1226.28,0.08180802089818962
167,1234.78,0.1133692087836288
168,1246.21,0.12201748165781348
169,1254.8500000000001,0.1170658257201893
170,1258.92541,0.1106605049586454
171,1263.55,0.10339465018024616
172,1275.24,0.12630028863759954
173,1284.08,0.13042892019987531
174,1295.9599999999998,0.10654096578356723
175,1304.94,0.10483680259682929
176,1313.9899999999998,0.12572004203558448
177,1326.15,0.1200673981212489
178,1335.3400000000001,0.10752454281099037
179,1344.59,0.1237108897511545
180,1353.91,0.11951743931681179
181,1366.4399999999998,0.10802180928008279
182,1375.9099999999999,0.11130236447179678
183,1385.45,0.11180732228900392
184,1395.05,0.09629005235663372
185,1404.72,0.09853082504975667
186,1414.4599999999998,0.10269541036837275
187,1424.27,0.10387757831248198
188,1434.14,0.10317224850701388
189,1440.76,0.10728129680365027
190,1445.43977,0.1079794265965646
191,1447.41,0.1082733343494105
192,1454.0900000000001,0.10507924463098556
193,1464.1699999999998,0.0976352319421048
194,1474.3200000000002,0.09695879145677348
195,1484.54,0.09763560317499162
196,1494.8300000000002,0.09830397709675917
197,1505.1899999999998,0.09324589322207617
198,1512.1399999999999,0.0838929220030562
199,1515.6200000000001,0.08865036155094262
200,1526.1299999999999,0.08623798239815128
201,1536.71,0.07565286544890937
202,1543.8,0.08030959863698828
203,1554.5,0.07617734546525971
204,1565.28,0.07776791481187334
205,1576.13,0.08198914636203641
206,1583.4,0.08486490521638532
207,1594.3799999999999,0.08604317085885449
208,1605.4299999999998,0.08370298870487311
209,1616.56,0.08331955906923395
210,1624.02,0.07921353390464561
211,1635.28,0.08331934836131255
212,1646.6100000000001,0.08370466502152892
213,1654.21,0.07795020426403947
214,1659.58691,0.08073843965046999
215,1665.6799999999998,0.08389926424911655
216,1673.3700000000001,0.075313182082233
217,1677.22,0.08409474714822758
218,1684.97,0.08644745877458032
219,1696.65,0.08125034385790933
220,1704.4799999999998,0.07814007387524377
221,1716.29,0.07429231884391807
222,1724.2099999999998,0.07361537955110693
223,1736.1699999999998,0.07761039900287191
224,1744.1799999999998,0.07550338039991518
225,1756.27,0.07960097973702544
226,1764.38,0.07328642412279586
227,1776.6100000000001,0.07464791564412411
228,1784.81,0.07551177071974893
229,1793.05,0.07960864499086462
230,1805.47,0.0787039201907744
231,1813.81,0.07296164745061723
232,1826.3799999999999,0.07397647713361771
233,1834.81,0.07114784508331495
234,1843.28,0.06535678222850302
235,1856.06,0.0656599701878305
236,1864.62,0.067495798022873
237,1873.2299999999998,0.07181228735227907
238,1886.21,0.06642522128906081
239,1894.9199999999998,0.06403263360719401
240,1903.67,0.06719527512081806
241,1905.46072,0.06686693693066326
242,1916.86,0.0647708188672529
243,1925.7099999999998,0.0630091663710863
244,1934.6,0.06358724202182969
245,1943.53,0.06733876581948306
246,1957.0000000000002,0.06328947429141932
247,1966.03,0.06858058845634764
248,1975.11,0.06952840780491344
249,1984.2299999999998,0.06655821530038922
250,1993.3899999999999,0.06474767094277498
251,2007.2,0.06594381866344608
252,2016.47,0.06400182170983428
253,2025.77,0.06548589586640498
254,2035.12,0.06341186520661315
255,2044.52,0.0657809797304588
256,2053.96,0.06239519240121443
257,2063.44,0.06253523321888003
258,2072.96,0.06699188218345563
259,2077.74,0.06949788573919842
260,2087.33,0.07411170396086648
261,2096.96,0.06965193032944453
262,2106.64,0.06949002188166005
263,2116.37,0.07159216861751304
264,2126.14,0.07028625350027602
265,2135.9500000000003,0.06605739652994898
266,2145.81,0.07076696474325941
267,2155.71,0.07191052110347983
268,2165.6600000000003,0.06789490264733772
269,2175.6600000000003,0.0674244993748331
270,2185.7,0.07091802424923845
271,2187.7616199999998,0.07125417661233677
272,2195.79,0.07256750011609696
273,2205.9300000000003,0.07059518578742696
274,2216.11,0.06381133090913697
275,2226.34,0.06529680784382198
276,2236.61,0.074093904228887
277,2246.94,0.070938074789522
278,2257.31,0.063398424800537
279,2262.51,0.062537633349937
280,2272.96,0.06503992226171201
281,2283.45,0.07296928062386702
282,2293.99,0.06581605079899704
283,2304.58,0.07052439278710203
284,2315.21,0.06479283422558704
285,2325.9,0.052709449839642056
286,2336.6400000000003,0.05634818726667207
287,2347.42,0.05002203414408207
288,2352.83,0.062212732307977074
289,2363.69,0.05084741808614709
290,2374.6,0.05536435567729209
291,2385.56,0.0466240650814121
292,2396.58,0.05111422866110211
293,2407.64,0.04973738169117212
294,2413.19,0.05231623293139712
295,2424.33,0.06477452486222714
296,2435.52,0.06360959860603213
297,2446.76,0.07070794416281215
298,2452.4,0.07219151666639215
299,2463.7200000000003,0.06632715112393216
300,2475.09,0.061502667394447166
301,2486.52,0.051793967840532175
302,2492.25,0.05348948160746718
303,2503.75,0.06760649859171719
304,2511.88643,0.05376267345415604
305,2515.31,0.04793647785399284
306,2526.92,0.04569161625130379
307,2532.74,0.05439022407837957
308,2544.43,0.055025845160598774
309,2556.1800000000003,0.07764704075649918
310,2562.07,0.06492425218286968
311,2573.9,0.07625175046367834
312,2585.7799999999997,0.07086335417255465
313,2597.7099999999996,0.06661586330949863
314,2603.7,0.06091801559200446
315,2615.7200000000003,0.057663196499470236
316,2627.79,0.06834599283500367
317,2633.85,0.09848095871680422
318,2646.0099999999998,0.12365369682285944
319,2652.1099999999997,0.16445943904711413
320,2664.35,0.11153691983807759
321,2676.6499999999996,0.12342159514272227
322,2682.82,0.14039813096627168
323,2695.2,0.10656779895582462
324,2707.64,0.12751806145905875
325,2713.88,0.09768249088190287
326,2726.4100000000003,0.08055489515565878
327,2732.69,0.09770929092095705
328,2745.3100000000004,0.06598615696523474
329,2757.98,0.08096089843758011
330,2764.34,0.09956497688778664
331,2777.1,0.10498761013065379
332,2783.5,0.07270292492331444
333,2796.3500000000004,0.04440106993670339
334,2802.79,0.049913141071818164
335,2815.73,0.0947257778557289
336,2822.22,0.12655438441891134
337,2835.2500000000005,0.11786969297334388
338,2841.7799999999997,0.08804276587898044
339,2854.9,0.060981496203934754
340,2868.08,0.11524509104257027
341,2874.6899999999996,0.15505068663311508
342,2884.0315,0.14686324315228927
343,2887.96,0.14342042510754505
344,2894.62,0.17561031264460372
345,2907.98,0.23469858764386856
346,2928.13,0.20543724993692142
347,2948.4300000000003,0.18873561194927746
348,2968.8700000000003,0.19496897369964972
349,2989.4500000000003,0.1981911351880382
350,3010.1699999999996,0.19599019641444296
351,3031.04,0.2115075573601508
352,3052.05,0.22052501804387495
353,3073.2,0.24297397846561533
354,3087.39,0.23531855191169077
355,3108.79,0.27652561186560304
356,3130.3399999999997,0.2540388715388184
357,3152.04,0.2558789309313369
358,3166.59,0.28255780370373984
359,3188.5400000000004,0.2445068626284302
360,3210.6400000000003,0.26940482127242366
361,3232.89,0.22887427963572027
362,3247.81,0.3232894517157376
363,3270.3300000000004,0.3781750095737798
364,3293.0,0.37225476715112515
365,3308.1899999999996,0.3451087387258881
366,3311.31121,0.3405691812878789
367,3323.4599999999996,0.32289929829513103
368,3331.13,0.3404924239216928
369,3338.81,0.3084465491905317
370,3346.5,0.3517227741016477
371,3354.22,0.3429614979395952
372,3361.9500000000003,0.25905142141981974
373,3369.7,0.32312434418459857
374,3377.4700000000003,0.30791156623393173
375,3385.25,0.31439358792554195
376,3393.06,0.35276780854398354
377,3400.88,0.38772172880470235
378,3408.7200000000003,0.34961274834997536
379,3416.5800000000004,0.3138102671798027
380,3424.45,0.39415558565190717
381,3432.35,0.415630903050843
382,3440.2599999999998,0.357923620092056
383,3448.19,0.2863472364178232
384,3456.14,0.3482475520281448
385,3464.11,0.2971552669230205
386,3472.0899999999997,0.38368808146017347
387,3480.1,0.29997689492415774
388,3488.12,0.3492184080304192
389,3496.16,0.32223412042123495
390,3504.2200000000003,0.404732532096605
391,3512.2999999999997,0.3708851430565292
392,3520.39,0.4085756536587306
393,3528.51,0.2687961631877634
394,3536.64,0.38228507235907333
395,3544.8,0.41249968045721463
396,3552.97,0.4202113881976331
397,3561.16,0.3797861952226058
398,3569.37,0.28817220153213285
399,3577.6000000000004,0.33547930712621415
400,3585.84,0.23758681236257254
401,3594.1099999999997,0.3309624165257623
402,3602.39,0.45369682033122927
403,3610.7,0.33180992306352763
404,3619.02,0.4082181254381031
405,3627.36,0.4394752270972328
406,3635.73,0.324372927683194
407,3644.1099999999997,0.4920615279114322
408,3652.5099999999998,0.36151922742422476
409,3660.93,0.5334756262215716
410,3669.3700000000003,0.5002385243034726
411,3677.82,0.5166824220276509
412,3686.3,0.4659058186786605
413,3694.7999999999997,0.5191977146142244
414,3703.32,0.5500125098343426
415,3711.86,0.354415704339015
416,3720.4100000000003,0.4650638984859645
417,3728.99,0.44521819155974546
418,3737.59,0.2397534839180807
419,3746.2000000000003,0.40616527591869306
420,3754.8399999999997,0.34656866684613685
421,3763.49,0.36968535741585773
422,3772.17,0.38359214691241006
423,3780.8599999999997,0.48404973605123947
424,3789.5800000000004,0.44766512411690035
425,3798.32,0.3724279114671154
426,3798.9,0.48583869071918917
427,3800.62,0.4887874291908562
428,3801.8939600000003,0.49093610493862594
429,3802.35,0.4917052707039319
430,3804.0800000000004,0.5142565217125727
431,3805.81,0.5730513727212136
432,3807.54,0.5789784237298545
433,3809.27,0.45742667473849535
434,3811.0,0.4774520257471362
435,3812.7299999999996,0.507650476755777
436,3814.46,0.4535832277644179
437,3816.19,0.3596839787730588
438,3817.92,0.37499312978169963
439,3819.65,0.38487658079034054
440,3821.3799999999997,0.35365043179898137
441,3823.11,0.3730277828076222
442,3824.8399999999997,0.35797743381626307
443,3826.57,0.3599779848249039
444,3828.3,0.3288279358335448
445,3830.0299999999997,0.27030998684218566
446,3831.76,0.2691952378508265
447,3833.49,0.27994778885946736
448,3835.22,0.27680133986810823
449,3836.9399999999996,0.2880511911599361
450,3838.67,0.395676742168577
451,3840.4,0.40362709317721784
452,3842.13,0.3571666441858587
453,3843.86,0.35507019519449956
454,3845.5899999999997,0.4274172462031404
455,3847.32,0.3968391972117813
456,3849.05,0.3578823482204222
457,3850.7799999999997,0.43896079922906306
458,3852.51,0.3691107502377039
459,3854.24,0.3103446012463448
460,3855.9700000000003,0.32188845225498564
461,3857.7,0.3536767032636265
462,3859.43,0.42009665427226733
463,3861.1600000000003,0.39339610528090824
464,3862.89,0.37720195628954906
465,3864.6200000000003,0.37084470729818997
466,3866.35,0.37949865830683077
467,3868.08,0.39148110931547164
468,3869.8100000000004,0.3597287603241125
469,3871.54,0.34318181133275333
470,3873.26,0.3523523626245813
471,3874.99,0.33178281363322215
472,3876.7200000000003,0.35560226464186295
473,3878.45,0.33630051565050384
474,3880.18,0.3434216666591447
475,3881.9100000000003,0.38971771766778557
476,3883.64,0.4470061686764264
477,3885.3700000000003,0.4844942196850673
478,3887.1,0.38728717069370816
479,3888.83,0.420352521702349
480,3890.56,0.5273982727109899
481,3892.29,0.4605771237196307
482,3894.0200000000004,0.4861143747282716
483,3895.75,0.5305060257369125
484,3897.48,0.45408617674555335
485,3899.21,0.4338123277541942
486,3900.94,0.519618178762835
487,3902.6699999999996,0.5077422297714759
488,3904.4,0.4866177807801168
489,3906.1299999999997,0.4663059317887577
490,3907.86,0.4904679827973985
491,3909.5800000000004,0.5356248340892265
492,3911.31,0.5709421850978672
493,3913.04,0.48515193610650814
494,3914.77,0.432173587115149
495,3916.5,0.45348593812378984
496,3918.2299999999996,0.4594347891324307
497,3919.96,0.40941884014107155
498,3921.69,0.3804802911497124
499,3923.42,0.36916454215835326
500,3925.15,0.32536539316699414
501,3926.8799999999997,0.349968244175635
502,3928.61,0.26807749518427587
503,3930.34,0.21431714619291672
504,3932.0699999999997,0.2409679972015576
505,3933.8,0.22444944821019844
506,3935.5299999999997,0.2703357992188393
507,3937.26,0.34854665022748016
508,3938.99,0.36856280123612106
509,3940.72,0.5252222522447618
510,3942.4500000000003,0.5583279032534028
511,3944.18,0.4683630542620436
512,3945.9,0.4559174055538715
513,3947.6299999999997,0.4776681565625124
514,3949.36,0.5103068075711532
515,3951.0899999999997,0.4714717585797941
516,3952.82,0.476715209588435
517,3954.55,0.49806556059707585
518,3956.2799999999997,0.4450397116057167
519,3958.01,0.4076747626143576
520,3959.74,0.35886951362299846
521,3961.4700000000003,0.27346286463163927
522,3963.2000000000003,0.26422551564028013
523,3964.93,0.26220516664892096
524,3966.6600000000003,0.25532221765756186
525,3968.39,0.2835946686662027
526,3970.12,0.35716181967484356
527,3971.85,0.4825277706834844
528,3973.58,0.5176160216921254
529,3975.3100000000004,0.48839887270076615
530,3977.04,0.507006223709407
531,3978.77,0.5976921747180479
532,3980.5,0.6379471257266887
533,3982.2200000000003,0.6226875770185166
534,3983.95,0.6323542280271576
535,3985.68,0.6442959790357984
536,3987.4100000000003,0.6497209300444392
537,3989.14,0.62093528105308
538,3990.8700000000003,0.6281872320617209
539,3992.6,0.6726171830703618
540,3994.33,0.7058916340790027
541,3996.06,0.6896503850876435
542,3997.79,0.6762462360962843
543,3999.5199999999995,0.6881624871049252
544,4001.25,0.7018008381135661
545,4002.98,0.688047289122207
546,4004.71,0.6805469401308478
547,4006.44,0.6973116911394888
548,4008.1699999999996,0.7180356421481295
549,4009.9,0.7331798931567705
550,4011.63,0.7567635441654113
551,4013.36,0.7729846951740522
552,4015.09,0.7867979461826929
553,4016.8199999999997,0.8167832971913339
554,4018.55,0.7899330481999747
555,4020.2700000000004,0.7416775994918027
556,4022.0,0.7542863505004435
557,4023.73,0.7846187015090844
558,4025.46,0.7596233525177252
559,4027.19,0.6962556035263662
560,4028.9199999999996,0.6805733545350069
561,4030.65,0.6718242055436477
562,4032.3799999999997,0.6830223565522887
563,4034.11,0.7318181075609295
564,4035.84,0.7636087585695704
565,4037.5699999999997,0.7492322095782112
566,4039.3,0.7348591605868521
567,4041.0299999999997,0.753749511595493
568,4042.76,0.7046513626041339
569,4044.4900000000002,0.7022186136127746
570,4046.22,0.7407864646214156
571,4047.9500000000003,0.7338832156300564
572,4049.68,0.7459521666386973
573,4051.41,0.7493468176473381
574,4053.14,0.7163352686559791
