,lambda (Angstroms),Total Flux (erg/s/cm^2/Angstrom)
0,100.09,88.12009595446709
1,101.94999999999999,87.87494651543389
2,104.09,87.59289285971256
3,104.712855,87.51080008886127
4,106.02000000000001,86.60582414091236
5,107.99,85.24193366414579
6,110.0,83.85034998061133
7,114.13,80.99102629182171
8,117.87,78.4017113784924
9,120.22644299999999,76.7702747625318
10,120.89000000000001,76.38511563975972
11,125.14000000000001,73.91821937730197
12,126.88,72.90824302769154
13,128.06,72.22331653725526
14,131.04,70.49358692821615
15,131.95,69.96538091575063
16,134.09,68.72322609854825
17,136.9,67.09217236236948
18,138.038426,66.43137734815025
19,140.09,65.58019277173204
20,143.02,64.36455518716961
21,147.03,62.700832904518826
22,151.15,60.99147213462249
23,155.02,59.38583478366979
24,158.489319,57.94643737012869
25,159.0,57.786253609725534
26,161.95999999999998,56.85779942696759
27,166.11,55.55608163692352
28,169.98,54.34219066963932
29,173.14,53.351003255225756
30,177.17,52.08692572757107
31,180.05,51.18356520850234
32,181.970086,50.581297904745654
33,182.14000000000001,50.540637858201784
34,185.95000000000002,49.628913365505404
35,191.16,48.38217209388135
36,193.82,47.74564035306904
37,197.88,46.77409178702105
38,202.02,45.78339960509001
39,204.83,45.11097347774913
40,208.929613,44.129945710425986
41,210.09,43.921183601173084
42,215.97000000000003,42.86333030375254
43,219.99,42.140104015764216
44,223.04999999999998,41.589588384546374
45,227.19,40.84477373828048
46,229.82,40.37163195748559
47,234.1,39.60165938115921
48,239.88329199999998,38.56122683064624
49,240.1,38.53118374738843
50,246.26,37.67717738188448
51,252.0,36.88140941422398
52,257.27,36.1507741897383
53,260.25,35.73765512204905
54,263.87,35.23579852429835
55,268.78,34.5550949412785
56,273.78,33.86191352764217
57,275.42287,33.6341523080087
58,278.87,33.2673895435067
59,284.05,32.71625549379488
60,290.0,32.083188463655624
61,296.07,31.437366650884822
62,300.88,30.92559557469527
63,307.89,30.179761313527344
64,316.227766,29.292659140693885
65,317.98,29.15341552765084
66,327.64,28.385766769142787
67,338.37,27.533084268868617
68,347.85,26.779738190438966
69,356.78000000000003,26.07009949854891
70,363.078055,25.569613812538154
71,365.93,25.399890458467393
72,375.32000000000005,24.841074066885728
73,384.94,24.26855826939291
74,394.82000000000005,23.680594755057033
75,404.95000000000005,23.07774164032207
76,414.38000000000005,22.516541422564554
77,416.86938299999997,22.368392467726576
78,422.08000000000004,22.131586288530904
79,429.93,21.77482852438837
80,440.96000000000004,21.273554705003246
81,451.23,20.806813474323892
82,459.62,20.4255122093062
83,470.32,19.939227541917
84,478.630092,19.56156146232231
85,480.16999999999996,19.507738310415924
86,490.22999999999996,19.15610883209207
87,500.49,18.7974995555057
88,506.29,18.594793548493136
89,512.15,18.390147062181825
90,520.47,18.09935046832173
91,530.15,17.761018775256627
92,540.0,17.416712729628397
93,549.5408739999999,17.083336213572508
94,550.04,17.07003326359681
95,560.27,16.797365110194427
96,569.37,16.55480480693326
97,579.96,16.272415470742516
98,589.38,16.021382587113926
99,600.3399999999999,15.729165410779602
100,610.09,15.469289320428349
101,620.01,15.205002223038155
102,630.0799999999999,14.936596508319482
103,630.957344,14.913207163313311
104,640.32,14.715348569533997
105,650.72,14.495701596126741
106,658.26,14.33641878443148
107,664.3499999999999,14.207823742869927
108,675.1400000000001,13.979824440047388
109,684.54,13.781124218525447
110,695.6600000000001,13.546588240120762
111,705.34,13.341881861710931
112,716.8,13.10017179158524
113,724.43596,12.938890105156316
114,726.7700000000001,12.902306745733041
115,735.18,12.770507369233062
116,745.41,12.610408812334754
117,755.7800000000001,12.447972376713498
118,764.53,12.31091936102922
119,775.1700000000001,12.144444507085131
120,784.15,12.003948163570293
121,795.0500000000001,11.833234700426443
122,804.26,11.68902783408105
123,815.45,11.513739212368236
124,824.8900000000001,11.36625926419228
125,831.763771,11.257763604045927
126,834.44,11.226126083066008
127,844.11,11.114181483751729
128,855.8499999999999,10.97685192647669
129,865.76,10.86127945622493
130,875.7800000000001,10.74444835883516
131,885.9200000000001,10.626334676476647
132,894.12,10.530816525279432
133,904.48,10.409562790644898
134,914.95,10.292327562872353
135,925.54,10.25796488713107
136,934.1099999999999,10.286679787196906
137,944.9200000000001,10.384898885179595
138,954.992586,10.441616568617057
139,955.87,10.446779483815488
140,964.71,10.468020861574823
141,975.88,9.714040767182492
142,984.91,10.20996196867195
143,994.0200000000001,10.122846659100404
144,1005.5300000000001,10.269556417698816
145,1014.84,10.099814880474769
146,1024.23,9.419319432189717
147,1036.0900000000001,9.605647392396245
148,1045.6699999999998,10.106573367841323
149,1055.3500000000001,9.99251302946014
150,1065.12,9.655221928635335
151,1074.97,9.736893816749525
152,1084.92,9.397699191037464
153,1094.96,9.578569802881777
154,1096.4782,9.555064657211506
155,1105.09,9.43964591769765
156,1115.31,9.32223508730214
157,1125.6299999999999,9.117731728233485
158,1136.05,9.287933840491686
159,1143.9199999999998,9.096568933915108
160,1154.51,9.077568847428958
161,1165.19,9.03819018513698
162,1175.97,8.540877994171856
163,1184.1200000000001,8.819407407310466
164,1195.08,8.31402106473368
165,1206.14,7.951010793483746
166,1214.5,7.541828596408752
167,1225.74,7.9644751735471555
168,1234.23,8.375752589197074
169,1245.6499999999999,8.430851414723817
170,1254.2900000000002,8.30849113736401
171,1258.92541,8.188469852447003
172,1265.89,8.026928093787165
173,1274.67,8.330990905723143
174,1286.46,8.335861509678175
175,1295.3799999999999,7.969712637522017
176,1304.36,7.895302900754942
177,1316.43,8.1351301365257
178,1325.55,8.014943715666487
179,1334.74,7.798333452761208
180,1343.99,7.989657325245011
181,1356.43,7.86298039591512
182,1365.8300000000002,7.644171606871634
183,1375.3000000000002,7.6569969757820795
184,1384.83,7.626284480081611
185,1394.43,7.361062142335071
186,1404.1000000000001,7.3606909625424635
187,1413.8300000000002,7.3464809181389406
188,1423.6299999999999,7.31293503168935
189,1433.5,7.246826303193689
190,1443.43,7.267521710087113
191,1445.43977,7.269534204498837
192,1446.76,7.273526573477306
193,1453.44,7.20813787839698
194,1463.51,7.050307580573794
195,1473.66,7.00283927442629
196,1483.87,6.983175462035554
197,1494.1599999999999,6.963592641320501
198,1504.52,6.84658156332167
199,1511.46,6.659563341187319
200,1518.44,6.719529114890809
201,1525.4499999999998,6.652811635472684
202,1536.02,6.4305317856225255
203,1546.67,6.498523927448053
204,1553.81,6.391302684502914
205,1564.5800000000002,6.372235813841968
206,1575.4199999999998,6.419222685897249
207,1586.34,6.432802549628212
208,1593.66,6.445751787953362
209,1604.71,6.350829888157315
210,1615.8300000000002,6.306551731077489
211,1623.29,6.199105454835088
212,1634.54,6.238752534228253
213,1645.8700000000001,6.213726605297099
214,1653.47,6.0654778144871475
215,1659.58691,6.11215170997892
216,1664.93,6.160405370237408
217,1672.62,5.9718954650700375
218,1676.4699999999998,6.134930140636438
219,1684.2099999999998,6.17226551696993
220,1695.8899999999999,6.042788875571376
221,1703.71,5.961429302306248
222,1715.5200000000002,5.861330992809934
223,1723.44,5.831607982546531
224,1735.39,5.889310261252633
225,1743.3999999999999,5.827544557690784
226,1755.48,5.8885151682991275
227,1763.59,5.726697027739001
228,1775.81,5.74110022654976
229,1784.01,5.738167392691185
230,1796.37,5.796505179704358
231,1804.6599999999999,5.756717652547336
232,1812.9899999999998,5.627293150591004
233,1825.56,5.6141963199077995
234,1833.99,5.534819380953191
235,1846.7,5.372444138472402
236,1855.23,5.362800762519519
237,1863.79,5.379626155467154
238,1876.71,5.4425652952899854
239,1885.3700000000001,5.301387251239344
240,1894.07,5.221019232389395
241,1902.8200000000002,5.270801495040305
242,1905.46072,5.253840236554462
243,1916.01,5.195311659924035
244,1924.85,5.1445609597124315
245,1933.7299999999998,5.156496278956884
246,1947.1399999999999,5.208725801599688
247,1956.13,5.095253174348294
248,1965.1499999999999,5.201293561688943
249,1974.2299999999998,5.220101978213675
250,1983.3400000000001,5.117838409330449
251,1997.08,5.0461290924857165
252,2006.3,5.058845577106646
253,2015.5600000000002,5.00178108118363
254,2024.87,5.034061609580686
255,2034.2099999999998,4.953239152569783
256,2043.6000000000001,4.98120071987895
257,2053.04,4.881469311508188
258,2067.27,4.866305233000142
259,2072.03,4.964961548270816
260,2076.81,4.90149287326952
261,2086.4,4.926436537858967
262,2096.03,4.828000221904471
263,2105.7000000000003,4.816419925406031
264,2115.42,4.812768653227661
265,2125.1800000000003,4.809250400505347
266,2134.99,4.684841172103104
267,2144.85,4.70316296802093
268,2154.75,4.730358783394813
269,2164.69,4.6555516182247505
270,2174.69,4.623844482238773
271,2184.72,4.5920793608448385
272,2187.7616199999998,4.604784200889702
273,2194.81,4.63969570004055
274,2204.94,4.580009784284297
275,2215.12,4.491355699151163
276,2225.34,4.441656678516523
277,2235.61,4.526315488505002
278,2245.93,4.448831129116599
279,2256.3,4.372874600351315
280,2266.71,4.380585136084525
281,2277.18,4.403494268565477
282,2282.43,4.436266483992888
283,2292.96,4.332455213221581
284,2303.54,4.332766773073393
285,2314.1800000000003,4.260504929672946
286,2324.86,3.9859881507709947
287,2335.5899999999997,4.138106202492162
288,2346.3700000000003,4.064016084836445
289,2357.2000000000003,4.159621797803847
290,2362.63,4.036591803474485
291,2373.54,4.063963645438877
292,2384.5,3.942994318026387
293,2395.5,4.000593055112391
294,2406.56,3.940200388946138
295,2417.67,3.9468835534030022
296,2423.2400000000002,4.02365128481837
297,2434.43,3.9577525782722245
298,2445.66,4.009808936224573
299,2456.95,3.9735348909246637
300,2462.62,3.953625283586267
301,2473.98,3.8843526011587226
302,2485.4,3.88156451547892
303,2496.87,3.7847362604222363
304,2502.63,3.9273265482054525
305,2511.88643,3.7897037693524
306,2514.18,3.7565525612550443
307,2519.98,3.768045104868985
308,2525.79,3.7168505528684674
309,2537.44,3.723817162024055
310,2543.2900000000004,3.7069642275657024
311,2555.0299999999997,3.7851209761911626
312,2566.83,3.7340381511298695
313,2572.7400000000002,3.796023642984764
314,2584.6200000000003,3.767386053007802
315,2596.55,3.732140984958546
316,2602.53,3.6788968075122295
317,2614.5499999999997,3.6444608789328456
318,2626.62,3.6936854722811674
319,2632.6699999999996,3.7398676255336403
320,2644.82,3.8491594539662923
321,2657.03,3.8824647087121917
322,2663.16,3.7319600970489946
323,2675.45,3.773228586879225
324,2687.8,3.7755365030227024
325,2693.99,3.6821433176727534
326,2706.4300000000003,3.711944373286102
327,2712.6699999999996,3.6205497098638597
328,2725.19,3.5911440005615383
329,2737.77,3.6434417175724656
330,2744.08,3.4516643848490114
331,2756.75,3.4760172413298096
332,2763.1,3.526198526148521
333,2775.8500000000004,3.5670256177136492
334,2782.25,3.462666424460067
335,2795.1,3.198918559880609
336,2808.0,3.2532362172288565
337,2814.4700000000003,3.5006403546740628
338,2827.46,3.5638301514921826
339,2833.98,3.5133818108650954
340,2847.06,3.4454647471530864
341,2853.62,3.3621960240681643
342,2866.79,3.4993510998260264
343,2873.3999999999996,3.5121768986688116
344,2884.0315,3.4899125344388584
345,2886.67,3.4853245314080032
346,2893.3199999999997,3.48988182908435
347,2906.68,3.607521169979988
348,2926.82,3.524306757228352
349,2947.11,3.479710208334078
350,2967.54,3.4865200657066744
351,2988.11,3.4710183293461405
352,3008.8199999999997,3.470472999252478
353,3029.6800000000003,3.458512533016175
354,3050.68,3.446554473046745
355,3071.83,3.441941276934674
356,3093.12,3.425944487089475
357,3107.4,3.427883926310261
358,3128.94,3.38108257622733
359,3150.62,3.3647526324112693
360,3172.4599999999996,3.3672610100430616
361,3187.11,3.271236380112005
362,3209.2,3.306305197506065
363,3231.44,3.208416878757487
364,3246.3599999999997,3.3174626037696813
365,3268.86,3.3674901823738614
366,3291.52,3.3341040824258945
367,3306.71,3.308016162381339
368,3311.31121,3.298952875703627
369,3321.98,3.28059621719114
370,3329.64,3.34738635340692
371,3337.31,3.29766743888669
372,3345.0,3.2686284228944382
373,3352.7200000000003,3.224503254694154
374,3360.44,3.27780908649387
375,3368.1899999999996,3.264604766085554
376,3375.96,3.101059344205216
377,3383.7400000000002,3.1137158715888678
378,3391.54,3.268417297500498
379,3399.35,3.3156856726761177
380,3407.19,3.1987938956437043
381,3415.05,3.22451101713927
382,3422.92,3.324190087898825
383,3430.8100000000004,3.2695020571863584
384,3438.7200000000003,3.280235925001871
385,3446.6400000000003,3.060141742081372
386,3454.59,3.232913406952841
387,3462.5499999999997,3.0929520210883004
388,3470.54,3.1746024830157262
389,3478.54,3.034847894207142
390,3486.5600000000004,3.1405272039265357
391,3494.59,3.100827462909919
392,3502.65,3.20382856968527
393,3510.72,3.162608625724611
394,3518.8199999999997,3.103178529555919
395,3526.93,3.075046382651217
396,3535.06,3.1696161342744924
397,3543.21,3.257616784425747
398,3551.37,3.2436003838409913
399,3559.56,3.1968908310482025
400,3567.77,3.158909176783393
401,3575.99,3.0082124717825725
402,3584.23,2.9208706653097303
403,3592.5,2.957383706628856
404,3593.6400000000003,2.5993359227236326
405,3596.33,3.2878182747367464
406,3599.02,3.11791862674986
407,3601.71,2.856579978762973
408,3604.3999999999996,3.470759330776087
409,3607.09,3.6279706827892
410,3609.78,2.8131650348023136
411,3612.47,3.195468386815427
412,3615.16,2.9883027388285406
413,3617.8500000000004,2.6900430908416535
414,3620.54,3.1318104428547673
415,3623.23,3.2587727948678813
416,3625.92,3.1537441468809946
417,3628.6099999999997,2.743686498894108
418,3631.3,2.8016378509072215
419,3633.9900000000002,3.0958372029203347
420,3636.68,2.4171555549334487
421,3639.37,2.5646489069465623
422,3642.06,3.160769258959675
423,3644.75,2.644436610972789
424,3647.44,2.8016479629859026
425,3650.1299999999997,3.0891763149990163
426,3652.82,2.8470456670121296
427,3655.51,2.6325190190252425
428,3658.2,2.6617163710383567
429,3660.89,2.2751003230514697
430,3663.5800000000004,2.8637680750645824
431,3666.27,3.184765427077697
432,3668.96,3.2167227790908104
433,3671.65,3.6004051311039236
434,3674.3399999999997,3.0890184831170373
435,3677.03,2.4622218351301504
436,3679.7200000000003,3.085417187143264
437,3682.41,2.4430135391563774
438,3685.0899999999997,3.190639941905502
439,3687.7799999999997,3.6596682939186156
440,3690.4700000000003,2.6264386459317284
441,3693.16,3.0614219979448425
442,3695.85,3.2037963499579556
443,3698.54,3.148110701971069
444,3701.23,3.6265700539841825
445,3703.92,3.031216405997296
446,3706.61,3.81976575801041
447,3709.2999999999997,3.4075221100235233
448,3711.9900000000002,2.8900364620366363
449,3714.6800000000003,2.5725678140497497
450,3717.37,2.9889171660628637
451,3720.06,2.636943518075977
452,3722.75,2.8074978700890902
453,3725.44,3.301600222102204
454,3728.13,4.738162574115317
455,3730.82,4.904460926128431
456,3733.5099999999998,4.927447278141544
457,3736.2000000000003,3.8299236301546573
458,3738.8900000000003,3.0036139821677708
459,3741.58,2.8935243341808845
460,3744.27,3.404303686193998
461,3746.9599999999996,3.811106038207112
462,3749.65,3.7799183902202254
463,3752.34,2.6917117422333385
464,3755.0299999999997,3.3295860942464524
465,3757.72,2.731818446259566
466,3760.4100000000003,3.702210798272679
467,3763.1,3.9085351502857923
468,3765.79,3.9200195022989064
469,3768.48,3.9872878543120196
470,3771.1699999999996,3.773682206325133
471,3773.86,3.342690558338246
472,3776.55,3.5753549103513595
473,3779.24,4.1838992623644735
474,3781.93,4.099342614377587
475,3784.6200000000003,3.1871159663907003
476,3787.31,4.225827318403814
477,3790.0,3.5728516704169273
478,3792.69,3.858079022430041
479,3795.3799999999997,3.676908374443154
480,3798.07,3.6779257264562677
481,3800.76,4.227350078469382
482,3801.8939600000003,3.8093489642569303
483,3803.45,3.2360334989601425
484,3806.14,3.615012917375709
485,3808.8300000000004,3.889210335791275
486,3811.52,4.238284754206842
487,3814.21,3.907947172622408
488,3816.8999999999996,3.9410675910379753
489,3819.59,3.6031380094535415
490,3822.28,3.511003427869108
491,3824.97,4.3046228462846745
492,3827.66,4.379264264700241
493,3830.3500000000004,3.389182683115807
494,3833.04,3.102897101531374
495,3835.73,3.2543705199469404
496,3838.42,3.6617589383625067
497,3841.1099999999997,3.3401623567780736
498,3843.8,3.3148527751936396
499,3846.4900000000002,3.473687193609206
500,3849.18,3.6685226120247725
501,3851.87,3.5820230304403387
502,3854.5600000000004,3.9389184488559055
503,3857.25,3.992625867271472
504,3859.94,4.1182202856870385
505,3862.63,4.140988704102605
506,3865.3199999999997,4.053109122518172
507,3868.01,4.268301540933738
508,3870.7000000000003,4.117622959349305
509,3873.38,4.466487673607192
510,3876.0699999999997,4.381368092022759
511,3878.7599999999998,3.857797510438325
512,3881.4500000000003,3.9623439288538913
513,3884.14,3.4439503472694586
514,3886.83,3.6353357656850243
515,3889.52,3.7865791841005914
516,3892.21,3.8392526025161575
517,3894.9,3.975084020931724
518,3897.59,3.80485043934729
519,3900.2799999999997,3.6555508577628575
520,3902.9700000000003,3.8159962761784234
521,3905.6600000000003,3.96298469459399
522,3908.35,3.7853901130095564
523,3911.04,3.7905605314251227
524,3913.7300000000005,3.9985079498406897
525,3916.42,4.346203368256256
526,3919.11,4.218641786671823
527,3921.7999999999997,3.4628502050873893
528,3924.49,3.6006366235029557
529,3927.1800000000003,3.7395740419185217
530,3929.87,3.8902414603340887
531,3932.56,3.468233878749655
532,3935.25,3.4936472971652215
533,3937.9399999999996,3.9202447155807882
534,3940.63,4.086326133996355
535,3943.32,4.617129552411921
536,3946.0099999999998,4.416416970827488
537,3948.7,4.037886389243054
538,3951.3900000000003,4.3952428076586205
539,3954.08,4.184408226074186
540,3956.77,4.260429644489753
541,3959.46,3.9909360629053197
542,3962.1499999999996,3.770096481320887
543,3964.84,3.644144899736453
544,3967.53,3.2005143181520195
545,3970.22,3.138398736567586
546,3972.91,2.9556291549831526
547,3975.6000000000004,3.0631655733987184
548,3978.29,3.415920991814285
549,3980.98,3.316195410229852
550,3983.67,3.458926828645418
551,3986.36,4.2249422470609845
552,3989.05,4.2403496654765505
553,3991.74,4.326147083892118
554,3994.43,4.364788502307684
555,3997.12,4.370877920723251
556,3999.81,4.359600339138817
557,4002.5,4.423775757554384
558,4005.19,4.41698317596995
559,4007.8799999999997,4.162903594385517
560,4010.57,4.436180012801083
561,4013.26,4.49011843121665
562,4015.95,4.249149849632216
563,4018.64,4.238562268047783
564,4021.3300000000004,4.615356686463349
565,4024.02,4.367717104878915
566,4026.71,4.157573523294482
567,4029.4,4.351947941710049
568,4032.0899999999997,4.157446360125615
569,4034.78,4.0804937785411814
570,4037.4700000000003,4.102917196956748
571,4040.16,4.236217615372315
572,4042.85,4.251739033787881
573,4045.5400000000004,4.1647804522034475
574,4048.23,4.211701870619014
575,4050.92,4.24769728903458
576,4053.61,4.322107707450147
577,4056.2999999999997,4.256887125865713
578,4058.9900000000002,4.530969544281279
579,4061.68,4.612510962696846
580,4064.37,4.594677381112413
581,4067.0499999999997,4.5060140953703005
582,4069.7400000000002,4.123341513785867
583,4072.4300000000003,4.804935932201434
584,4075.12,4.441126350617
585,4077.81,4.149893769032566
586,4080.5000000000005,4.045337187448133
587,4083.19,4.171276605863699
588,4085.88,4.104906024279266
589,4088.57,3.9922964426948324
590,4091.2599999999998,4.309396861110399
591,4093.9500000000003,3.8561042795259652
592,4096.639999999999,3.426963697941532
593,4099.33,3.9229181163570983
594,4102.02,3.7450935347726646
595,4104.71,3.7457789531882315
596,4107.4,3.6948203716037975
597,4110.09,3.9473947900193638
598,4112.78,3.772331208434931
599,4115.47,4.468876626850498
600,4118.16,4.463465045266064
601,4120.849999999999,4.16705746368163
