,lambda (Angstroms),Total Flux (erg/s/cm^2/Angstrom)
0,100.07000000000001,0.00036484071902803916
1,101.93,0.00043861512281511523
2,104.07,0.0005234082984593851
3,104.712855,0.0005489173224848092
4,106.0,0.0005067291055976387
5,107.97,0.00044228603059827154
6,109.98,0.00037700338073089646
7,114.11,0.00024224377485912657
8,118.11999999999999,0.00011161236859137922
9,120.22644299999999,5.468007258197206e-05
10,120.87,5.75149708293578e-05
11,125.11,5.629755115106098e-05
12,126.85,5.583568897175993e-05
13,128.03,5.573477071223392e-05
14,131.01,5.432376985343097e-05
15,131.92000000000002,5.920504348379647e-05
16,134.06,5.848022850465612e-05
17,136.87,6.534660883578487e-05
18,138.038426,6.529713118530983e-05
19,140.06,6.818555970312488e-05
20,142.98999999999998,0.00017695758087636328
21,147.0,0.00043718730360833803
22,151.10999999999999,0.00046349934037352914
23,154.99,0.0004958475648623226
24,158.489319,0.0005284190489696593
25,158.97000000000003,0.0005328793144082305
26,161.92000000000002,0.0005586519899877985
27,166.08,0.0006045238331779693
28,169.94,0.0006382488025803872
29,173.1,0.0006692614998113824
30,177.14000000000001,0.000704908273486452
31,180.01,0.0007326463693892861
32,181.970086,0.0007531355929348153
33,182.1,0.0007545078239929442
34,185.91,0.0007917356851933249
35,191.12,0.0008422871287245543
36,193.78,0.0008777459651531666
37,197.84,0.0009146730839126275
38,201.98000000000002,0.000959837333090994
39,204.79000000000002,0.0009911408640550542
40,208.929613,0.0009948347461891764
41,210.04,0.0009959755747627605
42,215.93,0.001102382005825867
43,219.94,0.001149388503204994
44,223.0,0.0011684053665416843
45,227.14999999999998,0.001220879504727065
46,229.77999999999997,0.0018518938284445474
47,234.04999999999998,0.0031604343730352886
48,239.88329199999998,0.003823735401078769
49,240.04999999999998,0.003842642524684246
50,246.21,0.003610784898570598
51,251.95,0.003788222224237426
52,257.21999999999997,0.0031812651626109767
53,260.2,0.0036339351714066476
54,263.82,0.003786750920346354
55,268.72,0.003751471149574134
56,273.72,0.0036995040569494197
57,275.42287,0.003687951277583505
58,278.81,0.0036659049523591826
59,283.99,0.003633043700302054
60,289.94,0.0034232659648310284
61,296.01,0.003447817296879915
62,300.82,0.0033781664199697245
63,307.83000000000004,0.003371330447591256
64,316.227766,0.003365925778418781
65,317.91,0.003364428602656053
66,328.33,0.0032871540566532646
67,338.3,0.0031897813912360085
68,347.78000000000003,0.003080742773567444
69,356.7,0.003002926496183099
70,363.078055,0.0029594196301225995
71,365.85,0.002941025416230099
72,375.24,0.002855194893737702
73,384.86,0.0026844930719723283
74,394.74,0.002679094390159242
75,404.86,0.0026131632221482667
76,414.29,0.0025372369519562213
77,416.86938299999997,0.002508729097782445
78,421.99,0.0024519684771223123
79,429.84000000000003,0.0023858464281196236
80,440.86,0.002311178023022856
81,451.13,0.0022234600302511857
82,459.52,0.002148826324374427
83,470.22,0.002076856308536367
84,478.630092,0.0020293077130078595
85,480.07,0.002021004482621095
86,490.12,0.001934480658920401
87,500.39,0.001890049763457105
88,506.18,0.0018386054202504368
89,512.04,0.0018550855996647584
90,520.36,0.0018085284311881642
91,530.0400000000001,0.0017349312736336649
92,539.89,0.0016492192424444278
93,549.5408739999999,0.00159165410132393
94,549.93,0.0015893498468972748
95,560.15,0.0015674740832332878
96,570.5699999999999,0.0015423361558968157
97,579.84,0.001476541169677133
98,590.62,0.001442948747730188
99,600.21,0.001371978099634529
100,609.97,0.0011986749124172575
101,619.88,0.0013192456024456226
102,629.9499999999999,0.0012658469615359992
103,630.957344,0.001263848487442895
104,640.19,0.0012459830762669344
105,650.59,0.0012015179201553565
106,658.12,0.0011612632263553393
107,665.7399999999999,0.0011561870581274333
108,675.0,0.0011303799114357783
109,684.39,0.0010704254127927289
110,695.51,0.001068266461258042
111,705.1899999999999,0.0010070993005695734
112,716.6500000000001,0.001012009690085085
113,724.43596,0.0009926689416031253
114,726.62,0.0009872172501680235
115,735.03,0.000967347427205476
116,745.26,0.0009350562630072761
117,755.62,0.000910090074435101
118,764.37,0.0008199696800329262
119,775.01,0.0008660280620398814
120,785.79,0.000827763079336402
121,794.89,0.00082043797315814
122,804.0899999999999,0.0008058534636152819
123,815.2800000000001,0.0007879663271169576
124,824.72,0.0007739720494990684
125,831.763771,0.0007282418810102653
126,834.27,0.000711843477537115
127,845.87,0.0007360202117517238
128,855.6700000000001,0.0007159595992778587
129,865.5799999999999,0.0007027618579905116
130,875.6,0.0006913581878896823
131,885.74,0.000677066440901418
132,896.0,0.0006645684170257184
133,904.29,0.0006464754637187448
134,914.76,0.000723688430290034
135,925.35,0.001169584319973888
136,936.06,0.001666584532770307
137,944.73,0.0022087417526531223
138,954.992586,0.002580436114036065
139,955.67,0.002604990811894874
140,964.51,0.0028099631776234827
141,975.6800000000001,0.0013189517245905142
142,984.7,0.0024427761000285287
143,996.11,0.0024203673266081018
144,1005.3199999999999,0.003003095656739378
145,1014.62,0.002955190491725358
146,1024.01,0.0017237848315660403
147,1035.87,0.0024593705824191283
148,1045.46,0.0035672848219369287
149,1055.1299999999999,0.0034704376213255763
150,1064.89,0.002921284925568927
151,1074.75,0.003261656679650837
152,1084.69,0.0026709669936035934
153,1094.73,0.003329536757394909
154,1096.4782,0.003306247259196189
155,1104.86,0.003194486812779652
156,1115.08,0.003093268834015916
157,1125.4,0.002789436133346468
158,1135.81,0.0032984278829618794
159,1143.68,0.0030856253689823684
160,1154.27,0.0031571160191674985
161,1164.95,0.0031643291196374887
162,1175.72,0.002309931670392338
163,1183.8700000000001,0.0030288723350768336
164,1194.8300000000002,0.002423691614210831
165,1205.88,0.0019938343436296875
166,1214.24,0.001449298392312189
167,1225.48,0.002357302850110193
168,1233.97,0.0030140116603152695
169,1245.3899999999999,0.0031701150186829925
170,1254.0200000000002,0.0030626074182200725
171,1258.92541,0.0029516285744740777
172,1265.63,0.0028000691633347416
173,1274.4,0.0032886469046578292
174,1286.19,0.0033730593448173724
175,1295.11,0.0028128232698575025
176,1304.08,0.002800159256136646
177,1316.15,0.003273655039234669
178,1325.27,0.0031337142092308554
179,1334.46,0.002858657464961662
180,1343.7099999999998,0.003214137794179285
181,1356.14,0.0031194660181982103
182,1365.5400000000002,0.0028454635311328763
183,1375.0100000000002,0.0029115721298021624
184,1384.54,0.0028983698019582646
185,1394.14,0.0024172025598489873
186,1403.8,0.0024227763912265266
187,1413.53,0.0026929103083386864
188,1426.6100000000001,0.0026868383284647957
189,1436.5,0.0027053714415418008
190,1443.1299999999999,0.002787353561835081
191,1445.43977,0.0028007419588018424
192,1446.46,0.002806655439536695
193,1456.48,0.0027178327395508137
194,1466.5800000000002,0.0025426001218005743
195,1473.35,0.0025426180809917497
196,1483.56,0.0025660905763155175
197,1493.85,0.0025661001538749262
198,1504.2,0.002434041793111067
199,1511.1399999999999,0.002220388927052981
200,1518.1200000000001,0.0023247491021127164
201,1525.13,0.002271968308010817
202,1535.7,0.0019886641733949722
203,1546.34,0.0020024251107353137
204,1553.4800000000002,0.001934619450266332
205,1564.25,0.0020301905212395913
206,1575.0900000000001,0.002145255664169037
207,1586.01,0.002205195889334124
208,1593.33,0.0022306804138953365
209,1604.37,0.002175083762413886
210,1615.5,0.002160114203447533
211,1626.69,0.0020774317061579106
212,1634.2,0.002180095426028772
213,1645.53,0.0021901200726515226
214,1653.12,0.002072713874758026
215,1659.58691,0.0021418222208228767
216,1664.58,0.002195213004984959
217,1672.2699999999998,0.0019934277329973597
218,1676.1200000000001,0.0022359936345380284
219,1683.8600000000001,0.0022775247378951126
220,1695.5300000000002,0.0021555023433443604
221,1703.36,0.002087369122321876
222,1715.16,0.0019892287036673024
223,1723.08,0.001971088158265249
224,1735.02,0.00208283479057579
225,1743.0300000000002,0.0020403049207941685
226,1755.1200000000001,0.0021460496791387614
227,1763.22,0.001998723484977571
228,1775.44,0.002017257219218343
229,1783.6299999999999,0.0020641537006775832
230,1796.0,0.002186138560952407
231,1804.29,0.0021563057931010157
232,1816.79,0.001994546629272018
233,1825.18,0.002040896612109994
234,1833.6,0.0019764358201547817
235,1846.31,0.0018032532327734564
236,1854.8400000000001,0.0018579052665765486
237,1863.4,0.0019362565255864506
238,1876.32,0.0020365995146527983
239,1884.98,0.001905568524352069
240,1893.68,0.0018969428343270864
241,1905.46072,0.0019606992383420416
242,1906.8,0.001967924311437563
243,1915.6000000000001,0.0019188161585061776
244,1924.45,0.0018327045217513183
245,1933.3300000000002,0.001782875594702375
246,1946.73,0.0020317469300114017
247,1955.72,0.001927222938550816
248,1964.74,0.002146605656796146
249,1973.81,0.0021220348912180022
250,1982.92,0.002151373738581079
251,1996.67,0.0021364736871257897
252,2005.8799999999999,0.002141286566841919
253,2015.14,0.002121630962734575
254,2024.44,0.0020591779715684517
255,2033.79,0.002160776496578855
256,2043.18,0.0022988486345304785
257,2057.34,0.002150651615722704
258,2066.83,0.0021456197860273804
259,2076.37,0.002357376472508583
260,2085.96,0.004226048675166312
261,2095.59,0.003908029490765262
262,2105.2599999999998,0.0037928839193054325
263,2114.98,0.00415830586402213
264,2124.74,0.0037839444216800477
265,2134.55,0.003580715495514492
266,2144.4,0.004373613182290157
267,2154.3,0.004393889385242348
268,2164.2400000000002,0.0038806562011357605
269,2174.23,0.0039252645332057
270,2184.27,0.004772913381452164
271,2187.7616199999998,0.004750157739191466
272,2194.35,0.004707334424096165
273,2204.48,0.00458993257681038
274,2214.65,0.0036301590381236665
275,2224.87,0.004138883885185788
276,2235.15,0.005367283195146514
277,2245.46,0.005114276736556541
278,2255.83,0.003980378740865171
279,2266.24,0.0037408500537728703
280,2276.7000000000003,0.004120229752429406
281,2287.21,0.005442306836834778
282,2292.48,0.004517103494762115
283,2303.06,0.005479234119215857
284,2313.69,0.004589505129418436
285,2324.37,0.0036632765253698505
286,2335.1,0.0033258433070701018
287,2345.88,0.002427446474519189
288,2356.71,0.0042134130277171125
289,2367.58,0.0026422978895141052
290,2373.04,0.0032867290132870194
291,2384.0,0.0021884435694319174
292,2395.0,0.002623529434175884
293,2406.05,0.002611276684668687
294,2417.16,0.003031550398060093
295,2422.73,0.004980204370480448
296,2433.92,0.005060684701069992
297,2445.15,0.006012491340258605
298,2456.44,0.006426509442345822
299,2467.78,0.005432564930181874
300,2473.46,0.004853638751249668
301,2484.8799999999997,0.0030437238562838593
302,2496.35,0.003674118347066886
303,2507.87,0.005751928223598749
304,2511.88643,0.00356787252326445
305,2513.65,0.0026088589444206146
306,2519.45,0.0021860496262057576
307,2525.2599999999998,0.002374143278131909
308,2536.91,0.0037839394924072396
309,2542.76,0.004025935024897427
310,2554.5,0.007472116970441836
311,2566.29,0.00542668176669129
312,2572.2099999999996,0.00698829009016854
313,2584.0800000000004,0.006114873647546065
314,2596.01,0.005449844025769644
315,2607.9900000000002,0.004681698254698267
316,2614.0,0.004240771309444596
317,2626.0699999999997,0.005823510269642298
318,2632.12,0.010542046204952664
319,2644.2700000000004,0.014413879926278437
320,2656.48,0.02040110346845026
321,2662.6,0.01240858519474769
322,2674.89,0.014309478498047588
323,2687.2400000000002,0.016692911622193538
324,2693.43,0.012066223139478026
325,2705.86,0.015151666024752047
326,2712.1,0.010752337392741581
327,2724.62,0.008443433009284683
328,2737.19,0.010848552476532828
329,2743.5,0.005855741635509423
330,2756.17,0.008097875804167657
331,2762.52,0.010795586843708288
332,2775.2700000000004,0.011539078773494594
333,2788.08,0.0067186735241269524
334,2794.51,0.003102577324795654
335,2807.4100000000003,0.0037283578066970927
336,2813.88,0.01009263348792983
337,2826.8700000000003,0.015340654701100347
338,2833.39,0.01471687523303813
339,2846.46,0.010563906207336719
340,2853.0299999999997,0.005942930589979544
341,2866.2,0.015123337265688222
342,2872.7999999999997,0.020680637558754076
343,2884.0315,0.01866644709992831
344,2886.06,0.018302673898672437
345,2892.72,0.022617723491699163
346,2912.77,0.03078407226650184
347,2932.96,0.02662078103274953
348,2953.29,0.02466821979044222
349,2966.92,0.026185808957552473
350,2987.48,0.026544197701190535
351,3008.19,0.026967396435662528
352,3029.04,0.02869212516157953
353,3050.04,0.029966813878330466
354,3071.18,0.03262261258652641
355,3092.47,0.03201947128555629
356,3106.75,0.037010560412946925
357,3128.2799999999997,0.034373569097311096
358,3149.96,0.034207047772509214
359,3171.8,0.03775659643793019
360,3186.44,0.032355435543322264
361,3208.53,0.03620916419346647
362,3230.77,0.030040942834444605
363,3253.16,0.04271614146625668
364,3268.18,0.05006123054842806
365,3290.83,0.04891096916435228
366,3311.31121,0.046348338445374025
367,3313.64,0.046056955192470106
368,3321.2799999999997,0.04377663626793916
369,3328.94,0.04877578732004557
370,3336.6099999999997,0.048884508360470647
371,3344.3,0.04561783937753309
372,3352.01,0.042081360371232876
373,3359.74,0.050238451341570026
374,3367.4900000000002,0.047863172288544524
375,3375.25,0.0344342132238377
376,3383.03,0.03775373413576823
377,3390.8300000000004,0.04919093502433611
378,3398.64,0.04719152590122267
379,3406.48,0.04873064674306526
380,3414.33,0.04772840757322652
381,3422.2000000000003,0.053793528380025143
382,3430.09,0.04916990916346112
383,3438.0,0.05054266992353445
384,3445.92,0.03094801067192645
385,3453.87,0.05170906138527449
386,3461.8300000000004,0.041739792086941195
387,3469.81,0.04544548276524526
388,3477.81,0.03939619342018667
389,3485.82,0.045022434063446776
390,3493.8599999999997,0.0399385846716629
391,3501.92,0.04616739525651638
392,3509.9900000000002,0.05120115582968853
393,3518.08,0.04500372637949804
394,3526.19,0.040107686905944906
395,3534.32,0.05025404740902912
396,3542.47,0.05769187788875069
397,3550.63,0.05559988835679094
398,3558.8199999999997,0.051291008789787214
399,3567.02,0.05308692921110217
400,3575.2400000000002,0.04111292960905447
401,3583.49,0.03349225997196281
402,3591.75,0.03522756032318982
403,3600.03,0.056083780651054196
404,3608.33,0.04589758095555591
405,3616.64,0.04962996124837631
406,3624.98,0.04905853150615274
407,3633.3399999999997,0.05054233174056652
408,3641.71,0.060900611963298976
409,3650.1099999999997,0.04995496215098747
410,3658.52,0.06645503232699464
411,3666.96,0.06599203246795783
412,3675.41,0.06783323259723971
413,3683.88,0.054626322703158925
414,3692.37,0.058258192785715514
415,3700.89,0.06551050283322811
416,3709.42,0.04552993286905941
417,3717.97,0.07181640288152805
418,3726.54,0.049225142870634044
419,3735.1299999999997,0.05237795283637739
420,3743.74,0.05795626277875809
421,3752.37,0.03412705269777614
422,3761.02,0.05248368259343155
423,3769.69,0.050463012465724315
424,3778.38,0.06323061231465443
425,3787.09,0.07208875214022191
426,3795.8199999999997,0.05443052194242672
427,3801.8939600000003,0.05548435731974069
428,3804.5699999999997,0.05594865237260173
429,3813.34,0.06437863426264909
430,3822.13,0.04871973613420169
431,3830.94,0.03628275798725954
432,3839.77,0.03537010982182262
433,3848.62,0.05502835163789093
434,3857.5,0.05389349342621711
435,3866.3900000000003,0.055781915205295914
436,3875.2999999999997,0.04492141696587995
437,3884.24,0.04993368869872185
438,3884.89,0.05586911809764212
439,3886.6600000000003,0.04082941646085578
440,3888.43,0.04666712482406945
441,3890.19,0.056758123196530494
442,3891.96,0.06500553155974416
443,3893.7300000000005,0.06525657992295782
444,3895.5,0.06379925828617149
445,3897.27,0.06720619664938514
446,3899.0399999999995,0.0796959350125988
447,3900.81,0.07232955337581248
448,3902.58,0.054954211739026135
449,3904.35,0.0530231301022398
450,3906.1200000000003,0.054173808465453464
451,3907.89,0.06970837682866712
452,3909.66,0.07384764519188079
453,3911.4300000000003,0.07232684355509446
454,3913.2,0.06956781191830812
455,3914.97,0.0643571502815218
456,3916.7400000000002,0.05888461864473545
457,3918.51,0.060841747007949115
458,3920.2799999999997,0.06509508537116278
459,3922.05,0.06377000373437645
460,3923.81,0.05651470210683749
461,3925.5800000000004,0.04807172047005115
462,3927.35,0.04733382883326481
463,3929.12,0.038419797196478485
464,3930.8900000000003,0.027527475559692142
465,3932.66,0.02341919392290581
466,3934.43,0.02852990228611947
467,3936.2000000000003,0.034153350649333135
468,3937.9700000000003,0.0375388990125468
469,3939.74,0.04189271737576047
470,3941.5099999999998,0.05335120573897413
471,3943.28,0.05797193410218779
472,3945.0499999999997,0.05964899246540146
473,3946.8199999999997,0.05850641082861512
474,3948.59,0.06005620919182878
475,3950.36,0.06316688755504245
476,3952.1299999999997,0.05969931591825611
477,3953.9,0.06117240428146977
478,3955.67,0.05658331264468344
479,3957.44,0.06365333100789711
480,3959.2,0.058691599380358145
481,3960.97,0.04888112774357181
482,3962.7400000000002,0.047637776106785476
483,3964.5099999999998,0.041453684469999134
484,3966.2799999999997,0.032973662833212805
485,3968.05,0.028847251196426466
486,3969.82,0.03015395955964013
487,3971.5899999999997,0.030418507922853798
488,3973.36,0.04536826628606746
489,3975.13,0.05229840464928113
490,3976.9,0.06323584301249478
491,3978.67,0.07426287137570844
492,3980.44,0.07009435973892211
493,3982.21,0.07084266810213577
494,3983.9799999999996,0.08000789646534945
495,3985.75,0.0833725348285631
496,3987.52,0.08102607319177677
497,3989.29,0.08259471155499043
498,3991.06,0.0903792499182041
499,3992.82,0.08427986829066514
500,3994.59,0.0777387566538788
501,3996.36,0.08831914501709247
502,3998.1299999999997,0.09293714338030613
503,3999.9,0.0897076617435198
504,4001.67,0.09612161010673347
505,4003.4399999999996,0.09032112846994714
506,4005.21,0.09019695683316079
507,4006.98,0.08523450519637446
508,4008.75,0.08602286355958813
509,4010.52,0.09101423192280178
510,4012.29,0.09283106028601545
511,4014.06,0.09326235864922912
512,4015.8300000000004,0.10185897701244277
513,4017.6,0.10332657537565644
514,4019.37,0.09509005373887011
515,4021.1400000000003,0.09314561210208376
516,4022.9100000000003,0.09342613046529744
517,4024.68,0.09190536882851111
518,4026.44,0.09132093720097213
519,4028.21,0.0957595055641858
520,4029.98,0.09244272392739947
521,4031.75,0.08232505229061313
522,4033.52,0.0893795806538268
523,4035.2900000000004,0.09585217901704046
524,4037.06,0.09585185738025412
525,4038.83,0.0994439957434678
526,4040.6,0.09115713410668146
527,4042.3700000000003,0.09126791246989512
528,4044.14,0.08676352083310879
529,4045.91,0.07675434919632244
530,4047.6800000000003,0.0871045575595361
531,4049.45,0.09671157592274977
532,4051.22,0.09211678428596344
533,4052.9900000000002,0.08232227264917709
534,4054.76,0.08718931101239076
535,4056.5299999999997,0.09069104937560443
536,4058.3,0.09118580773881808
537,4060.07,0.09310890610203175
538,4061.8300000000004,0.0852188244744928
539,4063.6,0.08151849283770646
540,4065.37,0.08485141120092013
541,4067.1400000000003,0.0883161695641338
542,4068.91,0.09048524792734745
543,4070.68,0.08771291629056112
544,4072.4500000000003,0.0859434946537748
545,4074.2200000000003,0.08599387301698844
546,4075.99,0.08757269138020211
547,4077.76,0.08973911974341578
548,4079.53,0.08493052810662943
549,4081.2999999999997,0.09158518646984311
550,4083.0699999999997,0.10137201483305677
551,4084.84,0.10413891319627043
552,4086.61,0.0991103515594841
553,4088.3799999999997,0.09961305992269777
554,4090.15,0.10074210828591142
555,4091.92,0.09989060664912508
556,4093.69,0.09740437501233876
557,4095.45,0.08801985338479978
558,4097.219999999999,0.08599386174801346
559,4098.99,0.08456564011122712
560,4100.76,0.08597254847444079
561,4102.53,0.08607846683765445
562,4104.3,0.08586699520086812
563,4106.07,0.09260368356408177
564,4107.84,0.08840081192729544
565,4109.610000000001,0.0910486602905091
