,lambda (Angstroms),Total Flux (erg/s/cm^2/Angstrom)
0,100.00999999999999,28.751394822916886
1,102.11,28.66109866964465
2,104.0,28.5798321317088
3,104.712855,28.549180672509088
4,105.94,28.27201391086362
5,107.91,27.827063623485326
6,109.91000000000001,27.375337443496438
7,114.03999999999999,26.442522881844795
8,118.05,25.536811891230236
9,120.22644299999999,25.04523375362854
10,121.07,24.885495701717385
11,125.03999999999999,24.13372662305098
12,127.07,23.749320771960697
13,127.95,23.582681782874708
14,130.93,23.01838156893336
15,132.15,22.78735933647888
16,133.98,22.44082598501099
17,137.1,21.85001503087664
18,138.038426,21.672312350733048
19,139.98,21.40951408124127
20,142.91,21.012929282067947
21,146.91,20.4715167516871
22,151.03,19.913861643419523
23,154.9,19.3900448751409
24,158.489319,18.90421919895287
25,158.86999999999998,18.86526431764875
26,161.82999999999998,18.5623691380592
27,165.98000000000002,18.137701953607287
28,169.84,17.74271035352978
29,173.0,17.41934937891302
30,177.03,17.00696185655203
31,179.91,16.71225320994277
32,181.970086,16.501445873701453
33,181.99,16.49989123704691
34,185.79999999999998,16.202454050922267
35,191.01,15.79572241661192
36,194.11,15.553713299018135
37,198.17999999999998,15.235978759455183
38,201.85999999999999,14.948690757256696
39,205.14000000000001,14.692629636479696
40,208.929613,14.396784260878883
41,209.92000000000002,14.33865630247963
42,215.79999999999998,13.99354743496262
43,219.81,13.758192510863697
44,222.87,13.578594866365917
45,227.01,13.335610253417155
46,230.17,13.150151594688728
47,233.91,12.930662129292552
48,239.88329199999998,12.580092495007033
49,239.91,12.578884598815677
50,246.07,12.30027784315572
51,251.8,12.04112773397255
52,257.07,11.802764645141517
53,260.05,11.667997497879393
54,264.27,11.477141267325855
55,269.19,11.25462215157732
56,274.19,11.0284845032845
57,275.42287,10.972724977805997
58,279.28999999999996,10.838498098423344
59,283.83,10.68091686305873
60,289.77,10.474735833696657
61,295.84,10.264050956856966
62,301.34000000000003,10.073145803788377
63,307.65000000000003,9.854131920397691
64,316.227766,9.556405478310703
65,317.73,9.517461911219664
66,328.13,9.247850907332376
67,338.11,8.989127532173805
68,348.38,8.722885475276357
69,357.32,8.491123747536518
70,363.078055,8.341853836830127
71,365.64,8.292117412643169
72,375.02,8.110011729461664
73,384.64,7.92323980398703
74,395.41,7.714159843420313
75,404.62,7.535361014708943
76,414.04999999999995,7.3522841062538715
77,416.86938299999997,7.297546735796261
78,421.75,7.22518669578077
79,429.59,7.1089533572609245
80,440.61,6.945578968159303
81,450.87,6.793464251178485
82,460.31,6.653505232246426
83,469.95000000000005,6.510584699387839
84,478.630092,6.381899116633522
85,479.79,6.368674206440058
86,489.84,6.254072553856649
87,500.09,6.1372093668287935
88,505.89000000000004,6.071065864639859
89,511.73999999999995,6.004389090689815
90,520.06,5.909520978740862
91,529.73,5.799253993641898
92,539.58,5.686925462002934
93,549.5408739999999,5.573343730228229
94,549.61,5.572742439514015
95,559.8199999999999,5.483950614252298
96,570.23,5.393416617989663
97,579.5,5.312777810142246
98,590.27,5.219101728937964
99,599.86,5.135660612709082
100,609.61,5.05079607423947
101,619.52,4.964674354229123
102,629.58,4.877159483693091
103,630.957344,4.865180240640373
104,639.81,4.80414649458631
105,650.2099999999999,4.732425901285824
106,657.74,4.680489109882779
107,665.35,4.628031427221269
108,674.6099999999999,4.564186151753914
109,685.57,4.48857914364417
110,695.11,4.422823507872185
111,704.78,4.356102785605195
112,716.23,4.277191140137352
113,724.43596,4.220604565058875
114,726.19,4.2116263039950095
115,734.6,4.168580627728989
116,744.82,4.116261014698342
117,755.1800000000001,4.063230554586453
118,765.6899999999999,4.009378015701807
119,774.55,3.9640831153175085
120,785.33,3.9088839395618944
121,794.42,3.8623703838726997
122,805.4699999999999,3.80581531244612
123,814.8,3.7580573586605097
124,824.24,3.7097423315682097
125,831.763771,3.671186583003161
126,835.7,3.656103466383153
127,845.38,3.6191266762706675
128,855.17,3.5816631595762214
129,865.07,3.543793749899815
130,875.09,3.505462293797635
131,885.22,3.4667069352134945
132,895.47,3.4274924632035786
133,905.84,3.3878065114678892
134,914.22,3.355869858151295
135,924.81,3.316567864951685
136,935.52,3.2771790105263006
137,944.17,3.2465131191267136
138,954.992586,3.207507151091981
139,955.11,3.207093680486367
140,963.9399999999999,3.174274825728855
141,975.11,3.125850266230394
142,984.13,3.09638131668195
143,995.52,3.054859447267673
144,1004.7399999999999,3.0249002338866693
145,1014.03,2.9904034612142696
146,1025.77,2.9402103463430134
147,1035.27,2.9069480197964257
148,1044.85,2.879760480916815
149,1054.51,2.843480164704179
150,1064.27,2.8024963380752643
151,1074.12,2.7687545370716977
152,1084.06,2.7274947416934787
153,1094.0900000000001,2.6954257619406077
154,1096.4782,2.6863574233837553
155,1104.21,2.6622448689868157
156,1114.43,2.6299228555935255
157,1124.74,2.5965044948611555
158,1135.15,2.5699493459742513
159,1145.65,2.535927829748269
160,1156.25,2.5051448253677524
161,1164.27,2.481093651374192
162,1175.04,2.4411230931309693
163,1185.91,2.4144537967332127
164,1194.13,2.3822140664305853
165,1205.18,2.34443753335467
166,1216.3300000000002,2.3090233121242205
167,1224.76,2.2900939886970746
168,1236.1,2.2636601439730133
169,1244.6599999999999,2.239791745944973
170,1256.18,2.2029469565427506
171,1258.92541,2.193394155796888
172,1264.8899999999999,2.177889099811807
173,1273.66,2.166179759796483
174,1285.4399999999998,2.142363402489697
175,1294.35,2.114955766088725
176,1306.33,2.088634879659583
177,1315.3799999999999,2.0764170268729605
178,1324.5000000000002,2.0551546408935133
179,1333.6799999999998,2.03092633217736
180,1346.02,2.0107319093279763
181,1355.35,1.9894743037700553
182,1364.7500000000002,1.9651198950193087
183,1374.2099999999998,1.9464117435318573
184,1383.73,1.9259834293076972
185,1396.54,1.8940509650207766
186,1406.22,1.873828213498732
187,1415.96,1.8535694792399806
188,1425.7800000000002,1.833483141332286
189,1435.66,1.8118339906878855
190,1442.29,1.7993090882817744
191,1445.43977,1.7931838278725334
192,1445.61,1.7929651144739005
193,1455.6299999999999,1.776623714362519
194,1465.72,1.758692701116627
195,1475.8799999999999,1.743553914736225
196,1486.11,1.7290527052213112
197,1496.4099999999999,1.7141676425718875
198,1503.32,1.7018828260080507
199,1510.26,1.6878632738151378
200,1517.23,1.6794874359931489
201,1524.23,1.667850452542084
202,1534.8,1.6479579392309764
203,1545.4399999999998,1.634417492785358
204,1556.15,1.6169472232052287
205,1563.33,1.6067126359797084
206,1574.17,1.5921301120069165
207,1585.0800000000002,1.5773650948996136
208,1596.07,1.5613428427814424
209,1603.4399999999998,1.5499154799051074
210,1614.55,1.5334088452706316
211,1625.74,1.5148099156252866
212,1633.25,1.5057195364799298
213,1644.57,1.4891783024419223
214,1655.97,1.469611733393045
215,1659.58691,1.4655109274486737
216,1663.6100000000001,1.4627880312811248
217,1671.29,1.4506261698162883
218,1675.1399999999999,1.4511643519074833
219,1686.76,1.440704532946363
220,1694.54,1.4304410197176614
221,1706.29,1.4167882924635165
222,1714.16,1.406676319647336
223,1726.04,1.3941137141001667
224,1734.01,1.388138399520121
225,1746.03,1.3749517535035405
226,1754.0900000000001,1.3689313193360164
227,1766.25,1.3532834628500252
228,1774.3999999999999,1.3453443690950226
229,1786.7,1.33335555213962
230,1794.9499999999998,1.3273714466207525
231,1803.23,1.3187670245727252
232,1815.73,1.3024922340895924
233,1824.11,1.2947397202777005
234,1836.76,1.2801750571487698
235,1845.24,1.2686307715730125
236,1853.7500000000002,1.2598834894680953
237,1866.6,1.2476410428114355
238,1875.22,1.2417854667662667
239,1883.87,1.229777614191939
240,1896.93,1.214953501831162
241,1905.46072,1.2083115216911102
242,1905.6899999999998,1.2081984440572462
243,1914.49,1.2000912743755041
244,1923.32,1.1928072304562103
245,1936.65,1.1841966709042078
246,1945.5900000000001,1.1790433181138922
247,1954.57,1.1697031230068418
248,1968.12,1.1633519757127955
249,1977.21,1.1578321917347234
250,1981.76,1.1524149257060952
251,1995.5,1.1411450849075566
252,2004.71,1.1357659439792789
253,2013.97,1.127634152655082
254,2023.26,1.1226077170933335
255,2037.29,1.1097297919984652
256,2046.6899999999998,1.1044526975656952
257,2056.14,1.0940174527370063
258,2065.63,1.0877213755915818
259,2075.16,1.0849489161294228
260,2079.9500000000003,1.079451056200383
261,2084.74,1.0781510862713442
262,2094.36,1.0686464840965304
263,2104.03,1.0619525615257976
264,2113.7400000000002,1.0557508966383298
265,2123.5,1.0488279213549432
266,2133.2999999999997,1.0391391137548214
267,2143.15,1.0328313457587803
268,2153.04,1.0272814054460042
269,2162.98,1.0185451847373088
270,2172.96,1.0112600217118786
271,2182.99,1.0033050582905294
272,2187.7616199999998,1.00074999125228
273,2193.07,0.9992515880215084
274,2203.19,0.9934480591898952
275,2213.36,0.9862228099786792
276,2223.58,0.9804931003878604
277,2233.84,0.9782182564933594
278,2244.15,0.9718665322192555
279,2254.51,0.9646436075655488
280,2264.92,0.9606443425322393
281,2275.37,0.9568264331952474
282,2285.8700000000003,0.9531797734786527
283,2296.42,0.9446595433824553
284,2307.02,0.9409206529066549
285,2312.34,0.9364224105169137
286,2323.01,0.9228086775096693
287,2333.74,0.9234318180469018
288,2344.5099999999998,0.917351464280452
289,2355.33,0.9151289301343991
290,2366.2,0.9066213656087436
291,2377.12,0.9022217207034852
292,2382.6,0.8969371010990147
293,2393.6,0.8941435275863917
294,2404.65,0.887783933694166
295,2415.75,0.8835659194223374
296,2426.9,0.8812203947709057
297,2432.49,0.8774236783313094
298,2443.7200000000003,0.8745715550725133
299,2455.0,0.8691883814341145
300,2466.33,0.8627322674161128
301,2477.72,0.8558594269425879
302,2483.4300000000003,0.8522329475919443
303,2494.89,0.8391084745869755
304,2506.41,0.8437365351264831
305,2511.88643,0.8356161435779155
306,2512.19,0.8352069967132687
307,2517.98,0.8349516077247723
308,2523.7799999999997,0.8324453527103893
309,2535.4300000000003,0.8303809625521885
310,2547.13,0.8254350722645536
311,2553.01,0.8291191690430755
312,2564.79,0.8225368705483458
313,2576.6299999999997,0.8218797658982947
314,2582.57,0.8189768565214953
315,2594.49,0.8137582136643494
316,2606.4700000000003,0.8082259946518819
317,2612.4700000000003,0.8053117491197614
318,2624.5299999999997,0.8042149219001995
319,2636.6499999999996,0.8061191185253161
320,2642.73,0.8102874147861006
321,2654.92,0.8155455792300093
322,2667.1800000000003,0.7967076414927096
323,2673.33,0.7982798355722862
324,2685.67,0.7976673496278917
325,2698.06,0.7858226135540629
326,2704.28,0.7889446654524312
327,2716.7599999999998,0.7780591951456208
328,2723.03,0.7730202169145548
329,2735.6000000000004,0.7725625323747624
330,2741.9,0.7622049860660358
331,2754.56,0.7608159572932616
332,2767.27,0.7605016583910531
333,2773.6499999999996,0.7613889638752318
334,2786.45,0.7502144307400413
335,2792.8799999999997,0.7375417260947856
336,2805.77,0.7363159687266134
337,2812.24,0.7470568999778102
338,2825.22,0.7492756383766561
339,2838.26,0.7413634206201809
340,2844.8,0.7337171996901696
341,2857.9300000000003,0.7230939777007126
342,2864.52,0.734334436641267
343,2877.74,0.7390035504188281
344,2884.0315,0.734398275519003
345,2884.38,0.7341835767807116
346,2897.69,0.7379460997848656
347,2911.07,0.751014804893474
348,2931.24,0.7398099441341792
349,2951.56,0.7311663807415727
350,2972.0200000000004,0.7294676015578752
351,2992.62,0.7253436065830873
352,3013.3700000000003,0.7195287089749874
353,3027.2799999999997,0.7220810114458953
354,3048.2599999999998,0.7188590164667179
355,3069.3900000000003,0.7218766188542289
356,3090.6699999999996,0.7162352186084285
357,3112.09,0.723607802571537
358,3126.4500000000003,0.7143145971425099
359,3148.12,0.7116645100500995
360,3169.9500000000003,0.7133485334821565
361,3191.9199999999996,0.695648741123123
362,3206.6499999999996,0.7004338225319273
363,3228.88,0.6825304722751535
364,3251.26,0.7060803193850682
365,3266.27,0.7193205692116912
366,3288.91,0.7125471584238657
367,3311.31121,0.7007750275573513
368,3311.71,0.7005978747549049
369,3319.34,0.7017954368522786
370,3326.9900000000002,0.7065591510128172
371,3334.66,0.7138488172365205
372,3342.35,0.7011527355233887
373,3350.05,0.7129826798418393
374,3357.78,0.710199602255037
375,3365.52,0.6749892506998172
376,3373.28,0.6666948512077622
377,3381.0499999999997,0.6911518777472896
378,3388.85,0.7046651823815642
379,3396.6600000000003,0.6861832130474211
380,3404.4900000000002,0.7110117957764428
381,3412.3399999999997,0.6912880305686295
382,3420.2,0.6976770913923986
383,3428.0899999999997,0.698623530310915
384,3435.99,0.6939289952610135
385,3443.91,0.6611760122742769
386,3451.8500000000004,0.6920389813507051
387,3459.81,0.6925051024902982
388,3467.7799999999997,0.6877966496614736
389,3475.78,0.6882427749273963
390,3483.79,0.6868162262249013
391,3491.8199999999997,0.6891946295855713
392,3499.87,0.6707085850094059
393,3507.94,0.7049187924964053
394,3516.03,0.6731902520465696
395,3524.1299999999997,0.6791588376283164
396,3532.25,0.6944248752732278
397,3540.4,0.7029150910128865
398,3548.56,0.7107493327841277
399,3556.74,0.6885683266185336
400,3564.9399999999996,0.6970010725161044
401,3573.1600000000003,0.6501452704768399
402,3581.39,0.6587712944691578
403,3589.6499999999996,0.628098996556223
404,3597.92,0.6787513246748705
405,3606.22,0.6737710308882653
406,3614.53,0.6688442631332424
407,3619.51,0.6005671268612792
408,3622.22,0.6451225814201107
409,3624.9300000000003,0.6374811359789418
410,3627.64,0.6651277905377733
411,3630.36,0.6822241711281869
412,3633.0699999999997,0.6745907256870183
413,3635.78,0.6462551802458495
414,3638.5,0.6906965608362632
415,3641.2099999999996,0.6852470153950947
416,3643.92,0.6848273699539258
417,3646.63,0.6899290245127572
418,3649.35,0.658768305103171
419,3652.06,0.6707229596620021
420,3654.77,0.6711555142208334
421,3657.48,0.7128017687796646
422,3660.2000000000003,0.6137165493700785
423,3662.91,0.6369715039289098
424,3665.62,0.6673807584877411
425,3668.3300000000004,0.6642103130465722
426,3671.05,0.670045993636986
427,3673.7599999999998,0.6933921481958174
428,3676.47,0.6611565027546487
429,3679.1800000000003,0.6871345573134799
430,3681.9,0.6371149379038937
431,3684.6099999999997,0.622017992462725
432,3687.32,0.6559112470215562
433,3690.03,0.6615718015803875
434,3692.75,0.6517947821708012
435,3695.46,0.6433923367296326
436,3698.17,0.700203391288464
437,3700.8799999999997,0.6441344458472952
438,3703.6000000000004,0.6718572264377088
439,3706.31,0.6519880809965402
440,3709.02,0.6723734355553714
441,3711.7400000000002,0.6748123161457852
442,3714.4500000000003,0.7078336707046164
443,3717.16,0.6788720252634479
444,3719.8700000000003,0.730328279822279
445,3722.59,0.7627514604126928
446,3725.2999999999997,0.8168634149715241
447,3728.0099999999998,0.8630798695303554
448,3730.7200000000003,0.8199960240891867
449,3733.44,0.7250008046796004
450,3736.1499999999996,0.6716074592384319
451,3738.86,0.632907113797263
452,3741.57,0.6884419683560943
453,3744.29,0.676651348946508
454,3747.0,0.6666238035053393
455,3749.71,0.6601675580641706
456,3752.42,0.676304012623002
457,3755.1400000000003,0.6705578932134156
458,3757.85,0.660863347772247
459,3760.56,0.7095252023310783
460,3763.2700000000004,0.6814275568899095
461,3765.9900000000002,0.6846392374803232
462,3768.7,0.6713734920391546
463,3771.41,0.6896859465979859
464,3774.1200000000003,0.735335501156817
465,3776.84,0.7254511817472309
466,3779.5499999999997,0.7076075363060622
467,3782.26,0.7581085908648935
468,3784.98,0.6932528714553072
469,3787.69,0.7256956260141385
470,3790.4,0.7478686805729697
471,3793.11,0.6693577351318012
472,3795.83,0.6521648157222149
473,3798.5400000000004,0.661959370281046
474,3801.25,0.7032568248398774
475,3801.8939600000003,0.7072249620965971
476,3803.96,0.7200743621811876
477,3806.6800000000003,0.7492763653947562
478,3809.3900000000003,0.7448897700670982
479,3812.1,0.7616808747394404
480,3814.81,0.7237897794117827
481,3817.53,0.7253772826253511
482,3820.24,0.7154772872976932
483,3822.95,0.6923704919700355
484,3825.6600000000003,0.6879917966423775
485,3828.38,0.676749299855946
486,3831.0899999999997,0.6752402045282883
487,3833.8,0.6515824092006304
488,3836.51,0.6287212138729725
489,3839.23,0.670258317086541
490,3841.9399999999996,0.6943304217588833
491,3844.65,0.6965868264312253
492,3847.36,0.7235881311035675
493,3850.0800000000004,0.7675586343171359
494,3852.79,0.7483957389894782
495,3855.5,0.7542630436618203
496,3858.22,0.7455767468753888
497,3860.9300000000003,0.7418997515477308
498,3863.64,0.7913866562200731
499,3866.35,0.7859695608924153
500,3869.07,0.7492683641059836
501,3871.78,0.7408270687783258
502,3874.49,0.739976073450668
503,3877.2000000000003,0.7317169781230102
504,3879.92,0.7166771813365787
505,3882.63,0.6754764860089207
506,3885.3399999999997,0.660225490681263
507,3888.05,0.6531039953536051
508,3890.77,0.6786913985671736
509,3893.4800000000005,0.6683356032395157
510,3896.19,0.7007511079118579
511,3898.9,0.7248907125842
512,3901.62,0.7398395157977685
513,3904.33,0.7365865204701108
514,3907.04,0.7514473251424528
515,3909.75,0.756561629814795
516,3912.4700000000003,0.7454495330283635
517,3915.18,0.7615549377007056
518,3917.89,0.7644257423730478
519,3920.6000000000004,0.7619853470453899
520,3923.32,0.7586577502589584
521,3926.0299999999997,0.7242072549313006
522,3928.7400000000002,0.6680358596036426
523,3931.46,0.6550097628172111
524,3934.17,0.6507023674895533
525,3936.8799999999997,0.6606481721618956
526,3939.59,0.6812084768342377
527,3942.31,0.7394083800478062
528,3945.02,0.7437497847201484
529,3947.73,0.7269450893924906
530,3950.44,0.7458844940648326
531,3953.16,0.7380226972784012
532,3955.8700000000003,0.7511988019507433
533,3958.58,0.7382628066230854
534,3961.29,0.6804862112954276
535,3964.01,0.6428777145089961
536,3966.7200000000003,0.6105356191813383
537,3969.43,0.5903142238536805
538,3972.1400000000003,0.6299316285260226
539,3974.86,0.6619243317395911
540,3977.57,0.7143006364119332
541,3980.2799999999997,0.7325978410842754
542,3982.9900000000002,0.7541016457566174
543,3985.71,0.7544167489701861
544,3988.4199999999996,0.7893532536425282
545,3991.13,0.7993428583148703
546,3993.84,0.7550465629872124
547,3996.56,0.7990564662007811
548,3999.27,0.7812411708731231
549,4001.98,0.8037280755454652
550,4004.7,0.8075863787590338
551,4007.4100000000003,0.8199303834313758
552,4010.12,0.797909788103718
553,4012.83,0.8072809927760602
554,4015.5499999999997,0.8260424959896288
555,4018.26,0.8033085006619708
556,4020.97,0.842208705334313
557,4023.68,0.8364390100066552
558,4026.4,0.8258300132202236
559,4029.11,0.8313169178925657
560,4031.8199999999997,0.8094548225649081
561,4034.53,0.8149814272372501
562,4037.25,0.8254986304508185
563,4039.96,0.8217106351231608
564,4042.67,0.8225205397955029
565,4045.38,0.811756644467845
566,4048.1,0.8199351476814136
567,4050.8100000000004,0.8169003523537557
568,4053.52,0.8095451570260979
569,4056.23,0.82692296169844
570,4058.9500000000003,0.8224971649120085
571,4061.6600000000003,0.8348016695843506
572,4064.37,0.8033871742566928
573,4067.08,0.783823978929035
574,4069.8,0.8107505821426034
575,4072.5099999999998,0.7912666868149456
576,4075.22,0.7963968914872879
577,4077.94,0.7687999947008564
578,4080.65,0.7895705993731984
579,4083.3599999999997,0.7945818040455406
580,4086.07,0.8031999087178827
581,4088.79,0.7912435119314511
582,4091.5,0.8141306166037934
583,4094.2099999999996,0.7612612212761356
584,4096.92,0.7485034259484777
585,4099.64,0.739044229162046
586,4102.35,0.7261280338343883
587,4105.0599999999995,0.7364385385067305
588,4107.77,0.7521436431790726
589,4110.49,0.7913733463926411
590,4113.2,0.8163611510649833
591,4115.91,0.7929137557373254
592,4118.62,0.7898788604096676
593,4121.34,0.812524763623236
594,4124.05,0.7993430682955782
595,4126.76,0.7917103729679204
596,4129.47,0.8030633776402625
597,4132.19,0.803552680853831
598,4134.900000000001,0.8245373855261731
