,lambda (Angstroms),Total Flux (erg/s/cm^2/Angstrom)
0,100.02000000000001,1.261188e-09
1,102.12,1.617316e-09
2,104.01,1.89149e-09
3,104.712855,2.0395000318118558e-09
4,105.95,2.300023e-09
5,107.92,2.829741e-09
6,109.92,4.403921e-09
7,114.05,6.177062e-09
8,118.06,8.162026e-09
9,120.22644299999999,1.946855902742963e-08
10,121.09,2.397541e-08
11,125.05000000000001,3.189943e-08
12,127.08000000000001,3.645803e-08
13,127.97,3.915335e-08
14,130.95000000000002,4.685393e-08
15,131.85,5.343022e-08
16,134.0,5.981268e-08
17,137.12,7.616947e-08
18,138.038426,8.062881224087103e-08
19,139.98999999999998,9.010452e-08
20,142.92,1.555254e-07
21,146.92000000000002,2.647345e-07
22,151.04,3.219725e-07
23,154.91,3.915944e-07
24,158.489319,4.647390428219343e-07
25,158.89000000000001,4.729271e-07
26,161.84,5.429723e-07
27,165.98999999999998,6.498148e-07
28,169.86,7.687598e-07
29,173.02,8.685283e-07
30,177.04999999999998,1.015762e-06
31,179.92999999999998,1.137037e-06
32,181.970086,1.2278531937490394e-06
33,182.01,1.22963e-06
34,185.82000000000002,1.418373e-06
35,191.02999999999997,1.681849e-06
36,194.13,1.865369e-06
37,198.20000000000002,2.122139e-06
38,201.88000000000002,2.40877e-06
39,205.16,2.634985e-06
40,208.929613,2.8938635670859828e-06
41,209.94,2.963252e-06
42,215.82,3.60401e-06
43,219.82999999999998,4.025309e-06
44,222.89,4.322967e-06
45,227.04,4.805676e-06
46,230.19000000000003,7.461391e-06
47,233.93,1.311589e-05
48,239.88329199999998,1.7536596273979983e-05
49,239.93,1.757128e-05
50,246.09,1.835597e-05
51,251.82,2.059661e-05
52,257.09,1.827346e-05
53,260.07,2.201939e-05
54,264.3,2.397599e-05
55,269.21,2.528184e-05
56,274.21999999999997,2.653173e-05
57,275.42287,2.6827607661571712e-05
58,279.31,2.778375e-05
59,283.85,2.909295e-05
60,289.8,2.942891e-05
61,295.86,3.153639e-05
62,300.67,3.182772e-05
63,307.68,3.410169e-05
64,316.227766,3.696395354071825e-05
65,317.76,3.747703e-05
66,328.17,3.988188e-05
67,338.14,4.195604e-05
68,347.61,4.403427e-05
69,357.35,4.600249e-05
70,363.078055,4.749584626207932e-05
71,365.67,4.817159e-05
72,375.04999999999995,4.986382e-05
73,384.67,5.009603e-05
74,395.45,5.318492e-05
75,404.66,5.518033e-05
76,414.09000000000003,5.646685e-05
77,416.86938299999997,5.6748719141671424e-05
78,421.79,5.724774e-05
79,429.63,5.791712e-05
80,440.65,5.967688e-05
81,450.90999999999997,6.050354e-05
82,460.36,6.10652e-05
83,470.0,6.191166e-05
84,478.630092,6.292283665350408e-05
85,479.84,6.30646e-05
86,489.88,6.30661e-05
87,500.14000000000004,6.438428e-05
88,505.93,6.588417e-05
89,511.79,7.66993e-05
90,520.11,7.723248e-05
91,529.78,7.776384e-05
92,539.63,7.651943e-05
93,549.5408739999999,8.137159826203986e-05
94,549.66,8.142992e-05
95,559.88,8.685304e-05
96,570.2900000000001,9.073685e-05
97,579.55,8.969947e-05
98,590.33,9.523354e-05
99,599.92,9.501564e-05
100,609.67,9.633422e-05
101,619.5699999999999,0.0001080925
102,629.6400000000001,0.000111121
103,630.957344,0.0001114540704062561
104,639.87,0.0001137075
105,650.27,0.0001196133
106,657.8000000000001,0.0001221209
107,665.4200000000001,0.0001275767
108,674.67,0.000130556
109,685.64,0.0001290541
110,695.17,0.0001471611
111,704.84,0.0001421684
112,716.3,0.0001621034
113,724.43596,0.00016612882141405625
114,726.26,0.0001670313
115,734.6700000000001,0.0001724961
116,744.89,0.0001848357
117,755.25,0.000193108
118,765.7600000000001,0.000198057
119,774.63,0.0002146791
120,785.4,0.0002268765
121,794.5000000000001,0.0002364711
122,805.5500000000001,0.0002464855
123,814.88,0.0002551397
124,824.32,0.0002740189
125,831.763771,0.0002557667215445026
126,835.78,0.0002459189
127,845.4599999999999,0.0002916006
128,855.25,0.0003025401
129,865.15,0.0003226958
130,875.17,0.0003425994
131,885.31,0.0003654128
132,895.56,0.0003844058
133,905.9300000000001,0.0003924482
134,914.31,0.0005582086
135,924.9,0.003182626
136,935.61,0.006914565
137,944.26,0.01345208
138,954.992586,0.018555748386453397
139,955.1999999999999,0.01865438
140,964.0400000000001,0.02258308
141,975.1999999999999,0.004839332
142,984.2199999999999,0.02300287
143,995.62,0.02300287
144,1004.83,0.02977033
145,1014.13,0.02727626
146,1025.87,0.01113777
147,1035.3600000000001,0.02088318
148,1044.94,0.03679492
149,1054.61,0.03671003
150,1064.3700000000001,0.03124558
151,1074.22,0.03595767
152,1084.16,0.03046381
153,1094.19,0.037393
154,1096.4782,0.037125045681145115
155,1104.32,0.03620675
156,1114.53,0.03571021
157,1124.85,0.03294488
158,1135.25,0.03897527
159,1145.76,0.03603989
160,1153.7,0.03765241
161,1164.38,0.03906486
162,1175.1499999999999,0.02963353
163,1186.02,0.03765226
164,1194.24,0.0283002
165,1205.29,0.02176671
166,1213.65,0.01190653
167,1224.88,0.02545569
168,1236.21,0.0367948
169,1244.78,0.04062478
170,1256.3,0.03997529
171,1258.92541,0.03866475525855334
172,1265.01,0.03562749
173,1273.78,0.04332954
174,1285.56,0.04495641
175,1294.47,0.0386179
176,1306.45,0.03826369
177,1315.51,0.04485258
178,1324.6299999999999,0.04342923
179,1333.81,0.04015931
180,1346.15,0.04505913
181,1355.48,0.04413541
182,1364.8799999999999,0.04090555
183,1374.34,0.04234332
184,1383.8600000000001,0.04293244
185,1393.46,0.03844055
186,1406.3500000000001,0.03979119
187,1416.1000000000001,0.04100031
188,1425.9099999999999,0.04138026
189,1435.8000000000002,0.04138005
190,1442.43,0.04303135
191,1445.43977,0.04339246800656626
192,1445.75,0.04342969
193,1455.7700000000002,0.04273554
194,1465.86,0.04043782
195,1476.0200000000002,0.04025239
196,1486.26,0.04062408
197,1496.5600000000002,0.04109457
198,1503.46,0.03960888
199,1510.4,0.03654192
200,1517.38,0.03835178
201,1524.3799999999999,0.03756542
202,1534.9499999999998,0.03394597
203,1545.59,0.03603995
204,1556.3,0.03441811
205,1563.4799999999998,0.03513862
206,1574.32,0.03705011
207,1585.23,0.03817586
208,1596.22,0.0390654
209,1603.59,0.03800044
210,1614.71,0.03800002
211,1625.9,0.03662571
212,1633.4,0.03826373
213,1644.72,0.03861779
214,1656.13,0.03637363
215,1659.58691,0.03759142609202877
216,1663.77,0.03906504
217,1671.4499999999998,0.03603979
218,1675.3000000000002,0.03924529
219,1686.92,0.04025197
220,1694.7,0.03844077
221,1706.4499999999998,0.03730689
222,1714.33,0.03612293
223,1726.21,0.03587414
224,1734.1799999999998,0.03765215
225,1746.2,0.03687933
226,1754.26,0.03870674
227,1766.4199999999998,0.03603988
228,1774.57,0.03705005
229,1786.8700000000001,0.03747885
230,1795.1200000000001,0.03915528
231,1803.4,0.03897515
232,1815.91,0.03696472
233,1824.2900000000002,0.03739233
234,1836.93,0.03645784
235,1845.41,0.03402434
236,1853.93,0.03426009
237,1866.7800000000002,0.03513844
238,1875.4,0.03696465
239,1884.05,0.03481658
240,1897.11,0.0337122
241,1905.46072,0.03514973450374428
242,1905.8700000000001,0.03522019
243,1914.67,0.03433857
244,1923.5,0.03371233
245,1936.84,0.03410245
246,1945.78,0.03587431
247,1954.7600000000002,0.03410249
248,1968.3100000000002,0.0363739
249,1977.3899999999999,0.03713558
250,1981.95,0.03562782
251,1995.69,0.03481655
252,2004.9,0.03538234
253,2014.16,0.03473668
254,2023.45,0.03554608
255,2032.79,0.03457731
256,2046.88,0.03546397
257,2056.33,0.03386801
258,2065.8199999999997,0.03426001
259,2075.36,0.03637387
260,2080.14,0.03571009
261,2084.94,0.03662576
262,2094.56,0.03505835
263,2104.23,0.03530099
264,2113.94,0.03562779
265,2123.7,0.03587422
266,2133.5,0.03402441
267,2143.35,0.03489692
268,2153.24,0.03571002
269,2163.1800000000003,0.03457718
270,2173.17,0.03441796
271,2183.2,0.03449742
272,2187.7616199999998,0.03504607699125
273,2193.2799999999997,0.03570981
274,2203.4,0.03481643
275,2213.57,0.03324947
276,2223.79,0.0327932
277,2234.0499999999997,0.03489695
278,2244.36,0.03363459
279,2254.7200000000003,0.0323437
280,2265.13,0.03256809
281,2275.59,0.03340306
282,2286.09,0.03441804
283,2296.64,0.03267075
284,2307.2400000000002,0.03324669
285,2312.56,0.03221407
286,2323.2400000000002,0.02739252
287,2333.96,0.0302852
288,2344.73,0.02889516
289,2355.56,0.03158013
290,2366.43,0.02904164
291,2377.35,0.03017277
292,2382.83,0.02772828
293,2393.83,0.02927675
294,2404.88,0.02858445
295,2415.98,0.02915681
296,2427.13,0.03135764
297,2432.73,0.03038445
298,2443.96,0.03193475
299,2455.24,0.03175991
300,2466.5699999999997,0.0313684
301,2472.26,0.03025512
302,2483.67,0.03009029
303,2495.13,0.02877674
304,2506.65,0.03226012
305,2511.88643,0.028802146512127924
306,2512.43,0.02844319
307,2518.22,0.02846393
308,2524.02,0.02783577
309,2535.67,0.02865731
310,2547.38,0.02863284
311,2553.2500000000005,0.03105832
312,2565.04,0.02997824
313,2576.8799999999997,0.03165499
314,2582.82,0.03124402
315,2594.74,0.03071834
316,2606.71,0.0296515
317,2612.7200000000003,0.02913192
318,2624.7799999999997,0.03076142
319,2636.8999999999996,0.03285898
320,2642.9799999999996,0.03613883
321,2655.18,0.03816143
322,2667.4300000000003,0.03414116
323,2673.58,0.03561199
324,2685.92,0.03641253
325,2692.1099999999997,0.03369647
326,2704.5400000000004,0.03525642
327,2717.02,0.03272612
328,2723.29,0.03207922
329,2735.86,0.03395354
330,2742.1600000000003,0.02918894
331,2754.82,0.0306115
332,2767.54,0.03247496
333,2773.92,0.03379723
334,2786.72,0.03065874
335,2793.14,0.02465419
336,2806.0400000000004,0.02621521
337,2812.5,0.03325826
338,2825.49,0.03602255
339,2832.0,0.0349067
340,2845.07,0.03308171
341,2858.2000000000003,0.03028798
342,2864.79,0.0355313
343,2878.02,0.03700807
344,2884.0315,0.036497536788838617
345,2884.65,0.03644501
346,2897.9700000000003,0.03735294
347,2911.34,0.04159224
348,2931.5200000000004,0.03972378
349,2951.84,0.03882349
350,2972.2999999999997,0.03964071
351,2992.91,0.03992035
352,3006.72,0.04035473
353,3027.5600000000004,0.04082791
354,3048.5499999999997,0.04159322
355,3069.6800000000003,0.04227597
356,3090.96,0.04228294
357,3112.38,0.04357546
358,3126.75,0.0424584
359,3148.42,0.04256495
360,3170.25,0.04386746
361,3192.2200000000003,0.04132736
362,3206.96,0.04334831
363,3229.19,0.04074518
364,3251.5699999999997,0.04583375
365,3266.58,0.04885704
366,3289.22,0.04853372
367,3311.31121,0.04790183388098246
368,3312.02,0.04788156
369,3319.66,0.04661651
370,3327.31,0.04730575
371,3334.98,0.05061666
372,3342.6699999999996,0.04717062
373,3350.37,0.04955026
374,3358.1,0.04982189
375,3365.84,0.04205325
376,3373.6,0.04209008
377,3381.3700000000003,0.04705006
378,3389.17,0.04931049
379,3396.98,0.0462725
380,3404.81,0.05078098
381,3412.6600000000003,0.04699854
382,3420.5299999999997,0.048805
383,3428.41,0.0495279
384,3436.3199999999997,0.04945716
385,3444.2400000000002,0.04222906
386,3452.1800000000003,0.0516417
387,3460.14,0.04801535
388,3468.1099999999997,0.04850311
389,3476.11,0.04722309
390,3484.12,0.04926547
391,3492.15,0.04796565
392,3500.2,0.04595311
393,3508.27,0.05031576
394,3516.36,0.04624793
395,3524.4700000000003,0.04858271
396,3532.5899999999997,0.0512707
397,3540.7300000000005,0.05275488
398,3548.8999999999996,0.0549088
399,3557.0800000000004,0.05176599
400,3565.28,0.05400517
401,3573.5,0.0450636
402,3581.73,0.0471217
403,3589.9900000000002,0.040515
404,3598.27,0.05128703
405,3606.56,0.04902333
406,3614.87,0.04828384
407,3619.08,0.05305773
408,3621.81,0.03413518
409,3624.55,0.05022285
410,3627.2900000000004,0.04776895
411,3630.03,0.0584493
412,3632.77,0.06365667
413,3635.5,0.05731461
414,3638.24,0.05637513
415,3640.9799999999996,0.05707013
416,3643.72,0.03945328
417,3646.46,0.05691253
418,3649.19,0.04639578
419,3651.93,0.04064363
420,3654.67,0.04455433
421,3657.41,0.05237413
422,3660.1499999999996,0.05007607
423,3662.88,0.04765881
424,3665.62,0.05389574
425,3668.36,0.04944682
426,3671.1,0.04698097
427,3673.8399999999997,0.0549794
428,3676.57,0.06337998
429,3679.31,0.05187629
430,3682.05,0.05296605
431,3684.79,0.06242951
432,3687.5200000000004,0.05726033
433,3690.26,0.05132735
434,3693.0,0.03994313
435,3695.7400000000002,0.04722536
436,3698.48,0.05940496
437,3701.2099999999996,0.0503728
438,3703.95,0.04741172
439,3706.69,0.04539819
440,3709.4300000000003,0.04314466
441,3712.17,0.05649987
442,3714.9,0.04617316
443,3717.64,0.05237861
444,3720.3799999999997,0.05552257
445,3723.12,0.08041939
446,3725.8599999999997,0.1107408
447,3728.59,0.1349703
448,3731.33,0.1251472
449,3734.0699999999997,0.08110909
450,3736.81,0.05413728
451,3739.5499999999997,0.05675506
452,3742.28,0.05563127
453,3745.02,0.04061215
454,3747.7599999999998,0.04870183
455,3750.5,0.05320928
456,3753.24,0.0485209
457,3755.9700000000003,0.05385672
458,3758.71,0.05622309
459,3761.4500000000003,0.05740679
460,3764.19,0.05300457
461,3766.93,0.04958519
462,3769.6600000000003,0.04467715
463,3772.4,0.05457234
464,3775.1400000000003,0.06268482
465,3777.88,0.06422689
466,3780.62,0.05939949
467,3783.35,0.06218537
468,3786.0899999999997,0.05950828
469,3788.8300000000004,0.05942133
470,3791.57,0.05393363
471,3794.3100000000004,0.05013036
472,3797.04,0.05086091
473,3799.7799999999997,0.05046012
474,3801.8939600000003,0.053047869356204876
475,3802.52,0.05381422
476,3805.2599999999998,0.05748273
477,3807.99,0.05716802
478,3810.73,0.06436825
479,3813.47,0.06453651
480,3816.21,0.05733617
481,3818.95,0.05442559
482,3821.6800000000003,0.05730376
483,3824.42,0.05438775
484,3827.16,0.05122196
485,3829.9,0.05335103
486,3832.64,0.05152973
487,3835.3700000000003,0.04207777
488,3838.11,0.0413349
489,3840.85,0.04608726
490,3843.59,0.05425458
491,3846.33,0.0541595
492,3849.0600000000004,0.05718972
493,3851.8,0.0631899
494,3854.54,0.0651338
495,3857.28,0.06297799
496,3860.02,0.06610564
497,3862.75,0.06978209
498,3865.49,0.06800637
499,3868.2299999999996,0.06305407
500,3870.9700000000003,0.06520431
501,3873.71,0.06260325
502,3876.44,0.05778701
503,3879.18,0.05797701
504,3881.9199999999996,0.05750453
505,3884.66,0.05634786
506,3887.3999999999996,0.05576679
507,3890.13,0.05504481
508,3892.87,0.05001486
509,3895.61,0.05144401
510,3898.35,0.05700489
511,3901.0899999999997,0.06139232
512,3903.82,0.06478095
513,3906.56,0.06133278
514,3909.3,0.06134901
515,3912.04,0.06651837
516,3914.77,0.07049346
517,3917.51,0.06378724
518,3920.25,0.06309755
519,3922.9900000000002,0.06229383
520,3925.73,0.06030636
521,3928.4599999999996,0.05614173
522,3931.2000000000003,0.04836904
523,3933.94,0.04113721
524,3936.6800000000003,0.04195928
525,3939.42,0.04622239
526,3942.1499999999996,0.05317363
527,3944.89,0.05658693
528,3947.6299999999997,0.06122416
529,3950.3700000000003,0.06529121
530,3953.11,0.06484046
531,3955.8399999999997,0.0599482
532,3958.58,0.06223421
533,3961.3199999999997,0.05683664
534,3964.06,0.04971993
535,3966.7999999999997,0.04684031
536,3969.53,0.04514631
537,3972.27,0.04767995
538,3975.0099999999998,0.05258109
539,3977.75,0.05402326
540,3980.49,0.05884021
541,3983.2200000000003,0.0655086
542,3985.96,0.07025985
543,3988.7,0.0758582
544,3991.44,0.07952885
545,3994.18,0.07529874
546,3996.9100000000003,0.07161201
547,3999.65,0.0739686
548,4002.3900000000003,0.07053671
549,4005.13,0.07202991
550,4007.87,0.07155198
551,4010.6000000000004,0.07270344
552,4013.34,0.07267622
553,4016.0800000000004,0.07861666
554,4018.82,0.07810615
555,4021.56,0.07841558
556,4024.29,0.07470171
557,4027.0299999999997,0.08739174
558,4029.7699999999995,0.0789696
559,4032.51,0.07521734
560,4035.24,0.07493527
561,4037.98,0.07723212
562,4040.72,0.07446813
563,4043.46,0.07776955
564,4046.2,0.07491869
565,4048.93,0.0795617
566,4051.67,0.08135898
567,4054.41,0.08035434
568,4057.15,0.07547262
569,4059.89,0.08061482
570,4062.6200000000003,0.07129166
571,4065.36,0.07403378
572,4068.1,0.0828413
573,4070.84,0.08085381
574,4073.58,0.07341453
575,4076.3100000000004,0.07015133
576,4079.05,0.06917928
577,4081.79,0.06950501
578,4084.53,0.07535857
579,4087.27,0.0829443
580,4089.9999999999995,0.07741135
581,4092.7400000000002,0.07415323
582,4095.48,0.07270875
583,4098.22,0.07273039
584,4100.96,0.06980353
585,4103.69,0.06400989
586,4106.429999999999,0.0675991
587,4109.17,0.07018919
588,4111.91,0.07635225
589,4114.650000000001,0.07194297
590,4117.38,0.07209529
591,4120.12,0.07586369
592,4122.86,0.07823657
593,4125.599999999999,0.07923018
594,4128.34,0.08190714
595,4131.07,0.0758692
596,4133.81,0.07736237
597,4136.55,0.07767182
598,4139.29,0.08134246
599,4142.03,0.07936042
600,4144.76,0.07476145
601,4147.5,0.077042
602,4150.24,0.07855147
603,4152.98,0.07517391
604,4155.71,0.07292613
605,4158.45,0.07937699
606,4161.1900000000005,0.07621662
607,4163.93,0.08112532
608,4166.67,0.07684093
609,4169.4,0.08070745
610,4172.139999999999,0.0763633
611,4174.88,0.07450071
612,4177.62,0.07113398
613,4180.360000000001,0.07135112
614,4183.09,0.07590724
615,4185.83,0.07548904
616,4188.57,0.07403371
617,4191.3099999999995,0.07343632
618,4194.049999999999,0.07555942
619,4196.78,0.07606471
620,4199.5199999999995,0.07349076
621,4202.26,0.07816057
622,4205.0,0.07521739
623,4207.74,0.0768952
624,4210.47,0.07963225
625,4213.21,0.07929008
626,4215.95,0.07802479
627,4218.69,0.07612963
628,4221.43,0.07685718
629,4224.16,0.07564656
630,4226.900000000001,0.07597229
631,4229.64,0.07356669
632,4232.38,0.07566806
633,4235.12,0.07333306
634,4237.85,0.07410441
635,4240.59,0.07509805
636,4243.33,0.07589075
637,4246.07,0.07731338
638,4248.81,0.07615668
639,4251.54,0.07207355
640,4254.28,0.07503288
641,4257.02,0.07616769
642,4259.76,0.07879578
643,4262.5,0.07893144
644,4265.23,0.07712352
645,4267.97,0.07552157
646,4270.71,0.07976239
647,4273.45,0.07554858
648,4276.18,0.07608643
649,4278.92,0.07902405
650,4281.66,0.07630892
651,4284.4,0.07706907
652,4287.139999999999,0.0721059
653,4289.87,0.0685386
654,4292.61,0.07178573
655,4295.35,0.07134039
656,4298.09,0.07119915
657,4300.83,0.06762609
658,4303.56,0.0627827
659,4306.3,0.06277722
660,4309.04,0.06477542
661,4311.78,0.06605686
662,4314.52,0.06883699
663,4317.25,0.07216046
664,4319.99,0.07674337
665,4322.7300000000005,0.07838861
666,4325.47,0.07386529
667,4328.21,0.0728498
668,4330.94,0.07286637
669,4333.679999999999,0.07248618
670,4336.42,0.07601024
671,4339.16,0.08201583
672,4341.900000000001,0.0801641
673,4344.63,0.07946934
674,4347.37,0.07554331
675,4350.11,0.07117204
676,4352.849999999999,0.0746472
677,4355.59,0.07627074
678,4358.32,0.07978972
679,4361.0599999999995,0.08125575
680,4363.8,0.07866553
681,4365.15832,0.08133853520934203
682,4366.54,0.08405751
683,4369.28,0.07906722
684,4372.01,0.07944218
685,4374.75,0.08037607
686,4377.49,0.08061491
687,4380.23,0.07794325
688,4382.96,0.07592897
689,4385.7,0.07338762
690,4388.4400000000005,0.07596141
691,4391.18,0.07445177
692,4393.92,0.07937136
693,4396.65,0.07876347
694,4399.39,0.07469082
695,4402.13,0.08078332
696,4404.87,0.07923022
697,4407.610000000001,0.07121538
698,4410.34,0.08022415
699,4413.08,0.08042498
700,4415.82,0.08270555
701,4418.56,0.08104387
702,4421.3,0.08292261
703,4424.03,0.08158167
704,4426.7699999999995,0.08310201
705,4429.51,0.08113626
706,4432.25,0.07646088
707,4434.99,0.07862739
708,4437.72,0.08289574
709,4440.46,0.08252641
710,4443.2,0.08056065
711,4445.94,0.08258057
712,4448.68,0.08471993
713,4451.41,0.0825482
714,4454.15,0.08327033
715,4456.89,0.08374809
716,4459.63,0.07959945
717,4462.37,0.08082656
718,4465.1,0.08275453
719,4467.84,0.0853229
720,4470.58,0.08403589
721,4473.32,0.08657708
722,4476.06,0.08274338
723,4478.79,0.0879131
724,4481.530000000001,0.08593648
725,4484.27,0.08337341
726,4487.01,0.08693547
727,4489.75,0.08556157
728,4492.48,0.08331382
729,4495.219999999999,0.08356895
730,4497.96,0.08628392
731,4500.7,0.08916177
732,4503.43,0.08750591
733,4506.17,0.08830949
734,4508.91,0.08866235
735,4511.65,0.08981889
736,4514.389999999999,0.0916976
737,4517.12,0.08858106
738,4519.86,0.08948781
739,4522.6,0.08732111
740,4525.34,0.08937362
741,4528.08,0.08038133
742,4530.81,0.0794585
743,4533.55,0.08219521
744,4536.29,0.08208108
745,4539.03,0.08430736
746,4541.7699999999995,0.08579511
747,4544.5,0.08838556
748,4547.24,0.08851579
749,4549.9800000000005,0.08011539
750,4552.72,0.08770112
751,4555.46,0.08330812
752,4558.19,0.08623524
753,4560.93,0.09085072
754,4563.67,0.0875546
755,4566.41,0.08693548
756,4569.150000000001,0.08435613
757,4571.88,0.08649588
758,4574.62,0.08684874
759,4577.36,0.09007414
760,4580.099999999999,0.08722327
761,4582.84,0.08637067
762,4585.57,0.08445958
763,4588.3099999999995,0.08450838
764,4591.05,0.08240143
