,lambda (Angstroms),Total Flux (erg/s/cm^2/Angstrom)
0,100.1,0.0011932650271883362
1,101.96000000000001,0.001434069093011544
2,104.10000000000001,0.0017097217649801792
3,104.712855,0.0017890185780209207
4,106.03,0.0016508679475718214
5,108.01,0.0014441997347980269
6,110.01,0.0012408148551275276
7,113.88000000000001,0.0008389396856151117
8,117.88,0.00042322459627411503
9,120.22644299999999,0.0002748678337010376
10,120.91,0.0003011197188699103
11,124.87,0.00031248871072640046
12,126.9,0.0003138504174104093
13,128.07,0.0003178261990952815
14,131.05,0.0003191489601388018
15,131.96,0.0003539639458937024
16,134.10999999999999,0.0003544382583915444
17,136.91,0.0004035228607143152
18,138.038426,0.00040536884404127017
19,140.1,0.0004185475246249133
20,143.04000000000002,0.0009925125420030378
21,147.04,0.0021921342670072888
22,151.16,0.0022624987947616674
23,155.04,0.0023670391170157908
24,158.489319,0.0024668474224333985
25,159.01999999999998,0.0024821534466633616
26,161.98000000000002,0.002561757446740534
27,166.13,0.002705012041443326
28,170.0,0.0027983375550577365
29,173.16000000000003,0.0028882190416266093
30,177.19,0.002988171744434381
31,180.07,0.0030563211499148725
32,181.970086,0.0031070659774441217
33,182.16,0.0031122051007763584
34,185.97,0.0032140911539284786
35,191.18,0.003334774751545945
36,193.83999999999997,0.0034355007860301023
37,197.89999999999998,0.0035231903649796054
38,202.05,0.003629872693216167
39,204.86,0.003706059643178754
40,208.929613,0.0036736725325374566
41,210.10999999999999,0.0036647942591781124
42,216.0,0.003955325065217976
43,220.01,0.004067707843183995
44,223.07,0.004097505878240359
45,227.22,0.004223195860424643
46,229.85,0.0063192840539534785
47,234.13,0.010396243011483293
48,239.88329199999998,0.012410094010389791
49,240.13,0.0124962150692031
50,245.72,0.011555927267887213
51,252.03,0.01193000933831597
52,256.71,0.00985833550465616
53,260.28,0.011209905785390021
54,263.91,0.011573592222102603
55,268.81,0.011334921627031432
56,273.81,0.011050227958591462
57,275.42287,0.010969834014743395
58,278.90000000000003,0.010799612262706744
59,284.09,0.01060539897873097
60,290.03000000000003,0.009879642595914765
61,296.10999999999996,0.009813912594648347
62,300.92,0.009484264560751725
63,307.93,0.009336645236923175
64,316.227766,0.009183294519751624
65,318.02,0.009148744418150268
66,327.68,0.008776325535704899
67,337.64000000000004,0.008378866601009675
68,347.90000000000003,0.007963565614064593
69,356.82,0.007673560993835538
70,363.078055,0.007505804019378384
71,365.96999999999997,0.0074300152902116254
72,375.36,0.007131846831900489
73,384.99,0.006614294467306638
74,394.86,0.006526788196430077
75,404.99,0.006309131277080575
76,414.43,0.006042529963293872
77,416.86938299999997,0.005966098789596369
78,422.13,0.005800719017620112
79,429.98,0.00558070920799539
80,441.01,0.005357509983771099
81,451.28000000000003,0.005108271883790729
82,459.67,0.004892950249045326
83,470.38000000000005,0.004686921550818475
84,478.630092,0.004547803769649852
85,480.23,0.004520241972375081
86,490.28000000000003,0.004277796539038212
87,500.55,0.004160375607658148
88,506.35,0.004019176113792093
89,512.21,0.004064203211368804
90,520.53,0.003934657558098879
91,530.21,0.0037403856441982925
92,540.07,0.0035232355046260007
93,549.5408739999999,0.0033804551313371704
94,550.11,0.0033719545310660227
95,560.34,0.003317843932018707
96,569.44,0.0032425253952317492
97,580.03,0.0030900925639598953
98,589.4499999999999,0.002999454487417792
99,600.41,0.00283261975080405
100,610.1700000000001,0.002470438788272105
101,620.08,0.002692999728979935
102,630.1600000000001,0.0025724112266928435
103,630.957344,0.002567847111891197
104,640.4,0.002515288309119121
105,649.3000000000001,0.0024207338257758912
106,658.34,0.002324402044941869
107,664.4300000000001,0.0023144486040924004
108,675.22,0.0022481476046234735
109,684.62,0.0021202464873845564
110,695.74,0.0021069174295444758
111,705.42,0.001978396717323974
112,715.23,0.0019837398002905938
113,724.43596,0.0019274509390462763
114,725.18,0.0019228724875464595
115,735.27,0.0018762283716937836
116,745.5,0.0018143214831731818
117,754.13,0.0017544719965717356
118,764.62,0.0015896975302392706
119,775.26,0.0016595838074768851
120,784.2399999999999,0.0015871223892056237
121,795.15,0.0015664446048693807
122,804.3599999999999,0.0015321880600722405
123,815.5500000000001,0.0014954577304001453
124,824.99,0.0014628900590771265
125,831.763771,0.0013788186999490553
126,834.54,0.001343906303713405
127,844.2099999999999,0.0013823620197780883
128,855.95,0.0013415047733043944
129,865.86,0.0013166144792197006
130,875.89,0.001292172680060318
131,883.99,0.0012627220875188428
132,894.23,0.0012364076544787554
133,904.5799999999999,0.0011998408417868702
134,915.0600000000001,0.0013867853985974057
135,925.65,0.0026895675757561436
136,934.22,0.004272210088338805
137,945.0400000000001,0.006404840380771056
138,954.992586,0.007938894857804305
139,955.98,0.008091184729547113
140,964.8199999999999,0.008889399481003127
141,976.0000000000001,0.0029625496078445547
142,985.03,0.00763976797952417
143,994.14,0.007710060928140039
144,1005.65,0.010178107184843512
145,1014.96,0.009788295575800014
146,1024.35,0.004908198543692771
147,1033.83,0.007448429910638813
148,1045.8,0.012202182984725744
149,1055.48,0.01187035079401242
150,1065.24,0.009675606180235349
151,1075.1,0.011054181787628594
152,1085.05,0.008866930794075125
153,1095.09,0.01128445619957494
154,1096.4782,0.011214992727776379
155,1105.22,0.010777234813587614
156,1115.45,0.010363905267045755
157,1125.77,0.009302931709830509
158,1136.18,0.011282371141941876
159,1144.06,0.010314902429649615
160,1154.6399999999999,0.01072534339715569
161,1165.33,0.010873548240505402
162,1176.11,0.0077391950731817245
163,1184.26,0.010336434328869298
164,1195.22,0.007614876140198842
165,1206.28,0.0058609613841135106
166,1214.64,0.003986935948229843
167,1225.88,0.007271307170797734
168,1234.38,0.010122083940533239
169,1245.8,0.010869028141754352
170,1254.44,0.010403977117109029
171,1258.92541,0.009925997976823694
172,1266.04,0.009168269569970175
173,1274.8200000000002,0.011275480339348162
174,1283.66,0.011644315346330099
175,1295.53,0.0094466453523115
176,1304.5100000000002,0.009295741913702653
177,1313.56,0.011197963752298411
178,1325.71,0.010670401867098245
179,1334.8999999999999,0.009555880260103223
180,1344.15,0.01101963489071215
181,1353.47,0.010621561798525685
182,1365.99,0.009578082378549874
183,1375.46,0.009891219880373284
184,1385.0000000000002,0.009891227659401302
185,1394.6,0.00847959967603327
186,1404.26,0.008637065930269186
187,1414.0,0.009084823501310369
188,1423.8,0.009168886309955502
189,1433.6699999999998,0.009106010395805242
190,1443.61,0.009490493758859594
191,1445.43977,0.009538920466790937
192,1446.9299999999998,0.009578359957861165
193,1453.61,0.009275028159793764
194,1463.69,0.008597696662111218
195,1473.83,0.008538778363847232
196,1484.0500000000002,0.008617573331474651
197,1494.3400000000001,0.008677118531757054
198,1504.6899999999998,0.008211898931458012
199,1511.6399999999999,0.007388199030774115
200,1518.62,0.007807106229799496
201,1525.63,0.007577426528534155
202,1536.2,0.006617259659436486
203,1543.29,0.0069920162240625534
204,1553.99,0.006632524787038424
205,1564.76,0.006802182582669277
206,1575.6100000000001,0.007204116644191537
207,1586.53,0.0074567649383687805
208,1593.85,0.007577685267432647
209,1604.8999999999999,0.007371582993683429
210,1616.03,0.007337701985825619
211,1623.49,0.00696044178019945
212,1634.74,0.007337821171178753
213,1646.07,0.007405579828049465
214,1653.6699999999998,0.006865078087733259
215,1659.58691,0.007144203457963206
216,1665.1299999999999,0.007405810294973485
217,1672.82,0.006617963946189542
218,1676.67,0.007613174393157268
219,1684.41,0.007826135257970308
220,1696.0900000000001,0.007338720754225645
221,1703.9199999999998,0.007106889803513255
222,1715.73,0.006882383455120749
223,1723.6499999999999,0.0068666616888829295
224,1735.59,0.00735670349584258
225,1743.61,0.007173299156798728
226,1755.69,0.007756253361829932
227,1763.8000000000002,0.00699493320726065
228,1776.0200000000002,0.0072737438103634075
229,1784.22,0.007425882840268695
230,1796.5900000000001,0.008196633084162405
231,1804.88,0.007919378298542262
232,1813.21,0.007409416483799707
233,1825.78,0.007546985582081349
234,1834.21,0.0072584411945327615
235,1846.9199999999998,0.006471852690885957
236,1855.4499999999998,0.006917288730531335
237,1864.0100000000002,0.007461943498334904
238,1876.93,0.0077412780917954305
239,1885.5900000000001,0.007343396286792967
240,1894.3,0.007514279695387485
241,1903.04,0.007653593832140195
242,1905.46072,0.0076408449784666245
243,1916.2299999999998,0.007583529651397431
244,1925.0800000000002,0.007062474763214918
245,1933.96,0.006325565936428398
246,1942.8899999999999,0.008067499545301863
247,1956.3600000000001,0.007811899112102041
248,1965.3899999999999,0.00882267759229548
249,1974.46,0.008562637821016903
250,1983.5700000000002,0.008822169798266319
251,1992.73,0.00876120721117572
252,2006.54,0.008542120140463799
253,2015.8000000000002,0.00850263042469317
254,2025.11,0.008046411144582528
255,2034.4599999999998,0.008840724612999874
256,2043.8500000000001,0.009492935829945209
257,2053.28,0.008921805795418535
258,2062.7599999999998,0.008718728196551843
259,2072.2799999999997,0.00977996334621314
260,2077.06,0.013277126795307783
261,2086.64,0.015101547067761066
262,2096.28,0.013965345463006328
263,2105.95,0.013245722919647585
264,2115.67,0.014256898811948826
265,2125.44,0.013184223139910052
266,2135.25,0.01208075621639927
267,2145.1,0.014487258041416472
268,2155.0099999999998,0.014721877989225661
269,2164.95,0.01312266699843084
270,2174.95,0.013335094130428
271,2184.98,0.015343510323821155
272,2187.7616199999998,0.015421953749072573
273,2195.07,0.015628465601410835
274,2205.2,0.0149604682915441
275,2215.38,0.012191542228913959
276,2225.61,0.013152957413520405
277,2235.88,0.016554463595916124
278,2246.2,0.015629671025548436
279,2256.57,0.012562649702417335
280,2266.98,0.01222099937707551
281,2277.45,0.01346013054841759
282,2282.7,0.016441941508259606
283,2293.23,0.014126674176285598
284,2303.82,0.016322128340995497
285,2314.4500000000003,0.01424108350349467
286,2325.14,0.010849790162677751
287,2335.87,0.010284177819650105
288,2346.65,0.0076939297238590495
289,2357.48,0.012805416875304584
290,2362.92,0.008177623574645645
291,2373.82,0.010165024472222409
292,2384.7799999999997,0.006718293866483078
293,2395.79,0.00808577850798034
294,2406.85,0.00793286539671419
295,2412.39,0.009206842590528435
296,2423.53,0.014270514474840831
297,2434.72,0.014227113606389818
298,2445.9500000000003,0.01650841373572808
299,2457.24,0.017272605361750248
300,2462.9100000000003,0.015426216798379626
301,2474.28,0.01383591041998034
302,2485.7000000000003,0.010325895288817645
303,2497.17,0.011259451404891539
304,2502.93,0.016636335086546782
305,2511.88643,0.010131757740394133
306,2514.48,0.00824809646327138
307,2520.2799999999997,0.006956986468517212
308,2526.0899999999997,0.0075013243772203645
309,2537.7499999999995,0.01052900880845595
310,2543.6,0.011172682330988382
311,2555.3399999999997,0.017679518989882532
312,2567.13,0.01374944516606328
313,2573.05,0.016864148012796957
314,2584.93,0.015194133320093593
315,2596.8599999999997,0.013721088144676827
316,2602.84,0.012031450412154426
317,2614.86,0.010915324367853545
318,2626.9300000000003,0.014636597840839266
319,2632.9799999999996,0.022856949432518106
320,2645.1400000000003,0.03072957203661971
321,2657.35,0.03972783415800792
322,2663.47,0.026366285073888003
323,2675.77,0.030105606326392094
324,2681.94,0.03352922675955878
325,2694.32,0.025829377239721434
326,2706.75,0.031024177237170693
327,2712.9900000000002,0.02336715699453862
328,2725.5099999999998,0.02047811612310376
329,2738.09,0.02453752467241282
330,2744.41,0.013770163657439315
331,2757.0699999999997,0.018005111434406938
332,2763.43,0.02286098003326271
333,2776.18,0.02487007694134622
334,2782.58,0.015549085154031276
335,2795.43,0.00722767809668799
336,2801.8700000000003,0.008641572923202325
337,2814.81,0.022261093996974922
338,2827.7999999999997,0.03213939858803412
339,2834.32,0.031176895642207023
340,2847.4,0.025439679364382104
341,2853.96,0.016311966032384283
342,2867.1400000000003,0.03294750878913257
343,2873.75,0.039956894974421356
344,2884.0315,0.03707519986414067
345,2887.0099999999998,0.03624041512558292
346,2893.6600000000003,0.0413968138116974
347,2907.02,0.05414019117207176
348,2927.17,0.04774397719089986
349,2947.46,0.045010643182067205
350,2967.8900000000003,0.047939289145573806
351,2988.47,0.0484241850794439
352,3009.1800000000003,0.049820540987628996
353,3030.04,0.05149631686617758
354,3051.04,0.053472722717065435
355,3072.19,0.05655535853831676
356,3093.49,0.056470384329931574
357,3107.7700000000004,0.0619963815085353
358,3129.31,0.05857517725273169
359,3151.0,0.058215932967291564
360,3172.84,0.06256861865221491
361,3187.4900000000002,0.05469172575771524
362,3209.5800000000004,0.06070537139324441
363,3231.83,0.051470726997161285
364,3246.75,0.06824066404931589
365,3269.25,0.07804306960383858
366,3291.9100000000003,0.07631836512674899
367,3307.1099999999997,0.07347924212358209
368,3311.31121,0.07304268436711167
369,3322.37,0.07189349952550221
370,3330.0299999999997,0.07770387059439667
371,3337.71,0.07485233158775297
372,3345.4,0.07446777254334022
373,3353.11,0.06898028342338933
374,3360.84,0.0775297242279003
375,3368.59,0.07642302495687314
376,3376.36,0.06166237561030785
377,3384.14,0.06452927622597349
378,3391.94,0.077357206766101
379,3399.76,0.08114293723069037
380,3407.6,0.0749907076197416
381,3415.45,0.07408981797102378
382,3423.33,0.08521091820899873
383,3431.22,0.08227213840920462
384,3439.13,0.08109658853387239
385,3447.06,0.061064098583002026
386,3454.9999999999995,0.0749058285943626
387,3462.9700000000003,0.06580714849241595
388,3470.95,0.07430261835270024
389,3478.9500000000003,0.060504448137446404
390,3486.97,0.07087865784665442
391,3495.01,0.06580698748032432
392,3503.0699999999997,0.08260031703845608
393,3511.14,0.07956654655881876
394,3519.2400000000002,0.07897360596587424
395,3527.3500000000004,0.06313242533516066
396,3535.4799999999996,0.07726158462890895
397,3543.6299999999997,0.0874355938471191
398,3551.8,0.08618559298979112
399,3559.9900000000002,0.081878782056925
400,3568.19,0.0675984910862898
401,3576.42,0.06802669000234741
402,3584.66,0.05526318888063596
403,3592.93,0.0635555476456173
404,3601.21,0.08868566637282958
405,3609.51,0.07288034502450372
406,3617.8300000000004,0.07876554360063971
407,3626.17,0.08473545210123759
408,3634.53,0.07092697052629733
409,3642.91,0.09495560887581893
410,3651.31,0.0745201171498024
411,3659.7200000000003,0.1002247853860168
412,3668.16,0.09653900350892398
413,3676.62,0.10125892155629306
414,3685.0899999999997,0.08613426956589304
415,3693.59,0.09416722746218584
416,3702.1,0.10083572532070957
417,3710.64,0.0721712430659261
418,3719.19,0.10353056077337355
419,3727.7599999999998,0.08429620840528287
420,3736.36,0.060613935923885
421,3744.9700000000003,0.09083323340471805
422,3753.6000000000004,0.05861698081001297
423,3762.26,0.07580553810200069
424,3770.9300000000003,0.07805895535621935
425,3779.6200000000003,0.09574591253489985
426,3788.33,0.10835049963804223
427,3797.07,0.08176490662787742
428,3801.8939600000003,0.08828967746848242
429,3805.8199999999997,0.09359994666959368
430,3814.59,0.1032735104477915
431,3823.39,0.078474704136291
432,3832.2000000000003,0.06508201779489109
433,3841.04,0.05625792136379287
434,3849.8900000000003,0.09095849490279523
435,3858.7599999999998,0.08944711838199872
436,3867.66,0.09577891177150391
437,3876.58,0.08336619510121024
438,3885.5099999999998,0.08311756840101713
439,3894.47,0.07680874161112573
440,3896.21,0.10240296640862451
441,3897.9799999999996,0.09323744111642497
442,3899.75,0.10011895582422545
443,3901.53,0.09251087050212649
444,3903.3,0.07820747520992696
445,3905.0699999999997,0.09446221991772742
446,3906.85,0.09612735459562846
447,3908.62,0.09606869930342894
448,3910.3900000000003,0.1053674240112294
449,3912.1699999999996,0.11855711868913044
450,3913.94,0.10059891339693092
451,3915.72,0.10026720807483194
452,3917.4900000000002,0.10087080278263243
453,3919.2599999999998,0.0989379774904329
454,3921.04,0.08363057216833394
455,3922.81,0.0890028368761344
456,3924.58,0.08093584158393487
457,3926.3599999999997,0.06982485626183592
458,3928.13,0.058380240969636385
459,3929.91,0.046689245647537424
460,3931.6800000000003,0.0430910203553379
461,3933.45,0.040041815063138364
462,3935.23,0.0478776497410394
463,3937.0,0.055513264448839875
464,3938.77,0.06244078915664034
465,3940.5499999999997,0.06740969383454137
466,3942.32,0.07170869854234185
467,3944.09,0.08439838325014233
468,3945.8700000000003,0.08972612792804335
469,3947.64,0.09596850263584383
470,3949.42,0.09838614731374487
471,3951.19,0.10141210202154535
472,3952.9599999999996,0.1072668967293458
473,3954.74,0.10359089140724685
474,3956.5099999999998,0.09658953611504732
475,3958.28,0.08935714082284779
476,3960.0600000000004,0.07997305550074883
477,3961.83,0.0745680502085493
478,3963.61,0.06656231488645034
479,3965.38,0.05233837959425081
480,3967.1499999999996,0.04312951430205129
481,3968.93,0.050238768979952324
482,3970.7,0.0656027636877528
483,3972.4700000000003,0.07862058839555326
484,3974.2499999999995,0.07826629307345431
485,3976.02,0.08536287778125479
486,3977.79,0.10405332248905524
487,3979.57,0.11225361716695628
488,3981.3399999999997,0.11676811187475676
489,3983.12,0.1202560065526578
490,3984.89,0.12214240126045826
491,3986.6600000000003,0.12053609596825873
492,3988.4399999999996,0.11890619064615977
493,3990.21,0.12732708535396023
494,3991.98,0.1295964800617607
495,3993.76,0.12284297473966176
496,3995.5299999999997,0.12446806944746222
497,3997.31,0.12752216412536324
498,3999.08,0.13595075883316374
499,4000.8500000000004,0.1380533535409642
500,4002.6299999999997,0.13415384821886525
501,4004.4,0.1293702429266657
502,4006.17,0.1257363376344662
503,4007.9500000000003,0.13102543231236724
504,4009.72,0.1373269270201677
505,4011.49,0.13949812172796816
506,4013.27,0.1426626164058692
507,4015.0400000000004,0.14789141111366969
508,4016.8199999999997,0.14932520579157071
509,4018.59,0.1430170004993712
510,4020.36,0.14375599520717167
511,4022.1400000000003,0.1525413898850727
512,4023.91,0.14790158459287317
513,4025.68,0.14714677930067366
514,4027.46,0.13996777397857466
515,4029.2299999999996,0.13653086868637515
516,4031.0099999999998,0.1389022633642762
517,4032.78,0.13155715807207666
518,4034.55,0.1345470527798771
519,4036.3300000000004,0.14696934745777815
520,4038.1,0.14169484216557865
521,4039.87,0.1515358368733791
522,4041.65,0.13681023155128014
523,4043.4199999999996,0.1357584262590806
524,4045.19,0.1307489209668811
525,4046.97,0.1327988156447821
526,4048.7400000000002,0.1420032103525826
527,4050.5200000000004,0.14339350503048365
528,4052.29,0.1477751997382841
529,4054.06,0.14263739444608456
530,4055.84,0.13789088912398562
531,4057.6099999999997,0.13475238383178606
532,4059.38,0.13449307853958656
533,4061.16,0.1333866732174876
534,4062.9300000000003,0.12299746792528807
535,4064.7100000000005,0.1299958626031891
536,4066.48,0.13502435731098958
537,4068.25,0.13947475201879006
538,4070.03,0.14453594669669106
539,4071.7999999999997,0.12915464140449157
540,4073.57,0.134051636112292
541,4075.35,0.13337393079019308
542,4077.1200000000003,0.13198262549799353
543,4078.8999999999996,0.13709782017589456
544,4080.67,0.14230851488369506
545,4082.44,0.1496797095914955
546,4084.2200000000003,0.13808350426939656
547,4085.99,0.14808799897719702
548,4087.7599999999998,0.1515997936849975
549,4089.54,0.14858558836289854
550,4091.3100000000004,0.14914828307069902
551,4093.08,0.14522957777849949
552,4094.86,0.14728207245640051
553,4096.63,0.13052766716420097
554,4098.41,0.12097906184210203
555,4100.18,0.1232125565499025
556,4101.95,0.11972235125770297
557,4103.73,0.12890754593560402
558,4105.5,0.13270664064340448
559,4107.27,0.13631513535120493
