,lambda (Angstroms),Total Flux (erg/s/cm^2/Angstrom)
0,100.11000000000001,0.02881135664078293
1,101.97,0.03460319629316338
2,104.10000000000001,0.041235786862827896
3,104.712855,0.04314415132028643
4,106.04,0.039696002834844424
5,108.01,0.03457760769762283
6,110.02,0.029355285761108345
7,113.88000000000001,0.019326349108775297
8,117.88,0.008933668651610153
9,120.22644299999999,0.002837210743652397
10,120.91,0.0027550325949382867
11,124.87,0.0022789559080541155
12,126.9,0.002034906517090195
13,128.07,0.0018942475179698464
14,131.06,0.0015347856721533838
15,131.96,0.0014265866042967447
16,134.10999999999999,0.001168110759860322
17,136.92,0.0008302892056222682
18,138.038426,0.000695830647104989
19,140.10999999999999,0.0006870352794638925
20,143.04000000000002,0.0006745994672209349
21,147.04999999999998,0.0006575858188304506
22,151.17000000000002,0.0006400990698645514
23,155.04,0.0006236759244714132
24,158.489319,0.0006090398642534258
25,159.01999999999998,0.0006055792857286018
26,161.98000000000002,0.000586278897428887
27,166.13,0.0005592221078855374
28,170.0,0.0005339946596771604
29,173.16000000000003,0.0005133975157924649
30,177.2,0.0004870688300078547
31,180.07999999999998,0.00046830449478813246
32,181.970086,0.0004559908657213026
33,182.16,0.0004563912575316919
34,185.98,0.00046445190453278814
35,191.19,0.00047545086907171784
36,193.85,0.000481080893905989
37,197.89999999999998,0.0004896489161780936
38,202.05,0.0004984388773680282
39,204.86,0.000504404297479044
40,208.929613,0.0005130231479796619
41,210.10999999999999,0.0005280936675040981
42,216.0,0.0006033891463498457
43,220.02,0.0006547821898309841
44,223.08,0.0006938986750912535
45,227.23,0.0007469851665929259
46,229.85999999999999,0.0007813159820698894
47,234.13,0.0008375714178366708
48,239.88329199999998,0.0009124412673709143
49,240.14000000000001,0.0009098131916531899
50,245.73000000000002,0.0008516211264561316
51,252.03,0.0007866366102555111
52,256.72,0.0007369185093728267
53,260.29,0.0007009133760591419
54,263.91,0.0006639583985057696
55,268.82,0.0006132857653684609
56,273.81,0.000561809162047652
57,275.42287,0.0005451731383911695
58,278.90999999999997,0.0005849261928309855
59,284.09,0.0006440771333871565
60,290.03999999999996,0.0007114395351070828
61,296.10999999999996,0.0007811414268785032
62,300.92,0.0008360226231092343
63,307.93,0.0009165322969506935
64,316.227766,0.001012033447455072
65,318.02,0.000997846223300224
66,327.68,0.0009212686159778616
67,337.64000000000004,0.0008422744524032523
68,347.90000000000003,0.0007608022525763958
69,356.83,0.0006901648901345026
70,363.078055,0.0006408685926845831
71,365.97999999999996,0.000660406428480692
72,375.37,0.0007232906906081657
73,385.0,0.0007870815314481625
74,394.87,0.0008546132310006826
75,405.0,0.0009230397341584363
76,414.44,0.0009863785135176854
77,416.86938299999997,0.0010027030850309863
78,422.14000000000004,0.001024606003546894
79,429.99,0.0010571660798474709
80,441.02000000000004,0.001103544363579365
81,451.29,0.0011459811600006294
82,459.68,0.0011811803536008643
83,470.39,0.0012257566100440718
84,478.630092,0.0012605670935719514
85,480.23999999999995,0.0012530590776539431
86,490.29,0.0012054451912992192
87,500.56000000000006,0.0011581263805267798
88,506.36,0.00114591596496883
89,512.2199999999999,0.0012368901063878673
90,520.5400000000001,0.0012110353738633587
91,530.22,0.001181816799483884
92,540.08,0.001133258096035369
93,549.5408739999999,0.0011891007799466743
94,550.12,0.0011944887880985446
95,560.35,0.0012636221003938762
96,569.45,0.001324988847890212
97,580.04,0.0013027766348117724
98,589.46,0.0014315123041980893
99,600.42,0.00145784925392994
100,610.1800000000001,0.0016073398215743617
101,620.09,0.001756111811979712
102,630.1700000000001,0.0018665287015141151
103,630.957344,0.0018692509049864437
104,640.41,0.0019383578346081364
105,649.32,0.0021746976704294786
106,658.35,0.0023296509720531285
107,664.44,0.002475013361520241
108,675.24,0.0025791542837279285
109,684.63,0.0026248269827585016
110,695.76,0.0032525129359225347
111,705.43,0.003208280055158492
112,715.25,0.003823724006647334
113,724.43596,0.004031401057630909
114,725.2,0.004047946008291701
115,735.29,0.004254567104006789
116,745.5100000000001,0.004806159828308889
117,754.15,0.005181059835938064
118,764.64,0.005560684404228575
119,775.28,0.006100347774734872
120,784.25,0.00665912114723877
121,795.1600000000001,0.007050782361733479
122,804.3699999999999,0.007451036817782632
123,815.5600000000001,0.007831366463080138
124,825.0,0.00867451641586016
125,831.763771,0.007835731689696604
126,834.5600000000001,0.007477775040822391
127,844.22,0.009386247153952804
128,855.97,0.009789278340213918
129,865.88,0.010612674457307332
130,875.9,0.011493581736144468
131,884.01,0.012598688024704265
132,894.24,0.013436757066870324
133,904.6,0.013671529391097144
134,915.07,0.021241089877067684
135,925.67,0.147434983645099
136,934.2399999999999,0.3298234677009507
137,945.0500000000001,0.6438439052323109
138,954.992586,0.8923350557990134
139,956.0,0.9175152860076202
140,964.84,1.068005152004282
141,976.0099999999999,0.181538507454815
142,985.05,0.9629217867093197
143,994.1600000000001,1.0152594356040696
144,1005.6700000000001,1.4604614435929355
145,1014.98,1.4141304057455284
146,1024.37,0.6092066332012586
147,1033.8500000000001,1.034095221623018
148,1045.82,1.9563780301049232
149,1055.5,1.9384008317845256
150,1065.26,1.5684425987672652
151,1075.12,1.8767713223789264
152,1085.0700000000002,1.522175006956617
153,1095.11,2.0111196525003368
154,1096.4782,1.998894536510863
155,1105.24,1.9205981655123976
156,1115.47,1.8639772789396676
157,1125.79,1.676643270197676
158,1136.2,2.1400431392864228
159,1144.08,1.9652734426888554
160,1154.67,2.100823067439079
161,1165.35,2.1796805700200412
162,1176.1299999999999,1.5255949368573793
163,1184.29,2.179635860177665
164,1195.24,1.5901179962508425
165,1206.3,1.1600309830060336
166,1214.66,0.7474220348390712
167,1225.9,1.575496377255739
168,1234.3999999999999,2.3246928390477035
169,1245.82,2.5197473371258483
170,1254.46,2.423096608876739
171,1258.92541,2.3217522789797824
172,1266.07,2.1596132372029295
173,1274.84,2.6628740839775884
174,1283.68,2.7564529375109963
175,1295.56,2.2098900845672045
176,1304.54,2.2560719516181096
177,1313.58,2.756429824462228
178,1325.73,2.6264139975878957
179,1334.92,2.378923884915047
180,1344.18,2.769197779000947
181,1353.49,2.712472677914525
182,1366.02,2.4680048877305425
183,1375.49,2.5606548020926883
184,1385.0199999999998,2.608288722248048
185,1394.6200000000001,2.2251896491621554
186,1404.29,2.3462325828350123
187,1414.02,2.4624535223010824
188,1423.8200000000002,2.5140114685259007
189,1433.69,2.549037421509468
190,1443.6299999999999,2.669009381251784
191,1445.43977,2.6757301613428592
192,1446.9599999999998,2.6813756791854826
193,1453.6399999999999,2.6264322205086743
194,1463.71,2.456723036545282
195,1473.86,2.479509859064802
196,1484.0800000000002,2.502500687256871
197,1494.3600000000001,2.5371615203111233
198,1504.72,2.395295359848289
199,1511.6699999999998,2.1497649230513103
200,1518.65,2.2875094886854233
201,1525.66,2.277077056750629
202,1536.23,2.0015949133054396
203,1543.32,2.1251694878535576
204,1554.0200000000002,2.043620354943101
205,1564.79,2.134871227705193
206,1575.64,2.271889106950197
207,1586.56,2.3570209918677496
208,1593.88,2.4008605850542413
209,1604.93,2.3843274805065264
210,1616.06,2.4008343824417246
211,1623.52,2.3140909869733126
212,1634.7700000000002,2.4680118986328794
213,1646.1000000000001,2.4910258167753585
214,1653.6999999999998,2.3679904326520433
215,1659.58691,2.460995868634519
216,1665.16,2.5490462078256253
217,1672.85,2.384339758719181
218,1676.7,2.5666600371249273
219,1684.44,2.6384856176081675
220,1696.1200000000001,2.5082735297585876
221,1703.9499999999998,2.4287161635032612
222,1715.76,2.303370152586862
223,1723.6799999999998,2.2981608395929687
224,1735.6299999999999,2.439874911527688
225,1743.6399999999999,2.389936651795227
226,1755.72,2.514066800663128
227,1763.8300000000002,2.3734476001100373
228,1776.0600000000002,2.3843888377469926
229,1784.25,2.445664684537398
230,1796.62,2.566718005025471
231,1804.91,2.584495910995247
232,1813.2400000000002,2.368093840636771
233,1825.81,2.4568292794835838
234,1834.24,2.379048268304478
235,1846.96,2.205013795920346
236,1855.48,2.189752838002673
237,1864.04,2.2562329037567475
238,1876.97,2.451268555649293
239,1885.63,2.2407936805827378
240,1894.33,2.125301829187931
241,1903.0800000000002,2.3088470073828087
242,1905.46072,2.2882648447237
243,1916.27,2.1948001706492857
244,1925.11,2.1499174272438952
245,1933.9999999999998,2.266629645697072
246,1942.9299999999998,2.335585833637102
247,1956.39,2.164785565963284
248,1965.4199999999998,2.373490677620448
249,1974.4999999999998,2.462552751136178
250,1983.6100000000001,2.319408801767049
251,1992.7700000000002,2.2719678142564863
252,2006.58,2.3624892795926358
253,2015.8400000000001,2.3087782157992067
254,2025.15,2.4343071138643446
255,2034.49,2.2719529890446224
256,2043.8799999999999,2.340923826083467
257,2053.3199999999997,2.245891624980879
258,2062.7999999999997,2.2875353933651437
259,2072.32,2.4286981312362617
260,2077.09,2.2613264925435343
261,2086.68,2.3680021770166464
262,2096.31,2.2510678309766115
263,2105.9900000000002,2.3140934467951433
264,2115.71,2.3354700321005293
265,2125.48,2.3733455792644813
266,2135.29,2.282285095915287
267,2145.1400000000003,2.266495582052946
268,2155.04,2.3623960300491724
269,2164.99,2.324668439903965
270,2174.98,2.3086698192456114
271,2185.02,2.2612381604458247
272,2187.7616199999998,2.2828573701754573
273,2195.11,2.3408135383264885
274,2205.24,2.303269699368047
275,2215.42,2.2458058908194847
276,2225.65,2.1795391126808012
277,2235.92,2.266830358870022
278,2246.24,2.226979635469122
279,2256.61,2.162679942478101
280,2267.0299999999997,2.2145812798969593
281,2277.4900000000002,2.246923641643722
282,2282.7400000000002,2.2788878346810546
283,2293.28,2.1777802450836234
284,2303.86,2.189460679814096
285,2314.5,2.121395151036424
286,2325.18,1.7617746465866553
287,2335.91,2.038076172546766
288,2346.69,2.0255177289167556
289,2357.5299999999997,2.0934013217786007
290,2362.96,2.0183316242914997
291,2373.87,2.0384542597271755
292,2384.82,1.9752559194907555
293,2395.83,2.055540615746191
294,2406.89,1.991782342411505
295,2412.44,2.015488717908114
296,2423.5699999999997,2.0640114871472597
297,2434.7599999999998,1.9998862928782604
298,2446.0,2.0717361290191407
299,2457.29,2.0541399955698996
300,2462.95,2.0455284379682435
301,2474.32,2.0004503531748097
302,2485.74,2.053269298791256
303,2497.22,1.9176652808995567
304,2502.97,2.074465778035683
305,2511.88643,1.9826142316849897
306,2514.5299999999997,1.9553795787209742
307,2520.3199999999997,2.0295702158216806
308,2526.1299999999997,1.9658088482146183
309,2537.79,1.9719101035849536
310,2543.64,1.9365247265623518
311,2555.3900000000003,2.006201960747724
312,2567.18,1.989143185517557
313,2573.1,2.0503807920177612
314,2584.97,2.042478997956516
315,2596.91,2.0394231874180773
316,2602.89,1.9982997797949733
317,2614.91,1.9860809504254562
318,2626.98,2.0106781092865154
319,2633.03,2.0298976851862176
320,2645.19,2.0981348228623133
321,2657.3999999999996,2.104600948768985
322,2663.52,2.0151585081914942
323,2675.8199999999997,2.0638276129132027
324,2681.98,2.0550401629201724
325,2694.36,2.005282248810803
326,2706.7999999999997,2.020718320578125
327,2713.04,1.980122851754016
328,2725.5600000000004,1.9815609046902594
329,2738.14,2.0246649435031943
330,2744.46,1.907913455848007
331,2757.1200000000003,1.9181594758298635
332,2763.48,1.9456289787591372
333,2776.24,1.9924979752021459
334,2782.6400000000003,1.9704084687158803
335,2795.48,1.8026604463278106
336,2801.92,1.8753999304260063
337,2814.86,1.9881758844990884
338,2827.85,1.9942918268027467
339,2834.37,1.927476292069864
340,2847.4500000000003,1.9157942131885592
341,2854.02,1.9077076666862522
342,2867.19,1.9673385666199843
343,2873.8,1.9545800107021385
344,2884.0315,1.9558360922570428
345,2887.0600000000004,1.9562085877357889
346,2893.7200000000003,1.9479405556527156
347,2907.0800000000004,1.990324491293878
348,2927.23,1.9610483942257209
349,2947.52,1.9366162964831448
350,2967.95,1.94344319806615
351,2988.52,1.932496098974736
352,3009.2400000000002,1.9305119991607302
353,3030.1,1.9330238986723056
354,3051.1,1.9222537975094618
355,3072.2500000000005,1.9159676956240266
356,3093.54,1.9051985930641724
357,3107.82,1.8981955242734387
358,3129.3700000000003,1.878964420461092
359,3151.06,1.8771733159743262
360,3172.9,1.8665772107649692
361,3187.55,1.8173551401918424
362,3209.6400000000003,1.8408970337781654
363,3231.89,1.8098239265937242
364,3246.81,1.8324448547199323
365,3269.3100000000004,1.8434127463311711
366,3291.9700000000003,1.8331706371716459
367,3307.1699999999996,1.8222095639490161
368,3311.31121,1.8330306939832728
369,3322.4300000000003,1.862083520094707
370,3330.09,1.8629858147021328
371,3337.77,1.8383741074678022
372,3345.46,1.8098213993125936
373,3353.18,1.818974688394751
374,3360.91,1.7990309765560302
375,3368.65,1.8040732637964314
376,3376.42,1.7315765482741987
377,3384.2,1.789140831831088
378,3392.0,1.8232831135462209
379,3399.82,1.8708783934195978
380,3407.6600000000003,1.7752396714512189
381,3415.5200000000004,1.7925059476410836
382,3423.39,1.8435762229100705
383,3431.2799999999997,1.8401614963373014
384,3439.1899999999996,1.8369257679227762
385,3447.1200000000003,1.7672190376664947
386,3455.07,1.7518413055684574
387,3463.03,1.7207035725495416
388,3471.0099999999998,1.7575818376888703
389,3479.01,1.7303131009864425
390,3487.04,1.747154361521381
391,3495.07,1.7682246220563191
392,3503.1299999999997,1.7488488798286235
393,3511.21,1.7336471357591716
394,3519.3,1.7424853907688413
395,3527.4100000000003,1.7313336439367555
396,3535.55,1.7725078943420354
397,3543.7000000000003,1.7981201438264374
398,3551.86,1.8031583923899612
399,3560.05,1.779206638190851
400,3568.2599999999998,1.7435728821499845
401,3576.48,1.6813471251882401
402,3584.73,1.6552843654638616
403,3585.53,1.7511002917936191
404,3588.2,1.8478720459191837
405,3590.87,1.8254228000447486
406,3593.54,1.7237145541703132
407,3596.22,1.827571307375
408,3598.8900000000003,1.7516900615005648
409,3601.56,1.6104148156261298
410,3604.23,1.4768265697516945
411,3606.9,1.5521183238772591
412,3609.58,1.726667077081946
413,3612.25,1.7258428312075107
414,3614.9199999999996,1.7786655853330755
415,3617.59,1.7296523394586403
416,3620.26,1.675270093584205
417,3622.93,1.5465668477097698
418,3625.61,1.7901196009144564
419,3628.2799999999997,1.8018853550400216
420,3630.95,1.8437341091655863
421,3633.6200000000003,1.822901863291151
422,3636.29,1.6581526174167158
423,3638.96,1.6913803715422804
424,3641.64,1.5789051247469674
425,3644.31,1.6261598788725322
426,3646.98,1.686543632998097
427,3649.6499999999996,1.7554593871236617
428,3652.32,1.7296691412492264
429,3654.9900000000002,1.6353068953747911
430,3657.67,1.590434648579478
431,3660.34,1.5647704027050429
432,3663.0099999999998,1.6632481568306074
433,3665.68,1.6582209109561723
434,3668.3500000000004,1.732541665081737
435,3671.02,1.741164419207302
436,3673.7,1.6380101724119887
437,3676.37,1.6506019265375533
438,3679.04,1.7634836806631182
439,3681.71,1.6069244347886829
440,3684.3799999999997,1.7484901889142477
441,3687.05,1.6214389430398126
442,3689.73,1.5931436962444994
443,3692.4,1.723483450370064
444,3695.0699999999997,1.6595992044956287
445,3697.74,1.6801119586211934
446,3700.4100000000003,1.6624227127467586
447,3703.0800000000004,1.6340814668723234
448,3705.76,1.6370742200770099
449,3708.43,1.7008879742025746
450,3711.1,1.6261027283281395
451,3713.77,1.6888034824537044
452,3716.4399999999996,1.9443092365792691
453,3719.1200000000003,2.618170989783956
454,3721.79,4.150190743909521
455,3724.46,6.051477498035085
456,3727.13,6.73613225216065
457,3729.7999999999997,5.6971290062862145
458,3732.47,3.9280347604117796
459,3735.1499999999996,2.4071375136164663
460,3737.82,1.8040302677420312
461,3740.4900000000002,1.636031021867596
462,3743.16,1.668773775993161
463,3745.83,1.6313275301187258
464,3748.5,1.6877242842442906
465,3751.1800000000003,1.7043480374489772
466,3753.8500000000004,1.6539707915745419
467,3756.52,1.7674635457001069
468,3759.19,1.7774142998256717
469,3761.86,1.8004410539512363
470,3764.5299999999997,1.696739808076801
471,3767.2099999999996,1.6987615612814877
472,3769.88,1.7692933154070525
473,3772.55,1.8036700695326175
474,3775.2200000000003,1.9139488236581823
475,3777.89,1.962622577783747
476,3780.56,2.027281331909312
477,3783.24,1.9270540851139983
478,3785.9100000000003,2.005541839239563
479,3788.58,1.9645935933651282
480,3791.25,1.7308233474906929
481,3793.92,1.7085351016162575
482,3796.59,1.7603528557418224
483,3799.27,1.8086936089465093
484,3801.8939600000003,1.7119173983829308
485,3801.9399999999996,1.7102193639554708
486,3804.61,1.758587169311902
487,3807.28,1.884670974668333
488,3809.95,2.0452377800247645
489,3812.62,2.0754135853811957
490,3815.2999999999997,1.9825493900086248
491,3817.97,1.9719541953650563
492,3820.6400000000003,1.9200500007214876
493,3823.31,1.8112118060779188
494,3825.98,1.8081596114343501
495,3828.66,1.8598774160617793
496,3831.33,1.7593732214182105
497,3834.0,1.657701026774642
498,3836.6699999999996,1.7464438321310731
499,3839.34,1.8011526374875042
500,3842.01,1.8557534428439357
501,3844.69,1.9963752474713647
502,3847.36,2.088334052827796
503,3850.0299999999997,2.1129408581842273
504,3852.7,2.1125836635406587
505,3855.3700000000003,2.08600346889709
506,3858.04,2.132343274253521
507,3860.7200000000003,2.1738220788809506
508,3863.39,2.2174678842373816
509,3866.06,2.325051689593813
510,3868.73,2.2128014949502446
511,3871.3999999999996,2.1129433003066755
512,3874.07,2.0642721056631066
513,3876.75,1.962427910290536
514,3879.42,1.9151937156469672
515,3882.09,1.9252535210033985
516,3884.7599999999998,1.9119643263598298
517,3887.43,1.9184311317162612
518,3890.1000000000004,1.9890169370726922
519,3892.78,1.9476997417001216
520,3895.45,1.8819665470565528
521,3898.12,1.931897352412984
522,3900.79,1.9793141577694153
523,3903.46,2.004640963125847
524,3906.1299999999997,2.119229768482278
525,3908.81,2.137719573109707
526,3911.48,2.1779523784661383
527,3914.15,2.0746821838225697
528,3916.8199999999997,2.079532989179001
529,3919.49,2.129464794535432
530,3922.1600000000003,2.020087599891863
531,3924.84,1.9552414045192927
532,3927.51,1.9974502098757239
533,3930.18,1.8410170152321552
534,3932.85,1.8155138205885863
535,3935.52,1.8979536259450178
536,3938.2,1.937458430572447
537,3940.8700000000003,1.8925592359288783
538,3943.54,2.0777320412853095
539,3946.21,2.175616846641741
540,3948.88,2.201481651998172
541,3951.5499999999997,2.076479457354603
542,3954.23,2.0577912619820324
543,3956.8999999999996,2.058152067338464
544,3959.57,1.981462872694895
545,3962.2400000000002,1.9940366780513263
546,3964.91,1.9538074834077577
547,3967.58,1.941416288764189
548,3970.2599999999998,1.8754930933916178
549,3972.9300000000003,1.9051298987480494
550,3975.6000000000004,1.8544827041044805
551,3978.27,1.844426509460912
552,3980.94,1.9638643148173431
553,3983.61,2.0604921201737745
554,3986.29,2.140766924801204
555,3988.9599999999996,2.1448987301576348
556,3991.63,2.196267535514066
557,3994.3,2.2742173408704973
558,3996.9700000000003,2.311217146226929
559,3999.64,2.20058295158336
560,4002.3199999999997,2.225717756210789
561,4004.99,2.20003656156722
562,4007.6600000000003,2.169146366923652
563,4010.33,2.1335861722800833
564,4013.0,2.143645977636514
565,4015.67,2.2354247829929452
566,4018.35,2.289476587620375
567,4021.02,2.275469392976806
568,4023.6899999999996,2.2057841983332374
569,4026.36,2.1088000036896686
570,4029.03,2.1969878090461
571,4031.71,2.217991613673529
572,4034.38,2.1691414190299603
573,4037.0499999999997,2.2041652243863914
574,4039.72,2.182615029742823
575,4042.3900000000003,2.1713018350992543
576,4045.06,2.126222640455685
577,4047.7400000000002,2.1578234450831144
578,4050.41,2.143098250439546
579,4053.08,2.126576055795977
580,4055.75,2.1806388611524086
