,lambda (Angstroms),Total Flux (erg/s/cm^2/Angstrom)
0,100.04,10.349867973033088
1,101.89999999999999,10.321080534173825
2,104.03,10.288112636129346
3,104.712855,10.27754394284474
4,105.97,10.175328746353598
5,107.94,10.015154101500002
6,109.94999999999999,9.85173434803923
7,114.07000000000001,9.516751791579729
8,118.08000000000001,9.190713009839975
9,120.22644299999999,9.016277330662422
10,121.11,8.956082939063895
11,125.08,8.685485036119605
12,127.11,8.54711595251308
13,127.99,8.487137739162963
14,130.97,8.284014462975055
15,131.88,8.222017921168684
16,134.02,8.076151071855893
17,137.14000000000001,7.863527020105467
18,138.038426,7.802291250817722
19,140.02,7.7057569805353054
20,142.95000000000002,7.56346007310154
21,146.95,7.369424988859881
22,151.07,7.16878979399397
23,154.95,6.97987087157656
24,158.489319,6.807550600750902
25,158.92,6.791701932020817
26,161.87,6.683148048287692
27,166.03,6.530076932603016
28,169.89000000000001,6.388034577501368
29,173.05,6.271756181760122
30,177.08,6.123455378128093
31,179.96,6.01748449973101
32,181.970086,5.94352599959156
33,182.04000000000002,5.941564241729721
34,185.85999999999999,5.83436928130467
35,191.06,5.6884399416161155
36,194.17000000000002,5.601184160283154
37,197.78,5.499900795941678
38,201.92000000000002,5.383730544151175
39,205.2,5.291680332655319
40,208.929613,5.1869161155777
41,209.98,5.1647373374314665
42,215.86,5.040924386597496
43,219.88,4.956181045476313
44,222.94000000000003,4.8916160539810845
45,227.07999999999998,4.804361641781657
46,230.23999999999998,4.740149003721224
47,233.98,4.66627166278261
48,239.88329199999998,4.544625590401294
49,239.98,4.54310150101162
50,246.14000000000001,4.441979975296542
51,251.87,4.349433001863523
52,257.15,4.260701872679172
53,260.12,4.214532450637973
54,263.74,4.156274874682035
55,269.26,4.066288101898394
56,274.27,3.9845688392632423
57,275.42287,3.9657509484580817
58,278.72999999999996,3.9242916635552074
59,283.90999999999997,3.85949276107881
60,289.85,3.7844357825634036
61,295.92,3.7086879120939567
62,300.73,3.648049899794445
63,307.74,3.5605523921188564
64,316.227766,3.45454694342899
65,317.82,3.4396968989421133
66,328.22999999999996,3.34221212837938
67,338.20000000000005,3.2487784232102674
68,347.68,3.159866639729507
69,356.59999999999997,3.0763431467497213
70,363.078055,3.0157776144335116
71,365.75000000000006,2.9970586756204383
72,375.13,2.9311477096048923
73,384.75,2.8631579183181586
74,394.61999999999995,2.794198106540606
75,404.74,2.7232500642722326
76,414.17,2.656998972158522
77,416.86938299999997,2.638007126825039
78,421.87,2.6110851225327787
79,429.71000000000004,2.5689186226943357
80,440.74,2.5097815706894857
81,451.0,2.4546697847937686
82,460.45000000000005,2.4038928523635024
83,470.09000000000003,2.352134550490724
84,478.630092,2.306350019690849
85,479.93,2.300983186804861
86,489.98,2.259319867726831
87,500.24,2.217063704232245
88,506.03000000000003,2.1930636573186333
89,511.89,2.1692583732661705
90,520.2099999999999,2.1348718590483386
91,529.88,2.094839209581219
92,539.73,2.0539771486141944
93,549.5408739999999,2.013453043557453
94,549.77,2.012729694126242
95,559.99,1.9807248821979317
96,570.4,1.9480091842005047
97,579.67,1.9187051216177813
98,590.4399999999999,1.8848371653841314
99,600.04,1.8544268154182044
100,609.79,1.8231611211871845
101,619.6999999999999,1.792671384740066
102,629.76,1.7609303370278544
103,630.957344,1.7571711793278477
104,640.0,1.7346501756998185
105,650.4,1.7086455751232947
106,657.9300000000001,1.6897462662001
107,665.5500000000001,1.6708291202738397
108,674.81,1.64772849840282
109,685.77,1.6202314369183295
110,695.31,1.5965713755933262
111,704.98,1.572246694486116
112,716.4399999999999,1.54387445176237
113,724.43596,1.5239265273363416
114,726.4,1.5202832721745536
115,734.82,1.5046699614120698
116,745.04,1.4856999230899104
117,755.4,1.466496117379776
118,764.15,1.4499853381313517
119,774.7800000000001,1.4305855933872658
120,785.5600000000001,1.4105594055132071
121,794.65,1.3937716360368442
122,805.71,1.3733265423868355
123,815.04,1.356052912102516
124,824.4799999999999,1.338595602656216
125,831.763771,1.324971509623879
126,835.95,1.3190893341978642
127,845.63,1.3058945543885865
128,855.4200000000001,1.2923193216269302
129,865.3199999999999,1.2786422949128964
130,875.34,1.2647927969780859
131,885.48,1.2507630318224994
132,895.73,1.236590644714535
133,904.02,1.225088724212581
134,914.49,1.2111205271998602
135,925.08,1.200894035966363
136,935.79,1.1916041615120898
137,944.45,1.1875767950794092
138,954.992586,1.1790631754067928
139,955.39,1.1787540699270622
140,964.2299999999999,1.17021402799541
141,975.39,1.1335232570183467
142,984.4200000000001,1.1397580541605614
143,995.8100000000001,1.124538565325548
144,1005.03,1.1208228575416304
145,1014.3299999999999,1.1064000858940777
146,1026.07,1.0722853114056614
147,1035.57,1.0692124750990217
148,1045.1499999999999,1.0739584949287468
149,1054.8200000000002,1.0599286041618825
150,1064.58,1.0391651227984298
151,1074.43,1.0310122108383872
152,1084.3700000000001,1.0098413082817552
153,1094.4099999999999,1.0049296983955804
154,1096.4782,1.0018009054586872
155,1104.53,0.9915868275523024
156,1114.75,0.9788814620541553
157,1125.07,0.9638253956020146
158,1135.48,0.9593945122912796
159,1145.98,0.9442479721219504
160,1153.93,0.9370782562794582
161,1164.6,0.9260392864883399
162,1175.38,0.9031248116478284
163,1186.26,0.9002410258533238
164,1194.48,0.8808634494350487
165,1205.53,0.8620503240187547
166,1213.8899999999999,0.8450177602648888
167,1225.12,0.8452438511314062
168,1233.61,0.8467783141373487
169,1245.03,0.8372910971912781
170,1253.66,0.8262243128616293
171,1258.92541,0.818219545773187
172,1265.26,0.8105961962137525
173,1274.03,0.8115890141000073
174,1285.81,0.8036917790829124
175,1294.73,0.7889297066251464
176,1303.7,0.7812257840527066
177,1315.77,0.7785630443705054
178,1324.8899999999999,0.7696102414540451
179,1334.07,0.7583104323999764
180,1346.41,0.7538940000985376
181,1355.75,0.7451535946775134
182,1365.1399999999999,0.7340360491418159
183,1374.61,0.7277618254226405
184,1384.14,0.7204364055658565
185,1393.73,0.7080907495714647
186,1403.3899999999999,0.7013254814165297
187,1416.3799999999999,0.6921167976243345
188,1426.19,0.6847976991253787
189,1436.0800000000002,0.6766980424429451
190,1442.71,0.6729362792372289
191,1445.43977,0.6710615113404527
192,1446.0300000000002,0.6707963555752375
193,1456.0600000000002,0.6642243869619918
194,1466.1499999999999,0.6561939148874508
195,1476.3100000000002,0.6503177587747311
196,1486.5500000000002,0.6449930080469509
197,1493.41,0.6414524423054888
198,1503.76,0.6340790352319999
199,1510.7,0.6272099048754769
200,1517.67,0.6249746327883061
201,1524.6799999999998,0.6202511683936052
202,1535.25,0.6110285286286992
203,1545.89,0.6069361648256149
204,1556.6,0.5995996969843526
205,1563.79,0.5960682322057647
206,1574.6299999999999,0.5915324868650286
207,1585.54,0.5864412074861143
208,1596.54,0.5809279629152566
209,1603.9,0.5760377983296644
210,1615.02,0.5698025568362156
211,1626.2199999999998,0.5622137807277061
212,1633.7199999999998,0.5594054780657576
213,1645.0500000000002,0.553377594457774
214,1656.4499999999998,0.5450730468116125
215,1659.58691,0.5441893233680799
216,1664.1000000000001,0.5436603369838332
217,1671.78,0.5378972218964689
218,1675.6299999999999,0.5392928288383502
219,1683.37,0.5371659106643657
220,1695.03,0.5310051808312057
221,1706.78,0.5253821413681156
222,1714.66,0.5211771059920177
223,1726.55,0.5163761993268144
224,1734.52,0.5147143543207864
225,1746.54,0.5093810359679063
226,1754.6000000000001,0.5077861013319482
227,1766.76,0.5008002457769547
228,1774.92,0.49829273599663
229,1783.11,0.49543498967299543
230,1795.47,0.49225574382926834
231,1803.76,0.488634952361267
232,1816.26,0.48199214931542655
233,1824.6499999999999,0.4791109627030585
234,1833.07,0.47490752954738025
235,1845.77,0.4679458962128063
236,1854.2900000000002,0.46497716791276134
237,1867.1499999999999,0.46081975634720085
238,1875.77,0.45888001290278924
239,1884.42,0.4538604429150676
240,1893.1200000000001,0.4498907753551626
241,1905.46072,0.4459811421949768
242,1906.2399999999998,0.4458143280475482
243,1915.04,0.44270369709904756
244,1923.88,0.43949770391896276
245,1937.22,0.4354886446856674
246,1946.16,0.43488655092662243
247,1955.1399999999999,0.4310940549359934
248,1968.6899999999998,0.4293070564868816
249,1977.7800000000002,0.4269131918593961
250,1982.34,0.42485365745880943
251,1996.0800000000002,0.4204435259096732
252,2005.3000000000002,0.4180590365295395
253,2014.55,0.41497433297571784
254,2023.8500000000001,0.412406209132416
255,2033.19,0.40972166305753005
256,2047.29,0.40676902142413696
257,2056.74,0.4029797467123948
258,2066.23,0.40020132976906847
259,2075.77,0.3992430825362621
260,2085.35,0.4024982730718716
261,2094.97,0.39789537137589703
262,2104.6400000000003,0.3947151293904422
263,2114.36,0.39342945711550736
264,2124.12,0.38942119260898855
265,2133.92,0.38490020587088547
266,2143.77,0.3852766588433024
267,2153.67,0.3828286715262391
268,2163.61,0.37777697197759175
269,2173.59,0.37490124019736026
270,2183.63,0.37487411006975274
271,2187.7616199999998,0.3739404736511533
272,2193.71,0.3731384954056631
273,2203.83,0.37022724367738635
274,2214.0,0.36430301918365365
275,2224.2200000000003,0.3637671219244651
276,2234.4900000000002,0.36697144189982056
277,2244.8,0.36339810566281133
278,2255.17,0.3569362801072551
279,2265.58,0.354289638339334
280,2276.03,0.35382644035904826
281,2286.54,0.3566754930602154
282,2297.09,0.3507670195490178
283,2302.39,0.35298603641069104
284,2313.02,0.347655080474764
285,2323.69,0.3401799083264722
286,2334.42,0.33834084685963334
287,2345.19,0.3324628591804297
288,2356.02,0.337861282182679
289,2366.8900000000003,0.32903723897256354
290,2372.35,0.3308321409847779
291,2383.2999999999997,0.32358137534993303
292,2394.3,0.3237567769496321
293,2405.35,0.32119572578387545
294,2416.45,0.32079667185266286
295,2427.61,0.32627960860290306
296,2433.2000000000003,0.324882955424932
297,2444.43,0.32671389630353403
298,2455.7200000000003,0.32561190786358885
299,2467.05,0.32023036321127907
300,2472.74,0.31642794450239625
301,2484.15,0.30806102742535685
302,2495.62,0.30759966102977054
303,2507.14,0.3135550918687282
304,2511.88643,0.3027062247035379
305,2512.92,0.30039403664356834
306,2518.71,0.29789733177908234
307,2524.52,0.2974332158269815
308,2536.1699999999996,0.3009279022913578
309,2547.88,0.3000084954928895
310,2553.75,0.3112048162779443
311,2565.54,0.3025929251290168
312,2577.38,0.3067060612610523
313,2583.32,0.3028972082394553
314,2595.25,0.2987557994772242
315,2607.2200000000003,0.29394964853976346
316,2613.24,0.2913031211677073
317,2625.2999999999997,0.29563456533598
318,2637.4199999999996,0.3094195362414083
319,2643.49,0.32227658615031496
320,2655.7,0.3396234021614766
321,2667.95,0.31219330599740863
322,2674.11,0.3176234910120487
323,2686.4500000000003,0.32368727995371416
324,2692.64,0.30663935333693204
325,2705.07,0.31499065738433085
326,2717.56,0.2982917181688852
327,2723.82,0.2899277177454513
328,2736.3900000000003,0.2966734741795464
329,2742.7000000000003,0.2778735210370755
330,2755.36,0.28412074257690406
331,2768.08,0.2918240208538882
332,2774.46,0.2939075539047654
333,2787.27,0.27492347728748295
334,2793.6899999999996,0.25911845816313067
335,2806.59,0.2599856266515814
336,2813.06,0.28329945480819213
337,2826.0400000000004,0.2989593389461837
338,2832.56,0.2946901043837574
339,2845.63,0.2786481736274824
340,2852.19,0.2618041268898264
341,2865.36,0.2905408306954774
342,2871.96,0.30719816178259185
343,2884.0315,0.2993135777229218
344,2885.22,0.29858689663560906
345,2891.8700000000003,0.3113083885895998
346,2911.91,0.33606621524493446
347,2932.1000000000004,0.3206770832225395
348,2952.42,0.3119365190127791
349,2972.8900000000003,0.31409997612528906
350,2986.61,0.31401440373562794
351,3007.3100000000004,0.3127896362089526
352,3028.16,0.3161448900045478
353,3049.15,0.31856007836759537
354,3070.28,0.32427712129809544
355,3091.57,0.319757512305684
356,3113.0,0.33326035788072494
357,3127.36,0.32300219779941786
358,3149.04,0.3202395622449096
359,3170.87,0.32940207801267185
360,3192.85,0.31070264510270457
361,3207.59,0.32124366170448265
362,3229.8199999999997,0.3003628476649661
363,3252.21,0.3378543817025381
364,3267.2200000000003,0.359509410684403
365,3289.87,0.3537030603472438
366,3311.31121,0.34243739814575147
367,3312.6699999999996,0.3417632235108776
368,3320.3100000000004,0.33213481298755554
369,3327.9599999999996,0.34390479184836537
370,3335.63,0.3520039494774386
371,3343.32,0.33665968587477557
372,3351.0299999999997,0.333992601040376
373,3358.76,0.3518458949742399
374,3366.5,0.3234269782922357
375,3374.26,0.29663124037849503
376,3382.04,0.3174819812330179
377,3389.83,0.34342731147167255
378,3397.6499999999996,0.32310810986272254
379,3405.48,0.3507523976379043
380,3413.33,0.3365192641813496
381,3421.2,0.3468465094930585
382,3429.09,0.34090713357303093
383,3436.99,0.34221564703713514
384,3444.91,0.2873113392695029
385,3452.8599999999997,0.346460599654266
386,3460.82,0.3312101494231608
387,3468.79,0.3320676885761875
388,3476.79,0.32198879588160945
389,3484.81,0.334925581955295
390,3492.8399999999997,0.3232115574131123
391,3500.89,0.31519581163919314
392,3508.96,0.3479026446335376
393,3517.0499999999997,0.31400835639614555
394,3525.16,0.31843244692701705
395,3533.2799999999997,0.3465110268420204
396,3541.43,0.359838474909419
397,3549.59,0.3596702123609494
398,3557.77,0.3367582285807434
399,3565.9800000000005,0.3541110129529327
400,3574.2000000000003,0.2978578867092538
401,3582.44,0.2972534392338384
402,3590.7,0.2774498705266866
403,3598.9700000000003,0.3420555912036666
404,3607.27,0.3204257800330419
405,3611.1,0.30493421415551264
406,3613.83,0.3129323160234879
407,3616.57,0.3212184072755949
408,3619.2999999999997,0.3272747091435702
409,3622.0299999999997,0.32641621101154544
410,3624.76,0.3210562128795207
411,3627.5,0.32714680413162767
412,3630.23,0.34218660599960293
413,3632.96,0.3296939078675782
414,3635.6899999999996,0.3333258097355535
415,3638.42,0.3462252116035287
416,3641.16,0.35032980285563575
417,3643.8900000000003,0.3360057047236109
418,3646.62,0.32819650659158617
419,3649.35,0.3414407084595615
420,3652.09,0.3664634997116685
421,3654.8199999999997,0.38261200157964376
422,3657.55,0.377654903447619
423,3660.28,0.37750250531559426
424,3663.0099999999998,0.3811537071835695
425,3665.75,0.3814959984356765
426,3668.48,0.37224980030365173
427,3671.2099999999996,0.36533710217162707
428,3673.94,0.37389790403960227
429,3676.68,0.3561131952917093
430,3679.4100000000003,0.3486929971596845
431,3682.14,0.33843449902765976
432,3684.87,0.3406210008956351
433,3687.6,0.34406810276361033
434,3690.3399999999997,0.3457977940157173
435,3693.07,0.3659457958836926
436,3695.8,0.3926003977516678
437,3698.5299999999997,0.3881038996196431
438,3701.27,0.3748756908717501
439,3704.0,0.3632023927397253
440,3706.7299999999996,0.3460069946077006
441,3709.46,0.33562719647567585
442,3712.19,0.3602434983436511
443,3714.9300000000003,0.3766412895957581
444,3717.66,0.36531819146373334
445,3720.39,0.3526931933317086
446,3723.12,0.37996289519968385
447,3725.85,0.4208251970676591
448,3728.59,0.42706428831976617
449,3731.32,0.39884999018774137
450,3734.0499999999997,0.35725279205571664
451,3736.78,0.32742209392369187
452,3739.52,0.3180611851757989
453,3742.2499999999995,0.3281471870437742
454,3744.98,0.3186333889117494
455,3747.71,0.31076619077972467
456,3750.44,0.31955869264769987
457,3753.18,0.34217918389980695
458,3755.91,0.3462660857677822
459,3758.64,0.34049798763575745
460,3761.37,0.3307800895037327
461,3764.11,0.3371739807558397
462,3766.84,0.34679658262381496
463,3769.5699999999997,0.36357688449179026
464,3772.3,0.3672473863597655
465,3775.0299999999997,0.3751902882277407
466,3777.7699999999995,0.3802683794798478
467,3780.5,0.400112981347823
468,3783.23,0.4044537832157983
469,3785.96,0.3805808850837735
470,3788.7,0.36779407633588057
471,3791.4300000000003,0.3601200782038557
472,3794.16,0.337797180071831
473,3796.89,0.34474168193980625
474,3799.6200000000003,0.3451408838077815
475,3801.8939600000003,0.35304297053903805
476,3802.36,0.35467208013358964
477,3805.0899999999997,0.38560574723889224
478,3807.82,0.3733295143441948
479,3810.5499999999997,0.3677141814494974
480,3813.28,0.37441434855479994
481,3816.02,0.3480253111440048
482,3818.75,0.33130547824930734
483,3821.48,0.32763194535460993
484,3824.21,0.3126083124599125
485,3826.9500000000003,0.3037948750491173
486,3829.68,0.2903876421544199
487,3832.41,0.3072020092597225
488,3835.1400000000003,0.279821576365025
489,3837.87,0.28547354347032766
490,3840.6099999999997,0.31306290605953246
491,3843.34,0.32471947316483507
492,3846.0699999999997,0.34724884027013764
493,3848.8,0.33785210737544014
494,3851.54,0.34856656996464497
495,3854.27,0.34463933706994754
496,3857.0,0.3348343041752502
497,3859.73,0.34406087128055274
498,3862.4599999999996,0.3459423383858553
499,3865.2,0.36055970097506007
500,3867.93,0.3628329680803627
501,3870.6600000000003,0.35245693518566523
502,3873.39,0.3537289022909679
503,3876.1299999999997,0.34156406488017266
504,3878.86,0.3367293319854752
505,3881.5899999999997,0.33159119909077783
506,3884.32,0.3467865661960804
507,3887.05,0.33795243330138297
508,3889.7900000000004,0.34042539589058773
509,3892.52,0.35232746299589035
510,3895.25,0.3621636301011929
511,3897.9799999999996,0.37514969720649555
512,3900.72,0.3675578597957003
513,3903.45,0.3709812269010029
514,3906.1800000000003,0.3578277940063055
515,3908.91,0.38557306111160805
516,3911.6400000000003,0.39577892821691063
517,3914.38,0.3914223908061154
518,3917.1099999999997,0.395772457911418
519,3919.84,0.3633061250167206
520,3922.57,0.3421096921220232
521,3925.2999999999997,0.3280679592273258
522,3928.04,0.3017923218165306
523,3930.77,0.2715958889218332
524,3933.5,0.25279065602713574
525,3936.23,0.2632915231324383
526,3938.97,0.2906078857216431
527,3941.7000000000003,0.3132062528269457
528,3944.43,0.3431359199322483
529,3947.1600000000003,0.3628326870375509
530,3949.89,0.37514025414285346
531,3952.6299999999997,0.3968985167320582
532,3955.36,0.37892638383736077
533,3958.09,0.3591643509426634
534,3960.8199999999997,0.34258241804796596
535,3963.56,0.3049759806371708
536,3966.29,0.28142674774247334
537,3969.02,0.2639925148477759
538,3971.75,0.29238298195307855
539,3974.48,0.31913254905838107
540,3977.2200000000003,0.3629014116475859
541,3979.95,0.3901307787528885
542,3982.6800000000003,0.41048404585819104
543,3985.41,0.4285315129634937
544,3988.1499999999996,0.4448861755526985
545,3990.88,0.449051642658001
546,3993.61,0.4454940097633036
547,3996.3399999999997,0.44665297686860617
548,3999.07,0.45429374397390876
549,4001.81,0.45608500656311357
550,4004.54,0.4531342736684162
551,4007.27,0.45583784077371875
552,4010.0000000000005,0.4637820078790213
553,4012.73,0.4656580749843239
554,4015.47,0.4736001375735287
555,4018.2000000000003,0.4870607046788313
556,4020.93,0.47740757178413384
557,4023.66,0.4708436388894365
558,4026.4,0.46808380147864126
559,4029.13,0.46438836858394383
560,4031.8599999999997,0.45274913568924646
561,4034.59,0.45239110279454897
562,4037.3199999999997,0.4697683698998516
563,4040.06,0.4685807324890564
564,4042.79,0.4528043995943589
565,4045.5200000000004,0.44822626669966154
566,4048.25,0.46072153380496417
567,4050.99,0.46353329639416896
568,4053.7200000000003,0.45713476349947146
569,4056.45,0.4460749306047741
570,4059.18,0.43686299771007664
571,4061.9100000000003,0.4355395648153792
572,4064.65,0.4381032274045841
573,4067.38,0.4409170945098866
574,4070.11,0.4539087616151892
575,4072.8399999999997,0.4573570287204918
576,4075.58,0.4511494913096966
577,4078.31,0.4597004584149992
578,4081.0400000000004,0.46863762552030175
579,4083.77,0.47445799262560434
580,4086.5,0.4873393597309069
581,4089.2400000000002,0.4924403223201117
582,4091.97,0.48223558942541433
583,4094.7,0.4663488565307169
584,4097.43,0.4434010236360194
585,4100.17,0.4306290862252242
586,4102.9,0.4394282533305269
587,4105.63,0.45184072043582946
