,lambda (Angstroms),Total Flux (erg/s/cm^2/Angstrom)
0,100.04,0.006699466317398529
1,101.89999999999999,0.008056501911582394
2,104.03,0.009610526457031969
3,104.712855,0.010108730019510083
4,105.97,0.009343437744364672
5,107.94,0.00814419218653368
6,109.94,0.006926685076469704
7,114.07000000000001,0.004412531870354813
8,118.08000000000001,0.0019714299838568643
9,120.22644299999999,0.000664791833188272
10,121.11,0.0006399114362280459
11,125.07000000000001,0.0005283814191663384
12,127.10000000000001,0.0004712090149922815
13,127.99,0.0004461447800732618
14,130.97,0.0003622196735983405
15,131.87,0.00033688312280067957
16,134.02,0.0002763352368229343
17,137.14000000000001,0.0001884882324270436
18,138.038426,0.00016319083473802798
19,140.01,0.00016125028975941716
20,142.94,0.00015854713646264583
21,146.95,0.00015500924353088709
22,151.06,0.00015111188672551842
23,154.94,0.00014749280822945262
24,158.489319,0.0001442240301905324
25,158.91,0.000143612082323812
26,161.87,0.00013933622363604753
27,166.01999999999998,0.00013338528469543183
28,169.89000000000001,0.0001278920670496046
29,173.05,0.0001234376464369912
30,177.08,0.00011781161105128488
31,179.95000000000002,0.00011387502802970245
32,181.970086,0.00011110117843409711
33,182.04000000000002,0.00011114643207364357
34,185.85,0.00011372886606126903
35,191.06,0.00011727963085274637
36,194.16,0.00011949143863270408
37,198.23,0.0001224507655696163
38,201.91,0.00012535511408259838
39,205.19,0.0001278346763659085
40,208.929613,0.00013059196433738926
41,209.96999999999997,0.0001339550463587368
42,215.86,0.0001540931643809412
43,219.87,0.0001676996206744962
44,222.93,0.00017798392019027637
45,227.07000000000002,0.0001922746483586848
46,230.23,0.00021245692700896747
47,233.97,0.00024326822863936546
48,239.88329199999998,0.000277144481201258
49,239.97,0.00027716885423449656
50,246.13,0.000264595330234433
51,251.86,0.00025995687433826996
52,257.14,0.00023939223948107278
53,260.11,0.0002457323186238992
54,263.73,0.0002448279073771086
55,269.25,0.00023663946729912964
56,274.26,0.00022955084706531177
57,275.42287,0.0002280004012237822
58,278.72,0.00024037926952429376
59,283.9,0.00025979246037103584
60,289.84,0.0002772248344308136
61,295.90999999999997,0.00030162932930334743
62,300.72,0.00031683579937532257
63,307.72,0.00034481118160064987
64,316.227766,0.00037870393684395743
65,317.80999999999995,0.0003778058510189951
66,328.21999999999997,0.00036876513927960246
67,338.19,0.0003590458046934597
68,347.67,0.00034999576057343634
69,357.41,0.00034050430722649256
70,363.078055,0.0003371705812307995
71,365.73,0.00034469658064378817
72,375.11,0.0003662416686246097
73,384.74,0.000382605009376775
74,394.6,0.00041279896667857673
75,404.73,0.00043799981297342985
76,414.15,0.0004581361733976663
77,416.86938299999997,0.0004635950505972529
78,421.85,0.0004706010540657645
79,429.7,0.00048161554816463534
80,440.72,0.0005002389319824134
81,450.99,0.0005142393138162228
82,460.43,0.0005257750081211071
83,470.07,0.0005393579162883829
84,478.630092,0.000552510812586145
85,479.90999999999997,0.0005518120221708219
86,489.96,0.0005399319830023009
87,500.21999999999997,0.0005355156421198107
88,506.01,0.000530630223434663
89,511.87000000000006,0.0005569563041781919
90,520.19,0.000550056550558083
91,529.86,0.0005401077573481728
92,539.71,0.000522594205526289
93,549.5408739999999,0.0005248214029548782
94,549.75,0.0005250354344596814
95,559.97,0.0005406861289212056
96,570.38,0.0005506584625165544
97,579.65,0.0005437572613089545
98,590.42,0.0005574698637894451
99,600.02,0.0005520401673932251
100,609.77,0.0005405598913658141
101,619.67,0.0005846462357072122
102,629.74,0.0005885301097999272
103,630.957344,0.0005891204739401266
104,639.97,0.000601628385768132
105,650.37,0.0006243304627679312
106,657.9,0.0006345051478456704
107,665.52,0.0006555921821474464
108,674.78,0.0006680930689761138
109,685.74,0.0006649914078143639
110,695.2800000000001,0.0007288824255622566
111,704.96,0.000714657308769762
112,716.41,0.0007805195267166563
113,724.43596,0.0007965072047221323
114,726.38,0.0007999453981518024
115,734.7900000000001,0.0008161155964304288
116,745.01,0.0008576775829235989
117,755.3700000000001,0.0008847581569029769
118,764.1199999999999,0.000893463224790965
119,774.75,0.0009528191246366009
120,785.53,0.0009884676610746022
121,794.6300000000001,0.00101960044767811
122,805.6800000000001,0.0010505294099823692
123,815.01,0.001076106026027504
124,824.45,0.0011367190822403734
125,831.763771,0.0010709677866254607
126,835.92,0.0010297051728757256
127,845.5999999999999,0.001172169918163544
128,855.39,0.0011921385423750873
129,865.29,0.001242890745510356
130,875.31,0.0012944626983805976
131,885.4499999999999,0.0013597695009858123
132,895.6999999999999,0.001407417582514752
133,903.9899999999999,0.0014160137850391336
134,914.46,0.001976819424415524
135,925.0400000000001,0.01070269134271564
136,935.7600000000001,0.023136459252373225
137,944.41,0.04452867800410252
138,954.992586,0.061807029129909576
139,955.3499999999999,0.06239077793977095
140,964.19,0.07360992962805306
141,975.35,0.013965835560318707
142,984.38,0.06918028794099602
143,995.78,0.07095076948470824
144,1004.99,0.0974286135739705
145,1014.2900000000001,0.09177511851752519
146,1026.04,0.038437414494597
147,1035.53,0.0676049501305469
148,1045.1100000000001,0.12431258662078928
149,1054.78,0.12317300396532412
150,1064.54,0.10130511216415143
151,1074.39,0.1189941112172712
152,1084.33,0.09764489112468343
153,1094.3700000000001,0.12487708087019841
154,1096.4782,0.12405329372403691
155,1104.49,0.1209209184922014
156,1114.71,0.118169768031548
157,1125.03,0.10777968576599586
158,1135.44,0.1322635748760348
159,1145.94,0.12118633536166488
160,1153.89,0.12835180687221337
161,1164.56,0.13316611328951555
162,1175.34,0.0967235447214291
163,1186.21,0.12924092752893376
164,1194.4299999999998,0.09279677316625559
165,1205.49,0.0692944655444526
166,1213.8400000000001,0.04132042983540604
167,1225.07,0.08760296814527516
168,1236.41,0.13041176146975567
169,1244.98,0.1439705357899318
170,1253.61,0.1397232910271687
171,1258.92541,0.13185639745389935
172,1265.21,0.12255724264027022
173,1273.98,0.15390054104061873
174,1285.77,0.16077880776126974
175,1294.68,0.13283290932878464
176,1303.65,0.1316204122536565
177,1315.72,0.1596741853086402
178,1324.84,0.15390089162690457
179,1334.02,0.13940849930252594
180,1346.3600000000001,0.16115687846561613
181,1355.7,0.1571274897608562
182,1365.09,0.1433141021872271
183,1374.56,0.14971821642340732
184,1384.08,0.15179433179071838
185,1393.6799999999998,0.1343738489678388
186,1406.57,0.13940894057336817
187,1416.3200000000002,0.14331616114388107
188,1426.1399999999999,0.14597178329797716
189,1436.03,0.14564350703565643
190,1442.65,0.15284995679737903
191,1445.43977,0.15462801656723438
192,1445.98,0.15497233016658565
193,1456.0,0.15145592041562428
194,1466.1,0.14200591218361733
195,1476.26,0.14167920509082615
196,1486.49,0.14364499932712008
197,1493.35,0.14564552957745994
198,1503.7,0.13941152609218546
199,1510.64,0.12627615786147967
200,1517.6200000000001,0.13406249039025112
201,1524.62,0.13101882329876113
202,1535.1899999999998,0.11650932399061129
203,1545.83,0.12598552601154653
204,1556.55,0.11977132955143617
205,1563.73,0.12227306587759358
206,1574.5700000000002,0.12981767169591482
207,1585.49,0.13499687903319046
208,1596.48,0.1384535876995512
209,1603.85,0.13499712763322536
210,1614.96,0.1356172385780177
211,1626.16,0.12951565123163372
212,1633.66,0.13686649363360875
213,1644.99,0.1387703087555257
214,1656.39,0.12922542520652774
215,1659.58691,0.1340269183399346
216,1664.03,0.14070060197598502
217,1671.7199999999998,0.1274546682559663
218,1675.5700000000002,0.14332130208924693
219,1683.3000000000002,0.14801807391554803
220,1694.97,0.14006159205434932
221,1706.7199999999998,0.1356243212857902
222,1714.6,0.13163451391079053
223,1726.48,0.13133326116777078
224,1734.4499999999998,0.13973976627199064
225,1746.47,0.13656373294109017
226,1754.54,0.14566145191110955
227,1766.7,0.13346093799232836
228,1774.8500000000001,0.13847256805498734
229,1783.05,0.14071550505054609
230,1795.41,0.1511241188633639
231,1803.69,0.14905376695156222
232,1816.2,0.14104800156307928
233,1824.5800000000002,0.1426874635170771
234,1833.0,0.13784973101739476
235,1845.71,0.12688449336051077
236,1854.22,0.12984727334004795
237,1867.0800000000002,0.13564635648186324
238,1875.6999999999998,0.14302125171377986
239,1884.35,0.13441245110543634
240,1893.05,0.13196255742999258
241,1905.46072,0.13723126676334874
242,1906.17,0.13753215150472495
243,1914.97,0.13471687866578055
244,1923.81,0.13105099867756823
245,1937.15,0.12894921439671392
246,1946.0900000000001,0.14235091653533177
247,1955.07,0.13595861152468172
248,1968.6200000000001,0.14837698971017077
249,1977.71,0.15008426503903388
250,1982.2699999999998,0.14498905002248996
251,1996.01,0.14202699424895635
252,2005.22,0.1433367481300157
253,2014.4799999999998,0.14039819307449014
254,2023.78,0.14267673086969662
255,2033.12,0.1416937615156352
256,2047.2099999999998,0.1476829431860072
257,2056.66,0.14136155417145896
258,2066.15,0.1413608580076428
259,2075.69,0.15320935290724172
260,2085.27,0.16078824065757275
261,2094.9,0.1525016194713188
262,2104.57,0.15110449113579696
263,2114.28,0.1542694556510072
264,2124.04,0.1546189112296325
265,2133.8399999999997,0.1433132596589899
266,2143.69,0.15178939915176237
267,2153.59,0.15568042970794996
268,2163.5299999999997,0.14902035311486958
269,2173.5099999999998,0.14867956937252128
270,2183.5499999999997,0.1517820749062711
271,2187.7616199999998,0.154771655920165
272,2193.63,0.15893915840891143
273,2203.75,0.15389520052354416
274,2213.92,0.1433079497632492
275,2224.14,0.14167100612802652
276,2234.41,0.15639676961787613
277,2244.7200000000003,0.1493647388077836
278,2255.08,0.13940691512276335
279,2265.49,0.1410217985628154
280,2275.95,0.14699118912793974
281,2286.45,0.15499838539312194
282,2297.0099999999998,0.14449579020839085
283,2307.61,0.15008910072371764
284,2312.93,0.14309045883140994
285,2323.61,0.1156611807468524
286,2334.33,0.12812570836235268
287,2345.11,0.11781224452793972
288,2355.93,0.1388753863935846
289,2366.81,0.11945503680931623
290,2377.73,0.1287389929251057
291,2383.21,0.11117567383302936
292,2394.21,0.1211957413489345
293,2405.2599999999998,0.11776441598991194
294,2416.3599999999997,0.12260659775596167
295,2427.52,0.14059588807209816
296,2433.11,0.13684908465518086
297,2444.34,0.14714938494641858
298,2455.63,0.14697949378774305
299,2466.96,0.14448310832912534
300,2472.65,0.13680621916235264
301,2484.06,0.1335455451038506
302,2495.5299999999997,0.12858567959543532
303,2507.05,0.15262732121209235
304,2511.88643,0.1273867826506716
305,2512.83,0.12246225837076578
306,2518.62,0.11892513904177796
307,2524.43,0.1173654186097539
308,2536.08,0.12446207609115142
309,2547.78,0.1257717308149584
310,2553.66,0.14413560652230753
311,2565.44,0.13531715683396958
312,2577.29,0.14717830328500486
313,2583.2300000000005,0.1439152756832453
314,2595.15,0.14017891827365378
315,2607.1299999999997,0.13311905755495357
316,2613.14,0.12838832609256723
317,2625.2,0.1435495609617221
318,2637.32,0.1601421925217683
319,2643.4,0.18567315719875516
320,2655.6000000000004,0.20149078434665643
321,2667.86,0.16977000818544905
322,2674.01,0.18243416900180912
323,2686.35,0.18778238842845682
324,2692.54,0.16902984703874444
325,2704.97,0.18176496150172908
326,2717.46,0.16296327265560506
327,2723.7200000000003,0.1601002274052659
328,2736.29,0.17294563414699696
329,2742.6,0.1352950861390672
330,2755.2599999999998,0.14716888791713528
331,2767.98,0.16082558638609462
332,2774.36,0.1712442345175381
333,2787.1600000000003,0.14595422857435256
334,2793.59,0.10201577394820545
335,2806.48,0.11199446304135688
336,2812.9500000000003,0.1680044062091373
337,2825.94,0.19313528978710762
338,2832.4500000000003,0.1879930307488156
339,2845.53,0.17690520936312287
340,2852.0800000000004,0.15455094811875839
341,2865.2499999999995,0.19524402176940264
342,2871.8500000000004,0.2045842577674476
343,2884.0315,0.20012548765511445
344,2885.11,0.19973078471836067
345,2891.7599999999998,0.2045228772125439
346,2911.8100000000004,0.2374526545822242
347,2931.99,0.2236020318051743
348,2952.3100000000004,0.21846010887010717
349,2972.7799999999997,0.2276414857657359
350,2993.38,0.2307595625146344
351,3007.2,0.23645874691607988
352,3028.0499999999997,0.2391383233828048
353,3049.04,0.24465759969151255
354,3070.1699999999996,0.2514518758422031
355,3091.45,0.25490885182358947
356,3112.88,0.26199242763567177
357,3127.2499999999995,0.25580561141633534
358,3148.93,0.25872848694624406
359,3170.75,0.2671596623181356
360,3192.7299999999996,0.24758183750943602
361,3207.4700000000003,0.26383432087248276
362,3229.7,0.24338469578160965
363,3252.09,0.2793976705101454
364,3267.1,0.3018860535684448
365,3289.75,0.30047752800352007
366,3311.31121,0.2991470446171116
367,3312.55,0.29907057693901884
368,3320.19,0.29586821209619313
369,3327.84,0.3143430470376045
370,3335.5099999999998,0.33167588154749017
371,3343.2000000000003,0.3006484156258501
372,3350.9100000000003,0.2981112492726843
373,3358.63,0.32262648270375566
374,3366.3700000000003,0.2931150157033013
375,3374.13,0.26205104827132114
376,3381.9100000000003,0.27905638040781533
377,3389.71,0.3198838121127838
378,3397.52,0.2987659436019894
379,3405.36,0.3174328744439064
380,3413.21,0.30901460507006057
381,3421.07,0.3290782354804519
382,3428.9599999999996,0.31814896524355457
383,3436.8700000000003,0.3154780945751316
384,3444.79,0.2620127236909457
385,3452.73,0.3354440523752341
386,3460.69,0.3068785806279968
387,3468.6699999999996,0.30852760844923377
388,3476.66,0.3003535360547078
389,3484.68,0.3169217630128933
390,3492.71,0.303590789755316
391,3500.7599999999998,0.29149871606621297
392,3508.83,0.32429624194558415
393,3516.92,0.29531826739342965
394,3525.03,0.31161949240974945
395,3533.15,0.3341572172103064
396,3541.3,0.35259314136357467
397,3549.46,0.3544985653010801
398,3557.6400000000003,0.33262818880705985
399,3565.85,0.353417211665751
400,3574.0699999999997,0.2881719343086793
401,3582.2999999999997,0.2917404567358448
402,3590.56,0.2596206785157216
403,3598.8399999999997,0.33314879986407275
404,3607.14,0.3147717207808982
405,3615.4500000000003,0.3150151414819607
406,3623.79,0.3066811615357347
407,3632.14,0.3944510813737458
408,3640.51,0.35427700078023117
409,3648.9,0.3347250197551908
410,3654.6400000000003,0.49576899590730866
411,3657.38,0.36223343678828474
412,3660.1099999999997,0.2913126778850237
413,3662.84,0.31876191898176265
414,3665.57,0.32094556007850167
415,3668.2999999999997,0.31679760117524064
416,3671.04,0.3806943420562167
417,3673.77,0.3420379831529557
418,3676.4999999999995,0.2972562242496946
419,3679.23,0.3314859653464336
420,3681.96,0.31691870644317255
421,3684.7000000000003,0.31531614732414864
422,3687.43,0.2781638884208876
423,3690.1600000000003,0.2773878295176265
424,3692.89,0.29712287061436554
425,3695.6299999999997,0.33711231149534165
426,3698.36,0.2997659525920806
427,3701.09,0.30659519368881955
428,3703.8199999999997,0.3721554347855585
429,3706.55,0.37072447588229746
430,3709.29,0.35068501676327357
431,3712.02,0.3270206578600125
432,3714.75,0.34705899895675146
433,3717.48,0.3841271400534904
434,3720.21,0.3027989811502294
435,3722.95,0.39046952203120555
436,3725.6800000000003,0.5809635631279445
437,3728.41,0.7212540042246834
438,3731.14,0.6773095453214224
439,3733.8700000000003,0.5833061864181613
440,3736.61,0.47287692729913744
441,3739.3399999999997,0.34396516839587643
442,3742.07,0.34684020949261535
443,3744.7999999999997,0.3067646505893543
444,3747.54,0.3675803914703304
445,3750.27,0.29781193256706945
446,3753.0,0.3662953736638084
447,3755.73,0.3764724147605473
448,3758.46,0.3869647558572863
449,3761.2000000000003,0.3871692967382624
450,3763.93,0.35758583783500136
451,3766.66,0.2834021789317403
452,3769.3900000000003,0.38954782002847926
453,3772.12,0.4079728611252182
454,3774.8599999999997,0.3421687020061943
455,3777.59,0.40922094310293333
456,3780.3199999999997,0.44086708419967224
457,3783.05,0.4900164252964112
458,3785.78,0.4725624663931502
459,3788.5200000000004,0.4128592072741263
460,3791.25,0.4064430483708652
461,3793.98,0.30701788946760417
462,3796.7099999999996,0.32517603056434313
463,3799.44,0.3363355716610821
464,3801.8939600000003,0.4108560146728776
465,3802.18,0.41954231382800145
466,3804.9100000000003,0.39213006719793625
467,3807.64,0.4165592205678711
468,3810.3700000000003,0.4207564739378059
469,3813.11,0.46729542713693467
470,3815.8399999999997,0.44849528050686943
471,3818.57,0.3847915338768043
472,3821.3,0.3528185872467391
473,3824.0299999999997,0.38746074061667396
474,3826.77,0.4112328938158027
475,3829.5,0.39565904718573747
476,3832.23,0.34819680055567237
477,3834.96,0.32655795392560716
478,3837.69,0.330840007295542
479,3840.4300000000003,0.3807635604946707
480,3843.16,0.4508724138646056
481,3845.8900000000003,0.4563796672345404
482,3848.62,0.44699182060447523
483,3851.35,0.47661257397441004
484,3854.09,0.4544499271735388
485,3856.82,0.4718077805434736
486,3859.5499999999997,0.45590643391340846
487,3862.28,0.48407158728334326
488,3865.0099999999998,0.5111452406532782
489,3867.75,0.5204706938524069
490,3870.48,0.4935073472223417
491,3873.21,0.4961521005922765
492,3875.94,0.43914375396221134
493,3878.68,0.47929050716134003
494,3881.4100000000003,0.40427006053127484
495,3884.14,0.3689736139012097
496,3886.87,0.3853609672711445
497,3889.6,0.3834205206410794
498,3892.34,0.3133469738402081
499,3895.0699999999997,0.41100172721014294
500,3897.8,0.42036618058007774
501,3900.5299999999997,0.4433641339500126
502,3903.26,0.4359291873199474
503,3906.0,0.4370917405190762
504,3908.7300000000005,0.448178493889011
505,3911.46,0.4280683472589458
506,3914.19,0.5113985006288806
507,3916.92,0.4536018539988155
508,3919.66,0.4585245071979442
509,3922.39,0.46011386056787906
510,3925.1200000000003,0.38641541393781387
511,3927.85,0.39283226730774873
512,3930.5899999999997,0.40396552050687745
513,3933.32,0.30302437387681225
514,3936.0499999999997,0.32050322724674707
515,3938.78,0.3601669806166819
516,3941.5099999999998,0.43465473398661675
517,3944.2500000000005,0.41846008718574546
518,3946.98,0.4717696405556803
519,3949.71,0.4696351939256151
520,3952.44,0.49554434729554997
521,3955.17,0.4733235006654848
522,3957.91,0.46553445386461356
523,3960.6400000000003,0.44764390723454833
524,3963.37,0.3999511606044832
525,3966.1000000000004,0.350293213974418
526,3968.83,0.29811236734435287
527,3971.5699999999997,0.30549792054348157
528,3974.3,0.3759341739134164
529,3977.0299999999997,0.40783522728335125
530,3979.7599999999998,0.44996138065328606
531,3982.4900000000002,0.49119013402322087
532,3985.23,0.5010372872223496
533,3987.96,0.5312523405922844
534,3990.69,0.45572229396221925
535,3993.4199999999996,0.523720947332154
536,3996.1600000000003,0.5389413005312829
537,3998.89,0.5828504539012176
538,4001.6200000000003,0.5766044072711525
539,4004.35,0.5498108606410873
540,4007.08,0.5728089140110222
541,4009.82,0.5090782672101509
542,4012.5499999999997,0.5624728205800857
543,4015.2799999999997,0.5043245739500205
544,4018.01,0.5829000273199554
545,4020.74,0.5870731806898902
546,4023.48,0.6010439338890189
547,4026.21,0.5562502872589538
548,4028.9399999999996,0.5325741406288885
549,4031.67,0.5440611939988234
550,4034.4,0.5212097473687582
551,4037.1400000000003,0.5729641005678869
552,4039.87,0.5635763539378218
553,4042.6,0.5734625073077567
554,4045.33,0.5749428606776914
555,4048.0699999999997,0.5600577138768202
556,4050.8,0.570319767246755
557,4053.53,0.5374129206166899
558,4056.2599999999998,0.5192919739866247
559,4058.9900000000002,0.5327199273565596
560,4061.73,0.5507057805556883
561,4064.4599999999996,0.5511672339256232
562,4067.19,0.5652621872955579
563,4069.92,0.5447032406654927
564,4072.65,0.5285835940354277
565,4075.39,0.5288483472345563
566,4078.12,0.5111762006044912
567,4080.85,0.5110553539744259
568,4083.58,0.5405669073443607
569,4086.3100000000004,0.5568452607142956
570,4089.05,0.49936151391342437
