,lambda (Angstroms),Total Flux (erg/s/cm^2/Angstrom)
0,100.09,0.0017399674751697742
1,101.96000000000001,0.0020924113734180653
2,104.09,0.002493848986531358
3,104.712855,0.00261124412767363
4,106.03,0.0024041825593279194
5,108.0,0.0020945123387937246
6,110.0,0.0017802098815884507
7,113.86999999999999,0.001171978725219247
8,117.87,0.0005433741687086965
9,120.22644299999999,0.0001754122866223242
10,120.9,0.00017124274864319792
11,125.14000000000001,0.00014176763674204483
12,126.88,0.0001297581140703454
13,128.06,0.00012163423617804333
14,131.04,0.00010097966428053491
15,131.95,9.594486238901388e-05
16,134.09,8.120084416060165e-05
17,136.9,6.395928937469596e-05
18,138.038426,5.62922227445672e-05
19,140.09,5.687453408313863e-05
20,143.02,8.596145088501946e-05
21,147.03,0.00016042865442616013
22,151.15,0.00017254279272778096
23,155.03,0.0001875216006428996
24,158.489319,0.0002025655270273793
25,159.0,0.00020471598462025876
26,161.95999999999998,0.00021680535407247927
27,166.11999999999998,0.00023773945438370806
28,169.98,0.0002564407969801848
29,173.14,0.0002723186049089067
30,177.18,0.00029216468213423465
31,180.06,0.0003085066361958546
32,181.970086,0.0003192826436347185
33,182.14000000000001,0.0003203299071009259
34,185.96,0.00034536263437427456
35,191.17,0.0003782532597915905
36,193.82,0.0004018873397063481
37,197.88,0.0004290449587455616
38,202.03,0.00046009211219697453
39,204.83999999999997,0.000483855619955642
40,208.929613,0.0004967978097464162
41,210.09,0.0005012178898295017
42,215.98,0.0005752498784281382
43,219.99,0.0006142629660818787
44,223.04999999999998,0.0006354944878326134
45,227.20000000000002,0.0006796169915141653
46,229.83,0.0010253535497509079
47,234.1,0.0017426171385991553
48,239.88329199999998,0.0021640227954006926
49,240.11,0.0021802231093922663
50,246.26999999999998,0.0021040220203216355
51,252.01000000000002,0.002267593869142184
52,257.28000000000003,0.0019468444341742904
53,260.26,0.002247214446279732
54,263.88,0.0023755226958843286
55,268.79,0.00239930306482316
56,273.78,0.0024127765884493857
57,275.42287,0.002418793871587189
58,278.87,0.002435949505085645
59,284.06,0.002461745209033324
60,290.01,0.002372578615293188
61,296.08,0.002442043448233923
62,300.89,0.002439834301025511
63,307.90000000000003,0.0024946879762997374
64,316.227766,0.0025614624857041653
65,317.99,0.00257352095765243
66,327.65000000000003,0.0025862547116990674
67,338.38,0.0025750416507177446
68,347.85999999999996,0.0025588128689746927
69,356.79,0.0025426374500964804
70,363.078055,0.002543577728027534
71,365.94,0.002546538306523181
72,375.33,0.002527128747820109
73,384.95,0.0024355094075939588
74,394.83,0.0024893869230373723
75,404.96,0.0024820454150861347
76,414.39,0.002452335372639919
77,416.86938299999997,0.002439255783501919
78,422.09000000000003,0.002410905184360438
79,429.94,0.002380459188448203
80,440.96999999999997,0.0023564053037460433
81,451.23999999999995,0.002306623537119463
82,459.63,0.002267666220469316
83,470.34,0.0022299548591674
84,478.630092,0.002211065638650532
85,480.19,0.002206672274465531
86,490.24,0.002135917455114948
87,500.51,0.0021185365014104226
88,506.3,0.0020746516472771015
89,512.16,0.0021292284322129806
90,520.49,0.0020935444814477715
91,530.16,0.0020352006214358178
92,540.02,0.0019561897817545492
93,549.5408739999999,0.001920430775099698
94,550.06,0.0019185878681326498
95,560.2900000000001,0.001921831810101998
96,569.39,0.0019209119852653478
97,579.97,0.0018605041647409787
98,589.4,0.0018470275638388237
99,600.36,0.0017688610011784185
100,610.11,0.0015804966174248647
101,620.03,0.0017589733490315056
102,630.0999999999999,0.001715140182426553
103,630.957344,0.0017137687626360856
104,640.3399999999999,0.001700948173647876
105,650.7400000000001,0.0016721365188327167
106,658.28,0.001632370969091726
107,664.37,0.0016478602943009264
108,675.1600000000001,0.0016273878524301984
109,684.5600000000001,0.0015540653182703431
110,695.6800000000001,0.0015977670565833653
111,705.36,0.0015124670086400249
112,716.8199999999999,0.0015653062659302436
113,724.43596,0.0015505332721196421
114,726.79,0.0015458312003698124
115,735.21,0.0015327605785199778
116,745.43,0.0015200260683887053
117,755.8,0.00150737498423398
118,764.56,0.001398833261264318
119,775.19,0.0014922819821356075
120,784.17,0.0014635700172648811
121,795.0799999999999,0.0014708700666257242
122,804.28,0.0014683258598539332
123,815.4699999999999,0.001456243237704331
124,824.92,0.0014698700742267847
125,831.763771,0.001362782940628361
126,834.4699999999999,0.0013197819867151067
127,844.13,0.001436311836750845
128,855.87,0.001418638279754941
129,865.78,0.001429559614522453
130,875.8100000000001,0.0014437890219612165
131,885.9499999999999,0.0014614151626819605
132,894.15,0.00146977646188414
133,904.5,0.0014390277297795739
134,914.9699999999999,0.0018581530703462594
135,925.57,0.007484977822973467
136,934.13,0.0152672333401894
137,944.9499999999999,0.02812754655938057
138,954.992586,0.038928681293218886
139,955.89,0.03989400532198104
140,964.74,0.04303988303239835
141,975.91,0.007479564848823359
142,984.9399999999999,0.03364975283470678
143,994.05,0.03723352372079736
144,1005.5600000000001,0.05698270161310281
145,1014.8699999999999,0.055816257249711294
146,1024.26,0.024612960786526944
147,1036.12,0.037403359492238726
148,1045.71,0.07476006777957227
149,1055.38,0.073062953967113
150,1065.15,0.05543154752991267
151,1075.0,0.0674053289929195
152,1084.95,0.05114224783118528
153,1094.99,0.07107026430718413
154,1096.4782,0.07062351256029921
155,1105.12,0.06802879532500243
156,1115.35,0.06437245493415387
157,1125.67,0.05697753714983744
158,1136.08,0.07527537197205315
159,1143.96,0.0675571246328658
160,1154.54,0.07271800548964218
161,1165.22,0.07458486813145425
162,1176.01,0.049513931736805586
163,1184.1599999999999,0.07204995221721461
164,1195.1100000000001,0.04685259267862306
165,1206.17,0.03219942410357076
166,1214.53,0.023441567332554744
167,1225.77,0.0482724839705667
168,1234.27,0.07561652569860065
169,1245.69,0.08328602754967686
170,1254.32,0.0784467885982572
171,1258.92541,0.07351250878613268
172,1265.93,0.06600834119504317
173,1274.7,0.08822193244034955
174,1283.54,0.09280185409468346
175,1295.4199999999998,0.07008098351249874
176,1304.4,0.06880040598488771
177,1316.46,0.08965530645448806
178,1325.5900000000001,0.0852258598033646
179,1334.7800000000002,0.07338163350283618
180,1344.03,0.09069228755290278
181,1356.4699999999998,0.08721126024293828
182,1365.87,0.07648952516949245
183,1375.34,0.08101861050507415
184,1384.87,0.08176968619125088
185,1394.4699999999998,0.07056719228645512
186,1404.14,0.07321234879068692
187,1413.8700000000001,0.07440222564551373
188,1423.6699999999998,0.07719505290936808
189,1433.5400000000002,0.07631482058224995
190,1443.48,0.08120483866415935
191,1445.43977,0.08220741414070674
192,1446.8,0.08290327678639921
193,1453.48,0.0800944195463224
194,1463.5600000000002,0.07287979898045804
195,1473.7,0.07271125870884446
196,1483.92,0.07457792882956531
197,1494.2,0.07631589924453695
198,1504.5600000000002,0.07171282005184301
199,1511.5,0.06260902408685305
200,1518.48,0.0677025283180303
201,1525.49,0.06601042269633296
202,1536.06,0.05670882453351684
203,1546.71,0.06510812676303514
204,1553.85,0.0604829017788812
205,1564.62,0.06090563459690111
206,1575.47,0.06662481780725542
207,1586.39,0.07089520136090235
208,1593.71,0.07338273725950084
209,1604.76,0.07138557145069117
210,1615.88,0.07105890598517414
211,1623.3400000000001,0.06571168257035784
212,1634.59,0.07105939774238422
213,1645.9199999999998,0.07372132330674498
214,1653.52,0.0652548605785139
215,1659.58691,0.06991939120393227
216,1664.98,0.07406602348152633
217,1672.67,0.06203414889356436
218,1676.52,0.07881527677865492
219,1684.26,0.0834802239814084
220,1695.94,0.07561721229254029
221,1703.76,0.07271342236043851
222,1715.57,0.07089791532743059
223,1723.49,0.07089812897675975
224,1735.44,0.07755388695775513
225,1743.45,0.0750948138303721
226,1755.53,0.08272159646722768
227,1763.6399999999999,0.0718862769212756
228,1775.86,0.07684505457213446
229,1784.0600000000002,0.0772005882494702
230,1796.43,0.08681755127247544
231,1804.72,0.08406516817309902
232,1813.05,0.07864002650629495
233,1825.6200000000001,0.07882036669216205
234,1834.0400000000002,0.07407203824864582
235,1846.75,0.06693735344851622
236,1855.28,0.06944684894457402
237,1863.84,0.07355975551506107
238,1876.76,0.07792058823593641
239,1885.4299999999998,0.07288856874599749
240,1894.1299999999999,0.07238750033048785
241,1902.8700000000001,0.07424341334755057
242,1905.46072,0.07404300915274656
243,1916.06,0.07322223681618002
244,1924.9099999999999,0.07139412825554879
245,1933.79,0.06771028830996627
246,1947.19,0.07755819969838904
247,1956.1799999999998,0.07390253467465178
248,1965.21,0.0821548978043128
249,1974.28,0.0827239690873721
250,1983.3999999999999,0.07918107806217924
251,1997.14,0.07684534375448737
252,2006.3600000000001,0.0768447181127902
253,2015.62,0.07406969062449131
254,2024.93,0.07544463082794027
255,2034.27,0.07492579964643793
256,2043.6599999999999,0.07972603615668346
257,2053.1,0.07544343035867682
258,2067.33,0.07457982343011382
259,2072.09,0.0827191836845088
260,2076.87,0.08367249301560288
261,2086.46,0.08621572029283978
262,2096.0899999999997,0.08102005572347495
263,2105.76,0.0786341793075084
264,2115.48,0.0800944105832897
265,2125.25,0.08120487955081884
266,2135.06,0.07204395667174625
267,2144.91,0.07844600194607196
268,2154.81,0.08083122491214549
269,2164.76,0.07613194556996689
270,2174.75,0.07561301438118655
271,2184.79,0.07719163088415407
272,2187.7616199999998,0.07842879608061724
273,2194.87,0.08138879533764055
274,2205.0,0.0782647281929911
275,2215.18,0.07105617288869381
276,2225.41,0.0697589694247487
277,2235.68,0.07917316743308533
278,2246.0,0.07423216728177415
279,2256.37,0.06801702897081513
280,2266.7799999999997,0.06912272213213785
281,2277.2400000000002,0.07254727713381275
282,2282.4900000000002,0.07755085037079107
283,2293.03,0.07122221831702943
284,2303.61,0.07358636773554954
285,2314.25,0.06856013936249226
286,2324.93,0.05028440246171673
287,2335.66,0.059249007401293366
288,2346.44,0.053702824181222186
289,2357.27,0.06580416280150317
290,2362.7000000000003,0.05425374266374931
291,2373.6099999999997,0.05925031422859378
292,2384.57,0.049892277633790415
293,2395.5699999999997,0.0555012925112688
294,2406.6299999999997,0.053408719597169786
295,2417.74,0.05622014852342295
296,2423.31,0.06607170353865519
297,2434.5,0.06387202540947183
298,2445.73,0.0694342887525702
299,2457.02,0.0693277943040912
300,2462.69,0.06730261300002778
301,2474.06,0.06329231149611225
302,2485.47,0.061753601464478454
303,2496.95,0.05915344400933771
304,2502.7,0.07195785564983777
305,2511.88643,0.05930412485232859
306,2514.2599999999998,0.056034559962961694
307,2520.0499999999997,0.05515858748270428
308,2525.8599999999997,0.05306143471754096
309,2537.52,0.05663204861740252
310,2543.37,0.05678435528242741
311,2555.1099999999997,0.06815010804266539
312,2566.8999999999996,0.06248700009063862
313,2572.82,0.06965002575849286
314,2584.7,0.06748919652438955
315,2596.6299999999997,0.0647986965780215
316,2602.61,0.06105901139115805
317,2614.6200000000003,0.058622280305166405
318,2626.69,0.06688572836445705
319,2632.75,0.07752894203797002
320,2644.9,0.09242003895763709
321,2657.1099999999997,0.10496956502258646
322,2663.2299999999996,0.08189480784138173
323,2675.5299999999997,0.08944690262425456
324,2687.88,0.09308511669486266
325,2694.07,0.08148246851648729
326,2706.5099999999998,0.08981860130501883
327,2712.75,0.07771963241437871
328,2725.27,0.07410967406328667
329,2737.85,0.08225967485747693
330,2744.16,0.06101176496966617
331,2756.83,0.0674080844817799
332,2763.1800000000003,0.07496641402415734
333,2775.94,0.08038073225419454
334,2782.33,0.06582299122676016
335,2795.18,0.043232088174720816
336,2808.08,0.04842917441041672
337,2814.55,0.07729522224335876
338,2827.54,0.09235546719697812
339,2834.06,0.08884701431765545
340,2847.1400000000003,0.07998563798919826
341,2853.71,0.06905366439761082
342,2866.88,0.0921459967870771
343,2873.4900000000002,0.10177438262567787
344,2884.0315,0.0987295912737585
345,2886.75,0.09794442166636885
346,2893.3999999999996,0.10402502972767326
347,2906.7599999999998,0.12748992583279012
348,2926.91,0.11667631995839674
349,2947.2,0.11207381404318872
350,2967.63,0.11722950808716605
351,2988.2,0.11873000209032875
352,3008.9100000000003,0.12052389605267678
353,3029.77,0.12405418997129486
354,3050.77,0.12622588384909827
355,3071.92,0.1332540776831717
356,3093.21,0.13372237147643054
357,3107.49,0.14307446731333687
358,3129.0299999999997,0.13712366103371237
359,3150.7200000000003,0.13888925471035793
360,3172.56,0.14561754834327348
361,3187.2,0.1304961440752279
362,3209.2900000000004,0.14129773763526016
363,3231.54,0.12580873114864713
364,3246.46,0.15526282679897224
365,3268.96,0.1728340202394759
366,3291.62,0.17068491363333427
367,3306.81,0.16579440920494543
368,3311.31121,0.16494448741471174
369,3322.0699999999997,0.16291294793405164
370,3329.73,0.17585130524493925
371,3337.4100000000003,0.16723806244436704
372,3345.1,0.1677015195880649
373,3352.81,0.15730017662030293
374,3360.5400000000004,0.17215173354108113
375,3368.29,0.1718347903503995
376,3376.0499999999997,0.144980947103988
377,3383.84,0.14538040369038674
378,3391.6400000000003,0.17485776022105556
379,3399.46,0.17900911664026456
380,3407.29,0.16985537300374368
381,3415.15,0.16798732920003304
382,3423.02,0.19074778534059247
383,3430.91,0.17850774136969208
384,3438.82,0.18107399728733192
385,3446.75,0.1364853530935119
386,3454.69,0.17711410884396195
387,3462.6600000000003,0.15186686442722228
388,3470.64,0.1692960199547527
389,3478.64,0.1438344753708233
390,3486.66,0.16295013067543407
391,3494.6899999999996,0.15284868592431494
392,3502.75,0.18132214100600605
393,3510.83,0.17974159597623737
394,3518.9199999999996,0.16590055089073874
395,3527.0299999999997,0.1556177056937803
396,3535.16,0.17874946038536205
397,3543.31,0.19744201496548397
398,3551.48,0.19437346943414605
399,3559.6699999999996,0.18614372379134836
400,3567.8700000000003,0.1758166780928207
401,3576.1,0.15605113222710332
402,3584.3399999999997,0.13380548630565606
403,3592.6000000000004,0.1505465402727489
404,3600.89,0.19763369407265208
405,3609.19,0.16985384781682533
406,3617.5099999999998,0.18292280144953874
407,3625.85,0.18944305497079234
408,3633.65,0.16896881150146117
409,3636.4,0.16984269617573544
410,3639.15,0.18255048085000972
411,3641.89,0.18966386558001389
412,3644.6400000000003,0.19132745025428816
413,3647.39,0.19411343492856242
414,3650.1299999999997,0.1868152196585666
415,3652.88,0.20197100433284085
416,3655.62,0.19503368906284504
417,3658.3700000000003,0.2104658737371193
418,3661.12,0.20178465841139356
419,3663.8599999999997,0.21575694314139776
420,3666.61,0.219552627815672
421,3669.3599999999997,0.2107867124899463
422,3672.1,0.21215249721995047
423,3674.85,0.21176278189422473
424,3677.59,0.1992132666242289
425,3680.3399999999997,0.1942660512985032
426,3683.09,0.20105683597277743
427,3685.83,0.20319532070278162
428,3688.5800000000004,0.1850266053770559
429,3691.33,0.20089309005133016
430,3694.0699999999997,0.20919667478133433
431,3696.82,0.21356205945560863
432,3699.56,0.2144596441856128
433,3702.31,0.22082172885988705
434,3705.06,0.2174369135341613
435,3707.8,0.1874579982641655
436,3710.55,0.18675258293843977
437,3713.2999999999997,0.19654416761271404
438,3716.04,0.2236589523427182
439,3718.79,0.20718813701699249
440,3721.54,0.21234312169126673
441,3724.2799999999997,0.21984010642127091
442,3727.03,0.2327903910955452
443,3729.77,0.2661437758255493
444,3732.5199999999995,0.26399986049982366
445,3735.27,0.22909564517409792
446,3738.0099999999998,0.19948902990410208
447,3740.76,0.17206431457837634
448,3743.5099999999998,0.18973569925265063
449,3746.25,0.1813939839826548
450,3749.0,0.17359266865692907
451,3751.7400000000002,0.17006225338693323
452,3754.49,0.1894767380612075
453,3757.2400000000002,0.2022521227354818
454,3759.98,0.20713760746548596
455,3762.73,0.2123207921397602
456,3765.48,0.2132171768140345
457,3768.22,0.21183036154403867
458,3770.9700000000003,0.20852454621831293
459,3773.71,0.2200996309483171
460,3776.46,0.2402021156225914
461,3779.21,0.24741030029686564
462,3781.95,0.26037308502686984
463,3784.7,0.2616022697011441
464,3787.45,0.2581270543754184
465,3790.19,0.2511392391054226
466,3792.94,0.22392872377969683
467,3795.6800000000003,0.210488008509701
468,3798.43,0.19911619318397525
469,3801.1800000000003,0.20009167785824952
470,3801.8939600000003,0.19916441181512304
471,3803.92,0.19653306494088946
472,3806.6699999999996,0.2236975528084612
473,3809.42,0.23538994067603294
474,3812.16,0.24711182858772257
475,3814.9100000000003,0.2432137164552943
476,3817.65,0.23087290436698393
477,3820.4,0.21580089223455567
478,3823.15,0.2006217801021274
479,3825.8900000000003,0.19595766801381706
480,3828.64,0.19094845588138876
481,3831.39,0.1738121437489605
482,3834.13,0.16799163166065015
483,3836.8799999999997,0.16272861952822187
484,3839.6200000000003,0.16589350743991152
485,3842.37,0.17289869530748322
486,3845.1200000000003,0.19229058317505499
487,3847.86,0.2134658710867446
488,3850.6099999999997,0.22452095895431634
489,3853.36,0.22677664682188806
490,3856.1,0.2233141347335777
491,3858.85,0.22383822260114944
492,3861.5899999999997,0.2155022105128391
493,3864.34,0.2269915983804108
494,3867.09,0.23034728624798254
495,3869.8300000000004,0.23992007415967218
496,3872.58,0.2405230620272439
497,3875.3300000000004,0.22938254989481563
498,3878.07,0.22229303780650528
499,3880.8199999999997,0.225772825674077
500,3883.56,0.21955201358576665
501,3886.31,0.20760490145333838
502,3889.06,0.2056302893209101
503,3891.8,0.21128277723259975
504,3894.55,0.21968676510017146
505,3897.3,0.23225915296774322
506,3900.04,0.2530284408794328
507,3902.79,0.25573542874700456
508,3905.5299999999997,0.2547040166586942
509,3908.28,0.26590000452626594
510,3911.0299999999997,0.26508159239383766
511,3913.7699999999995,0.2846833803055273
512,3916.52,0.28042426817309907
513,3919.2700000000004,0.27794185604067073
514,3922.01,0.2597462439523604
515,3924.7599999999998,0.24998193181993214
516,3927.5,0.22701431973162176
517,3930.25,0.2028215075991935
518,3933.0,0.17425739546676522
519,3935.74,0.16082778337845488
520,3938.4900000000002,0.17338897124602662
521,3941.24,0.19113375911359834
522,3943.9800000000005,0.21119224702528797
523,3946.73,0.2366814348928597
524,3949.47,0.2535700228045493
525,3952.2200000000003,0.26619311067212104
526,3954.97,0.26665509853969277
527,3957.71,0.2698767864513824
528,3960.46,0.2557014743189542
529,3963.2099999999996,0.22630816218652589
530,3965.95,0.19061535009821554
531,3968.7,0.16710513796578727
532,3971.44,0.1573926258774769
533,3974.19,0.17058561374504863
534,3976.94,0.20429880161262035
535,3979.68,0.24061338952431
536,3982.4300000000003,0.26895677739188173
537,3985.18,0.28747976525945346
538,3987.9199999999996,0.3028737531711431
539,3990.67,0.30763384103871483
540,3993.4199999999996,0.31476852890628654
541,3996.1600000000003,0.3202803168179762
542,3998.91,0.32706530468554795
543,4001.65,0.32838059259723756
544,4004.4,0.3326102804648093
545,4007.15,0.337714368332381
546,4009.89,0.34216585624407064
547,4012.64,0.3443029441116424
548,4015.39,0.35227243197921415
549,4018.1299999999997,0.3549979198909038
550,4020.88,0.3535984077584755
551,4023.62,0.35169849567016515
552,4026.3700000000003,0.34936828353773686
553,4029.12,0.3483072714053086
554,4031.8599999999997,0.33902955931699824
555,4034.61,0.33418934718456994
556,4037.3599999999997,0.3385263350521417
557,4040.1,0.3432823229638314
558,4042.85,0.3486007108314031
559,4045.59,0.34436569874309275
560,4048.34,0.3293780866106644
561,4051.09,0.33065227447823614
562,4053.83,0.3337950623899258
563,4056.5800000000004,0.3383971502574975
564,4059.33,0.33590333812506923
565,4062.0699999999997,0.32642822603675886
566,4064.82,0.32818181390433065
567,4067.56,0.32447700181602024
568,4070.31,0.328441689683592
569,4073.06,0.33046037755116375
570,4075.8,0.3357691654628534
