,lambda (Angstroms),Total Flux (erg/s/cm^2/Angstrom)
0,102.06,0.0023855043912062784
1,103.95,0.002787967657505904
2,104.712855,0.0029504126989915343
3,105.89,0.0027412624987615004
4,108.10000000000001,0.002348598964207852
5,110.11,0.001991470688241623
6,113.98,0.0013038655366719486
7,117.99000000000001,0.0005913859645704529
8,120.22644299999999,0.00019402762281476495
9,121.02,0.00018750478444980412
10,124.98,0.0001549515754520331
11,127.01,0.00013826408206645606
12,127.89,0.00013103057533228477
13,130.87,0.00010653444365406824
14,132.07999999999998,9.659047390583282e-05
15,133.92,8.146638121438368e-05
16,137.04,5.582603668323079e-05
17,138.038426,4.76203788788359e-05
18,139.91,4.708209507645852e-05
19,142.84,4.632097206605294e-05
20,146.84,4.5426748431369555e-05
21,150.95000000000002,4.4327376060732363e-05
22,154.83,4.3322451147089484e-05
23,158.489319,4.238683879551783e-05
24,159.16,4.21108874431043e-05
25,162.12,4.091769749522703e-05
26,165.9,3.944166286989727e-05
27,170.14999999999998,3.7768503187978896e-05
28,172.92,3.673239487999914e-05
29,176.95,3.521764349690948e-05
30,179.82000000000002,3.4176572325825756e-05
31,181.9,3.342564877326335e-05
32,181.970086,3.340061120441274e-05
33,186.14,3.436991642717121e-05
34,190.92000000000002,3.559646291074931e-05
35,194.01999999999998,3.643294267624975e-05
36,198.07999999999998,3.753914999493743e-05
37,202.23000000000002,3.873569108423642e-05
38,205.04000000000002,3.963572325554488e-05
39,208.929613,4.06948343473356e-05
40,209.82,4.158572345000982e-05
41,216.19,4.8616374015975577e-05
42,220.20999999999998,5.306148826011721e-05
43,222.76000000000002,5.59108527582668e-05
44,226.89999999999998,6.0641078308203676e-05
45,230.05999999999997,6.968253169414587e-05
46,233.8,8.523658789143191e-05
47,239.8,0.00010059630318119559
48,239.88329199999998,0.00010068728243244316
49,245.95,9.76677197086735e-05
50,252.26,9.959503094805618e-05
51,256.95,9.194316968224076e-05
52,259.92,9.811154427510389e-05
53,264.14,0.0001004628193195088
54,269.06,0.00010064347581677704
55,274.06,0.00010058454762294396
56,275.42287,0.00010056659342489913
57,279.15,0.00010605207489911816
58,283.69,0.00011348385018750571
59,290.3,0.00011986214090473958
60,295.69,0.00012985699310835382
61,301.19,0.00013699689903040921
62,308.21000000000004,0.00014874889178910538
63,316.227766,0.0001626311643391239
64,318.29999999999995,0.00016346637094574441
65,327.98,0.0001661569687508309
66,337.94,0.000167805919756891
67,348.21,0.00016896246502117184
68,357.14000000000004,0.0001710177963950791
69,363.078055,0.0001731259719691884
70,366.3,0.00017749167437933666
71,374.84000000000003,0.00018725311555949846
72,385.34,0.00019348778422363178
73,395.22,0.0002097592880714068
74,405.36,0.00022258785780991273
75,413.84999999999997,0.00023124018247262624
76,416.86938299999997,0.00023379081917319043
77,421.53999999999996,0.00023691740994743202
78,430.37,0.00024280583944961146
79,441.41,0.0002535042838102072
80,450.65000000000003,0.00025975394050331454
81,460.09000000000003,0.0002652475958261428
82,469.71999999999997,0.0002721835198472059
83,478.630092,0.00027983411291843206
84,479.56,0.0002800673589764018
85,489.59999999999997,0.00027706953223480377
86,499.85,0.0002805522925832719
87,505.64,0.0002780692652093822
88,511.49,0.00028978854843265424
89,519.81,0.00028945261790575233
90,529.47,0.0002871509240487965
91,540.56,0.0002797581327575294
92,549.5408739999999,0.0002807695534476726
93,550.61,0.000281138627067579
94,559.55,0.00029072457125697647
95,569.96,0.0002978056341218117
96,580.5500000000001,0.0002955006951918026
97,589.99,0.00030236462328441015
98,599.57,0.0002984318388699165
99,609.31,0.00027926049730445015
100,620.64,0.00031253100655119205
101,629.28,0.0003127792203986634
102,630.957344,0.0003135019861198856
103,639.5000000000001,0.0003194341211438932
104,649.8900000000001,0.00032666914435515833
105,657.42,0.00032907150015697026
106,665.0300000000001,0.0003386613585436621
107,674.28,0.0003420361199203899
108,685.24,0.0003377976740489237
109,694.77,0.00036360129447273083
110,704.44,0.00035465949442007775
111,715.88,0.00038048086405789033
112,724.43596,0.0003862446877209393
113,725.8399999999999,0.0003870989820939988
114,734.25,0.00039310247219413155
115,744.46,0.0004071729971551726
116,754.8199999999999,0.0004160675333546227
117,765.32,0.0004089633200432545
118,774.1800000000001,0.0004402946438586143
119,784.9499999999999,0.00044905837077638237
120,795.87,0.00046250160893255947
121,805.0799999999999,0.0004743657589708737
122,814.41,0.00048364573799991513
123,825.7399999999999,0.0005061272668744101
124,831.763771,0.00047511919758237193
125,835.3,0.00045594809853326615
126,844.97,0.0005174172487581668
127,854.75,0.0005228780577756981
128,864.65,0.0005425101491124631
129,874.66,0.0005642960992418587
130,884.7900000000001,0.0005908798316904878
131,895.04,0.0006088237464583505
132,905.4,0.0006068824200188438
133,915.89,0.0008424296994251735
134,924.36,0.0045313839264577395
135,935.0600000000001,0.009915755099922728
136,945.8900000000001,0.019106454879233552
137,954.64,0.027529962965010996
138,954.992586,0.027643612801650803
139,965.7,0.031096649228680766
140,974.63,0.004991143371047319
141,985.92,0.026291919517443554
142,995.04,0.02836469902454131
143,1004.25,0.04261170586230121
144,1015.88,0.04135595092453223
145,1025.28,0.01766776212702334
146,1034.76,0.028757560956769693
147,1044.34,0.0570686368205851
148,1054.0,0.056286250311655746
149,1066.21,0.04410473817148728
150,1076.07,0.053385275730696034
151,1086.03,0.04183201032397385
152,1096.08,0.056936012247913816
153,1096.4782,0.05685026491449985
154,1106.22,0.05475187612314385
155,1113.89,0.05264971413031904
156,1124.19,0.04736289799914624
157,1134.6000000000001,0.06156478165686381
158,1145.09,0.05589347788831986
159,1155.69,0.06016326390866629
160,1163.7,0.06241870035422996
161,1174.47,0.042699580593770624
162,1185.34,0.061135931550484364
163,1196.3,0.04134488415265388
164,1204.6,0.02914395367801948
165,1215.74,0.01971401957110054
166,1224.17,0.041628127028791144
167,1235.5,0.06475328528450106
168,1244.06,0.07181749067451666
169,1255.57,0.06858682222113813
170,1258.92541,0.0647020335798905
171,1264.2700000000002,0.058514766033569796
172,1275.9699999999998,0.07730682328649528
173,1284.8200000000002,0.08150933172140046
174,1293.7199999999998,0.06357029048644634
175,1305.6899999999998,0.06298763952213164
176,1314.74,0.08039285927759965
177,1323.8600000000001,0.07712775949526464
178,1336.1100000000001,0.06780187037973791
179,1345.37,0.08226333152179689
180,1354.69,0.07965491306002472
181,1364.08,0.07083324506044952
182,1373.54,0.07502847752307133
183,1386.25,0.07624654144483911
184,1395.86,0.06641157489788302
185,1405.5300000000002,0.0693811787470958
186,1415.28,0.07083288312453372
187,1425.09,0.07332041789814046
188,1434.96,0.07298549306791607
189,1441.5900000000001,0.07748505684457384
190,1445.43977,0.07831882087420541
191,1448.24,0.07892527778185182
192,1454.93,0.07677482485565183
193,1465.01,0.07067082071572714
194,1475.17,0.07067017701913642
195,1485.39,0.0723165836550461
196,1495.69,0.07399990073428975
197,1506.06,0.06986194820145059
198,1513.01,0.061838886716085846
199,1516.5,0.0667187560565286
200,1523.5000000000002,0.06460411484824757
201,1534.06,0.056012133368326486
202,1544.69,0.062411782276322596
203,1555.4,0.05892209162765263
204,1566.18,0.06001654136689986
205,1573.41,0.06430670143320388
206,1584.31,0.06795984183745199
207,1595.3,0.06970159274045079
208,1606.35,0.06843080397595003
209,1613.77,0.06890382509517216
210,1624.95,0.06505256705108904
211,1636.2199999999998,0.06970186950575659
212,1643.77,0.07099724134539634
213,1655.1599999999999,0.06535315446506479
214,1659.58691,0.06791048690504006
215,1666.64,0.07198515443476047
216,1670.48,0.06386564983882585
217,1678.19,0.07366139186105089
218,1685.9399999999998,0.07730967550206827
219,1693.72,0.07215118035717992
220,1705.46,0.069384295472734
221,1713.3300000000002,0.06672206397012843
222,1725.21,0.06672240475145572
223,1733.17,0.07215317689113293
224,1745.18,0.07018924293353537
225,1753.24,0.07625196912019344
226,1765.39,0.06875082082836909
227,1773.5400000000002,0.07165859065730996
228,1785.83,0.07299192803125881
229,1794.0800000000002,0.08002892190718054
230,1806.51,0.07857058494690262
231,1814.8500000000001,0.07316068246510714
232,1823.23,0.074519741602104
233,1835.87,0.07116831314048591
234,1844.34,0.06476126591976555
235,1857.12,0.06657546312392068
236,1865.7,0.07019319035487928
237,1874.31,0.07521129879993214
238,1882.9599999999998,0.07003315886377735
239,1896.01,0.06859821699478082
240,1904.76,0.07199511110560691
241,1905.46072,0.07185179603979307
242,1913.56,0.07019453695629803
243,1926.82,0.0679686252346915
244,1935.71,0.0665758214786521
245,1944.65,0.07486426511431103
246,1953.6200000000001,0.07116902718498896
247,1967.17,0.07911521033523265
248,1976.25,0.0802146266676469
249,1985.37,0.07713600091341977
250,1994.53,0.0753811430725513
251,2003.74,0.07625310262338114
252,2012.99,0.07400490008756964
253,2026.94,0.07590173237139985
254,2036.3,0.07503321409732466
255,2045.7,0.0791111337366081
256,2055.14,0.0757255112892502
257,2064.62,0.07503202675525096
258,2074.15,0.08245728961295003
259,2078.94,0.08418106973764872
260,2083.73,0.08794536986234741
261,2093.35,0.08283484802510345
262,2103.0099999999998,0.08132396410121814
263,2112.72,0.08340806756903116
264,2127.36,0.08360016385829813
265,2137.18,0.07607102158784744
266,2147.04,0.0818849172307554
267,2156.96,0.08476070974370133
268,2166.91,0.08039036069166625
269,2176.91,0.0803900890313295
270,2186.96,0.08207178476269106
271,2187.7616199999998,0.08242587326349364
272,2197.06,0.0865339896797489
273,2207.2,0.08340479141845528
274,2217.38,0.07624539482082521
275,2222.5,0.07502692776975782
276,2232.75,0.08476153408353893
277,2243.06,0.08039132289281535
278,2253.42,0.07365887378167119
279,2263.82,0.07502795633419056
280,2274.27,0.07892478096628934
281,2284.76,0.08437507726205168
282,2295.31,0.0776726260533093
283,2305.9,0.08083068650823047
284,2316.55,0.07583994945864694
285,2327.24,0.05744838407272695
286,2332.6,0.06552450700364078
287,2343.37,0.059668284945047854
288,2354.19,0.07261392496603436
289,2365.0499999999997,0.06044773665068439
290,2375.97,0.06586854083082973
291,2386.94,0.05572480709055449
292,2392.44,0.06168456584429069
293,2403.48,0.05949998501542664
294,2414.58,0.06292547668205789
295,2425.7200000000003,0.07432137001235269
296,2436.92,0.07201937583814276
297,2442.54,0.07845081958286959
298,2453.81,0.07869191832007087
299,2465.1400000000003,0.07660567955276745
300,2476.52,0.07204529286504345
301,2482.22,0.07043414993709735
302,2493.68,0.06778442657670042
303,2505.19,0.0823033152958829
304,2510.9700000000003,0.06289986569526386
305,2511.88643,0.06263250409862534
306,2516.76,0.061210395360993264
307,2522.56,0.060117221998162766
308,2534.2,0.0646121946286202
309,2545.8999999999996,0.06510935629325522
310,2557.65,0.07690243715303828
311,2563.55,0.0708166721805038
312,2575.38,0.07824380175252367
313,2587.27,0.07599742035872116
314,2593.2300000000005,0.0734469044203643
315,2605.2,0.0692354917387986
316,2617.2200000000003,0.06647990825238093
317,2623.26,0.0756535010262609
318,2635.3700000000003,0.08652655609110964
319,2647.53,0.1031519303511064
320,2653.63,0.11366373215916398
321,2665.88,0.09204747497042716
322,2672.03,0.10050093597363276
323,2684.36,0.10339753749713275
324,2696.75,0.09223343805481037
325,2702.9700000000003,0.10047353793122318
326,2715.45,0.08859877704016722
327,2727.98,0.08685344534425928
328,2734.27,0.09504946409387931
329,2746.8900000000003,0.07036657094923778
330,2753.2200000000003,0.07753969905497622
331,2765.93,0.08587535446160112
332,2772.31,0.09268987176248757
333,2785.1,0.0762835558813493
334,2797.96,0.051154988873418225
335,2804.41,0.0568911550475119
336,2817.35,0.08980783675181765
337,2823.85,0.10727109212105936
338,2836.88,0.10419448237663152
339,2843.4199999999996,0.09795688710199163
340,2856.5499999999997,0.08441740574785983
341,2863.1299999999997,0.11029645982933833
342,2876.35,0.11559814702647297
343,2882.98,0.11249064030309949
344,2884.0315,0.11272660211390431
345,2896.2799999999997,0.11547541934204442
346,2909.6499999999996,0.13768011493757137
347,2929.82,0.12777240829297745
348,2950.13,0.12473630160226337
349,2970.58,0.13139289486542916
350,2991.17,0.1330948880824748
351,3011.9,0.13763878125340034
352,3032.7799999999997,0.13877747437491142
353,3046.78,0.14181266976289778
354,3067.9,0.14699226280534575
355,3089.1600000000003,0.15027445580167362
356,3110.58,0.15505304874529274
357,3132.14,0.15103294164279174
358,3146.6,0.15362783687924053
359,3168.41,0.15851912969438212
360,3190.3700000000003,0.1447771224601093
361,3212.4799999999996,0.15605891517642204
362,3227.31,0.14148501029098187
363,3249.68,0.16607910292164293
364,3272.21,0.18110299549959527
365,3287.31,0.17961699052520913
366,3310.1000000000004,0.1790516830175098
367,3311.31121,0.17880615893695703
368,3325.38,0.1759541940213671
369,3333.04,0.1860368457831001
370,3340.73,0.16819119735591034
371,3348.43,0.19589264886574637
372,3356.15,0.1875954002496339
373,3363.89,0.14978045150757294
374,3371.6400000000003,0.15946290270253777
375,3379.41,0.18917445377155412
376,3387.2000000000003,0.18495910471462199
377,3395.0099999999998,0.17390295553174137
378,3402.8399999999997,0.20772710622291227
379,3410.68,0.17608725685110896
380,3418.54,0.17495990735335715
381,3426.42,0.18455945772965687
382,3434.32,0.2038713079800081
383,3442.24,0.17562605810441087
384,3450.18,0.18526550810286513
385,3458.1299999999997,0.18836375803834518
386,3466.1,0.18248680784787674
387,3474.09,0.19608605753145983
388,3482.1000000000004,0.18606570708909445
389,3490.13,0.19628045652078058
390,3498.17,0.17262080588949247
391,3506.24,0.20104905506928164
392,3514.32,0.18260970418609657
393,3522.42,0.20079335317696304
394,3530.54,0.179460702041881
395,3538.6800000000003,0.2023927507808505
396,3546.84,0.20863839939387152
397,3555.01,0.2087521479439183
398,3563.21,0.2008444963050424
399,3571.42,0.17704004460319223
400,3579.66,0.18251649271241932
401,3587.9100000000003,0.15868144075867222
402,3596.18,0.1908756886789766
403,3604.4700000000003,0.20699783647333253
404,3611.73,0.16903009075403505
405,3614.5899999999997,0.1696661727434027
406,3617.45,0.20191135473277036
407,3620.32,0.19899773665916382
408,3623.18,0.21228981864853147
409,3626.04,0.1984547006378991
410,3628.9,0.2031624826272668
411,3631.7700000000004,0.20332566455366022
412,3634.6299999999997,0.19997224654302787
413,3637.49,0.20362352853239554
414,3640.35,0.21141841052176322
415,3643.22,0.21665829244815663
416,3646.08,0.2079409744375243
417,3648.94,0.19845435642689196
418,3651.8,0.1989777384162596
419,3654.6600000000003,0.23466892040562728
420,3657.5299999999997,0.22161200233202072
421,3660.39,0.22323278432138835
422,3663.25,0.20484396631075605
423,3666.11,0.2245563483001237
424,3668.98,0.2363907302265171
425,3671.84,0.2210993122158848
426,3674.7000000000003,0.22929419420525243
427,3677.5600000000004,0.2102079761946201
428,3680.4300000000003,0.19897685812101354
429,3683.29,0.1956438401103812
430,3686.15,0.20674112209974885
431,3689.0099999999998,0.21501790408911653
432,3691.88,0.22213468601550995
433,3694.7400000000002,0.2139711680048776
434,3697.6,0.22947844999424527
435,3700.46,0.22328413198361294
436,3703.32,0.2123002139729806
437,3706.1899999999996,0.20750979589937404
438,3709.0499999999997,0.20852537788874168
439,3711.91,0.22345835987810933
440,3714.77,0.22800204186747702
441,3717.64,0.24269792379387042
442,3720.5,0.2255912057832381
443,3723.36,0.2682461877726057
444,3726.2200000000003,0.29074826976197343
445,3729.0899999999997,0.28724975168836686
446,3731.95,0.2629639336777345
447,3734.81,0.23388841566710217
448,3737.67,0.21367409765646983
449,3740.54,0.22334457958286327
450,3743.4,0.21737586157223093
451,3746.26,0.20990974356159858
452,3749.1200000000003,0.21955062555096627
453,3751.9799999999996,0.2275403075403339
454,3754.85,0.22949828946672732
455,3757.71,0.232349771456095
456,3760.5699999999997,0.23731395344546266
457,3763.43,0.24438063543483032
458,3766.3,0.23195961736122375
459,3769.16,0.22529349935059143
460,3772.02,0.23810348133995907
461,3774.88,0.25196986332932675
462,3777.7500000000005,0.2656195452557202
463,3780.6099999999997,0.26590702724508786
464,3783.47,0.2806863092344555
465,3786.33,0.29306559122382314
466,3789.2,0.2683064731502166
467,3792.06,0.24501545513958425
468,3794.92,0.2265344371289519
469,3797.78,0.22403221911831955
470,3800.6400000000003,0.23918060110768724
471,3801.8939600000003,0.24539538500051786
472,3803.5099999999998,0.25340468515455666
473,3806.37,0.26170207089665404
474,3809.23,0.2562051566387514
475,3812.09,0.2640410423808488
476,3814.96,0.2640912280730934
477,3817.82,0.24225661381519076
478,3820.6800000000003,0.23500589955728815
479,3823.5400000000004,0.22820638529938553
480,3826.4100000000003,0.2214672709916301
481,3829.27,0.2149447567337275
482,3832.13,0.20258654247582486
483,3834.99,0.19826892821792227
484,3837.86,0.20363201391016683
485,3840.7200000000003,0.21495489965226422
486,3843.58,0.2352824853943616
487,3846.44,0.254430771136459
488,3849.2999999999997,0.2723073568785564
489,3852.1699999999996,0.287259442570801
490,3855.0299999999997,0.2693938283128983
491,3857.89,0.2669942140549957
492,3860.75,0.27619429979709315
493,3863.62,0.2792185854893377
494,3866.48,0.28930057123143504
495,3869.34,0.29352635697353247
496,3872.2000000000003,0.2883679427156298
497,3875.0699999999997,0.2774441284078744
498,3877.93,0.2572197141499718
499,3880.79,0.2469947998920692
500,3883.65,0.23622618563416656
501,3886.52,0.22967167132641114
502,3889.38,0.24076895706850854
503,3892.2400000000002,0.2525739428106059
504,3895.1000000000004,0.2631481285527033
505,3897.9599999999996,0.2742249142948007
506,3900.83,0.2930024999870453
507,3903.69,0.29410028572914265
508,3906.5499999999997,0.2983978714712401
509,3909.41,0.2983674572133374
510,3912.28,0.295576642905582
511,3915.14,0.30680732864767934
512,3918.0,0.2941518143897768
513,3920.86,0.28097310013187415
514,3923.7300000000005,0.2621522858241187
515,3926.5899999999997,0.23773307156621612
516,3929.45,0.20464745730831352
517,3932.31,0.1930481430504109
518,3935.18,0.20251362874265547
519,3938.04,0.22776411448475284
520,3940.9,0.26180410022685024
521,3943.76,0.27586538596894766
522,3946.6200000000003,0.28380377171104504
523,3949.49,0.2922433574032896
524,3952.35,0.301720243145387
525,3955.21,0.2948286288874844
526,3958.07,0.2691273146295817
527,3960.94,0.24607080032182632
528,3963.8,0.2093033860639237
529,3966.6600000000003,0.1817559718060211
530,3969.5200000000004,0.18278175754811848
531,3972.39,0.20818514324036305
532,3975.25,0.25821402898246043
533,3978.11,0.2931052147245578
534,3980.97,0.30975110046665516
535,3983.84,0.32439538615889973
536,3986.7000000000003,0.3279443719009972
537,3989.56,0.3302830576430945
538,3992.42,0.34077544338519195
539,3995.2799999999997,0.3535547291272893
540,3998.1499999999996,0.3469691148195339
541,4001.0099999999998,0.3593997005616313
542,4003.87,0.3582104863037287
543,4006.73,0.37645627204582605
544,4009.6,0.3775112577380706
545,4012.46,0.37290664348016805
546,4015.32,0.3932037292222654
547,4018.1800000000003,0.37486641496436274
548,4021.0499999999997,0.37812640065660735
549,4023.91,0.36961438639870475
550,4026.77,0.37592227214080215
551,4029.63,0.3697587578828995
552,4032.5,0.3595116435751441
553,4035.36,0.3685167293172415
554,4038.2200000000003,0.37679381505933884
555,4041.0800000000004,0.37093810080143624
556,4043.9399999999996,0.3564672865435336
557,4046.81,0.3652142722357782
558,4049.67,0.36041485797787565
559,4052.5299999999997,0.374107043719973
560,4055.39,0.37535872946207033
561,4058.26,0.3594502151543149
562,4061.12,0.35561480089641234
563,4063.98,0.3766811866385097
564,4066.8399999999997,0.3693689723806071
565,4069.7100000000005,0.3639524580728517
566,4072.5699999999997,0.3588351438149491
567,4075.43,0.36334812955704643
568,4078.29,0.36406641529914385
569,4081.16,0.3708956009913884
570,4084.02,0.3768956867334858
571,4086.88,0.3681785724755832
