,lambda (Angstroms),Total Flux (erg/s/cm^2/Angstrom)
0,101.98,0.010331950572554205
1,104.11,0.012310399828556747
2,104.712855,0.012871079103632263
3,106.05,0.011842279463082925
4,108.02000000000001,0.010328953364842835
5,110.03,0.008795049092526822
6,113.9,0.005828702555679555
7,117.9,0.0027635903580854864
8,120.22644299999999,0.0012210518077811732
9,120.92,0.0012725053523806294
10,124.88000000000001,0.0012213265061908284
11,126.91,0.0011822237322601987
12,128.09,0.0011684954725369751
13,131.07,0.001108290382727479
14,131.98,0.0011897594875171966
15,134.12,0.0011475651317479605
16,136.93,0.001240447004779945
17,138.038426,0.0012237718046609147
18,140.12,0.0012642807725532868
19,143.06,0.0031196888399026134
20,147.06,0.00713437187030986
21,150.84,0.007456068814044709
22,155.06,0.007881769931124355
23,158.489319,0.00828621010985282
24,159.04000000000002,0.00835078203088693
25,162.0,0.008670800846876688
26,166.15,0.009250169943619083
27,170.02,0.0096712725037138
28,173.18,0.010044332131594757
29,176.80999999999997,0.010455417517420032
30,180.10000000000002,0.010762041823030269
31,181.970086,0.010981581687157484
32,182.18,0.01100676320838803
33,185.99999999999997,0.01144269915876035
34,191.20999999999998,0.01197908329526291
35,193.87,0.012424834716202798
36,197.93,0.012799770569216308
37,202.07,0.013308306389776887
38,204.88,0.013648481499867518
39,208.929613,0.013578810730782376
40,210.14000000000001,0.013561821905740961
41,216.03,0.014809192883189158
42,220.04,0.015339272954422991
43,223.1,0.015491899642197436
44,227.25,0.016080430738362125
45,229.88000000000002,0.023959616420991797
46,234.16,0.039263960611735135
47,239.88329199999998,0.04828433449972779
48,240.16,0.04871853467155867
49,245.76000000000002,0.0451534471849259
50,252.06,0.047577562512464026
51,256.75,0.03914323836740908
52,259.71999999999997,0.04542292845039134
53,263.94,0.04753912284439307
54,268.84999999999997,0.04687062129807755
55,273.85,0.046111528542155424
56,275.42287,0.04587896195512966
57,278.94,0.045381636800920166
58,284.12,0.04498786672995789
59,290.07,0.042403195297095804
60,296.15,0.04222640753040648
61,300.96000000000004,0.040910903178798655
62,307.97,0.040749857793191395
63,316.227766,0.04070037598815831
64,318.06,0.04067880784925387
65,327.72,0.03955764411791815
66,337.68,0.03802041735144778
67,347.94,0.036547717549842755
68,356.87000000000006,0.03569776753733469
69,363.078055,0.035462100561525774
70,366.02000000000004,0.03536321879022817
71,375.40999999999997,0.03418745564328548
72,385.03999999999996,0.03179075017948801
73,394.92,0.03217681146896683
74,405.05,0.03168402951172194
75,413.53000000000003,0.03063346098285356
76,416.86938299999997,0.030164958170316367
77,422.19,0.029414437004658543
78,430.04,0.02849866886354595
79,441.07,0.02786986923342215
80,451.34000000000003,0.02682341002205575
81,459.74,0.025699251183158203
82,470.44,0.024850013971705373
83,478.630092,0.0244414574522474
84,480.29,0.02435426476689542
85,490.35,0.023048472765996274
86,499.46999999999997,0.022877500952059874
87,506.42,0.021951514569728953
88,512.28,0.022910723404195258
89,519.41,0.022233516986062966
90,530.28,0.02118138982405763
91,540.14,0.01972623786293779
92,549.5408739999999,0.018932564396660433
93,550.18,0.018879252609224934
94,560.41,0.019133367497328985
95,569.52,0.019084899259853707
96,580.11,0.018314378366893976
97,589.53,0.01789858876239155
98,600.49,0.0166757972055607
99,610.25,0.014351411585609144
100,620.1700000000001,0.01636579784074035
101,630.24,0.01559884085376164
102,630.957344,0.015595999499382692
103,640.4799999999999,0.015569198146809564
104,649.39,0.014951702471265857
105,658.43,0.014294072358256305
106,664.52,0.014494090633894782
107,675.3199999999999,0.014273048905963016
108,684.71,0.013252349153622342
109,694.24,0.013469791545549219
110,705.52,0.012369905740820487
111,715.33,0.012859792421282467
112,724.43596,0.012577808592421571
113,725.28,0.012551431797594555
114,735.37,0.012303030302097069
115,745.6,0.011845121233817655
116,754.24,0.01153283674213299
117,764.73,0.010244173038687139
118,775.37,0.010984979507260653
119,784.35,0.010343702338819876
120,795.26,0.010394097917028245
121,804.47,0.01025892687901716
122,815.66,0.010058819311661672
123,825.1,0.009884436404080278
124,831.763771,0.009147052523317968
125,834.66,0.008823119418542528
126,844.3199999999999,0.009361739147948097
127,854.1,0.009086398911259324
128,865.9799999999999,0.008976032267919588
129,876.01,0.008828703935200938
130,884.11,0.008627691223832936
131,894.35,0.008466571450449191
132,904.7099999999999,0.008215839710971104
133,915.1800000000001,0.008876146169239872
134,925.78,0.015909284497573103
135,934.35,0.023953408085668936
136,945.1700000000001,0.03327186480949588
137,953.9100000000001,0.04041295961229139
138,954.992586,0.04067420955536436
139,964.96,0.043086399644288405
140,973.89,0.01692682734675944
141,985.1600000000001,0.03562445310340542
142,994.28,0.03603374628890775
143,1005.79,0.04700400107675116
144,1015.1,0.0463591297452848
145,1024.49,0.025977428090884234
146,1033.97,0.03627660482318271
147,1045.94,0.05659534025415453
148,1055.6200000000001,0.05480500117911753
149,1065.3899999999999,0.04478692049077957
150,1075.25,0.05080620818914065
151,1085.2,0.04076787427420076
152,1095.24,0.052100748745959914
153,1096.4782,0.05180106924836296
154,1105.37,0.049646557917594356
155,1115.6000000000001,0.04752646641506379
156,1125.92,0.04247027856500364
157,1133.73,0.051727934407157734
158,1144.22,0.04773262790065279
159,1154.8,0.04928739504661825
160,1165.49,0.04962245776782532
161,1176.27,0.034931864141502796
162,1184.43,0.04738987863215291
163,1195.39,0.03565322231077119
164,1203.67,0.02783322833804851
165,1214.81,0.020525249321607607
166,1226.05,0.035073549919022715
167,1234.55,0.047151977096783246
168,1245.97,0.050279084999139155
169,1254.61,0.0480178856362981
170,1258.92541,0.046080545753950375
171,1266.22,0.042808902355914544
172,1274.99,0.05191687428644589
173,1283.83,0.05349072822782527
174,1295.7099999999998,0.043104129497461806
175,1304.69,0.042711617460537234
176,1313.7299999999998,0.05144382714719668
177,1325.89,0.049021446460225326
178,1335.08,0.04370362045584484
179,1344.34,0.05062335646231237
180,1353.65,0.04890882390509993
181,1366.1799999999998,0.04390687384689671
182,1375.6499999999999,0.045237425885908324
183,1385.18,0.04523829964850397
184,1394.79,0.03799587570921164
185,1404.4499999999998,0.038523713206239325
186,1414.1899999999998,0.041457683001379045
187,1423.99,0.04184109452010278
188,1433.8600000000001,0.04184130804967455
189,1440.48,0.04350646821844508
190,1445.43977,0.04380676255024254
191,1447.13,0.043909091445845504
192,1453.8100000000002,0.042421962499129086
193,1463.8899999999999,0.039236965525640835
194,1474.03,0.039148959998738964
195,1484.25,0.039600176400618935
196,1494.54,0.039782774490183005
197,1504.9,0.0375657242674312
198,1511.8500000000001,0.033648051830353486
199,1515.33,0.03563502573236349
200,1525.84,0.034667209126077625
201,1536.41,0.03007335396637814
202,1543.4999999999998,0.031267084904668646
203,1554.2,0.02993479287923965
204,1564.98,0.030983632782592495
205,1575.82,0.03281117413253172
206,1586.75,0.034037767652350504
207,1594.07,0.0344307841358888
208,1605.12,0.03357446054888035
209,1616.25,0.03342005889065374
210,1623.7099999999998,0.03177577874956025
211,1634.96,0.033575439984506406
212,1646.3,0.03380577338933212
213,1653.89,0.03163228638250912
214,1659.58691,0.03275122334919984
215,1665.36,0.03388600019681232
216,1673.0500000000002,0.030354714168638677
217,1676.9,0.03412103203489764
218,1684.64,0.0350752148101819
219,1696.3200000000002,0.03297144129794936
220,1704.15,0.03171094991945785
221,1715.96,0.02994711929621588
222,1723.88,0.029608993763948606
223,1735.83,0.03135686779038877
224,1743.8400000000001,0.030577848104345738
225,1755.93,0.03216102678046805
226,1764.04,0.02975017470134083
227,1776.27,0.030028398027145287
228,1784.46,0.03051419003355072
229,1796.8300000000002,0.03216835800903732
230,1805.13,0.03187554938305015
231,1813.46,0.02928768603913773
232,1826.03,0.02982948922845597
233,1834.46,0.028693253491459365
234,1842.93,0.02636606479722909
235,1855.7,0.026368193200378958
236,1864.27,0.0270411921130645
237,1872.8700000000001,0.028897556307824784
238,1885.8500000000001,0.02661438168549787
239,1894.5600000000002,0.025544055247865557
240,1903.3,0.02698488409230799
241,1905.46072,0.026797759865913973
242,1916.4999999999998,0.025837279107520778
243,1925.3400000000001,0.02513490282440288
244,1934.23,0.025772445193529794
245,1943.1599999999999,0.026915748484452554
246,1956.63,0.0250701313992039
247,1965.6599999999999,0.02728325199461628
248,1974.73,0.0278487935118245
249,1983.8500000000001,0.026478383681277532
250,1993.0,0.025759187042077445
251,2006.82,0.026412200522542454
252,2016.0800000000002,0.025579208918280947
253,2025.3899999999999,0.026349675966264252
254,2034.7299999999998,0.025167486205594437
255,2044.13,0.026044102827618393
256,2053.56,0.024369542640989235
257,2063.04,0.024591631106604884
258,2072.56,0.026519050494016382
259,2077.34,0.027257995648620054
260,2086.93,0.029328569149174283
261,2096.56,0.027567793571524356
262,2106.2400000000002,0.027628916646119238
263,2115.96,0.02852624064250997
264,2125.73,0.028070413291145506
265,2135.54,0.02650471686157689
266,2145.4,0.028195129084253083
267,2155.3,0.028714832228725125
268,2165.25,0.02723779402544197
269,2175.24,0.026987416743954665
270,2185.28,0.028381308114712164
271,2187.7616199999998,0.028509742408179245
272,2195.37,0.028906611631754186
273,2205.5,0.02831825465126762
274,2215.68,0.02560364671826138
275,2225.9100000000003,0.02625922783273546
276,2236.1800000000003,0.0298567261851938
277,2246.5099999999998,0.02865213539462853
278,2256.88,0.025669231842047516
279,2267.29,0.02526260552745076
280,2272.52,0.026267591893892547
281,2283.01,0.029728280055264306
282,2293.55,0.026572847264116392
283,2304.13,0.028657861710952734
284,2314.77,0.026143287014765464
285,2325.45,0.021420349556562454
286,2336.19,0.02304397295533583
287,2346.97,0.020644723592093465
288,2352.38,0.02530545252946441
289,2363.2400000000002,0.02102144764219056
290,2374.15,0.022614191802397036
291,2385.11,0.019399545010083834
292,2396.12,0.021108357265250954
293,2407.18,0.020675658567898398
294,2412.72,0.021493171028718182
295,2423.86,0.026522986807334142
296,2435.05,0.026218351633430427
297,2446.29,0.029255975507007034
298,2457.58,0.030066528428063965
299,2463.25,0.02718377441233259
300,2474.62,0.025317501809358035
301,2486.04,0.020843748253863804
302,2497.51,0.021370983745849895
303,2503.2700000000004,0.027479986015583102
304,2511.88643,0.021632718434128048
305,2514.83,0.01963441901033592
306,2520.62,0.018970933523540286
307,2526.4300000000003,0.018881636636099423
308,2532.26,0.02276641834801332
309,2543.94,0.022968950371195878
310,2555.69,0.03411489749212012
311,2567.4799999999996,0.027817351811753883
312,2573.4,0.03332813722076422
313,2585.2799999999997,0.030752725237494432
314,2597.2099999999996,0.02883383975261155
315,2603.2,0.026428560259363562
316,2615.22,0.024951888471577123
317,2627.29,0.029819883182177594
318,2633.35,0.04535229878667128
319,2645.5,0.05690643789469082
320,2657.7099999999996,0.07992623280077464
321,2663.84,0.050947823503010005
322,2676.13,0.05673728280651289
323,2682.3,0.06601077070745778
324,2694.68,0.04851580370805711
325,2707.12,0.059633712506720726
326,2713.36,0.044546275505407296
327,2725.8900000000003,0.03484280800116736
328,2732.17,0.04351614819856346
329,2744.78,0.02919329509174258
330,2757.4500000000003,0.03636614778298599
331,2763.81,0.04542178237780115
332,2776.56,0.04765094946646362
333,2782.96,0.03240889125998831
334,2795.8100000000004,0.019853211345424605
335,2802.2599999999998,0.02235541963733621
336,2815.19,0.04273987412019156
337,2828.1800000000003,0.05798082440111121
338,2834.7,0.053495377790764485
339,2847.79,0.038077761068457956
340,2854.35,0.025671161656820762
341,2867.5299999999997,0.05152646863161067
342,2874.14,0.07371837571836039
343,2884.0315,0.06934113775912637
344,2887.4100000000003,0.06784629815208902
345,2894.06,0.086546878621136
346,2907.42,0.11910331947323638
347,2927.5699999999997,0.1027565905937321
348,2947.8700000000003,0.09304122149924392
349,2968.2999999999997,0.09626226221843634
350,2988.8799999999997,0.09755435272264489
351,3009.5899999999997,0.09551235304053403
352,3030.46,0.10490474312910701
353,3051.4599999999996,0.10878711303136063
354,3072.61,0.12339578271863032
355,3086.79,0.11890086239548536
356,3108.19,0.14450353172444858
357,3129.74,0.13083240083842787
358,3151.4300000000003,0.13319706975175552
359,3173.28,0.14833093843576697
360,3187.92,0.1256508174533381
361,3210.02,0.13864438577904306
362,3232.27,0.11555285388976413
363,3247.1899999999996,0.16961143250603194
364,3269.7,0.20099230024411424
365,3292.3599999999997,0.19768086776721266
366,3307.56,0.18106744598217717
367,3311.31121,0.17885769049503994
368,3322.83,0.1720719250167964
369,3330.49,0.18604041514995143
370,3338.16,0.15907010500912885
371,3345.86,0.18812679404637347
372,3353.57,0.17314348280964048
373,3361.2999999999997,0.1630632710249523
374,3369.05,0.16759545869230888
375,3376.8199999999997,0.14562854581171025
376,3384.6,0.15528783265713406
377,3392.3999999999996,0.1883608189546026
378,3400.23,0.20553470443013835
379,3408.06,0.1840123899056741
380,3415.92,0.17409597455927706
381,3423.8,0.2136201586649248
382,3431.69,0.20444474249659492
383,3439.6,0.19521602578030983
384,3447.5299999999997,0.13632450851606953
385,3455.48,0.18254759070387405
386,3463.44,0.14668557261770096
387,3471.42,0.1924003539835726
388,3479.43,0.1413327345275115
389,3487.4500000000003,0.16907921479747276
390,3495.49,0.15632829451947883
391,3503.55,0.21031117369352967
392,3511.62,0.2022050525936029
393,3519.7200000000003,0.19711423067174336
394,3527.83,0.1386028084759062
395,3535.96,0.1934498857321138
396,3544.1099999999997,0.21352866244036625
397,3552.29,0.21946433832668583
398,3560.47,0.20059261421300542
399,3568.6800000000003,0.15147188927739222
400,3576.91,0.16603846379382378
401,3585.1499999999996,0.11675643803627776
402,3593.42,0.1714101114567989
403,3601.7,0.2327349846033425
404,3610.01,0.17452905692795323
405,3618.3300000000004,0.21415202897858637
406,3626.67,0.2221389004812643
407,3630.14,0.23272890541103555
408,3632.89,0.21802903006719437
409,3635.64,0.19503815472335315
410,3638.38,0.20855737965348953
411,3641.13,0.20292400430964833
412,3643.88,0.21537792896580712
413,3646.62,0.2136428538959435
414,3649.37,0.1914222785521023
415,3652.12,0.2054345032082611
416,3654.87,0.2351850278644199
417,3657.61,0.26257785279455625
418,3660.3599999999997,0.26817737745071507
419,3663.11,0.2731433021068738
420,3665.85,0.27836422703701025
421,3668.6000000000004,0.280340051693169
422,3671.35,0.24534077634932783
423,3674.0899999999997,0.27233330127946426
424,3676.84,0.237336425935623
425,3679.5899999999997,0.2478872505917818
426,3682.33,0.2344176755219182
427,3685.08,0.21317010017807697
428,3687.8300000000004,0.2333803248342358
429,3690.57,0.23824634976437217
430,3693.3199999999997,0.257128774420531
431,3696.07,0.2577870990766898
432,3698.8199999999997,0.2654897237328485
433,3701.56,0.26328614866298494
434,3704.31,0.24050297331914372
435,3707.06,0.23083549797530253
436,3709.7999999999997,0.2322249229054389
437,3712.55,0.2407916475615977
438,3715.3,0.23060737221775648
439,3718.0400000000004,0.24598919714789289
440,3720.79,0.22576272180405169
441,3723.54,0.22258974646021046
442,3726.28,0.22625207139034686
443,3729.0299999999997,0.21806949604650563
444,3731.78,0.20347612070266444
445,3734.5299999999997,0.18849514535882322
446,3737.27,0.1868460702889596
447,3740.02,0.1830827949451184
448,3742.7700000000004,0.2016891196012772
449,3745.51,0.1792441445314136
450,3748.2599999999998,0.17920316918757237
451,3751.01,0.20431919384373115
452,3753.75,0.19953071877386755
453,3756.5,0.21915574343002636
454,3759.25,0.21943646808618514
455,3761.9900000000002,0.22066879301632153
456,3764.74,0.2254321176724803
457,3767.49,0.22627294232863912
458,3770.23,0.2381832672587755
459,3772.98,0.2389556919149343
460,3775.73,0.2599894165710931
461,3778.48,0.26923784122725186
462,3781.2200000000003,0.26551376615738825
463,3783.97,0.26789519081354707
464,3786.7200000000003,0.27154351546970584
465,3789.46,0.24509514039984226
466,3792.2099999999996,0.22937656505600104
467,3794.96,0.22019318971215981
468,3797.7,0.21598501464229622
469,3800.4500000000003,0.22260833929845503
470,3801.8939600000003,0.22483005535463985
471,3803.2,0.2268395714103386
472,3805.94,0.22613331198217498
473,3808.69,0.2371783523371203
474,3811.44,0.22360359269206562
475,3814.18,0.22132633326390205
476,3816.93,0.21968137361884738
477,3819.68,0.19863401397379268
478,3822.43,0.183125954328738
479,3825.17,0.17981979490057443
480,3827.92,0.16694443525551975
481,3830.67,0.15362827561046505
482,3833.41,0.14754731618230146
483,3836.1600000000003,0.1496780565372468
484,3838.91,0.1599300968921921
485,3841.6499999999996,0.17315523746402853
486,3844.4,0.19204547781897385
487,3847.1499999999996,0.19950751817391918
488,3849.8900000000003,0.1972276587457556
489,3852.64,0.19293479910070088
490,3855.3900000000003,0.19167253945564622
491,3858.13,0.18979038002748264
492,3860.8799999999997,0.18561412038242794
493,3863.63,0.19713306073737324
494,3866.3799999999997,0.2129393010923186
495,3869.12,0.202865041664155
496,3871.87,0.20359698201910031
497,3874.62,0.20114372237404562
498,3877.36,0.20496306294588207
499,3880.11,0.20254270330082735
500,3882.86,0.20930794365577268
501,3885.6000000000004,0.21267628422760912
502,3888.35,0.21671502458255443
503,3891.1,0.23642356493749975
504,3893.84,0.2573269055093361
505,3896.5899999999997,0.26125404586428147
506,3899.34,0.2749621862192268
507,3902.0899999999997,0.28051102657417215
508,3904.8300000000004,0.2752412671460085
509,3907.58,0.28134760750095383
510,3910.3300000000004,0.29267374785589917
511,3913.07,0.30268388842773564
512,3915.8199999999997,0.2974887287826809
513,3918.57,0.27468276913762624
514,3921.31,0.2621406097094627
515,3924.06,0.23662835006440797
516,3926.81,0.21278109041935328
517,3929.55,0.1824453309911897
518,3932.3,0.15183747134613498
519,3935.0499999999997,0.1438502117010803
520,3937.79,0.16325565227291675
521,3940.54,0.18545769262786208
522,3943.29,0.20714283298280736
523,3946.04,0.2255793733377527
524,3948.78,0.2630014139095891
525,3951.5299999999997,0.2804851542645344
526,3954.28,0.2867434946194798
527,3957.02,0.28930373519131614
528,3959.7700000000004,0.2607709755462615
529,3962.52,0.2275556159012068
530,3965.2599999999998,0.19684245647304321
531,3968.01,0.17731289682798854
532,3970.7599999999998,0.17895963718293384
533,3973.5,0.2041577777547703
534,3976.25,0.24324601810971558
535,3978.9999999999995,0.2887956584646609
536,3981.74,0.32427199903649734
537,3984.49,0.34249043939144264
538,3987.2400000000002,0.356882579746388
539,3989.99,0.37041322010133326
540,3992.73,0.3809303606731697
541,3995.48,0.385946901028115
542,3998.23,0.39119144138306033
543,4000.97,0.3958551819548967
544,4003.7200000000003,0.4008971223098421
545,4006.47,0.4108547626647874
546,4009.2100000000005,0.40165790323662376
547,4011.96,0.4051287435915691
548,4014.71,0.41554248394651444
549,4017.4500000000003,0.4272254245183509
550,4020.2,0.43730976487329615
551,4022.9500000000003,0.4320131052282415
552,4025.69,0.42768144580007794
553,4028.4399999999996,0.41759568615502324
554,4031.19,0.39727272650996853
555,4033.9399999999996,0.39364856686491384
556,4036.6800000000003,0.4094617074367503
557,4039.43,0.4137940477916956
558,4042.1800000000003,0.4176955881466409
559,4044.92,0.39314302871847734
560,4047.67,0.41564366907342265
561,4050.42,0.408978809428368
562,4053.1600000000003,0.39544875000020435
563,4055.91,0.4104744903551497
564,4058.66,0.400971530710095
565,4061.4,0.3870613712819314
566,4064.15,0.39380101163687675
567,4066.9,0.3969171519918221
568,4069.65,0.39217799234676737
569,4072.3900000000003,0.39086163291860376
570,4075.14,0.3948138732735491
571,4077.8900000000003,0.40259241362849446
572,4080.63,0.41354035420033086
