,lambda (Angstroms),Total Flux (erg/s/cm^2/Angstrom)
0,100.00999999999999,0.00034067245474537323
1,102.10000000000001,0.00041846612368954617
2,104.0,0.0004891877127306116
3,104.712855,0.0005157216105751046
4,105.94,0.000477610833254224
5,107.89999999999999,0.00041674056846910076
6,109.91000000000001,0.0003543187268775093
7,114.03999999999999,0.00022605831751849997
8,118.04,0.0001018369602511049
9,120.22644299999999,3.397356369470463e-05
10,121.07,3.2777067097312076e-05
11,125.03999999999999,2.7101454419570915e-05
12,127.07,2.419918315571335e-05
13,127.95,2.294519801374552e-05
14,130.93,1.868802400571815e-05
15,132.14,1.698232961051244e-05
16,133.98,1.4360197995488824e-05
17,137.1,9.952658183057485e-06
18,138.038426,8.619981341768436e-06
19,139.97,8.554656066574355e-06
20,142.9,9.092399294801816e-06
21,146.91,1.0713269421147251e-05
22,151.02,1.0957028213985088e-05
23,154.9,1.1310032273890398e-05
24,158.489319,1.1708294123043832e-05
25,158.86999999999998,1.1740168388420052e-05
26,161.82,1.2023504737050105e-05
27,165.97,1.2534575600377133e-05
28,169.84,1.3036434210274868e-05
29,173.0,1.3480597498976893e-05
30,177.03,1.4118292110834225e-05
31,179.89999999999998,1.4652352958484483e-05
32,181.970086,1.5042993254827821e-05
33,181.99,1.5048803818818296e-05
34,185.79999999999998,1.6266501288890494e-05
35,191.0,1.7930051904212132e-05
36,194.11,1.9096925329914114e-05
37,198.17000000000002,2.0553918387261392e-05
38,201.85999999999999,2.2212466535441556e-05
39,205.14000000000001,2.349856600049059e-05
40,208.929613,2.455342110155405e-05
41,209.91,2.495111790178718e-05
42,215.79000000000002,2.936655822376273e-05
43,219.81,3.200771772960315e-05
44,222.86,3.367452611089999e-05
45,227.01,3.6631286695287494e-05
46,230.17,5.29369182968934e-05
47,233.91,8.635853778740165e-05
48,239.88329199999998,0.0001098859386899275
49,239.91,0.00010998371235466323
50,246.06,0.0001087544608448685
51,251.79,0.00011906823412110853
52,257.06,0.00010468772359157711
53,260.04,0.00012136726868113999
54,264.27,0.00012947205476464702
55,269.18,0.0001328421769088597
56,274.18,0.00013574460088463633
57,275.42287,0.00013647040539459102
58,279.28000000000003,0.00013972403387698637
59,283.82,0.00014405411336123366
60,289.76,0.00014266402969084354
61,295.83000000000004,0.0001501293694418085
62,301.33,0.0001528365141914473
63,308.35,0.00016016517894462264
64,316.227766,0.00016927709459946467
65,317.72,0.00017065661341513817
66,328.13,0.00017559665750873065
67,338.1,0.00017884649666464968
68,348.37,0.00018138608464170964
69,357.31,0.00018412463951171125
70,363.078055,0.00018669504333005248
71,365.63,0.00018827831137699364
72,375.01,0.00019109078947228547
73,384.63,0.00018890255591969565
74,395.4,0.00019778193322100623
75,404.60999999999996,0.0002019825862335476
76,414.04,0.00020358099523553076
77,416.86938299999997,0.00020347320663101383
78,421.74,0.00020313837952339647
79,429.58000000000004,0.00020395368428965087
80,440.6,0.00020622857364221766
81,450.86,0.0002058204257980557
82,460.3,0.00020536758255742325
83,469.94,0.00020535713331592994
84,478.630092,0.00020653793026227752
85,479.78,0.00020657200777641515
86,489.82,0.0002024662613866552
87,500.08,0.00020403265481704004
88,505.87,0.00020105337099266655
89,511.73,0.0002118663680201573
90,520.04,0.00021091429486289588
91,529.7099999999999,0.00020759674968471082
92,539.56,0.0002011951552684623
93,549.5408739999999,0.00020236256560431603
94,549.59,0.00020237030887453343
95,559.8100000000001,0.0002080124162617113
96,570.22,0.0002124249962911166
97,579.48,0.00020807653664388245
98,590.26,0.00021297155813446733
99,599.85,0.0002076736246553123
100,609.59,0.0001938046485252842
101,619.5,0.00021858533739093318
102,629.56,0.00021888338360570906
103,630.957344,0.0002189896269906611
104,639.79,0.00022006803689998642
105,650.1899999999999,0.00022426244881992375
106,657.72,0.00022494746802733992
107,665.3299999999999,0.00023070010271106328
108,674.59,0.00023093806909362286
109,685.5500000000001,0.00022370918934771066
110,695.09,0.00024677285989734547
111,704.76,0.00023637576809597952
112,716.21,0.000257356545642449
113,724.43596,0.00025992978186049773
114,726.17,0.0002604524579375226
115,734.5799999999999,0.0002646332906056313
116,744.8000000000001,0.00027736025563156137
117,755.16,0.0002856019270277096
118,765.67,0.00028138385524909167
119,774.53,0.00030552455839290185
120,785.3100000000001,0.0003146201488997047
121,794.4,0.00032395711250887335
122,805.45,0.00033361086530109713
123,814.78,0.0003404731398306399
124,824.2099999999999,0.00036168131891033855
125,831.763771,0.0003275364114970497
126,835.6800000000001,0.000309646717287579
127,845.36,0.00037112801431357385
128,855.15,0.0003774793033512277
129,865.05,0.00039794768440054064
130,875.07,0.00041958042946257246
131,885.2,0.00044847736653626333
132,895.45,0.0004666708676226731
133,905.8199999999999,0.0004631794327218019
134,914.2,0.0006956438696100082
135,924.7800000000001,0.004489430346731395
136,935.4899999999999,0.00987815205986656
137,944.15,0.019208590012784445
138,954.992586,0.028072817233956437
139,955.0799999999999,0.028144283923931483
140,963.9200000000001,0.030157748094620403
141,975.0799999999999,0.004437041237707314
142,984.1,0.022984403475220214
143,995.5,0.026266374374072435
144,1004.71,0.0418179866265662
145,1014.0100000000001,0.04143329841247197
146,1025.75,0.01804970754865838
147,1035.24,0.027065648349545012
148,1044.8200000000002,0.05679837868384364
149,1054.48,0.05589051860339736
150,1064.24,0.04172218800451997
151,1074.0900000000001,0.05168205693905456
152,1084.03,0.03866949540700115
153,1094.06,0.05525040340835973
154,1096.4782,0.05474352946098642
155,1104.18,0.05312908590259401
156,1114.3999999999999,0.050157490073328426
157,1124.71,0.04439650278372684
158,1135.1200000000001,0.0600232338715297
159,1145.62,0.05374287349899656
160,1156.22,0.05852255150386787
161,1164.23,0.06030049153396402
162,1175.01,0.03956734661816333
163,1185.8799999999999,0.05865724024202665
164,1194.1,0.03718388686467213
165,1205.1499999999999,0.025025327567863447
166,1216.3,0.018941536648459212
167,1224.73,0.03974940986365404
168,1236.06,0.06372687602357781
169,1244.63,0.07051848696713885
170,1256.15,0.06626937004413107
171,1258.92541,0.06283456372786557
172,1264.85,0.055502481848267685
173,1273.6200000000001,0.07556210197008967
174,1285.4099999999999,0.08003893557741933
175,1294.32,0.05947246586082114
176,1306.29,0.05865646967589629
177,1315.3500000000001,0.07767906013241935
178,1324.46,0.07384249064664948
179,1333.65,0.06314155125321093
180,1345.99,0.0793051754953185
181,1355.3200000000002,0.07661297626345978
182,1364.71,0.06672753710084957
183,1374.17,0.07133509801902926
184,1383.6999999999998,0.07216077901799887
185,1396.5,0.062131203791011565
186,1406.1799999999998,0.06461212496310242
187,1415.93,0.0659637462159832
188,1425.74,0.06875569753811245
189,1435.62,0.06812491894103163
190,1442.25,0.07266236659299054
191,1445.43977,0.07428741397332239
192,1445.57,0.07435376040058533
193,1455.59,0.07166512010655064
194,1465.68,0.0652105698803221
195,1475.84,0.06536118972189972
196,1486.07,0.06719158963128345
197,1496.3799999999999,0.06891447961815995
198,1503.28,0.06446373630190852
199,1513.7,0.056145576395337515
200,1517.1899999999998,0.061138019775958174
201,1524.19,0.05879305655657266
202,1534.76,0.04992557679530055
203,1545.4,0.05640575710183457
204,1556.11,0.05312699747617474
205,1563.29,0.05399074443114789
206,1574.1299999999999,0.057985404931413756
207,1585.04,0.061703645499485774
208,1596.03,0.06299663614505051
209,1603.39,0.06198829327438233
210,1614.5100000000002,0.06256296404587279
211,1625.6999999999998,0.05865704488516937
212,1633.1999999999998,0.06314243215011348
213,1644.52,0.06431471311533576
214,1655.9199999999998,0.058926874158050785
215,1659.58691,0.06186633507954029
216,1663.57,0.06505927588616417
217,1671.25,0.05666554021399935
218,1675.1,0.06536057744865631
219,1686.7099999999998,0.06907312957706344
220,1694.5,0.06431416468303168
221,1706.24,0.06156276773105058
222,1714.1200000000001,0.05771819347367314
223,1726.0,0.057454577512043206
224,1733.97,0.06198824389132009
225,1745.98,0.06043954884930195
226,1754.04,0.06521072586523316
227,1766.2,0.059063091884305544
228,1774.3500000000001,0.06071857953689106
229,1786.6499999999999,0.061989546546314604
230,1794.9,0.06703783490629382
231,1803.19,0.0665753935492305
232,1815.68,0.060579241902702065
233,1824.0700000000002,0.06227549125303244
234,1836.71,0.05960993066759452
235,1845.1899999999998,0.05424078065457921
236,1853.7,0.054367230853782006
237,1866.55,0.056277211753870834
238,1875.1699999999998,0.06198976273120669
239,1883.82,0.05640752392076065
240,1896.8799999999999,0.05411703630637622
241,1905.46072,0.05764561445023138
242,1905.64,0.057719335371104075
243,1914.43,0.05525014522051456
244,1923.27,0.054367774614005875
245,1936.6,0.05627749306595601
246,1945.54,0.05879368154760899
247,1954.52,0.054742139664526644
248,1968.0700000000002,0.06071837611043245
249,1977.15,0.06256461331551176
250,1986.28,0.058927170064671915
251,1995.45,0.05719072644909673
252,2004.66,0.05920033246878621
253,2013.9099999999999,0.05679704812374036
254,2023.21,0.06002209332277534
255,2037.2299999999998,0.05640649548304098
256,2046.64,0.059062159679053795
257,2056.08,0.05588776360151511
258,2065.5699999999997,0.056145907068057256
259,2075.11,0.06085710007868024
260,2079.89,0.05771803649280789
261,2084.68,0.06029949281575172
262,2094.31,0.056795875005720205
263,2103.97,0.05719028692213718
264,2113.69,0.05785131829145117
265,2123.44,0.058792439387213645
266,2133.2400000000002,0.054365600027056954
267,2143.09,0.05588684021098111
268,2152.98,0.05838655003016992
269,2162.92,0.05640491939343956
270,2172.9,0.055886788391973884
271,2182.93,0.05486663693458903
272,2187.7616199999998,0.05623289161106144
273,2193.0099999999998,0.0577170810338471
274,2203.13,0.05601700460643756
275,2213.3,0.05312677854252896
276,2223.52,0.05144128284212129
277,2233.7799999999997,0.05512131743251438
278,2244.09,0.052760882386408414
279,2254.4500000000003,0.050270817703803386
280,2264.85,0.0515602933119991
281,2275.31,0.053004359356395955
282,2285.81,0.054616675691593564
283,2296.36,0.05133995239029211
284,2306.96,0.051572229452491604
285,2317.61,0.049019436878192026
286,2322.95,0.03809414570009252
287,2333.67,0.045479163634694265
288,2344.45,0.04433810200549714
289,2355.27,0.04816554066710078
290,2366.14,0.04412718969220534
291,2377.06,0.04557160908081085
292,2382.54,0.04228362892051398
293,2393.54,0.04540934889072099
294,2404.59,0.04366385922442895
295,2415.69,0.04488544992163785
296,2426.84,0.04787162098234769
297,2432.43,0.04608661162175289
298,2443.66,0.049040753264064235
299,2454.94,0.04847733526987652
300,2466.27,0.04803227763918975
301,2477.65,0.04629432037200391
302,2483.36,0.04731835188381137
303,2494.83,0.04405855527092723
304,2506.34,0.049890018948843845
305,2511.88643,0.044439108473051304
306,2512.12,0.04420955861430106
307,2517.91,0.045710142323043546
308,2523.72,0.04390580597551226
309,2535.3599999999997,0.04482593322417592
310,2547.07,0.04400748027588137
311,2552.94,0.04775568375952876
312,2564.72,0.046349350614276
313,2576.56,0.04932220730020192
314,2582.5,0.048590570586891105
315,2594.42,0.04792517704772193
316,2606.3999999999996,0.046299783339731435
317,2612.4,0.0457193364575993
318,2624.46,0.04809678252451371
319,2636.58,0.05048137842260679
320,2642.66,0.05490787131537956
321,2654.8500000000004,0.05736636701651444
322,2667.1099999999997,0.05078114252069111
323,2673.25,0.053483005244642556
324,2685.59,0.05385637052372413
325,2697.9900000000002,0.05084899563398439
326,2704.21,0.05281895813284073
327,2716.69,0.049755423018005895
328,2722.96,0.04913123537617781
329,2735.52,0.05192716003624787
330,2748.1499999999996,0.04491958449935973
331,2754.4800000000005,0.046341276688710326
332,2767.2000000000003,0.0484185608985902
333,2773.58,0.05075990294725636
334,2786.38,0.047487086932041137
335,2792.7999999999997,0.038735728868159756
336,2805.69,0.04160704259971255
337,2812.1600000000003,0.05031315439514673
338,2825.14,0.05354644787346754
339,2838.1800000000003,0.051499021182967036
340,2844.7299999999996,0.04958339275330612
341,2857.8599999999997,0.04724939580957363
342,2864.4399999999996,0.053323977295502055
343,2877.67,0.054699860070400695
344,2884.0315,0.054043379508224174
345,2884.3,0.05401567215565912
346,2897.61,0.054775471389232416
347,2910.99,0.06062554061877491
348,2931.17,0.05797840945675455
349,2951.48,0.05687005828724843
350,2971.94,0.058144697109104894
351,2992.5400000000004,0.058497025922899765
352,3013.29,0.05912459472805722
353,3027.2,0.05968449392708084
354,3048.18,0.06004849271899427
355,3069.31,0.06125521150227027
356,3090.58,0.06148909027748469
357,3112.01,0.06301587904348585
358,3133.5800000000004,0.06167553780142544
359,3148.0399999999995,0.06211889696877855
360,3169.8599999999997,0.06322523571232244
361,3191.84,0.05936986444665309
362,3206.57,0.06204310359845884
363,3228.7900000000004,0.058395472318969625
364,3251.1800000000003,0.06487299102969132
365,3273.71,0.06850969973235145
366,3288.82,0.06790291886227574
367,3311.31121,0.0672422678671169
368,3311.6200000000003,0.06723319722726558
369,3319.2500000000005,0.06701315882846066
370,3326.9100000000003,0.06819076039663291
371,3334.57,0.07084200196480517
372,3342.26,0.0669678334999546
373,3349.97,0.07054017501308882
374,3357.69,0.0691847665152154
375,3365.43,0.0618846479953268
376,3373.1899999999996,0.06027846945342297
377,3380.96,0.06617952090051153
378,3388.76,0.07035513231457728
379,3396.5699999999997,0.06589841371763541
380,3404.4,0.07103027509867832
381,3412.25,0.06652979645770603
382,3420.11,0.06927902780572612
383,3428.0,0.06937110912072339
384,3435.9,0.07026670042471306
385,3443.82,0.0622769217066875
386,3451.7599999999998,0.07013073296664672
387,3459.72,0.06815317420459073
388,3467.69,0.06761783543152713
389,3475.69,0.06880902662544072
390,3483.7000000000003,0.0682699078083467
391,3491.73,0.06931065896923744
392,3499.78,0.06403005010811298
393,3507.85,0.07144457122497332
394,3515.93,0.06584950233082602
395,3524.04,0.07016649340365592
396,3532.16,0.07123929446547819
397,3540.3,0.07333390550528528
398,3548.4700000000003,0.07566189651206952
399,3556.64,0.07169197751885377
400,3564.84,0.07346043849261517
401,3573.06,0.06495933944436137
402,3581.3,0.06519883037409237
403,3589.55,0.05778593129281575
404,3597.8300000000004,0.06924854217851631
405,3606.12,0.07046838305320925
406,3614.44,0.06785504389487937
407,3622.77,0.06474060472554188
408,3627.3100000000004,0.07428955972808786
409,3630.05,0.06145278671200325
410,3632.79,0.05351583369591865
411,3635.54,0.07474587066882644
412,3638.2799999999997,0.08563735765274184
413,3641.03,0.07777354462564963
414,3643.77,0.05483916160956504
415,3646.51,0.07688212859348044
416,3649.2599999999998,0.07379377556638823
417,3652.0000000000005,0.07839215255030363
418,3654.75,0.08301271952321143
419,3657.49,0.07949494650712682
420,3660.23,0.07251764349104223
421,3662.98,0.07631626046395003
422,3665.7200000000003,0.06762711744786541
423,3668.47,0.07297166442077321
424,3671.2099999999996,0.07575073140468862
425,3673.9500000000003,0.07647107838860402
426,3676.7,0.07896694536151182
427,3679.44,0.07779446234542721
428,3682.19,0.07145020931833501
429,3684.9300000000003,0.07004582630225041
430,3687.67,0.0625707932861658
431,3690.4199999999996,0.0796682502590736
432,3693.16,0.078446747242989
433,3695.8999999999996,0.07810001422690441
434,3698.65,0.07204421119981219
435,3701.39,0.0703834081837276
436,3704.1400000000003,0.0775227551566354
437,3706.88,0.0785372021405508
438,3709.6200000000003,0.0728400091244662
439,3712.37,0.07641048609737398
440,3715.1099999999997,0.07580170308128939
441,3717.86,0.08456426005419719
442,3720.6,0.09837418703811258
443,3723.34,0.14063703402202798
444,3726.09,0.16380863099493578
445,3728.8300000000004,0.15966882797885118
446,3731.58,0.12141402495175897
447,3734.3199999999997,0.08825392193567437
448,3737.06,0.07364119891958977
449,3739.81,0.08116136589249758
450,3742.55,0.05872091287641297
451,3745.2999999999997,0.07488137984932076
452,3748.0400000000004,0.059116746833236165
453,3750.78,0.07387494381715157
454,3753.5299999999997,0.08147995079005936
455,3756.27,0.08158192777397476
456,3759.02,0.07816740474688255
457,3761.76,0.07805445173079796
458,3764.5,0.08062425871471335
459,3767.2499999999995,0.07556577568762116
460,3769.99,0.07465722267153654
461,3772.7300000000005,0.07896526965545196
462,3775.48,0.08191925662835974
463,3778.22,0.08552410361227515
464,3780.9700000000003,0.09564970058518293
465,3783.71,0.09571776756909835
466,3786.4500000000003,0.09615346455301374
467,3789.2,0.08897775152592154
468,3791.9399999999996,0.07655008850983694
469,3794.69,0.07264353548274473
470,3797.43,0.07734747246666013
471,3800.17,0.08300727945057554
472,3801.8939600000003,0.08399988983828992
473,3802.92,0.0845906566588124
474,3805.6600000000003,0.09362137427116494
475,3808.41,0.09603989187480344
476,3811.1499999999996,0.09703740948715597
477,3813.89,0.09288053709950853
478,3816.64,0.09012206470314703
479,3819.38,0.09086316231549957
480,3822.13,0.08476962991913807
481,3824.8700000000003,0.07518122753149062
482,3827.61,0.07535481514384317
483,3830.3599999999997,0.07391798274748167
484,3833.1,0.0666842803598342
485,3835.85,0.06310579796347271
486,3838.59,0.06739683557582525
487,3841.33,0.0820928231881778
488,3844.0800000000004,0.08683217079181631
489,3846.82,0.09341012840416883
490,3849.5600000000004,0.08930979601652138
491,3852.31,0.08919451362015988
492,3855.0499999999997,0.09294077123251243
493,3857.8,0.09334580883615093
494,3860.54,0.10013119644850348
495,3863.28,0.10402829406085602
496,3866.0299999999997,0.10081729166449452
497,3868.7700000000004,0.09914335927684706
498,3871.52,0.10001778688048557
499,3874.2599999999998,0.09514077449283811
500,3877.0,0.09088396210519065
501,3879.75,0.08708104970882914
502,3882.4900000000002,0.07930063732118169
503,3885.24,0.07445331492482019
504,3887.9799999999996,0.08013195253717274
505,3890.72,0.08239258014952529
506,3893.47,0.08548607775316379
507,3896.21,0.09618715536551634
508,3898.96,0.09989521296915484
509,3901.7000000000003,0.09424897058150737
510,3904.44,0.09531811819385992
511,3907.19,0.09972939579749843
512,3909.93,0.10191275340985097
513,3912.68,0.10347345101348945
514,3915.42,0.100687248625842
515,3918.16,0.09716190623819455
516,3920.9100000000003,0.09841533384183306
517,3923.65,0.09070657145418559
518,3926.3900000000003,0.08392533906653814
519,3929.14,0.07306393667017665
520,3931.8799999999997,0.06182773428252919
521,3934.63,0.06691970188616769
522,3937.37,0.07722104949852024
523,3940.11,0.08797302711087278
524,3942.86,0.09564775471451128
525,3945.6000000000004,0.09389274232686382
526,3948.35,0.09748768993050232
527,3951.0899999999997,0.10103031754285487
528,3953.83,0.09518613515520741
529,3956.58,0.0855162027588459
530,3959.32,0.07937975037119845
531,3962.0699999999997,0.07198728797483696
532,3964.81,0.0641993055871895
533,3967.55,0.06460476319954205
534,3970.2999999999997,0.06556606080318055
535,3973.04,0.0805467184155331
536,3975.79,0.0881422760191716
537,3978.53,0.09847383363152412
538,3981.27,0.10188639124387668
539,3984.02,0.10304178884751518
540,3986.7599999999998,0.10801728645986772
541,3989.51,0.11121628406350621
542,3992.25,0.11181038167585876
543,3994.99,0.11599777928821131
544,3997.7400000000002,0.1104923768918498
545,4000.48,0.12157807450420235
546,4003.2200000000003,0.1160110721165549
547,4005.97,0.11515666972019341
548,4008.7099999999996,0.11850516733254594
549,4011.46,0.11921186493618445
550,4014.2,0.11485706254853699
551,4016.94,0.12041696016088953
552,4019.69,0.11599375776452803
553,4022.4300000000003,0.11754745537688058
554,4025.18,0.11960205298051908
555,4027.9199999999996,0.11880105059287162
556,4030.66,0.11396544820522417
557,4033.41,0.12223024580886267
558,4036.15,0.12237184342121521
559,4038.9,0.11858394102485371
560,4041.6400000000003,0.11948913863720627
561,4044.38,0.11151643624955879
562,4047.13,0.1192307338531973
563,4049.87,0.11855223146554984
564,4052.62,0.12540672906918834
