,lambda (Angstroms),Total Flux (erg/s/cm^2/Angstrom)
0,100.03,0.2611591563626894
1,101.89,0.2604326789942808
2,104.03,0.25959683936038513
3,104.712855,0.2593301303884908
4,105.96,0.25677141775197826
5,107.93,0.252729655321076
6,109.94,0.24860582727502603
7,114.05999999999999,0.24015300472126863
8,118.07,0.23192586446349106
9,120.22644299999999,0.22750159104935208
10,121.1,0.22599898963839307
11,125.07000000000001,0.21917020360627798
12,127.10000000000001,0.2156784064777787
13,127.98,0.2141647213707242
14,130.96,0.20903883249145666
15,131.87,0.20747354644284763
16,134.01,0.20379253947673534
17,137.13,0.19842584110674027
18,138.038426,0.19686326136855536
19,140.0,0.19445151473394973
20,142.94,0.19083681883097275
21,146.94,0.1859188646580833
22,151.06,0.1808533570635935
23,154.93,0.17609522894850435
24,158.489319,0.17171908329236688
25,158.91,0.17132805417036462
26,161.85999999999999,0.16858599023082274
27,166.01000000000002,0.16472851341518244
28,169.88,0.1611313076354251
29,173.04,0.15819405616914606
30,177.07,0.1544481375630556
31,179.95000000000002,0.15177116105315944
32,181.970086,0.14989347999846991
33,182.03,0.14985099379659614
34,185.84,0.14714925812702728
35,191.05,0.1434547577446523
36,194.15,0.14125650462801728
37,198.22,0.13837041760964872
38,201.9,0.13576090330432974
39,205.18,0.13343502275974106
40,208.929613,0.13077613718609712
41,209.96,0.1302268259419627
42,215.85,0.127086878175596
43,219.85999999999999,0.12494914703772668
44,222.92,0.123317855277981
45,227.06,0.1211108415887368
46,230.22,0.11942751093124124
47,233.96,0.11743571215799652
48,239.88329199999998,0.11427932172046748
49,239.96,0.11424782693409134
50,246.11999999999998,0.11171735254535689
51,251.85,0.10936397238547722
52,257.12,0.10719802206111674
53,260.09999999999997,0.10597500369779717
54,263.71999999999997,0.10448838792197267
55,269.24,0.10222097218974306
56,274.25,0.10016308376080642
57,275.42287,0.09968131868904066
58,278.7,0.09864830731276941
59,283.89,0.0970123266663733
60,289.83,0.0951395021073766
61,295.90000000000003,0.09322631443446243
62,300.71,0.09170973428951729
63,307.71,0.0895033343485784
64,316.227766,0.08681851025868542
65,317.79,0.08645075995149595
66,328.20000000000005,0.08399989638832751
67,338.18,0.08165023204066942
68,347.65,0.07942059729489562
69,357.39,0.07712736044635954
70,363.078055,0.07578819980175486
71,365.72,0.07532242948270808
72,375.1,0.07366854744656041
73,384.71999999999997,0.07197195614993562
74,394.59000000000003,0.07023202931406382
75,404.71,0.06844766925894503
76,414.14,0.06678484148894796
77,416.86938299999997,0.06630354968237995
78,421.84,0.06563422858460637
79,429.68,0.06457844215799549
80,440.7,0.06309462523217256
81,450.96999999999997,0.061711649842390214
82,460.40999999999997,0.0604403747442261
83,470.04999999999995,0.05914225460711785
84,478.630092,0.05798685895098126
85,479.89,0.05785638211933274
86,489.94000000000005,0.05681545809416665
87,500.20000000000005,0.05575301383301204
88,505.99,0.055156170572185005
89,511.85,0.054561847909361805
90,520.17,0.053700196549244225
91,529.84,0.052698959416343116
92,539.69,0.05167758275973756
93,549.5408739999999,0.050661892985871156
94,549.72,0.050647824145866466
95,559.94,0.04984484911040726
96,570.35,0.049025139269836794
97,579.62,0.04829154760993399
98,590.4,0.0474443397067784
99,599.99,0.04668654996247764
100,609.74,0.045920416245977924
101,619.65,0.045144115387279235
102,629.71,0.04435182429401901
103,630.957344,0.04425346332374462
104,639.9499999999999,0.04369161120084228
105,650.3399999999999,0.043045368301991856
106,657.87,0.04257567145325809
107,665.49,0.042102325705814375
108,674.7499999999999,0.04152497624298908
109,685.7099999999999,0.04083733229897553
110,695.25,0.040252453385719214
111,704.93,0.03964256973224741
112,716.3799999999999,0.038939531297479624
113,724.43596,0.038437596542048064
114,726.35,0.03834923900286097
115,734.76,0.03796215719349369
116,744.9799999999999,0.037494502124322045
117,755.34,0.03701801329803845
118,765.85,0.036534200131992066
119,774.72,0.036130235020685554
120,785.4899999999999,0.035638152205717
121,794.59,0.03522043739344086
122,805.64,0.03471189646424842
123,814.97,0.034283146651002676
124,824.41,0.033855256128597556
125,831.763771,0.03350366380970839
126,835.88,0.03335519486720545
127,845.5600000000001,0.033043957969956204
128,855.35,0.03271049588296549
129,865.25,0.03237710260623332
130,875.27,0.03203916997705591
131,885.41,0.031698625195433254
132,895.6600000000001,0.03135226392406912
133,906.0300000000001,0.030996677800259758
134,914.41,0.030809647154500602
135,925.0,0.0320311655512083
136,935.71,0.033779405895470765
137,944.3699999999999,0.03738011159400605
138,954.992586,0.03985002635505103
139,955.3100000000001,0.03992406829902819
140,964.15,0.04215896962104277
141,975.3100000000001,0.03196129516783945
142,984.3399999999999,0.042936608443607735
143,995.7299999999999,0.04248055572389575
144,1004.95,0.045120694953417737
145,1014.25,0.042620463742414974
146,1025.99,0.032831663095407186
147,1035.48,0.03886733683815813
148,1045.06,0.04676777408531872
149,1054.73,0.04672804083688897
150,1064.49,0.04393341709286887
151,1074.34,0.04586758285325841
152,1084.28,0.043090428118057605
153,1094.32,0.04572340283220087
154,1096.4782,0.0455257130501182
155,1104.44,0.04484548923702232
156,1114.6599999999999,0.04446458338688511
157,1124.98,0.04279426333077785
158,1135.38,0.04491488590989458
159,1145.8899999999999,0.043123635862444276
160,1153.83,0.043565869908423774
161,1164.51,0.04385511671082441
162,1175.29,0.03925106930725501
163,1186.16,0.04209597611831259
164,1194.38,0.037498184387576
165,1205.43,0.03367257962788753
166,1213.79,0.027041494008792903
167,1225.02,0.03404916367835836
168,1236.35,0.0392535931419538
169,1244.92,0.0409343266903221
170,1256.44,0.04061382616257447
171,1258.92541,0.04003428209960616
172,1265.1499999999999,0.03863260068963152
173,1273.92,0.04168463249396885
174,1285.7099999999998,0.042232692912798644
175,1294.62,0.03978779597741047
176,1303.6000000000001,0.039276799672159524
177,1315.6599999999999,0.041744071092947255
178,1324.7800000000002,0.0410356660479708
179,1333.9599999999998,0.03968720011454056
180,1346.3,0.04129649405587725
181,1355.6399999999999,0.04068574241990357
182,1365.0300000000002,0.039268848376885046
183,1374.4899999999998,0.03963658496400378
184,1384.02,0.039705372181259746
185,1393.6200000000001,0.03787084002865296
186,1406.51,0.03809973749249655
187,1416.26,0.03830205811875528
188,1426.0800000000002,0.03810685937515125
189,1435.96,0.037811889743093435
190,1442.59,0.03843876656894937
191,1445.43977,0.03851461126411829
192,1445.92,0.03853027071237962
193,1455.94,0.03813451126071706
194,1466.0300000000002,0.037041862012486
195,1476.19,0.03675468296768644
196,1486.43,0.03666069558395145
197,1493.29,0.036713205520238365
198,1503.6399999999999,0.03608330417046716
199,1510.58,0.034775065767818636
200,1517.55,0.03536921173806933
201,1524.5600000000002,0.03485444353885231
202,1535.1200000000001,0.0332505227993756
203,1545.76,0.034152843720963465
204,1556.48,0.033168036303615894
205,1563.66,0.03306870288416108
206,1574.5,0.03384425295841038
207,1585.4199999999998,0.03415014469372424
208,1596.41,0.03446449663246959
209,1603.77,0.03366550945041007
210,1614.8899999999999,0.033420710338385354
211,1626.08,0.03259516142979214
212,1633.5900000000001,0.03316171611222868
213,1644.91,0.03318714615286539
214,1656.32,0.03169892931219974
215,1659.58691,0.03230123960198085
216,1663.9599999999998,0.03312564540140374
217,1671.64,0.03140918412377967
218,1675.49,0.03296835645205406
219,1683.23,0.03340701297694855
220,1694.9,0.032367945566808845
221,1706.64,0.031806648926274134
222,1714.52,0.03146649699037861
223,1726.4099999999999,0.0311772248561403
224,1734.38,0.03189422962402261
225,1746.3999999999999,0.03133279606190785
226,1754.4599999999998,0.03206308753356801
227,1766.6200000000001,0.03048761551066323
228,1774.77,0.031145453686101228
229,1782.97,0.03115454669697136
230,1795.33,0.03180536401579512
231,1803.61,0.03154089076335667
232,1816.11,0.03074427962139041
233,1824.5,0.030618329006902655
234,1832.92,0.03014372729367418
235,1845.6200000000001,0.02884921549343646
236,1854.1399999999999,0.02897045345107226
237,1867.0,0.02921775912421737
238,1875.6100000000001,0.029729603785631005
239,1884.2700000000002,0.02884247328247678
240,1892.97,0.028389694647668263
241,1905.46072,0.028658704787489706
242,1906.09,0.028673888908478426
243,1914.8899999999999,0.028405424434233422
244,1923.7299999999998,0.028097945530560026
245,1937.06,0.027882309423550262
246,1946.0,0.028809549446305906
247,1954.98,0.02799756503963316
248,1968.54,0.028776713463410174
249,1977.62,0.028884307983166463
250,1982.18,0.028216133028330415
251,1995.9199999999998,0.027706441519679693
252,2005.1299999999999,0.027681601643793727
253,2014.39,0.027412686231122273
254,2023.6899999999998,0.027468266389022444
255,2033.0300000000002,0.027280022117494217
256,2047.1200000000001,0.027547341851345115
257,2056.57,0.026872745398888828
258,2066.06,0.02684496451700416
259,2075.6,0.02759333809833401
260,2080.38,0.027351538781641833
261,2085.1800000000003,0.02748367725023547
262,2094.8,0.02676063197270854
263,2104.47,0.02669188115839613
264,2114.19,0.02674353480729824
265,2123.94,0.02679624513412906
266,2133.75,0.025737278816817297
267,2143.6,0.026214198070077147
268,2153.4900000000002,0.02630353289390861
269,2163.4300000000003,0.02568023218095459
270,2173.42,0.025531735931215094
271,2183.4500000000003,0.025537885252047206
272,2187.7616199999998,0.025760576910754646
273,2193.5299999999997,0.02607177618032731
274,2203.65,0.025548081307284184
275,2213.82,0.02481049589633076
276,2224.04,0.024538379947467055
277,2234.31,0.025517563460693053
278,2244.62,0.02477457454359082
279,2254.98,0.024205315088578296
280,2265.39,0.024155085095655476
281,2275.85,0.024511904564822364
282,2286.35,0.024879061603661018
283,2296.91,0.024040259997007325
284,2307.51,0.024208555960025392
285,2312.83,0.02381534272637031
286,2323.5,0.021666991936313974
287,2334.23,0.022931262500765284
288,2345.0,0.022008460634888365
289,2355.83,0.02324391012351909
290,2366.7,0.021999447181821584
291,2377.62,0.022511923702213783
292,2383.1,0.021216860747245766
293,2394.11,0.02192893429939944
294,2405.16,0.021517845421224886
295,2416.26,0.021624076005140033
296,2427.4100000000003,0.022505626051144888
297,2433.0099999999998,0.022035625805192173
298,2444.2400000000002,0.022631490990540563
299,2455.52,0.022401615637978663
300,2466.85,0.02217326974750647
301,2472.54,0.021641436533315225
302,2483.9500000000003,0.021617805782186562
303,2495.42,0.02110537638556555
304,2506.9399999999996,0.022356386451034247
305,2511.88643,0.02110174370587497
306,2512.71,0.020893858349060147
307,2518.5099999999998,0.0207142386955766
308,2524.31,0.02025993904209305
309,2535.96,0.02043164051397523
310,2547.67,0.020418916920476544
311,2553.5400000000004,0.021425766357381987
312,2565.33,0.020987646010042157
313,2577.1699999999996,0.0216404464415516
314,2583.11,0.021483104968846034
315,2595.0299999999997,0.02123828864651433
316,2607.01,0.020671967258801754
317,2613.02,0.02039534487648518
318,2625.0800000000004,0.021093746734931453
319,2637.2000000000003,0.021657673527996867
320,2643.28,0.02308213023606928
321,2655.48,0.023654270275293543
322,2667.7400000000002,0.022143335249136937
323,2673.89,0.022705061047598347
324,2686.23,0.022922579267600586
325,2692.4199999999996,0.021837621689141423
326,2704.85,0.022331467311072366
327,2717.33,0.021257113711852592
328,2723.6,0.021029619379552274
329,2736.17,0.0217459131822612
330,2742.48,0.019729095473040307
331,2755.14,0.020187266677677937
332,2767.85,0.020898428661164852
333,2774.2299999999996,0.021427220042332946
334,2787.04,0.02026277358351842
335,2793.46,0.017048771587765937
336,2806.36,0.017839452530880113
337,2812.83,0.021178261313976914
338,2825.8100000000004,0.021954585503249937
339,2832.33,0.021566545065196015
340,2845.4,0.02078101665639774
341,2851.96,0.019763692841423246
342,2865.12,0.02155298183455368
343,2871.73,0.02193167879842846
344,2884.0315,0.02174817420815071
345,2884.9799999999996,0.02173502392537284
346,2898.2999999999997,0.02184766482854527
347,2911.68,0.023325283843894155
348,2931.86,0.022556258905907643
349,2952.18,0.022193079562999523
350,2972.65,0.02236892050053253
351,2993.25,0.022430122347781186
352,3007.07,0.02255009751909072
353,3027.91,0.022612571815045186
354,3048.9,0.022755906391440782
355,3070.03,0.022779036562914766
356,3091.31,0.02272230701482988
357,3112.74,0.022907967747186127
358,3127.11,0.022506030613446474
359,3148.7900000000004,0.022447338479871272
360,3170.6099999999997,0.022751981941374462
361,3192.59,0.021818820368681522
362,3207.33,0.022451176593363327
363,3229.5600000000004,0.02156555215473894
364,3251.94,0.022988307996555685
365,3266.96,0.023846655411394267
366,3289.6,0.0236543130726423
367,3311.31121,0.02338970544113685
368,3312.3999999999996,0.023377239645137767
369,3320.0400000000004,0.02268627051833564
370,3327.6899999999996,0.02275468346073927
371,3335.36,0.023855680541554417
372,3343.05,0.022475961760781073
373,3350.7599999999998,0.02291930711841924
374,3358.48,0.022862054545263164
375,3366.23,0.02158876817972436
376,3373.9900000000002,0.020402583883391306
377,3381.7599999999998,0.021874641656264016
378,3389.56,0.02292806563675399
379,3397.37,0.022045021686449725
380,3405.2,0.022686631874556967
381,3413.05,0.022339976201075723
382,3420.92,0.022739664666005993
383,3428.81,0.023021137269347777
384,3436.71,0.023177061941895317
385,3444.64,0.02059804282206013
386,3452.58,0.024027955771430694
387,3460.53,0.022537360790007017
388,3468.51,0.022773322016200605
389,3476.5099999999998,0.02263138738080571
390,3484.52,0.022955254814616566
391,3492.5499999999997,0.02268395638683894
392,3500.61,0.021843804166678582
393,3508.6699999999996,0.022864751946518224
394,3516.7599999999998,0.021573095933975137
395,3524.87,0.02236995405984356
396,3533.0,0.023162056324123492
397,3541.14,0.023808760657609188
398,3549.3,0.024293899129506392
399,3557.49,0.023464853809020865
400,3565.69,0.0244005205577411
401,3573.9100000000003,0.02110775144487284
402,3582.15,0.0214453664704161
403,3590.4,0.019876653565165114
404,3598.6800000000003,0.022903646867531394
405,3606.98,0.022376684308309188
406,3615.29,0.022529023818292738
407,3621.47,0.02304221258745018
408,3624.21,0.022011439549827427
409,3626.96,0.019944278581410436
410,3629.7000000000003,0.015353075543787682
411,3632.45,0.025226394575370688
412,3635.1899999999996,0.022584981537747933
413,3637.94,0.01888639056933094
414,3640.68,0.014880887531708187
415,3643.42,0.014500974494085436
416,3646.17,0.01445444352566844
417,3648.9100000000003,0.015259130488045686
418,3651.66,0.01880040951962869
419,3654.4,0.02426323648200594
420,3657.15,0.021388375513588943
421,3659.89,0.025107352475966193
422,3662.64,0.025550121507549196
423,3665.3799999999997,0.025546208469926446
424,3668.13,0.02392301750150945
425,3670.87,0.022493604463886697
426,3673.61,0.026546061426263944
427,3676.36,0.025447150457846946
428,3679.1000000000004,0.024012077420224195
429,3681.85,0.021959066451807202
430,3684.5899999999997,0.02366214341418445
431,3687.34,0.025838362445767454
432,3690.08,0.025687089408144702
433,3692.83,0.02696871843972771
434,3695.57,0.026378175402104954
435,3698.32,0.025555104433687956
436,3701.06,0.026366431396065204
437,3703.81,0.02189510042764821
438,3706.55,0.021662567390025457
439,3709.29,0.023481834352402704
440,3712.04,0.023038523383985713
441,3714.7799999999997,0.02458479034636296
442,3717.53,0.025701109377945962
443,3720.27,0.03373436634032321
444,3723.0200000000004,0.03825331537190622
445,3725.76,0.05727960233428346
446,3728.5099999999998,0.08083142136586646
447,3731.25,0.08490763832824372
448,3734.0,0.07322839735982672
449,3736.7400000000002,0.04563866432220397
450,3739.48,0.034160951284581215
451,3742.2299999999996,0.02433809031616422
452,3744.9700000000003,0.024781947278541466
453,3747.72,0.022167806310124473
454,3750.46,0.02091976327250172
455,3753.21,0.025114732304084723
456,3755.9500000000003,0.02613954926646197
457,3758.7,0.026329158298044976
458,3761.4399999999996,0.028421445260422222
459,3764.19,0.024865474292005228
460,3766.93,0.027828731254382476
461,3769.6800000000003,0.02541297028596548
462,3772.42,0.02516816724834273
463,3775.1600000000003,0.028973124210719976
464,3777.91,0.02582429324230298
465,3780.6499999999996,0.03064098020468023
466,3783.4,0.031720439236263234
467,3786.14,0.03318643619864048
468,3788.89,0.029860005230223485
469,3791.6299999999997,0.030331262192600735
470,3794.38,0.025628471224183737
471,3797.12,0.025729418186560986
472,3799.8700000000003,0.026024817218143988
473,3801.8939600000003,0.024278839232294607
474,3802.61,0.02366151655457942
475,3805.35,0.0279222784442225
476,3808.1,0.030253907603535808
477,3810.8399999999997,0.030448859493178885
478,3813.59,0.030924228652492197
479,3816.33,0.032596630542135276
480,3819.0800000000004,0.030013189701448582
481,3821.82,0.034423211591091664
482,3824.5699999999997,0.031147330750404968
483,3827.31,0.031533112640048044
484,3830.06,0.025478061799361358
485,3832.8,0.026203903689004437
486,3835.54,0.02352329557864751
487,3838.29,0.023839974737960824
488,3841.03,0.0243513766276039
489,3843.78,0.02584226578691721
490,3846.52,0.02854717767656029
491,3849.27,0.0337609468358736
492,3852.01,0.03233014872551668
493,3854.7599999999998,0.032938707884829985
494,3857.5,0.03407548977447306
495,3860.25,0.032118358933786374
496,3862.9900000000002,0.026343070823429453
497,3865.74,0.03456556998274276
498,3868.4800000000005,0.033044091872385835
499,3871.2200000000003,0.03737005376202892
500,3873.97,0.03326758292134222
501,3876.71,0.033918814810985305
502,3879.46,0.03028869397029861
503,3882.2000000000003,0.03215852585994169
504,3884.95,0.025549905019255
505,3887.6899999999996,0.02728274690889808
506,3890.44,0.027171496068211384
507,3893.18,0.029902847957854466
508,3895.9300000000003,0.029630047117167775
509,3898.67,0.025816809006810854
510,3901.4100000000003,0.03350858089645393
511,3904.16,0.03391498005576724
512,3906.8999999999996,0.03587929194541032
513,3909.65,0.03315981110472363
514,3912.39,0.0346952429943667
515,3915.14,0.03577896215368001
516,3917.88,0.033271254043323095
517,3920.63,0.0302003732026364
518,3923.37,0.03064281509227948
519,3926.1200000000003,0.03217148425159279
520,3928.86,0.03039303614123587
521,3931.6099999999997,0.028068445300549173
522,3934.35,0.024815387190192252
523,3937.0899999999997,0.022542869079835333
524,3939.84,0.02722198823914864
525,3942.58,0.02853541012879172
526,3945.3300000000004,0.030993629288105028
527,3948.07,0.030335551177748107
528,3950.8199999999997,0.031816980337061415
529,3953.56,0.03311152222670449
530,3956.31,0.032432511386017805
531,3959.05,0.02974247327566088
532,3961.7999999999997,0.02651006243497419
533,3964.5399999999995,0.027063974324617268
534,3967.28,0.02482641621426035
535,3970.0299999999997,0.023869705373573656
536,3972.77,0.024207287263216734
537,3975.52,0.025505466422530043
538,3978.26,0.02722130831217312
539,3981.0099999999998,0.029164677471486433
540,3983.75,0.03337537936112951
541,3986.5,0.033863018520442816
542,3989.24,0.034639890410085895
543,3991.9900000000002,0.032762109569399206
544,3994.73,0.03631722145904228
545,3997.48,0.035021340618355594
546,4000.22,0.034597552507998675
547,4002.96,0.03641071439764175
548,4005.71,0.03719213355695506
549,4008.4500000000003,0.035213435446598135
550,4011.2,0.03509838460591145
551,4013.9399999999996,0.036489286495554524
552,4016.69,0.036036985654867834
553,4019.43,0.03777268754451091
554,4022.1800000000003,0.036338886703824215
555,4024.92,0.03947267859346729
556,4027.67,0.03677587775278061
557,4030.41,0.03695099964242368
558,4033.1499999999996,0.03626365153206677
559,4035.9,0.03537586069138007
560,4038.64,0.03691602258102315
561,4041.3900000000003,0.03857692174033646
562,4044.13,0.04032302362997954
563,4046.88,0.03644821278929285
564,4049.62,0.03928539467893592
565,4052.3700000000003,0.03759369383824923
566,4055.11,0.03771308572789231
567,4057.8599999999997,0.04062376488720562
