,lambda (Angstroms),Total Flux (erg/s/cm^2/Angstrom)
0,100.09,0.011050731594806396
1,101.94999999999999,0.013277031397793501
2,104.08000000000001,0.015826503747013665
3,104.712855,0.01658399031758969
4,106.02000000000001,0.015278545939928946
5,107.99,0.01331110907886733
6,110.0,0.011303724651846344
7,114.13,0.007179098943794749
8,117.87,0.0034439667058671214
9,120.22644299999999,0.0010906051647871127
10,120.89000000000001,0.0010599457864830758
11,125.14000000000001,0.0008635605496125847
12,126.88,0.0007831599634474198
13,128.05,0.0007290975642575661
14,131.03,0.0005914008442943516
15,131.94,0.0005493635367377995
16,134.09,0.0004500211932931978
17,136.89,0.00032066811391534566
18,138.038426,0.00026760798114197734
19,140.07999999999998,0.00026429414979168447
20,143.02,0.00025984368178750216
21,147.02,0.00025432331003351274
22,151.14000000000001,0.00024792267695690365
23,155.02,0.00024199281352553387
24,158.489319,0.0002367583876541831
25,159.0,0.00023554074781623766
26,161.95000000000002,0.00022854795875828577
27,166.11,0.00021879427007317394
28,169.98,0.00020977775095986083
29,173.14,0.00020247342807405474
30,177.17,0.00019323623747285264
31,180.05,0.00018672968169085208
32,181.970086,0.00018240393808759784
33,182.13,0.0001825737214304167
34,185.95000000000002,0.00018676657883475519
35,191.16,0.00019254409907732157
36,193.81,0.00019581780991279198
37,197.87,0.00020055717879279572
38,202.02,0.0002056283541011739
39,204.83,0.00020926959258708784
40,208.929613,0.00021384721394659376
41,210.07999999999998,0.00021984089707753206
42,215.97000000000003,0.0002527723030272762
43,219.98,0.0002749694259064735
44,223.04000000000002,0.0002916118371808737
45,227.19,0.00031492757103340963
46,229.82,0.00034499512431826983
47,234.09,0.00040183384900509614
48,239.88329199999998,0.00045620930867967347
49,240.1,0.0004563065207199447
50,246.26,0.0004342201725103229
51,251.98999999999998,0.0004267079664646843
52,257.27,0.0003926378394278655
53,260.25,0.0004021296495472366
54,263.87,0.0004002605806318419
55,268.77000000000004,0.0003885547536469153
56,273.77,0.00037612644243780683
57,275.42287,0.00037209813943535867
58,278.86,0.0003924101241039903
59,284.03999999999996,0.0004228584616686305
60,289.99,0.000449333815628015
61,296.06,0.0004889237565580086
62,300.88,0.0005160686332108208
63,307.88,0.0005596398731630374
64,316.227766,0.0006131860385797707
65,317.96999999999997,0.0006113526196722812
66,327.63,0.0005965650871776413
67,338.37,0.000576951627447576
68,347.85,0.0005601850328255072
69,356.77,0.0005445116893625481
70,363.078055,0.0005340615343685877
71,365.92,0.0005453271573338975
72,375.31,0.0005791811651039479
73,384.93,0.0006043626499546279
74,394.81,0.0006498296262877586
75,404.94,0.0006882887559693997
76,414.37,0.0007197289162752119
77,416.86938299999997,0.0007272415627139321
78,422.07,0.0007377480915431341
79,429.92,0.0007552766293269213
80,440.95000000000005,0.0007828454326078353
81,451.22,0.0008024287586001278
82,459.61,0.0008183936565626724
83,470.31000000000006,0.0008405436341787902
84,478.630092,0.0008598618378362114
85,480.16,0.0008581871923324662
86,490.21000000000004,0.0008368542855782189
87,500.48,0.0008272489705169136
88,506.27,0.0008131966791629743
89,512.14,0.0008270910302428317
90,520.46,0.0008149996433577236
91,530.13,0.0007962635600429406
92,539.99,0.0007711127150084253
93,549.5408739999999,0.0007621999377937171
94,550.0300000000001,0.0007623829605968083
95,560.26,0.000773624000544823
96,569.36,0.0007851839970772698
97,579.9399999999999,0.0007730503407380707
98,589.37,0.0007870760579140019
99,600.32,0.0007756710883568912
100,610.08,0.0007432644261763068
101,619.99,0.000802995537015488
102,630.0699999999999,0.0008052312039437369
103,630.957344,0.0008053178340415308
104,640.3000000000001,0.0008200681933064849
105,650.71,0.0008480160696407474
106,658.2399999999999,0.0008649259565568852
107,664.33,0.0008875219487639611
108,675.13,0.000899417859081928
109,684.52,0.0008952394849972713
110,695.64,0.0009816670052505854
111,705.3199999999999,0.000969050430794837
112,716.7800000000001,0.0010435172678544575
113,724.43596,0.0010638626361325625
114,726.75,0.001069163940543649
115,735.17,0.001090012996454487
116,745.39,0.0011495083265505397
117,755.76,0.0011899446294953604
118,764.5200000000001,0.0011960512838634057
119,775.15,0.0012833105797460907
120,784.13,0.0013283714742923288
121,795.0300000000001,0.001371637701302796
122,804.24,0.001415619674217145
123,815.4300000000001,0.0014522856087352302
124,824.87,0.00154058886001769
125,831.763771,0.001411316195885184
126,834.4200000000001,0.001357419545308715
127,844.0799999999999,0.0015821466802887593
128,855.83,0.0015975473920916083
129,865.74,0.0016746178400887347
130,875.76,0.0017545682658133767
131,885.9,0.0018649921217862185
132,894.1,0.0019391551887465045
133,904.4499999999999,0.0019062125476536948
134,914.9300000000001,0.0028796237893297678
135,925.52,0.019161793008733358
136,934.08,0.04193749436643824
137,944.9000000000001,0.08261252199381755
138,954.992586,0.12107754540957562
139,955.84,0.12430797558538151
140,964.6899999999999,0.1269032001826721
141,975.86,0.017467258007726954
142,984.89,0.08827925259682681
143,994.0,0.10904661384895305
144,1005.51,0.18756839499186992
145,1014.8100000000001,0.19061374456868374
146,1024.2,0.0852871091414022
147,1036.06,0.11871330193505938
148,1045.65,0.2685132031653438
149,1055.32,0.2660565910586544
150,1065.0900000000001,0.19016296228074808
151,1074.94,0.2426683201658681
152,1084.89,0.17465326137977105
153,1094.9299999999998,0.26483018758957866
154,1096.4782,0.26336737719359465
155,1105.06,0.2552558516835207
156,1115.29,0.23713331388524087
157,1125.61,0.2084662291268588
158,1136.02,0.2964088974083746
159,1143.89,0.2641934910083294
160,1154.48,0.2930100653696409
161,1165.1599999999999,0.30259409277085014
162,1175.94,0.19055856799416818
163,1184.09,0.29638441549602734
164,1195.05,0.17580939679914098
165,1206.11,0.11124752592436334
166,1214.47,0.09514669385265076
167,1225.71,0.20320699905766879
168,1234.2,0.3410241691546975
169,1245.6200000000001,0.3799589104395112
170,1254.26,0.35298940226970305
171,1258.92541,0.3277622624396445
172,1265.8600000000001,0.2902689253260838
173,1274.6399999999999,0.41183675118518814
174,1286.43,0.44228938875681
175,1295.3500000000001,0.3124523198118454
176,1304.33,0.3074572530937084
177,1316.39,0.42728040068605444
178,1325.52,0.40618933953498637
179,1334.71,0.337109880610746
180,1343.9599999999998,0.4443364239133331
181,1356.39,0.4292477852377826
182,1365.8000000000002,0.3670709344785767
183,1375.26,0.3978520855750604
184,1384.8,0.4043332396406476
185,1394.4,0.3481488959330623
186,1404.06,0.3637130544523047
187,1413.79,0.3670787155695126
188,1423.5900000000001,0.389701579284686
189,1433.46,0.38435714559782497
190,1443.3999999999999,0.4146882145089294
191,1445.43977,0.4218179907876064
192,1446.73,0.42632783040219685
193,1453.3999999999999,0.40995033816753224
194,1463.48,0.3679234521517273
195,1473.62,0.3713298680048759
196,1483.84,0.3861369863499625
197,1494.12,0.39786020656400267
198,1504.48,0.37047522926998094
199,1511.42,0.3168078454456073
200,1518.4,0.35056406286720265
201,1525.41,0.3340259812232748
202,1535.98,0.27849911047059045
203,1546.6299999999999,0.32567754220984413
204,1553.77,0.3053509646153156
205,1564.5400000000002,0.30817610009247637
206,1575.38,0.33249733775008294
207,1586.3,0.3595597778996276
208,1593.6200000000001,0.36708430591195973
209,1604.67,0.3628865501109037
210,1615.79,0.3679293964902935
211,1623.25,0.34180852886351715
212,1634.5000000000002,0.3730490792923063
213,1645.8300000000002,0.38083693221303344
214,1653.4299999999998,0.34497076894714873
215,1659.58691,0.36709205067733613
216,1664.8899999999999,0.38614666706093737
217,1672.58,0.3286912163587854
218,1676.4299999999998,0.3879300921450942
219,1684.17,0.41663645281679035
220,1695.8400000000001,0.38615590747295236
221,1703.6699999999998,0.3670962886175752
222,1715.48,0.34103597512051215
223,1723.3999999999999,0.3402530767380617
224,1735.35,0.37135079508777347
225,1743.36,0.36207031717824967
226,1755.44,0.39697526509996667
227,1763.5400000000002,0.3538371076633697
228,1775.7700000000002,0.36542558970663114
229,1783.96,0.37566175274296076
230,1796.33,0.41188546663299713
231,1804.6200000000001,0.40999095241702316
232,1812.95,0.3688131473001277
233,1825.52,0.38087120668555674
234,1833.94,0.3620920220415879
235,1846.6599999999999,0.32722261554856147
236,1855.1799999999998,0.32572585365228895
237,1863.74,0.3402840008550951
238,1876.66,0.38179683985746127
239,1885.3200000000002,0.3450210098079637
240,1894.03,0.33026049113231426
241,1905.46072,0.35152240233905313
242,1907.1599999999999,0.35468229309433486
243,1915.9599999999998,0.33794931275537243
244,1924.8000000000002,0.3340814206875965
245,1933.69,0.34660981395880375
246,1947.09,0.36292968480629273
247,1956.08,0.3379377487554663
248,1965.11,0.3808722009758264
249,1974.18,0.39425714146737306
250,1983.29,0.3688098702301062
251,1997.04,0.35629243845047737
252,2006.25,0.3713604378911769
253,2015.52,0.3530227197386562
254,2024.82,0.3765159927895254
255,2034.16,0.35220945411158117
256,2043.5500000000002,0.3722031007726201
257,2052.9900000000002,0.35382333277264216
258,2067.22,0.35300666024725175
259,2071.98,0.3852819645184493
260,2076.76,0.36289076292524014
261,2086.35,0.38174635094221177
262,2095.98,0.3579059272303699
263,2105.65,0.3587310917897146
264,2115.37,0.3637122416880424
265,2125.13,0.37047157985755674
266,2134.94,0.33788660336605425
267,2144.8,0.35136151221353495
268,2154.7,0.3687603093322022
269,2164.64,0.355426394722056
270,2174.63,0.3521671654508929
271,2184.67,0.34415292151871296
272,2187.7616199999998,0.3504033135720219
273,2194.75,0.36453554875297056
274,2204.89,0.3529748193063124
275,2215.06,0.33171249687312576
276,2225.29,0.3189834884668819
277,2235.56,0.34654518941193324
278,2245.88,0.3286773020461037
279,2256.24,0.31030492403156934
280,2266.66,0.3212054600439778
281,2277.12,0.33249260540768155
282,2287.63,0.34417426246050437
283,2292.91,0.32271479683147525
284,2303.49,0.3213930702490647
285,2314.12,0.3021785553557732
286,2324.7999999999997,0.22058455215160072
287,2335.53,0.2746094606365473
288,2346.31,0.2666490808106129
289,2357.14,0.29453291267379755
290,2362.58,0.2644056844499494
291,2373.48,0.2744587326779007
292,2384.44,0.25218789493279486
293,2395.44,0.2741070665389843
294,2406.5,0.2607089521721166
295,2417.61,0.27062314949436783
296,2423.18,0.2913769516622292
297,2434.37,0.27841486768707097
298,2445.6,0.299153193063208
299,2456.89,0.2945255324662878
300,2462.56,0.2919002580123873
301,2473.92,0.27956231378023383
302,2485.34,0.28886808357502314
303,2496.81,0.2716096650589315
304,2502.57,0.3076217116454453
305,2511.88643,0.27475003962488387
306,2514.1200000000003,0.2668684875693601
307,2519.92,0.2769462627857287
308,2525.73,0.2621345370972979
309,2537.38,0.26899428300603834
310,2543.23,0.26233875369841014
311,2554.97,0.28844359146395626
312,2566.77,0.27752122380070615
313,2572.68,0.2988059890642818
314,2584.5600000000004,0.29351051416263674
315,2596.4900000000002,0.28830983473699495
316,2602.4700000000003,0.276689093666975
317,2614.48,0.27241570700293827
318,2626.55,0.28869571491010537
319,2632.61,0.3037670666016905
320,2644.7599999999998,0.33554266727046267
321,2656.9700000000003,0.34911876251043866
322,2663.09,0.30418290877322757
323,2675.38,0.32385259677480865
324,2687.73,0.32328737934759355
325,2693.93,0.30529771837198755
326,2706.3599999999997,0.3191185937063775
327,2712.6,0.2972308291115741
328,2725.12,0.2953496963027698
329,2737.7000000000003,0.3144540580651693
330,2744.01,0.2634699871367703
331,2756.6800000000003,0.27161984075597556
332,2763.03,0.2851497662083791
333,2775.7900000000004,0.30150871168439003
334,2782.19,0.28082693261279673
335,2795.03,0.22068427085041278
336,2807.9300000000003,0.23987760365923264
337,2814.4,0.2978816182540438
338,2827.3900000000003,0.3200895429196694
339,2833.91,0.3064829529904838
340,2846.99,0.29557676951291506
341,2853.55,0.2804212759645319
342,2866.73,0.3206456834389696
343,2873.33,0.326698086271389
344,2884.0315,0.322637644699671
345,2886.6000000000004,0.3216633132442775
346,2893.25,0.32175920093052374
347,2913.31,0.36048386378557645
348,2926.75,0.3428922388988321
349,2947.0400000000004,0.3361642013279955
350,2967.47,0.34588736349792204
351,2988.04,0.3477968254086117
352,3008.75,0.35376958706006434
353,3029.6099999999997,0.3549113484337632
354,3050.61,0.35523560954822514
355,3071.7499999999995,0.35968217040345013
356,3093.0400000000004,0.3633490309809213
357,3107.32,0.36693530453875545
358,3128.86,0.3605838646533035
359,3150.5499999999997,0.36258962449009774
360,3172.39,0.36544828404913815
361,3187.03,0.34207665694036304
362,3209.12,0.36018591603648037
363,3231.37,0.33725977483632696
364,3246.28,0.36916904722759497
365,3268.78,0.3887377055645184
366,3291.44,0.3846438636051711
367,3306.6299999999997,0.3822534354779653
368,3311.31121,0.38072438482440857
369,3321.8999999999996,0.37726535199603833
370,3329.55,0.3988241812072784
371,3337.23,0.3863112093566018
372,3344.92,0.3811543371519529
373,3352.6299999999997,0.37087846423935955
374,3360.36,0.3866880906188218
375,3368.11,0.3850576162903395
376,3375.8700000000003,0.34489074160788497
377,3383.65,0.353039366217486
378,3391.46,0.39169088976517025
379,3399.27,0.4009452133128546
380,3407.1099999999997,0.3812632357986222
381,3414.96,0.38494345793041757
382,3422.8399999999997,0.40973957900029623
383,3430.73,0.3968851997162027
384,3438.64,0.4025348197241646
385,3446.5600000000004,0.34514923937815434
386,3454.51,0.3909694579702273
387,3462.4700000000003,0.35669497620832813
388,3470.45,0.3823236937384844
389,3478.4500000000003,0.34881881056069625
390,3486.47,0.37216482667496364
391,3494.51,0.3655024420812865
392,3502.56,0.39176425713363716
393,3510.64,0.38653127112407115
394,3518.73,0.37526168476053284
395,3526.84,0.3676965976890501
396,3534.9700000000003,0.3959339099096229
397,3543.1200000000003,0.41857082142225116
398,3551.2899999999995,0.41773623222693507
399,3559.48,0.4074599423236744
400,3567.68,0.3974112520664415
401,3575.91,0.36008796074729194
402,3584.1499999999996,0.3369574690741702
403,3592.41,0.3529566766931039
404,3600.6899999999996,0.4109864836040931
405,3608.9900000000002,0.37585078980713793
406,3617.3100000000004,0.3918745953022382
407,3625.65,0.4067380000893941
408,3627.3,0.46137664168397524
409,3630.04,0.4026033446955828
410,3632.7799999999997,0.42816004770719035
411,3635.52,0.4793114507187979
412,3638.25,0.3339653540843777
413,3640.9900000000002,0.5051362570959853
414,3643.73,0.3983580601075928
415,3646.47,0.20437146311920035
416,3649.21,0.47730376613080794
417,3651.95,0.37057486914241544
418,3654.69,0.48723807215402304
419,3657.43,0.29428287516563056
420,3660.1699999999996,0.3331679781772381
421,3662.91,0.35319258118884567
422,3665.6499999999996,0.21308428420045322
423,3668.3900000000003,0.4090118872120608
424,3671.13,0.5020631902236683
425,3673.8700000000003,0.3158689932352759
426,3676.61,0.42444409624688345
427,3679.35,0.455461099258491
428,3682.09,0.44306170227009856
429,3684.83,0.3010386052817061
430,3687.57,0.38451560829331366
431,3690.31,0.5098353113049212
432,3693.0499999999997,0.4659258143165288
433,3695.79,0.5265191173281364
434,3698.5299999999997,0.4773769203397439
435,3701.27,0.32467232335135143
436,3704.0099999999998,0.42311552636295896
437,3706.7499999999995,0.36874442937456653
438,3709.49,0.2942425323861741
439,3712.2300000000005,0.39179463539778164
440,3714.9700000000003,0.4412399384093892
441,3717.71,0.5077483414209967
442,3720.4500000000003,0.6961638444326043
443,3723.19,1.152509747444212
444,3725.9300000000003,1.3505936504558194
445,3728.67,1.1674865534674268
446,3731.41,0.9415318564790346
447,3734.15,0.6216157594906421
448,3736.89,0.4548134625022497
449,3739.63,0.44131446551385717
450,3742.37,0.34432716852546474
451,3745.1099999999997,0.49466507153707234
452,3747.85,0.5052440745486799
453,3750.5899999999997,0.4600833775602874
454,3753.3300000000004,0.437635580571895
455,3756.07,0.4178422835835025
456,3758.8100000000004,0.38777298659511006
457,3761.55,0.5279182896067176
458,3764.29,0.43247819261832515
459,3767.03,0.47809359562993275
460,3769.77,0.5165423986415403
461,3772.51,0.4797617016531478
462,3775.2400000000002,0.44571340501872764
463,3777.98,0.3182129080303352
464,3780.7200000000003,0.5773657110419427
465,3783.46,0.5843425140535503
466,3786.2000000000003,0.5421392170651579
467,3788.94,0.6213125200767654
468,3791.68,0.582711423088373
469,3794.42,0.5760376260999804
470,3797.16,0.446281129111588
471,3799.9,0.5207524321231957
472,3801.8939600000003,0.6376129719951261
473,3802.64,0.6813363406371712
474,3805.3799999999997,0.6173680638574652
475,3808.12,0.5671639870777594
476,3810.8599999999997,0.7317671102980535
477,3813.6,0.6392842335183476
478,3816.3399999999997,0.6632864567386416
479,3819.0800000000004,0.5808898799589357
480,3821.82,0.45003380317922975
481,3824.5600000000004,0.47926862639952383
482,3827.3,0.4234528496198179
483,3830.04,0.601479072840112
484,3832.78,0.3216837960604061
485,3835.52,0.4419187192807002
486,3838.26,0.38083224250099423
487,3841.0,0.5456248657212883
488,3843.74,0.5278410889415824
489,3846.48,0.5930603121618765
490,3849.22,0.47509653538217056
491,3851.96,0.5820637586024646
492,3854.7,0.4826040818227587
493,3857.4399999999996,0.5967758050430527
494,3860.18,0.6131562282633468
495,3862.92,0.6038282514836409
496,3865.6600000000003,0.592376874703935
497,3868.4,0.5989364979242291
498,3871.1400000000003,0.6452724211445231
499,3873.88,0.6156203443648172
500,3876.62,0.5975330675851113
501,3879.36,0.5853990908054053
502,3882.1,0.5585908140256994
503,3884.84,0.45916923724599357
504,3887.58,0.5659467604662876
505,3890.3199999999997,0.4975422836865817
506,3893.06,0.5265874069068758
507,3895.7999999999997,0.45727283012716985
508,3898.54,0.557452453347464
509,3901.2799999999997,0.5991623765677581
510,3904.0200000000004,0.5424745997880521
511,3906.76,0.6080349230083462
512,3909.49,0.6039427465088582
513,3912.23,0.6119433697291522
514,3914.97,0.5077057929494463
515,3917.7099999999996,0.5617392161697403
516,3920.45,0.6273378393900344
517,3923.1899999999996,0.6687824626103285
518,3925.9300000000003,0.5689053858306226
519,3928.67,0.4729719090509167
520,3931.4100000000003,0.5040648322712107
521,3934.15,0.46777685549150483
522,3936.8900000000003,0.4710756787117989
523,3939.63,0.499741701932093
524,3942.37,0.5725826251523871
525,3945.11,0.5408827483726812
526,3947.85,0.6219898715929753
527,3950.59,0.6529310948132694
528,3953.33,0.6090974180335634
529,3956.0699999999997,0.5547224412538575
530,3958.81,0.49807236447415154
531,3961.5499999999997,0.4921190876944456
532,3964.29,0.4678513109147397
533,3967.0299999999997,0.35477133413503376
534,3969.7700000000004,0.38814685735532783
535,3972.51,0.4140828805756219
536,3975.25,0.470808403795916
537,3977.9900000000002,0.5906299270162101
538,3980.73,0.6595272502365042
539,3983.4700000000003,0.6326431734567982
540,3986.21,0.5872926966770923
541,3988.95,0.6335908198973864
542,3991.69,0.6561899431176804
543,3994.43,0.6522462663379746
544,3997.17,0.6682475895582686
545,3999.91,0.6247553127785627
546,4002.6499999999996,0.6891781359988567
547,4005.39,0.7026010592191508
548,4008.1299999999997,0.7195882824394448
549,4010.8700000000003,0.7520082056597389
550,4013.61,0.761677128880033
551,4016.3500000000004,0.7691090521003271
552,4019.09,0.7472300753206211
553,4021.83,0.7537138985409153
554,4024.57,0.7628141217612094
555,4027.31,0.7253507449815035
556,4030.05,0.7514004682017976
557,4032.79,0.7435891914220917
558,4035.5299999999997,0.7387733146423857
559,4038.27,0.6161458378626798
560,4041.0099999999998,0.6324126610829739
561,4043.75,0.728497084303268
562,4046.48,0.7532233078037799
563,4049.2200000000003,0.702336831024074
564,4051.96,0.720537454244368
565,4054.7,0.7035877774646621
566,4057.44,0.7077208006849561
567,4060.18,0.7594791239052502
568,4062.92,0.7642945471255443
569,4065.66,0.6919083703458385
570,4068.3999999999996,0.6833007935661326
571,4071.14,0.6876612167864267
572,4073.8799999999997,0.7043072400067207
