,lambda (Angstroms),Total Flux (erg/s/cm^2/Angstrom)
0,100.11000000000001,0.004801892776155891
1,101.97,0.005767199386362898
2,104.10000000000001,0.006872631149667452
3,104.712855,0.0071906918933833915
4,106.04,0.006616000480888861
5,108.01,0.005762934628490329
6,110.02,0.004892547647556724
7,113.88000000000001,0.003221058223354183
8,117.88,0.0014889448419718836
9,120.22644299999999,0.0004728686817644192
10,120.91,0.000459172369610881
11,124.87,0.00037982642029485257
12,126.9,0.00033915162459944914
13,128.07,0.00031570852521514107
14,131.06,0.000255798423168564
15,131.96,0.00023776543203195743
16,134.10999999999999,0.00019468632642672033
17,136.92,0.0001383833006145447
18,138.038426,0.00011597372489913057
19,140.10999999999999,0.00011450817117064872
20,143.04000000000002,0.00011243952648432247
21,147.04999999999998,0.00010961439068840843
22,151.17000000000002,0.00010670536538575856
23,155.04,0.00010397537304523554
24,158.489319,0.00010154397768365483
25,159.01999999999998,0.00010096843740476696
26,161.98000000000002,9.776003884648117e-05
27,166.13,9.326465383925621e-05
28,170.0,8.907639492119339e-05
29,173.16000000000003,8.565853738207747e-05
30,177.2,8.129324300130911e-05
31,180.07999999999998,7.81859788813554e-05
32,181.970086,7.614777026128866e-05
33,182.16,7.621591525528198e-05
34,185.98,7.759362767213135e-05
35,191.19,7.947790917861964e-05
36,193.85,8.045437223433149e-05
37,197.89999999999998,8.193708427968227e-05
38,202.05,8.346678931133801e-05
39,204.86,8.451622874650732e-05
40,208.929613,8.601545687482146e-05
41,210.10999999999999,8.854541158401634e-05
42,216.0,0.00010126486514164094
43,220.02,0.000109948974555164
44,223.08,0.00011655567418187558
45,227.23,0.0001255520969321543
46,229.85999999999999,0.00013194149534498156
47,234.13,0.00014283196880611178
48,239.88329199999998,0.00015657819428569424
49,240.14000000000001,0.00015619675527553167
50,245.73000000000002,0.00014692680857602192
51,252.03,0.0001370781325425852
52,256.72,0.00012840560156213778
53,260.29,0.00012364411100985697
54,263.91,0.00011837036225096159
55,268.82,0.00011066867756141014
56,273.81,0.00010286316034127533
57,275.42287,0.00010034252438803805
58,278.90999999999997,0.00010751294880516425
59,284.09,0.00011826362223119276
60,290.03999999999996,0.00013003112251784712
61,296.10999999999996,0.0001430168711464172
62,300.92,0.00015295496218487237
63,307.93,0.00016796543282511555
64,316.227766,0.00018593490553346837
65,318.02,0.00018401371221670395
66,327.68,0.0001735490443296436
67,337.64000000000004,0.0001627210170672087
68,347.90000000000003,0.00015146815042939928
69,356.83,0.00014194761502241707
70,363.078055,0.00013541294094759448
71,365.97999999999996,0.00013945017141344865
72,375.37,0.0001521781817680276
73,385.0,0.00016453082190802707
74,394.87,0.0001793423718334471
75,405.0,0.00019365994735973937
76,414.44,0.00020657540225294755
77,416.86938299999997,0.00020992353655636674
78,422.14000000000004,0.000214935125591149
79,429.99,0.00022233743830791183
80,441.02000000000004,0.00023336666059656079
81,451.29,0.00024289005166677156
82,459.68,0.00025120088393347734
83,470.39,0.0002614536183406786
84,478.630092,0.00026985616728959256
85,480.23999999999995,0.0002691129629423238
86,490.29,0.0002637290402165365
87,500.56000000000006,0.0002595646300877966
88,506.36,0.00027172573582813833
89,512.2199999999999,0.00038732351773131124
90,520.5400000000001,0.0003964293123105598
91,530.22,0.0004078859665806473
92,540.08,0.00040075884933922815
93,549.5408739999999,0.0004963559974214735
94,550.12,0.0005025360480164241
95,560.35,0.0005856604333989794
96,569.45,0.0006594728079817021
97,580.04,0.0006517440224686287
98,589.46,0.0007933629673663482
99,600.42,0.00083468937565499
100,610.1800000000001,0.0009975282202623935
101,620.09,0.001159853635329952
102,630.1700000000001,0.0012840564502523525
103,630.957344,0.0012878554657920114
104,640.41,0.0013395363057680228
105,649.32,0.0015594504450715796
106,658.35,0.0016977568286755213
107,664.44,0.0018318922269200402
108,675.24,0.0019161232139546548
109,684.63,0.0019444853304597502
110,695.76,0.0025516529893204226
111,705.43,0.0024895933425264152
112,715.25,0.0030869340011078893
113,724.43596,0.0032776766198597575
114,725.2,0.0032934201680486167
115,735.29,0.003489457850667798
116,745.5100000000001,0.004030330804718148
117,754.15,0.004396168305989678
118,764.64,0.004764789900704763
119,775.28,0.005293292962455812
120,784.25,0.005842657691206461
121,795.1600000000001,0.006222875393622247
122,804.3699999999999,0.006613469469630439
123,815.5600000000001,0.006982061910513357
124,825.0,0.007815310235976694
125,831.763771,0.0069694309823028185
126,834.5600000000001,0.006617868340137065
127,844.22,0.008548429525658801
128,855.97,0.008978328890035654
129,865.88,0.009824385742884554
130,875.9,0.010728205289357412
131,884.01,0.01185185633745071
132,894.24,0.012713317844478388
133,904.6,0.012971779898516191
134,915.07,0.020565281646177946
135,925.67,0.14678341394084984
136,934.2399999999999,0.3291914946168251
137,945.0500000000001,0.6432366508720518
138,954.992586,0.8917505366873992
139,956.0,0.91693113100127
140,964.84,1.0674241920007137
141,976.0099999999999,0.1809615845758025
142,985.05,0.9623481311182199
143,994.1600000000001,1.0146890726006783
144,1005.6700000000001,1.4598952405988226
145,1014.98,1.4135675676242547
146,1024.37,0.6086471888668764
147,1033.8500000000001,1.0335392036038364
148,1045.82,1.9558263383508205
149,1055.5,1.9378526386307542
150,1065.26,1.5678979331278777
151,1075.12,1.8762302203964878
152,1085.0700000000002,1.5216375011594363
153,1095.11,2.010585775416723
154,1096.4782,1.998361153929829
155,1105.24,1.9200746942520661
156,1115.47,1.863465379823278
157,1125.79,1.676143045032946
158,1136.2,2.1395546898810704
159,1144.08,1.9647939071148093
160,1154.67,2.1003555112398464
161,1165.35,2.17922509500334
162,1176.1299999999999,1.5251516561428966
163,1184.29,2.179201810029611
164,1195.24,1.5896963327084737
165,1206.3,1.1596218305010055
166,1214.66,0.7470223391398452
167,1225.9,1.57510939620929
168,1234.3999999999999,2.324315473174617
169,1245.82,2.5193828895209744
170,1254.46,2.4227419348127897
171,1258.92541,2.321402656173632
172,1266.07,2.1592630395338217
173,1274.84,2.6625231806629315
174,1283.68,2.7561013229184996
175,1295.56,2.209537514094534
176,1304.54,2.2557186586030182
177,1313.58,2.756075804077038
178,1325.73,2.6260589995979826
179,1334.92,2.378568147485841
180,1344.18,2.768841296500158
181,1353.49,2.7121154463190877
182,1366.02,2.4676466479550907
183,1375.49,2.5602958003487815
184,1385.0199999999998,2.607928953708008
185,1394.6200000000001,2.2248291081936924
186,1404.29,2.345871263805835
187,1414.02,2.462091420383514
188,1423.8200000000002,2.51364857808765
189,1433.69,2.5486737369182446
190,1443.6299999999999,2.6686448968752976
191,1445.43977,2.6753655313499363
192,1446.9599999999998,2.6810109465309138
193,1453.6399999999999,2.626067036751446
194,1463.71,2.456357172757547
195,1473.86,2.4791433098441336
196,1484.0800000000002,2.5021334478761452
197,1494.3600000000001,2.5367935867185203
198,1504.72,2.394926726641381
199,1511.6699999999998,2.149395820508552
200,1518.65,2.2871399147809037
201,1525.66,2.276707009458438
202,1536.23,2.0012241522175733
203,1543.32,2.124798247975593
204,1554.0200000000002,2.0432483924905167
205,1564.79,2.1344985379508654
206,1575.64,2.2715156844916993
207,1586.56,2.356646831977958
208,1593.88,2.4004859308423736
209,1604.93,2.383952080084421
210,1616.06,2.4004582304069544
211,1623.52,2.3137143311622186
212,1634.7700000000002,2.46763448310548
213,1646.1000000000001,2.4906476361292262
214,1653.6999999999998,2.3676117387753406
215,1659.58691,2.4606167772127927
216,1665.16,2.5486643679709378
217,1672.85,2.383954126453197
218,1676.7,2.566272506187488
219,1684.44,2.6380942696013614
220,1696.1200000000001,2.5078764216264315
221,1703.9499999999998,2.4283151939172103
222,1715.76,2.302963358764477
223,1723.6799999999998,2.297750139932161
224,1735.6299999999999,2.439458318587948
225,1743.6399999999999,2.3895161086325376
226,1755.72,2.5136403001105214
227,1763.8300000000002,2.3730171000183393
228,1776.0600000000002,2.3839523062911656
229,1784.25,2.4452241140895667
230,1796.62,2.566271334170912
231,1804.91,2.5840451518325414
232,1813.2400000000002,2.367638973439462
233,1825.81,2.4563682132472637
234,1834.24,2.378583044717413
235,1846.96,2.204542299320058
236,1855.48,2.1892771396671122
237,1864.04,2.2557529839594577
238,1876.97,2.4507822592748822
239,1885.63,2.2403031134304565
240,1894.33,2.124806971531322
241,1903.0800000000002,2.308347834563801
242,1905.46072,2.287764497825444
243,1916.27,2.194306695108214
244,1925.11,2.1494295712073157
245,1933.9999999999998,2.266147440949512
246,1942.9299999999998,2.335109305606184
247,1956.39,2.164317594327214
248,1965.4199999999998,2.373028446270075
249,1974.4999999999998,2.46209629185603
250,1983.6100000000001,2.3189581336278415
251,1992.7700000000002,2.271522969042748
252,2006.58,2.362053213265439
253,2015.8400000000001,2.3083480359665347
254,2025.15,2.433882852310724
255,2034.49,2.2715346648407704
256,2043.8799999999999,2.340511471013911
257,2053.3199999999997,2.2454852708301467
258,2062.7999999999997,2.2871350655608573
259,2072.32,2.4283038552060434
260,2077.09,2.260935248757256
261,2086.68,2.3676170295027745
262,2096.31,2.2506888051627687
263,2105.9900000000002,2.313720574465857
264,2115.71,2.3351033386834215
265,2125.48,2.37298509654408
266,2135.29,2.2819308493192145
267,2145.1400000000003,2.2661475970088243
268,2155.04,2.3620543383415287
269,2164.99,2.3243330733173275
270,2174.98,2.308340803207602
271,2185.02,2.260915526740971
272,2187.7616199999998,2.2825364792925384
273,2195.11,2.340488923054415
274,2205.24,2.3029399498946743
275,2215.42,2.2454709818032477
276,2225.65,2.1791990187801336
277,2235.92,2.26648505981167
278,2246.24,2.2266291059115204
279,2256.61,2.162324157079684
280,2267.0299999999997,2.21422021331616
281,2277.4900000000002,2.246557273607287
282,2282.7400000000002,2.278518805780176
283,2293.28,2.177405874180604
284,2303.86,2.1890809466356824
285,2314.5,2.1210100251727373
286,2325.18,1.7613841077644425
287,2335.91,2.037680195424461
288,2346.69,2.025116288152793
289,2357.5299999999997,2.0929943869631
290,2362.96,2.017921937381917
291,2373.87,2.0380390432878626
292,2384.82,1.9748351532484592
293,2395.83,2.055114269291032
294,2406.89,1.9913503904019174
295,2412.44,2.015053952984686
296,2423.5699999999997,2.0635710811912102
297,2434.7599999999998,1.9994402154797102
298,2446.0,2.0712843548365236
299,2457.29,2.05368249926165
300,2462.95,2.0450680729947073
301,2474.32,1.9999842255291351
302,2485.74,2.052797383131876
303,2497.22,1.9171875468165929
304,2502.97,2.0739851296726135
305,2511.88643,1.9821290641959102
306,2514.5299999999997,1.954894929786829
307,2520.3199999999997,2.029086702636947
308,2526.1299999999997,1.9653264747024364
309,2537.79,1.9714300172641588
310,2543.64,1.936045787760392
311,2555.3900000000003,2.0057253267912873
312,2567.18,1.9886688642529262
313,2573.1,2.0499076320029603
314,2584.97,2.042008166326086
315,2596.91,2.0389546979030126
316,2602.89,1.9978324632991622
317,2614.91,1.985615991737576
318,2626.98,2.0102155182144195
319,2633.03,2.0294362808643696
320,2645.19,2.0976758038103855
321,2657.3999999999996,2.104144324794831
322,2663.52,2.0147030846985823
323,2675.8199999999997,2.0633746021522006
324,2681.98,2.0545883604866955
325,2694.36,2.0048328748018003
326,2706.7999999999997,2.020271386763021
327,2713.04,1.9796771419590025
328,2725.5600000000004,1.9811176507817099
329,2738.14,2.0242241572505324
330,2744.46,1.9074739093080013
331,2757.1200000000003,1.9177224126383106
332,2763.48,1.945193163126523
333,2776.24,1.992064662533691
334,2782.6400000000003,1.9699764114526466
335,2795.48,1.802230907721302
336,2801.92,1.8749716550710012
337,2814.86,1.9877501474165147
338,2827.85,1.9938686378004578
339,2834.37,1.9270543820116441
340,2847.4500000000003,1.9153748688647598
341,2854.02,1.9072896111143753
342,2867.19,1.966923094436664
343,2873.8,1.954165835117023
344,2884.0315,1.955423923652946
345,2887.0600000000004,1.9557964312892981
346,2893.7200000000003,1.9475284259421193
347,2907.0800000000004,1.9899124152156462
348,2927.23,1.96063639903762
349,2947.52,1.9362043827471906
350,2967.95,1.9430313663443584
351,2988.52,1.9320843498291227
352,3009.2400000000002,1.930100333193455
353,3030.1,1.9326123164453843
354,3051.1,1.9218422995849103
355,3072.2500000000005,1.9155562826040042
356,3093.54,1.9047872655106954
357,3107.82,1.8977842540455732
358,3129.3700000000003,1.8785532367435154
359,3151.06,1.8767622193290543
360,3172.9,1.8661662017941616
361,3187.55,1.8169441900319738
362,3209.6400000000003,1.8404861722963608
363,3231.89,1.8094131544322873
364,3246.81,1.8320341424533222
365,3269.3100000000004,1.8430021243885284
366,3291.9700000000003,1.8327601061952743
367,3307.1699999999996,1.8217990939915027
368,3311.31121,1.8326202406502268
369,3322.4300000000003,1.8616739200157844
370,3330.09,1.8625768024503555
371,3337.77,1.837965684577967
372,3345.46,1.809413566552099
373,3353.18,1.8185674480657918
374,3360.91,1.7986243294260051
375,3368.65,1.8036672106327385
376,3376.42,1.7311710913790332
377,3384.2,1.788735971971848
378,3392.0,1.8228788522577035
379,3399.82,1.8704747322365995
380,3407.6600000000003,1.7748366119085366
381,3415.5200000000004,1.7921034912735139
382,3423.39,1.8431743704850119
383,3431.2799999999997,1.8397602493895502
384,3439.1899999999996,1.8365251279871295
385,3447.1200000000003,1.7668190062777491
386,3455.07,1.7514418842614097
387,3463.03,1.7203047620915901
388,3471.0099999999998,1.7571836396148117
389,3479.01,1.7299155168310738
390,3487.04,1.7467573935868967
391,3495.07,1.76782827034272
392,3503.1299999999997,1.748453146638104
393,3511.21,1.7332520226265287
394,3519.3,1.7420908984614736
395,3527.4100000000003,1.7309397739894592
396,3535.55,1.7721146490570059
397,3543.7000000000003,1.797727523971073
398,3551.86,1.8027663987316602
399,3560.05,1.7788152730318085
400,3568.2599999999998,1.7431821470249975
401,3576.48,1.6809570208647067
402,3584.73,1.654894894243977
403,3585.53,1.7507108819656032
404,3588.2,1.8474828409865305
405,3590.87,1.8250338000074582
406,3593.54,1.7233257590283855
407,3596.22,1.8271827178958333
408,3598.8900000000003,1.7513016769167606
409,3601.56,1.6100266359376882
410,3604.23,1.4764385949586158
411,3606.9,1.5517305539795432
412,3609.58,1.726279512846991
413,3612.25,1.7254554718679185
414,3614.9199999999996,1.7782784308888457
415,3617.59,1.7292653899097734
416,3620.26,1.674883348930701
417,3622.93,1.5461803079516283
418,3625.61,1.789733266819076
419,3628.2799999999997,1.8014992258400035
420,3630.95,1.8433481848609312
421,3633.6200000000003,1.8225161438818585
422,3636.29,1.657767102902786
423,3638.96,1.6909950619237133
424,3641.64,1.5785200207911612
425,3644.31,1.6257749798120888
426,3646.98,1.6861589388330163
427,3649.6499999999996,1.7550748978539437
428,3652.32,1.729284856874871
429,3654.9900000000002,1.6349228158957985
430,3657.67,1.5900507747632464
431,3660.34,1.564386733784174
432,3663.0099999999998,1.6628646928051012
433,3665.68,1.6578376518260287
434,3668.3500000000004,1.732158610846956
435,3671.02,1.7407815698678837
436,3673.7,1.6376275287353315
437,3676.37,1.6502194877562588
438,3679.04,1.7631014467771864
439,3681.71,1.6065424057981137
440,3684.3799999999997,1.7481083648190414
441,3687.05,1.6210573238399688
442,3689.73,1.5927622827074166
443,3692.4,1.723102241728344
444,3695.0699999999997,1.6592182007492713
445,3697.74,1.679731159770199
446,3700.4100000000003,1.6620421187911265
447,3703.0800000000004,1.633701077812054
448,3705.76,1.6366940366795015
449,3708.43,1.700507995700429
450,3711.1,1.6257229547213567
451,3713.77,1.688423913742284
452,3716.4399999999996,1.9439298727632115
453,3719.1200000000003,2.6177918316306594
454,3721.79,4.149811790651587
455,3724.46,6.051098749672514
456,3727.13,6.735753708693442
457,3729.7999999999997,5.696750667714369
458,3732.47,3.927656626735297
459,3735.1499999999996,2.406759585602744
460,3737.82,1.803652544623672
461,3740.4900000000002,1.6356535036445994
462,3743.16,1.6683964626655268
463,3745.83,1.6309504216864543
464,3748.5,1.6873473807073818
465,3751.1800000000003,1.7039713395748297
466,3753.8500000000004,1.653594298595757
467,3756.52,1.7670872576166845
468,3759.19,1.777038216637612
469,3761.86,1.8000651756585393
470,3764.5299999999997,1.696364134679467
471,3767.2099999999996,1.6983860935469146
472,3769.88,1.768918052567842
473,3772.55,1.8032950115887696
474,3775.2200000000003,1.913573970609697
475,3777.89,1.9622479296306246
476,3780.56,2.026906888651552
477,3783.24,1.9266798475189997
478,3785.9100000000003,2.0051678065399274
479,3788.58,1.9642197655608546
480,3791.25,1.730449724581782
481,3793.92,1.7081616836027096
482,3796.59,1.7599796426236372
483,3799.27,1.8083206014910849
484,3801.8939600000003,1.7115445922897672
485,3801.9399999999996,1.7098465606592452
486,3804.61,1.7582145282186503
487,3807.28,1.8842984957780555
488,3809.95,2.0448654633374606
489,3812.62,2.075041430896866
490,3815.2999999999997,1.9821773983347708
491,3817.97,1.971582365894176
492,3820.6400000000003,1.9196783334535814
493,3823.31,1.8108403010129865
494,3825.98,1.8077882685723916
495,3828.66,1.8595062360102965
496,3831.33,1.7590022035697017
497,3834.0,1.657330171129107
498,3836.6699999999996,1.7460731386885122
499,3839.34,1.8007821062479175
500,3842.01,1.8553830738073227
501,3844.69,1.9960050412452273
502,3847.36,2.0879640088046325
503,3850.0299999999997,2.112570976364038
504,3852.7,2.112213943923443
505,3855.3700000000003,2.0856339114828484
506,3858.04,2.1319738790422536
507,3860.7200000000003,2.1734528464801586
508,3863.39,2.2170988140395638
509,3866.06,2.324682781598969
510,3868.73,2.212432749158374
511,3871.3999999999996,2.1125747167177793
512,3874.07,2.063903684277184
513,3876.75,1.9620596517150892
514,3879.42,1.9148256192744946
515,3882.09,1.9248855868338997
516,3884.7599999999998,1.9115965543933051
517,3887.43,1.9180635219527102
518,3890.1000000000004,1.9886494895121152
519,3892.78,1.9473324569500203
520,3895.45,1.8815994245094254
521,3898.12,1.9315303920688307
522,3900.79,1.9789473596282359
523,3903.46,2.004274327187641
524,3906.1299999999997,2.1188632947470465
525,3908.81,2.137353262184951
526,3911.48,2.1775862297443562
527,3914.15,2.074316197303762
528,3916.8199999999997,2.0791671648631667
529,3919.49,2.129099132422572
530,3922.1600000000003,2.019722099981977
531,3924.84,1.9548760674198822
532,3927.51,1.9970850349792872
533,3930.18,1.8406520025386925
534,3932.85,1.8151489700980976
535,3935.52,1.897588937657503
536,3938.2,1.937093905095408
537,3940.8700000000003,1.892194872654813
538,3943.54,2.077367840214218
539,3946.21,2.1752528077736235
540,3948.88,2.201117775333029
541,3951.5499999999997,2.076115742892434
542,3954.23,2.0574277103303387
543,3956.8999999999996,2.057788677889744
544,3959.57,1.9810996454491492
545,3962.2400000000002,1.9936736130085544
546,3964.91,1.9534445805679597
547,3967.58,1.941053548127365
548,3970.2599999999998,1.8751305155652696
549,3972.9300000000003,1.9047674831246748
550,3975.6000000000004,1.85412045068408
551,3978.27,1.8440644182434853
552,3980.94,1.9635023858028906
553,3983.61,2.060130353362296
554,3986.29,2.1404053208002005
555,3988.9599999999996,2.1445372883596057
556,3991.63,2.1959062559190112
557,3994.3,2.273856223478416
558,3996.9700000000003,2.3108561910378214
559,3999.64,2.2002221585972266
560,4002.3199999999997,2.2253571260351315
561,4004.99,2.1996760935945368
562,4007.6600000000003,2.168786061153942
563,4010.33,2.1332260287133473
564,4013.0,2.1432859962727524
565,4015.67,2.2350649638321576
566,4018.35,2.2891169312700628
567,4021.02,2.2751098988294673
568,4023.6899999999996,2.205424866388873
569,4026.36,2.1084408339482783
570,4029.03,2.1966288015076834
571,4031.71,2.217632768945588
572,4034.38,2.1687827365049936
573,4037.0499999999997,2.2038067040643985
574,4039.72,2.182256671623804
575,4042.3900000000003,2.1709436391832093
576,4045.06,2.125864606742614
577,4047.7400000000002,2.1574655741805193
578,4050.41,2.1427405417399243
