,lambda (Angstroms),Total Flux (erg/s/cm^2/Angstrom)
0,100.07000000000001,0.0012341649922287987
1,101.93,0.0014834565836432017
2,104.07,0.0017698005353672976
3,104.712855,0.0018559423152025173
4,106.0,0.0017132632553372668
5,107.97,0.001495147592883378
6,109.98,0.0012747789454355008
7,114.11,0.0008181028953062825
8,118.11999999999999,0.0003747245681590274
9,120.22644299999999,0.0001682838315504238
10,120.87,0.0001735693957077839
11,125.12,0.0001617759235990706
12,126.86,0.00015717222868867977
13,128.03,0.00015426111573169283
14,131.01,0.00014538852674723037
15,131.92000000000002,0.00015161557222512928
16,134.07,0.00014522151362895681
17,136.87,0.00014974428894556918
18,138.038426,0.0001469093972546313
19,140.06,0.0001520544057238357
20,142.98999999999998,0.0002804088383413766
21,147.0,0.000506247008237738
22,151.12,0.0005420545578569422
23,154.99,0.0005845762081060492
24,158.489319,0.0006275093616846451
25,158.97000000000003,0.0006333599044679913
26,161.92999999999998,0.00066850896312002
27,166.08,0.0007213634473787763
28,169.95,0.0007684851314947733
29,173.11,0.0008099090616773444
30,177.14000000000001,0.0008593585030177754
31,180.02,0.000895985733057587
32,181.970086,0.0009224102833194037
33,182.1,0.0009242186972438912
34,185.92000000000002,0.0009781001546890582
35,191.12,0.0010472427967610136
36,193.78,0.0010933661671285906
37,197.84,0.0011494045219001556
38,201.98000000000002,0.0012084210757805198
39,204.79000000000002,0.0012533039444770958
40,208.929613,0.001273908625319604
41,210.04999999999998,0.0012799967372858717
42,215.93,0.0014172630641756966
43,219.95000000000002,0.0014849679305187402
44,223.01000000000002,0.0015206421720634449
45,227.14999999999998,0.0015932246165062808
46,229.77999999999997,0.002396387869860063
47,234.04999999999998,0.00397548535724434
48,239.88329199999998,0.005092345661518841
49,240.06,0.005126002609981606
50,246.22000000000003,0.004871590551284049
51,251.95,0.00517953006648908
52,257.23,0.004223528159034031
53,260.21,0.0050355976468719
54,263.83,0.005318146024715218
55,268.73,0.005316032182569433
56,273.73,0.005289489323237
57,275.42287,0.005272629011592918
58,278.82,0.005241956973405082
59,284.0,0.0052689405910968795
60,289.95,0.0050241192870942135
61,296.02,0.00506150865763267
62,300.83,0.004859788445489339
63,307.83000000000004,0.004941772793721497
64,316.227766,0.005021669312283063
65,317.92,0.005036360200774884
66,328.33,0.004964222445550054
67,338.31,0.004848405068302811
68,347.78999999999996,0.004724619711959738
69,356.71000000000004,0.004678467499029337
70,363.078055,0.004683790787579063
71,365.86,0.004687860028582722
72,375.25,0.004584357970784947
73,384.87,0.004322208106459644
74,394.75000000000006,0.004414832678233657
75,404.87,0.004387474191022423
76,414.3,0.004290828123393775
77,416.86938299999997,0.004246575208714396
78,422.0,0.0041576458511896446
79,429.85,0.004046753918702452
80,440.88,0.00400260820719497
81,451.15000000000003,0.003896458210170324
82,459.53000000000003,0.003758835647846416
83,470.24,0.003667530184542234
84,478.630092,0.003626845159953724
85,480.08000000000004,0.00361926189958696
86,490.14000000000004,0.0034483095091504537
87,500.40000000000003,0.003438343890275846
88,506.19,0.0033295164269928072
89,512.0600000000001,0.0035146936723345276
90,520.38,0.003418274369309504
91,530.05,0.003279280274327296
92,539.9,0.0030749362737507962
93,549.5408739999999,0.0029738933196495365
94,549.94,0.002969768395858081
95,560.17,0.0030304147216672025
96,570.5799999999999,0.003022830384587335
97,579.85,0.0029206882458043984
98,590.63,0.0028672398794527204
99,600.23,0.002701823525373304
100,609.98,0.002367401618886396
101,619.89,0.0026699664564981654
102,629.97,0.002562044334714778
103,630.957344,0.0025619778676248153
104,640.1999999999999,0.002562882326959776
105,650.6,0.0024779235254485383
106,658.14,0.002379253519352891
107,665.76,0.0024126660993994647
108,675.0200000000001,0.0023808791953615744
109,684.41,0.002230208618804793
110,695.5300000000001,0.002266935092573547
111,705.21,0.0021045870157823175
112,716.67,0.0021783037306555117
113,724.43596,0.002148628278370825
114,726.6400000000001,0.002140116067252861
115,735.05,0.002102254816043445
116,745.28,0.0020327277601727765
117,755.6400000000001,0.001983478718254876
118,764.39,0.0017886988112296226
119,775.03,0.001901345876286914
120,785.81,0.0018060234948318009
121,794.9100000000001,0.001810558471525537
122,804.11,0.0017908288435675558
123,815.3000000000001,0.0017595145830404026
124,824.74,0.0017326119039183002
125,831.763771,0.0016133300736086418
126,834.2900000000001,0.0015699947229799495
127,845.9,0.001651617141951244
128,855.69,0.0016066356313335845
129,865.6,0.0015910830061833287
130,875.62,0.001565151442711526
131,885.76,0.0015326717647071268
132,896.02,0.0015041739721701312
133,904.31,0.0014631768932099273
134,914.7800000000001,0.0014818164002408881
135,925.3699999999999,0.0024461347927392523
136,933.94,0.0034639287798696565
137,944.75,0.004472241295724927
138,954.992586,0.005054033498799984
139,955.69,0.0050937165857845145
140,964.53,0.0054560302409177855
141,975.7,0.0027366225789085823
142,984.73,0.004733734701742681
143,996.1299999999999,0.004594751763792376
144,1005.35,0.005442549354327304
145,1014.65,0.0053683254575783695
146,1024.04,0.0033512698876350913
147,1035.9,0.00458358739780258
148,1045.48,0.00615858129556013
149,1055.16,0.005963969334212852
150,1064.92,0.0051622998855817125
151,1074.77,0.005605837763756229
152,1084.72,0.004677942782825919
153,1094.76,0.005644027128701263
154,1096.4782,0.005601068029909948
155,1104.88,0.005390670313256443
156,1115.11,0.0052440780641804
157,1125.43,0.004740684578308967
158,1135.8400000000001,0.0054262608556421435
159,1143.71,0.005111796926978561
160,1154.3,0.005169951730720957
161,1164.98,0.005145957297667962
162,1175.76,0.003872849045953422
163,1183.8999999999999,0.004903116406903668
164,1194.86,0.004081383681598347
165,1205.92,0.003420880137631482
166,1214.27,0.0024723832793924834
167,1225.51,0.0039057182618348375
168,1234.01,0.004723635675603521
169,1245.42,0.004910531766321249
170,1254.06,0.0047549610339637696
171,1258.92541,0.004622035111529994
172,1265.66,0.0044384618051821825
173,1274.43,0.00497810010224721
174,1286.2199999999998,0.005047068898415587
175,1295.1399999999999,0.004328097816297006
176,1304.12,0.004308279982504982
177,1316.18,0.004865191896142864
178,1325.3100000000002,0.004657754683167231
179,1334.49,0.004288981677130395
180,1343.75,0.004711469002195635
181,1356.1799999999998,0.004583785447180617
182,1365.5800000000002,0.004230222351674489
183,1375.04,0.004269296504494918
184,1384.58,0.004259554988417421
185,1394.17,0.003578671679278723
186,1403.8400000000001,0.0035786857012420994
187,1413.5700000000002,0.003958336971532033
188,1423.37,0.003913547531536283
189,1436.54,0.003940576039215463
190,1443.17,0.00403193447929997
191,1445.43977,0.004031924788216291
192,1446.5,0.0040319195562184785
193,1456.52,0.003913666362012813
194,1466.62,0.003695624445697719
195,1473.3899999999999,0.003678741962187503
196,1483.6,0.0036956994279719485
197,1493.8799999999999,0.003670400136910646
198,1504.24,0.003506263123739917
199,1511.18,0.00322138923074717
200,1518.16,0.00334151047669971
201,1525.17,0.003288548826861214
202,1535.7399999999998,0.0029262455431532408
203,1546.3799999999999,0.002912973502599519
204,1553.52,0.002814767304333206
205,1564.2900000000002,0.002939787715351666
206,1575.1299999999999,0.0030704673695243776
207,1586.05,0.003134386301587663
208,1593.3700000000001,0.0031560207285751406
209,1604.42,0.003070546112210608
210,1615.54,0.0030426087390003275
211,1626.7400000000002,0.0029333156436806202
212,1634.2400000000002,0.003049668695921888
213,1645.5700000000002,0.0030427240521743626
214,1653.1699999999998,0.0029066834517788467
215,1659.58691,0.002986790010431388
216,1664.63,0.003049856671267053
217,1672.31,0.002802595492018736
218,1676.1699999999998,0.0030993614097402852
219,1683.9,0.0031280924988562374
220,1695.5700000000002,0.0029748805350765686
221,1703.3999999999999,0.002887929160921058
222,1715.21,0.002784514748561342
223,1723.1299999999999,0.002765693657461516
224,1735.07,0.0029019625428488983
225,1743.08,0.0028430977348047554
226,1755.16,0.0029763791716120908
227,1763.2600000000002,0.0027730706466236313
228,1775.48,0.0028052366348509197
229,1783.68,0.002857148646590998
230,1796.0400000000002,0.0030254421862382385
231,1804.3300000000002,0.0029912544810340004
232,1816.8400000000001,0.0027998668257740475
233,1825.23,0.0028516856572983473
234,1833.65,0.002768515249841208
235,1846.36,0.0025101096680383303
236,1854.8899999999999,0.002597658050982583
237,1863.45,0.0027253721949453964
238,1876.36,0.0028400096865995933
239,1885.02,0.0026766283672909445
240,1893.7300000000002,0.0026707603163465647
241,1905.46072,0.0027429255409538306
242,1906.85,0.002751391465200348
243,1915.65,0.0027013587165251912
244,1924.5,0.002563048332914381
245,1933.38,0.002426298968342178
246,1946.78,0.0028264288055868266
247,1955.77,0.0027061858441561836
248,1964.79,0.0029919019017641485
249,1973.8600000000001,0.002944137324436459
250,1982.97,0.002957344439160246
251,1996.7199999999998,0.0029366758318553144
252,2005.94,0.0029229703497206617
253,2015.19,0.002929375886624617
254,2024.5,0.002804606461605787
255,2033.8400000000001,0.002975999055625564
256,2043.23,0.0031579870147096876
257,2052.66,0.002968591665845287
258,2066.8900000000003,0.002954565363158074
259,2071.65,0.003259786717283785
260,2076.43,0.004300529417435234
261,2086.01,0.004923006163763871
262,2095.64,0.004574554275156854
263,2105.31,0.004450094078601312
264,2115.0299999999997,0.004854748247110116
265,2124.79,0.004459530107670398
266,2134.6,0.004239788333295025
267,2144.46,0.005023748923983998
268,2154.35,0.005023445533711578
269,2164.3,0.004509543181516373
270,2174.29,0.004540437521372644
271,2184.3199999999997,0.005355964553280392
272,2187.7616199999998,0.0053683704404837275
273,2194.41,0.005392726342922879
274,2204.54,0.005234717436473269
275,2214.71,0.004297599572841232
276,2224.93,0.004798112012731162
277,2235.2,0.006036085756143058
278,2245.52,0.00575224280307692
279,2255.8900000000003,0.004604837153532749
280,2266.3,0.004368459546806151
281,2276.7599999999998,0.0047012542436015185
282,2287.27,0.005996154243918853
283,2292.54,0.00507124963513411
284,2303.12,0.005986841460382198
285,2313.75,0.005222604589152253
286,2324.4300000000003,0.004253645021444273
287,2335.16,0.00396660475725826
288,2345.94,0.0029966687965942125
289,2356.77,0.004919829139452132
290,2367.65,0.003217011785832018
291,2373.1,0.003964343869726354
292,2384.06,0.002684167601741386
293,2395.06,0.003197105376573991
294,2406.12,0.003179034715632956
295,2417.22,0.003626158097509494
296,2422.7999999999997,0.005697714570560943
297,2433.98,0.005704193038072626
298,2445.21,0.006721204809106277
299,2456.5,0.007077425144366288
300,2462.16,0.006185031703052883
301,2473.5299999999997,0.00549621712394804
302,2484.95,0.003635380848365162
303,2496.42,0.0042623518763042515
304,2502.17,0.006398307781330386
305,2511.88643,0.003684090876947316
306,2513.72,0.0031718295923061513
307,2519.5099999999998,0.0026258121715164603
308,2525.3199999999997,0.002858675548927841
309,2536.9799999999996,0.004388600900152745
310,2542.83,0.00462841987396627
311,2554.5699999999997,0.008034338417995461
312,2566.3599999999997,0.006065819457527334
313,2572.27,0.0076870358259440745
314,2584.15,0.00683007895738077
315,2596.0699999999997,0.006167270685219608
316,2602.06,0.005352958246440636
317,2614.07,0.004856192066184299
318,2626.1400000000003,0.006565100280531177
319,2632.1899999999996,0.011241952236355419
320,2644.34,0.015139639643506586
321,2656.54,0.02110746654616043
322,2662.6699999999996,0.013488614694788962
323,2674.96,0.015289510689347632
324,2687.31,0.017816206078509516
325,2693.5,0.012861333621741262
326,2705.93,0.015982838203707432
327,2712.17,0.01151225524244186
328,2724.69,0.009139051916312854
329,2737.27,0.011673131984787066
330,2743.58,0.006638648317225244
331,2756.24,0.009103632578503744
332,2762.5899999999997,0.011973296507344064
333,2775.34,0.012814357860527386
334,2788.1600000000003,0.007633773507414459
335,2794.58,0.0035194747299585327
336,2807.48,0.004222068569649894
337,2813.9500000000003,0.011282078287696647
338,2826.94,0.01654456721929283
339,2833.46,0.015486841432842263
340,2846.54,0.011085089456343272
341,2853.1,0.0063626022662948475
342,2866.27,0.01546374038170068
343,2872.8799999999997,0.021204093687154934
344,2884.0315,0.019582455514517254
345,2886.14,0.01927586073372704
346,2892.79,0.02372458936054841
347,2912.8399999999997,0.03235343522036322
348,2933.0299999999997,0.028235201051269004
349,2953.3599999999997,0.026040846853265767
350,2967.0,0.027239224036700878
351,2987.5600000000004,0.027735359791204246
352,3008.27,0.02785329551473365
353,3029.1200000000003,0.02997116120935404
354,3050.12,0.031516956873000476
355,3071.26,0.03446517250773788
356,3092.55,0.03359398811150134
357,3106.83,0.039155265162780915
358,3128.36,0.03619759071698604
359,3150.0499999999997,0.03618774623815229
360,3171.88,0.040214811730409514
361,3186.52,0.0349169087073516
362,3208.61,0.03880420414592063
363,3230.85,0.03287242955351571
364,3253.2499999999995,0.046517254928071905
365,3268.26,0.054601051828611566
366,3290.92,0.053716777149479575
367,3311.31121,0.05060463267697803
368,3313.7299999999996,0.05023546339102322
369,3321.3700000000003,0.047024333233259843
370,3329.02,0.053287653036022946
371,3336.7000000000003,0.05307954272036552
372,3344.39,0.04945886236523457
373,3352.1,0.04566235193115661
374,3359.83,0.05543931141813161
375,3367.5699999999997,0.05059945086563311
376,3375.34,0.03719821019471407
377,3383.12,0.041667329484321516
378,3390.91,0.05248790873445544
379,3398.73,0.05039457786616884
380,3406.5699999999997,0.05403485691893521
381,3414.42,0.05235758593222808
382,3422.29,0.058920234866573905
383,3430.18,0.05452566372197272
384,3438.0899999999997,0.056092212498424505
385,3446.0099999999998,0.03683733123540278
386,3453.9599999999996,0.057613139853960514
387,3461.92,0.04730002843304474
388,3469.9,0.05095330693318194
389,3477.9,0.04420875535437212
390,3485.92,0.051736413696615274
391,3493.9500000000003,0.04561620199938491
392,3502.0099999999998,0.05133670018373401
393,3510.08,0.057109178328609594
394,3518.17,0.04989361639453817
395,3526.2799999999997,0.045538044381519704
396,3534.41,0.05710264228955422
397,3542.56,0.06515683011864172
398,3550.7300000000005,0.06284571786878218
399,3558.9100000000003,0.05749263557944914
400,3567.11,0.05406695321116907
401,3575.34,0.046054470724468465
402,3583.58,0.03825054819829434
403,3591.84,0.03917029559317319
404,3600.12,0.06341476290910504
405,3608.42,0.051823910146089835
406,3616.74,0.05608496730412762
407,3625.07,0.05497678442269189
408,3633.4300000000003,0.05814249142283562
409,3641.81,0.06851417834403233
410,3650.2000000000003,0.05372206522575553
411,3658.6200000000003,0.07523555198905818
412,3667.05,0.07477424871288733
413,3675.5,0.07657192535776947
414,3683.98,0.062003711884231046
415,3692.47,0.06542291837121912
416,3700.98,0.07414056477926016
417,3709.5099999999998,0.051810531108354194
418,3718.07,0.08178825731902768
419,3726.64,0.05420901349022766
420,3735.23,0.06044982958248061
421,3743.84,0.06572172559578653
422,3752.47,0.03873732153014544
423,3761.12,0.06114526738555732
424,3769.79,0.057904533162022175
425,3778.48,0.07244673885953999
426,3787.1899999999996,0.0828574044781108
427,3795.92,0.06334221001773457
428,3801.8939600000003,0.06367519886265625
429,3804.67,0.06382993776164216
430,3813.44,0.07539448035650073
431,3822.23,0.05632489288886184
432,3831.04,0.041600715358725476
433,3839.8700000000003,0.04087273776609165
434,3848.73,0.0633419400797116
435,3857.6,0.06237674236208283
436,3866.4900000000002,0.06673564458195658
437,3875.4,0.05244697673933285
438,3884.34,0.05728657880296292
439,3893.29,0.05412413083534426
440,3895.09,0.0676003052105718
441,3899.15,0.074412812523585
442,3903.2099999999996,0.0753685398365982
443,3907.27,0.08082883714961142
444,3911.33,0.07594695446262463
445,3915.3900000000003,0.07656792177563783
446,3919.45,0.06879282908865104
447,3923.51,0.05743946640166425
448,3927.57,0.04890087371467747
449,3931.6400000000003,0.039224230996441935
450,3935.7,0.04025788830945514
451,3939.7599999999998,0.04612157562246835
452,3943.82,0.06487906293548155
453,3947.8799999999997,0.06971567024849476
454,3951.94,0.07168548756150799
455,3956.0,0.0704533648745212
456,3960.0600000000004,0.0616938221875344
457,3964.12,0.05299925950054761
458,3968.18,0.04568257681356081
459,3972.2400000000002,0.05083118412657403
460,3976.2999999999997,0.059441421439587236
461,3980.36,0.07936576875260044
462,3984.42,0.08760875606561366
463,3988.48,0.09413513337862686
464,3992.54,0.10078218069164006
465,3996.6000000000004,0.10126346800465327
466,4000.66,0.09985897531766649
467,4004.72,0.1023391426306797
468,4008.78,0.10687682994369291
469,4012.8399999999997,0.10896311725670613
470,4016.9,0.10723740456971934
471,4020.96,0.10831349188273254
472,4025.0200000000004,0.10444517919574574
473,4029.08,0.10658086650875896
474,4033.14,0.10406855382177217
475,4037.2000000000003,0.09788928113478537
476,4041.2599999999998,0.10115282844779858
477,4045.32,0.1046340157608118
478,4049.38,0.103382303073825
479,4053.4399999999996,0.10164029038683821
480,4057.5,0.10521207769985141
481,4061.56,0.10354156501286463
482,4065.62,0.10021345232587783
483,4069.68,0.10034633963889104
484,4073.7400000000002,0.10041152695190425
485,4077.7999999999997,0.10558301426491747
486,4081.86,0.11299020157793067
487,4085.92,0.11509008889094388
488,4089.9799999999996,0.10970447620395708
489,4094.04,0.1068112635169703
490,4098.1,0.1040259508299835
491,4102.16,0.10007043814299671
492,4106.22,0.09857493545600993
493,4110.28,0.10662291276902314
494,4114.34,0.10593410008203634
495,4118.4,0.10666178739504956
496,4122.46,0.10865447470806276
497,4126.52,0.10432516202107597
498,4130.58,0.10478634933408919
499,4134.64,0.10695773664710238
500,4138.7,0.10339502396011559
501,4142.76,0.10387301127312881
502,4146.82,0.10366839858614202
503,4150.88,0.10019018589915522
504,4154.94,0.10688287321216842
505,4159.0,0.10355136052518164
506,4163.06,0.10762374783819485
507,4167.12,0.10762063515120807
508,4171.18,0.10521232246422127
509,4175.24,0.10273850977723449
510,4179.3,0.10464339709024768
511,4183.36,0.1049555844032609
512,4187.42,0.1061025717162741
513,4191.4800000000005,0.10681455902928733
514,4195.54,0.10543334634230053
515,4199.6,0.10520873365531373
516,4203.66,0.10468562096832694
517,4207.719999999999,0.10726330828134016
518,4211.78,0.10910919559435336
519,4215.84,0.10869328290736657
520,4219.9,0.10556617022037977
521,4223.96,0.10566705753339299
522,4228.02,0.1019455448464062
523,4232.08,0.10022583215941941
524,4236.14,0.1018349194724326
525,4240.2,0.10344400678544582
526,4244.26,0.10505259409845903
527,4248.32,0.10666168141147224
528,4252.38,0.10692186872448545
529,4256.4400000000005,0.11011335603749867
530,4260.5,0.10734094335051186
531,4264.56,0.10466283066352508
532,4268.62,0.10456501797653828
533,4272.679999999999,0.1047505052895515
534,4276.74,0.1042792926025647
535,4280.8,0.1039669799155779
536,4284.86,0.10329426722859111
537,4288.92,0.10114925454160434
538,4292.9800000000005,0.09340986185461754
539,4297.04,0.08364592916763075
540,4301.1,0.08765984648064395
541,4305.17,0.08678847376240843
542,4309.23,0.09494044107542164
543,4313.29,0.10063477838843485
544,4317.349999999999,0.10554936570144806
545,4321.41,0.11645445301446126
546,4325.47,0.11996444032747447
547,4329.53,0.11610652764048768
548,4333.59,0.1187167149535009
549,4337.650000000001,0.1170262022665141
550,4341.71,0.11688658957952731
551,4345.7699999999995,0.11538507689254052
552,4349.83,0.11750396420555373
553,4353.89,0.12288025151856694
554,4357.95,0.12279913883158014
555,4362.01,0.12703402614459336
556,4365.15832,0.12541852491338837
557,4366.070000000001,0.1249507179359979
558,4370.13,0.12186902519270712
559,4374.19,0.11267403244941633
560,4378.25,0.11189093970612556
561,4382.3099999999995,0.10976164696283477
