,lambda (Angstroms),Total Flux (erg/s/cm^2/Angstrom)
0,101.99,0.01166100541213446
1,103.89,0.013651202301715746
2,104.712855,0.014513119917920958
3,106.06,0.013335728787926299
4,108.03,0.011613968710737905
5,110.03999999999999,0.009857249142752662
6,113.91,0.006474908437785658
7,117.91,0.002978949157600987
8,120.22644299999999,0.0009544047089433059
9,120.94000000000001,0.0009255488780388741
10,124.89999999999999,0.0007654052247034818
11,126.92999999999999,0.0006833113897132953
12,128.1,0.0006359963473821335
13,131.09,0.0005150800573809423
14,132.0,0.00047828142200492796
15,134.14000000000001,0.0003917396243405633
16,136.95000000000002,0.00027810678353693577
17,138.038426,0.00023409118156636897
18,140.14000000000001,0.000231092098314516
19,143.07999999999998,0.0002269422117585768
20,147.08,0.0002213315215885235
21,150.86,0.00021596618009517312
22,155.07999999999998,0.00020997874630841694
23,158.489319,0.0002051492909062613
24,159.06,0.0002039036193522664
25,162.02,0.00019744497070863396
26,166.17,0.00018839731397043313
27,170.04999999999998,0.00017994316350242848
28,172.81,0.0001739395493293117
29,176.83,0.000165191670561946
30,180.12,0.0001580308544769627
31,181.970086,0.00015400861024512835
32,182.21,0.00015418293696633565
33,186.02,0.0001569642490891419
34,190.79,0.0001604559068216316
35,193.89,0.00016273401740081778
36,197.95,0.0001657139943896874
37,202.1,0.00016877317792633989
38,204.91,0.00017085764168489254
39,208.929613,0.00017378392967389069
40,210.17000000000002,0.00017913047049165353
41,216.04999999999998,0.00020463940670148613
42,220.07,0.00022205564377351467
43,223.13,0.00023528726409699903
44,226.76000000000002,0.0002510598888336816
45,229.91,0.00026562744669609195
46,234.19,0.0002859998346583511
47,239.88329199999998,0.00031204807640446776
48,240.19,0.00031105247877366197
49,245.79,0.0002913498968468333
50,252.08999999999997,0.00027003440030415104
51,256.78,0.000252574336577932
52,259.75,0.00024345046873638172
53,263.98,0.00022928482138629495
54,268.88,0.00021243538207531997
55,273.88,0.00019516107724779435
56,275.42287,0.0001898333550239805
57,278.97,0.00020349455476646814
58,284.16,0.00022356658057819454
59,290.11,0.0002460338946590754
60,296.19,0.00026962229081231164
61,301.0,0.00028790036748946074
62,308.01,0.0003151300223141625
63,316.227766,0.0003470158309270448
64,318.09999999999997,0.0003420464084012441
65,327.77,0.00031614622358472013
66,337.72999999999996,0.0002892812636909686
67,347.98999999999995,0.0002615078019931884
68,356.91,0.00023764823168673585
69,363.078055,0.00022132286360046486
70,366.07,0.00022812075582493978
71,374.6,0.0002470070608819985
72,385.09000000000003,0.00026950073581148796
73,394.96999999999997,0.000292359347413333
74,405.09999999999997,0.00031531234726421266
75,413.58,0.0003340782646714644
76,416.86938299999997,0.00034124503445096086
77,422.23999999999995,0.000348314227147518
78,430.09,0.0003588168323412839
79,441.13,0.0003743309849577395
80,451.4,0.00038826016405837325
81,459.78999999999996,0.00039944205938011786
82,470.5,0.00041442324191836417
83,478.630092,0.00042631457806251123
84,480.36,0.00042367261859117437
85,490.42,0.0004074833877655766
86,499.53,0.00039462213833007
87,506.47999999999996,0.00040630452131834994
88,512.35,0.000591824300518523
89,519.47,0.0006000401210475232
90,530.35,0.0006068992636536362
91,540.21,0.0005828023210154259
92,549.5408739999999,0.000729869504547112
93,550.26,0.0007420266679903424
94,560.48,0.0008535684952271773
95,569.59,0.0009531040220498352
96,580.18,0.0009194676827580623
97,589.61,0.0011252565466370594
98,600.5699999999999,0.0011791246408166787
99,610.3299999999999,0.0014059172210350258
100,620.25,0.0015907656697815426
101,630.32,0.001746496307773218
102,630.957344,0.0017476707160735973
103,640.57,0.0017778437999885332
104,649.48,0.0020656322634670784
105,658.5100000000001,0.002243087026117052
106,664.61,0.002389810400664653
107,675.4,0.0024374388844955737
108,684.8,0.0024494289862574503
109,694.3299999999999,0.003208634828788375
110,705.61,0.0031047169509026275
111,715.42,0.003760085158166884
112,724.43596,0.003937225083753559
113,725.3800000000001,0.0039554701828663445
114,735.47,0.004149394326451536
115,745.6999999999999,0.004753274746558228
116,754.33,0.005129490720704928
117,764.8299999999999,0.005501942459817367
118,775.47,0.006045807475451305
119,784.45,0.006587281640901754
120,795.3599999999999,0.0069017119755414415
121,804.57,0.007262859523848638
122,815.76,0.007576979411531324
123,825.2099999999999,0.008389485576732518
124,831.763771,0.007390367995418712
125,834.76,0.006929560829059619
126,844.4300000000001,0.008916327033838139
127,854.2099999999999,0.009249698704234616
128,864.1,0.010011220840249049
129,874.11,0.010815317211483069
130,884.23,0.011846486048335046
131,894.47,0.012577134120406612
132,904.82,0.012624680658096134
133,915.3,0.020105577200606878
134,925.9000000000001,0.1479676029783372
135,934.47,0.33244539252693617
136,945.29,0.6465009052359024
137,954.03,0.9278947378677291
138,954.992586,0.9383850001314279
139,965.0799999999999,1.0483254776637803
140,974.01,0.15959847482544995
141,985.2900000000001,0.8861549291349277
142,994.41,0.9495178985766329
143,1005.92,1.4108045193303642
144,1015.23,1.3628911610521053
145,1024.62,0.5775125911022819
146,1034.1,0.9451354080219494
147,1046.0800000000002,1.8553996602052423
148,1055.76,1.8215532479459995
149,1065.53,1.4303798225562476
150,1075.3799999999999,1.7236643854949316
151,1085.3400000000001,1.350390932385215
152,1095.3799999999999,1.8215774676039345
153,1096.4782,1.8126906686461124
154,1105.51,1.7396011832501515
155,1115.74,1.6651555119914507
156,1126.07,1.4909057950703972
157,1133.8700000000001,1.9250352334068714
158,1144.36,1.7435824434260534
159,1154.95,1.8639786077828824
160,1165.64,1.9294357264773583
161,1173.72,1.3166140369592447
162,1184.58,1.8855350780277207
163,1195.54,1.2895940734338438
164,1203.83,0.9087792880247892
165,1214.97,0.6060283012386771
166,1226.21,1.2777420687902123
167,1234.71,1.9652801874902164
168,1246.13,2.1548889728495166
169,1254.77,2.0484540276222267
170,1258.92541,1.9450901540160996
171,1266.38,1.7596643722843615
172,1275.1599999999999,2.266828657452908
173,1283.9999999999998,2.3627329445702143
174,1295.88,1.834099330424694
175,1304.86,1.838330622089107
176,1313.9,2.30900591570228
177,1326.06,2.189886310650973
178,1335.25,1.9338936091360461
179,1344.5099999999998,2.3089669098946723
180,1353.83,2.235717212602059
181,1366.3600000000001,1.988030619568105
182,1375.8300000000002,2.0864899271473916
183,1385.36,2.1106732366754377
184,1394.97,1.8131215488018306
185,1404.64,1.8942138628769838
186,1414.3700000000001,1.9472701789008968
187,1424.1799999999998,1.9971794975231565
188,1434.05,1.9971998180941761
189,1440.67,2.100986033107363
190,1445.43977,2.11842704927744
191,1447.32,2.1253022392805754
192,1454.0,2.06262242137451
193,1464.0800000000002,1.9029686961509868
194,1474.23,1.902958972835633
195,1484.4399999999998,1.9294122511558538
196,1494.73,1.95626953165684
197,1505.0900000000001,1.8341238140659961
198,1512.04,1.6271840035200151
199,1515.53,1.7435390986559183
200,1526.03,1.7038563848814146
201,1536.61,1.4771876732876765
202,1543.7,1.6048668665580352
203,1554.3999999999999,1.5220911582354457
204,1565.1799999999998,1.5647024520936217
205,1576.03,1.661222747859968
206,1583.3,1.7355409460370497
207,1594.28,1.7637122453471399
208,1605.3300000000002,1.7395215465654004
209,1616.46,1.7515858499644261
210,1623.92,1.6650910533208263
211,1635.1699999999998,1.771857359991001
212,1646.51,1.7882316691145368
213,1654.1100000000001,1.6727778762872771
214,1659.58691,1.7378753543821768
215,1665.5700000000002,1.8089902166484577
216,1673.26,1.6536187475086295
217,1677.12,1.8047855159247888
218,1684.86,1.8725540567385377
219,1696.54,1.7637243818941695
220,1704.3700000000001,1.6921539406243575
221,1716.1799999999998,1.5864942916592901
222,1724.1100000000001,1.5792038702966327
223,1736.0600000000002,1.6766142492015814
224,1744.0700000000002,1.6346908437646472
225,1756.1599999999999,1.731570250539612
226,1764.27,1.6085708650098325
227,1776.49,1.6234762976640977
228,1784.6999999999998,1.6612479320414726
229,1797.0700000000002,1.7516193945564695
230,1805.3600000000001,1.751625044859568
231,1813.69,1.5938287031255278
232,1826.2700000000002,1.646032207445549
233,1834.7,1.5792158856186636
234,1843.16,1.4536055697639243
235,1855.94,1.4369701138982542
236,1864.51,1.4772228199413846
237,1873.1100000000001,1.6197535319566616
238,1886.1,1.4670571178960157
239,1894.8000000000002,1.388214849818447
240,1903.55,1.5012265916944554
241,1905.46072,1.4900167387118952
242,1916.74,1.4238380777398865
243,1925.5900000000001,1.3914218067817878
244,1934.48,1.463692525559472
245,1943.41,1.5012142340729389
246,1956.88,1.3881957775977312
247,1965.9099999999999,1.5256194604506546
248,1974.99,1.5756021304733059
249,1984.1000000000001,1.4772167927977944
250,1993.26,1.4369504422920112
251,2007.08,1.4943238960049015
252,2016.3400000000001,1.4402845198385745
253,2025.6499999999999,1.522110130841976
254,2034.9999999999998,1.4140037315811602
255,2044.39,1.460282322056127
256,2053.83,1.401020899700822
257,2063.31,1.4139904670812995
258,2072.83,1.5011980241975595
259,2077.61,1.394590797623581
260,2087.2,1.4569343367774608
261,2096.83,1.375438865667123
262,2106.51,1.4042283817265135
263,2116.23,1.413983887521687
264,2126.0,1.4336223804865882
265,2135.82,1.356545860621218
266,2145.6800000000003,1.3596713304916304
267,2155.58,1.4139727900978252
268,2165.5299999999997,1.3817562368737484
269,2175.52,1.3691136733854543
270,2185.57,1.328721094500834
271,2187.7616199999998,1.3409518589763716
272,2195.65,1.3849781459996888
273,2205.79,1.353443220538168
274,2215.97,1.3044853032602302
275,2226.2000000000003,1.2573053962117726
276,2236.48,1.3165594993927945
277,2246.7999999999997,1.2747996107574002
278,2257.17,1.2315237323514854
279,2267.5899999999997,1.2602048641750505
280,2272.81,1.280706932132729
281,2283.3,1.2985280782775654
282,2293.84,1.2344682346518818
283,2304.4300000000003,1.2293924012556776
284,2315.0699999999997,1.1800145780889533
285,2325.76,0.9508730651517087
286,2336.49,1.1202729603980475
287,2347.27,1.1054341658738664
288,2352.69,1.1498402747494636
289,2363.55,1.0935484965924498
290,2374.46,1.1067727286649156
291,2385.41,1.059933968920965
292,2396.43,1.1129562234982864
293,2407.49,1.0658654862591912
294,2413.04,1.0834776217314355
295,2424.17,1.1117898988136121
296,2435.36,1.0672191881711641
297,2446.6099999999997,1.115491489804092
298,2452.25,1.0954026436893995
299,2463.56,1.0909329575977027
300,2474.94,1.0592872858272777
301,2486.36,1.0945616222404362
302,2497.84,1.0243999709289706
303,2503.6000000000004,1.1055401493650294
304,2511.88643,1.0529922471256663
305,2515.15,1.0322955862678143
306,2526.76,1.0280656669699122
307,2532.58,1.030709206133238
308,2544.2799999999997,1.0054452797089954
309,2556.02,1.0461563501174906
310,2567.82,1.0346874157750925
311,2573.74,1.073811947020262
312,2585.6200000000003,1.0645380063433392
313,2597.55,1.0601860617073382
314,2603.54,1.0291945874097987
315,2615.56,1.0226866356474573
316,2627.63,1.0374496799260382
317,2633.69,1.0425322000857895
318,2645.8399999999997,1.0822342380298455
319,2658.06,1.0778322704311922
320,2664.18,1.0248857858400502
321,2676.48,1.0517198119068722
322,2682.6499999999996,1.0423723233566522
323,2695.0299999999997,1.0145113430889496
324,2707.4700000000003,1.0221143580703533
325,2713.7099999999996,0.9968163639774242
326,2726.24,0.9973836718324877
327,2732.52,1.0256083745722961
328,2745.14,0.9489009753010192
329,2757.81,0.9516233720706645
330,2764.17,0.965124868475948
331,2776.92,0.9927448589110686
332,2783.33,0.9816331513572742
333,2796.17,0.8713793346660544
334,2802.62,0.9148139239449977
335,2815.55,0.9853001001274376
336,2822.04,0.9833057862391186
337,2835.07,0.9439333545034024
338,2848.1600000000003,0.9336813180167928
339,2854.7200000000003,0.9339299985857646
340,2867.9,0.9584511549728146
341,2874.51,0.9434012315827085
342,2884.0315,0.9453537843209037
343,2887.7799999999997,0.9461227715811669
344,2894.4399999999996,0.935547160788847
345,2907.7999999999997,0.9601157391393884
346,2927.9500000000003,0.9390912064869491
347,2948.25,0.9248925735914396
348,2968.6800000000003,0.9235987404852691
349,2989.26,0.9159474071360283
350,3009.98,0.914687473559922
351,3030.85,0.9091973397407455
352,3051.86,0.8995935056947032
353,3073.0099999999998,0.8901229714217955
354,3087.19,0.8825193484435528
355,3108.59,0.8712122137655279
356,3130.1400000000003,0.8620605788444328
357,3151.84,0.8569349436802673
358,3166.39,0.8457056201024514
359,3188.34,0.8234217845331689
360,3210.44,0.8280159487208161
361,3232.6899999999996,0.8155738126653931
362,3247.61,0.8142319884880037
363,3270.1200000000003,0.8131315520112589
364,3292.79,0.804633715275239
365,3307.9900000000002,0.7995855906441185
366,3311.31121,0.8029380716209448
367,3323.26,0.8149990151231669
368,3330.92,0.8041013778384701
369,3338.6,0.7896651399342309
370,3346.29,0.7899517017202206
371,3354.01,0.7722164625768969
372,3361.74,0.783194723123802
373,3369.49,0.7621289830511647
374,3377.26,0.7553749423589854
375,3385.0400000000004,0.7821786013570348
376,3392.85,0.7842498594257707
377,3400.67,0.8009264171847355
378,3408.5,0.7633889746339292
379,3416.36,0.7742902311538095
380,3424.2400000000002,0.7835195870541474
381,3432.13,0.7873848426447141
382,3440.04,0.7786419976157387
383,3447.9700000000003,0.757693551967221
384,3455.92,0.7458191056991609
385,3463.89,0.7358518588115586
386,3471.8700000000003,0.741180911614185
387,3479.88,0.7380462634874981
388,3487.9,0.74170781505104
389,3495.94,0.7488263659950396
390,3504.0,0.7336938163194969
391,3512.0800000000004,0.730603866024412
392,3520.17,0.7358923154195559
393,3528.29,0.7361737638853864
394,3536.42,0.7449596120414457
395,3544.57,0.7434965595779628
396,3552.75,0.7489025061851664
397,3560.93,0.74744355279237
398,3569.14,0.7256407984702602
399,3577.3700000000003,0.699653043528608
400,3585.62,0.6918818879674136
401,3593.8799999999997,0.6953435320964481
402,3602.17,0.7117713752961692
403,3610.4700000000003,0.708762418186119
404,3618.79,0.7139282604565266
405,3627.14,0.7409710017976207
406,3635.5,0.7260455428289437
407,3643.88,0.7313333832407244
408,3652.2799999999997,0.7182341230329629
409,3660.7000000000003,0.730151162205659
410,3669.1400000000003,0.7220582007588128
411,3677.59,0.7157180390021955
412,3678.15,0.6859832216550114
413,3680.89,0.6641026367777177
414,3683.63,0.6746366519004241
415,3686.37,0.6995678670231305
416,3689.1099999999997,0.6830965821458367
417,3691.85,0.6833814972685431
418,3694.5899999999997,0.7042865123912494
419,3697.33,0.7053849275139558
420,3700.08,0.687079542326891
421,3702.82,0.6638162574495974
422,3705.56,0.6818742725723037
423,3708.2999999999997,0.69724808769501
424,3711.04,0.6977770028177164
425,3713.7799999999997,0.7680969179404227
426,3716.52,0.980357533063129
427,3719.2599999999998,1.5702870481858353
428,3721.9999999999995,2.7922799633085416
429,3724.7400000000002,4.084716878431248
430,3727.48,4.312474793553954
431,3730.23,3.2620147083668893
432,3732.97,1.9452646234895958
433,3735.71,1.1213605386123022
434,3738.45,0.8453290537350086
435,3741.1899999999996,0.7891225688577149
436,3743.93,0.7638662839804213
437,3746.6699999999996,0.7204302991031277
438,3749.4100000000003,0.7158348142258341
439,3752.15,0.7293377293485405
440,3754.8900000000003,0.7821693444712466
441,3757.63,0.827070159593953
442,3760.3799999999997,0.8334513744068883
443,3763.12,0.8164512895295946
444,3765.8599999999997,0.755730304652301
445,3768.6,0.7043636197750073
446,3771.34,0.7401540348977136
447,3774.0800000000004,0.80396665002042
448,3776.82,0.8399605651431263
449,3779.56,0.8905552802658326
450,3782.3,0.8930771953885389
451,3785.04,0.8770940105112454
452,3787.78,0.8726205256339516
453,3790.5299999999997,0.8303188404468869
454,3793.2700000000004,0.7798469555695932
455,3796.01,0.7520691706922996
456,3798.75,0.725023485815006
457,3801.4900000000002,0.7767568009377123
458,3801.8939600000003,0.7876637673964634
459,3804.23,0.8507371311382735
460,3806.9700000000003,0.8843314639461748
461,3809.71,0.913004796754076
462,3812.45,0.9319983295619771
463,3815.19,0.9369198623698785
464,3817.94,0.897220894932553
465,3820.6800000000003,0.8660269277404542
466,3823.42,0.8621635605483554
467,3826.1600000000003,0.8460176933562565
468,3828.9,0.7760238261641578
469,3831.64,0.7403966589720591
470,3834.38,0.7369805917799602
471,3837.12,0.7560146245878615
472,3839.86,0.7941640573957627
473,3842.6,0.8222272902036638
474,3845.3399999999997,0.8764417230115651
475,3848.09,0.8903061555742396
476,3850.83,0.9297569883821409
477,3853.57,0.9435852211900422
478,3856.31,0.9653853539979433
479,3859.05,0.9688019868058446
480,3861.79,1.0189090196137458
481,3864.5299999999997,1.108384952421647
482,3867.27,1.1549118852295481
483,3870.0099999999998,1.0868708180374493
484,3872.75,0.9884479508453506
485,3875.49,0.9237410836532518
486,3878.2400000000002,0.8948199162159263
487,3880.98,0.8640327490238275
488,3883.72,0.8548414818317288
489,3886.46,0.90860841463963
490,3889.2,0.8826202474475312
491,3891.94,0.8287319802554325
492,3894.68,0.8550462130633337
493,3897.4199999999996,0.8598863458712348
494,3900.16,0.876521078679136
495,3902.9,0.8966127114870373
496,3905.6400000000003,0.9133288442949384
497,3908.39,0.9258102768576131
498,3911.13,0.9409402096655143
499,3913.87,0.9572494424734156
500,3916.6099999999997,0.9105192752813166
501,3919.35,0.9015719080892178
502,3922.0899999999997,0.9087304408971191
503,3924.8300000000004,0.8757061737050204
504,3927.57,0.8424379065129216
505,3930.3100000000004,0.8375577393208228
506,3933.05,0.856347972128724
507,3935.79,0.8723319049366252
508,3938.54,0.8987230374992997
509,3941.2799999999997,0.907304870307201
510,3944.0199999999995,0.9062884031151022
511,3946.76,0.8955110359230034
512,3949.5000000000005,0.8979923687309046
513,3952.2400000000002,0.9138543015388059
514,3954.98,0.883188934346707
515,3957.7200000000003,0.8470330671546082
516,3960.46,0.8103483999625094
517,3963.2000000000003,0.8231193327704106
518,3965.94,0.8395912655783119
519,3968.69,0.8810712981409865
520,3971.4300000000003,0.7965175309488876
521,3974.17,0.7928980637567888
522,3976.9100000000003,0.7802904965646901
523,3979.65,0.8332847293725912
524,3982.39,0.8665943621804925
525,3985.13,0.8780637949883937
526,3987.87,0.9036866277962949
527,3990.61,0.892827860604196
528,3993.35,0.9375660934120973
529,3996.1000000000004,0.9362602259747719
530,3998.84,0.9238560587826732
531,4001.58,0.9155596915905744
532,4004.32,0.9030334243984756
533,4007.06,0.9147469572063768
534,4009.8,0.9226373900142779
535,4012.54,0.9136903228221792
536,4015.2799999999997,0.9326431556300804
537,4018.02,0.9050686884379816
538,4020.7599999999998,0.9170263212458828
539,4023.5,0.913935754053784
540,4026.25,0.9378051866164586
541,4028.9900000000002,0.9037235194243598
542,4031.73,0.900673552232261
543,4034.47,0.9190569850401622
544,4037.21,0.9023011178480634
545,4039.95,0.9218639506559647
546,4042.69,0.9204002834638659
547,4045.43,0.9237762162717672
548,4048.1699999999996,0.9132429490796683
549,4050.91,0.9091761818875694
550,4053.6499999999996,0.9039301146954707
551,4056.4,0.9356490472581453
552,4059.14,0.9022180800660465
553,4061.88,0.9369105128739478
554,4064.62,0.9364633456818489
555,4067.3599999999997,0.9508610784897501
556,4070.1,0.9145019112976513
557,4072.8399999999997,0.8877816441055526
558,4075.58,0.9149092769134538
559,4078.3199999999997,0.904986009721355
560,4081.0600000000004,0.8918497425292562
561,4083.8,0.8929481753371573
562,4086.5499999999997,0.8559746078998319
563,4089.29,0.8504437407077332
564,4092.0299999999997,0.8192089735156344
565,4094.77,0.8384872063235357
566,4097.51,0.9105153391314369
567,4100.25,0.9757919719393381
568,4102.990000000001,0.9538707047472392
569,4105.7300000000005,0.8513810375551405
570,4108.47,0.7913918703630417
571,4111.21,0.8281180031709429
572,4113.95,0.8246612359788441
573,4116.7,0.8536556685415188
574,4119.44,0.8662639013494199
575,4122.179999999999,0.848531834157321
576,4124.92,0.8418622669652223
