,lambda (Angstroms),Total Flux (erg/s/cm^2/Angstrom)
0,101.98,0.0031407115436367164
1,104.11999999999999,0.0037450173827843695
2,104.712855,0.003912447727187799
3,106.05,0.0035975673357168617
4,108.03,0.0031313612539277127
5,110.03,0.0026606694316831194
6,113.9,0.0017496973128043295
7,117.9,0.0008082448267151425
8,120.22644299999999,0.0002666487283582006
9,120.92999999999999,0.0002609290559115245
10,124.89,0.0002209692410392519
11,126.92,0.00020028427230422334
12,128.09,0.00018859682791014278
13,131.08,0.00015821916223638136
14,131.99,0.000152041326596541
15,134.13,0.00013047620300394943
16,136.94,0.00010713730800620045
17,138.038426,9.639686040210169e-05
18,140.13,9.793881231250792e-05
19,143.06,0.0001644699390484355
20,147.07,0.00032639030775528515
21,150.84,0.0003499939693574855
22,155.07,0.0003794717445769304
23,158.489319,0.0004077372425225973
24,159.04999999999998,0.0004122562666034408
25,162.0,0.0004361485491374104
26,166.16,0.0004764211197615843
27,170.03,0.0005098942246451307
28,173.19,0.0005398659927154168
29,176.82,0.00057667595698603
30,180.10999999999999,0.0006049280303883214
31,181.970086,0.0006239344296576575
32,182.19,0.0006263534535313615
33,186.01,0.0006703430667632113
34,191.22,0.0007272034578464408
35,193.88,0.000768227072295844
36,197.94,0.0008137892680344067
37,202.08,0.0008676678912752072
38,204.89000000000001,0.0009070226572913061
39,208.929613,0.0009247531855702408
40,210.14999999999998,0.0009312880413849028
41,216.04000000000002,0.0010572951060950422
42,220.05,0.0011238623425106039
43,223.11,0.0011547574555858208
44,226.74,0.0012262284426652443
45,229.89,0.0018414995884779677
46,234.17000000000002,0.0030966379231060484
47,239.88329199999998,0.003806652064298862
48,240.17,0.003841678024202004
49,245.77,0.0036751887028752873
50,252.07,0.0039358848413827315
51,256.76,0.0033635100222716065
52,259.73,0.0038754219875679727
53,263.95,0.004078778702568197
54,268.86,0.00410178539940495
55,273.86,0.004106426398220383
56,275.42287,0.0041078180282679445
57,278.95,0.00411790293594506
58,284.14,0.004141944123127674
59,290.09,0.0039820659311693984
60,296.16,0.004070434731978351
61,300.96999999999997,0.004038565608731409
62,307.98,0.004101116019550315
63,316.227766,0.004178224505280225
64,318.07,0.004192202956969762
65,327.73999999999995,0.004175402324372339
66,337.7,0.004130362747260617
67,347.96,0.004067063779272038
68,356.88,0.004032944623866761
69,363.078055,0.004028275872554702
70,366.03999999999996,0.004029971685819939
71,375.43,0.003971963760681936
72,385.06,0.003801669313495676
73,394.94,0.003876863155842483
74,405.07,0.0038564442877223573
75,413.55,0.0037925235086839894
76,416.86938299999997,0.003762113525396081
77,422.21000000000004,0.003711944805074592
78,430.06,0.0036485130072056227
79,441.09000000000003,0.0036034170377158476
80,451.36,0.003511391065217209
81,459.76000000000005,0.0034367480458414963
82,470.46,0.003364457009255767
83,478.630092,0.0033302976270276293
84,480.32,0.003321870227520152
85,490.36999999999995,0.00320092754460832
86,499.49,0.003175416041309224
87,506.44,0.0031021786237731813
88,512.3,0.0032341055350305604
89,519.4300000000001,0.0031804078246662456
90,530.3100000000001,0.0030843336803796054
91,540.1700000000001,0.0029448358621198376
92,549.5408739999999,0.002909916185829597
93,550.21,0.002907629096026526
94,560.4399999999999,0.0029390058464457084
95,569.54,0.002957640743690534
96,580.13,0.0028514389252095123
97,589.5600000000001,0.002862984717629151
98,600.52,0.0027540888422229186
99,610.28,0.0025106385298173687
100,620.1899999999999,0.002801115897036734
101,630.27,0.0027496729678310023
102,630.957344,0.0027487393655516138
103,640.51,0.002739101731511863
104,649.42,0.0027348168717464217
105,658.46,0.002699928086978791
106,664.55,0.002737758600337765
107,675.35,0.0027094098309251085
108,684.7399999999999,0.0025984552480746597
109,694.27,0.0027808577459910843
110,705.5500000000001,0.0026317922534934207
111,715.36,0.0028101789129435914
112,724.43596,0.002806208404596207
113,725.3199999999999,0.0028057452293449615
114,735.41,0.002806889720445638
115,745.6400000000001,0.0028779771886279894
116,754.27,0.0029114100615912045
117,764.76,0.0028102712014966653
118,775.4,0.00301978145970392
119,784.3799999999999,0.0030479012753713212
120,795.2900000000001,0.003111134346521805
121,804.4999999999999,0.003168315410251957
122,815.69,0.00320528143556579
123,825.14,0.003352937888578812
124,831.763771,0.0030484780684465456
125,834.69,0.002912912786334228
126,844.36,0.0033959749744603895
127,854.14,0.0034316527955435185
128,864.03,0.0035868852495836157
129,874.03,0.0037410593365806806
130,884.15,0.00393744256862171
131,894.3900000000001,0.004079562945706704
132,904.75,0.004067827467835663
133,915.22,0.005673165622921589
134,925.8199999999999,0.030914224435138478
135,934.39,0.06692617229369496
136,945.2099999999999,0.1274631303718258
137,953.9499999999999,0.1816814559358612
138,954.992586,0.18359584676873827
139,965.0,0.2019735030214968
140,973.93,0.03273235186130921
141,985.2099999999999,0.16531860829054593
142,994.32,0.17795525005210147
143,1005.84,0.2656138970436624
144,1015.14,0.2566003313337246
145,1024.54,0.11025166169142185
146,1034.02,0.1751065889032272
147,1045.99,0.3437422181991459
148,1055.6699999999998,0.3359077375462214
149,1065.43,0.26077045374740493
150,1075.29,0.31278666601622357
151,1085.24,0.24280987474591378
152,1095.28,0.32827797993647556
153,1096.4782,0.32661648790171927
154,1105.42,0.3142165322987687
155,1115.6499999999999,0.30008277323228005
156,1125.97,0.2680663030889602
157,1133.78,0.34611184186615696
158,1144.27,0.31277225079993354
159,1154.8500000000001,0.33361104865687874
160,1165.54,0.3429294329754747
161,1176.32,0.23401790621723934
162,1184.48,0.33205360191787003
163,1195.44,0.22555145300597215
164,1203.72,0.16191083393749453
165,1214.86,0.11332406287193406
166,1226.1,0.22658927949878327
167,1234.6,0.3437207333536069
168,1246.03,0.37774592659603456
169,1254.6599999999999,0.35990716445099086
170,1258.92541,0.341265401695842
171,1266.27,0.30916720377861034
172,1275.0500000000002,0.4019831806414397
173,1283.89,0.42090545802952756
174,1295.77,0.33052136203071353
175,1304.75,0.32673034064440454
176,1313.79,0.4113335197833542
177,1325.9499999999998,0.3937402262357465
178,1335.1399999999999,0.3477036066878424
179,1344.4,0.4160885877527399
180,1353.7099999999998,0.4028957692553528
181,1366.24,0.3591019789468393
182,1375.71,0.3777503618501416
183,1385.25,0.38211794536624544
184,1394.85,0.3275090294076078
185,1404.52,0.3358880140617718
186,1414.25,0.35581249924119435
187,1424.06,0.3649098851209615
188,1433.9299999999998,0.3649103715259872
189,1440.55,0.38388682947951003
190,1445.43977,0.3891456579106138
191,1447.1899999999998,0.39102798514570775
192,1453.87,0.3794951342263487
193,1463.95,0.3517189082881542
194,1474.1000000000001,0.35254818286427775
195,1484.3200000000002,0.36073615795471947
196,1494.6100000000001,0.36745743355947924
197,1504.97,0.34930800967855713
198,1511.9099999999999,0.3142031606695224
199,1515.4,0.335118686311953
200,1525.9,0.3259875634596671
201,1536.48,0.28460284119517326
202,1543.57,0.30145209328824873
203,1554.2700000000002,0.289221971905443
204,1565.05,0.3021390511104295
205,1575.89,0.32300363075626
206,1586.82,0.3390185110633566
207,1594.14,0.3461012648463344
208,1605.19,0.3397943460351192
209,1616.32,0.34134392781169615
210,1623.78,0.3275114826233101
211,1635.0300000000002,0.3477068652815752
212,1646.3700000000001,0.35254794860110633
213,1653.9699999999998,0.3335970044413565
214,1659.58691,0.34649167718879736
215,1665.43,0.35990585923195445
216,1673.12,0.3244946718519493
217,1676.9800000000002,0.3666001789667972
218,1684.72,0.37860619426962694
219,1696.4,0.35990812097984026
220,1704.2199999999998,0.3493158405752057
221,1716.04,0.3328260747973566
222,1723.96,0.33205059975839163
223,1735.9099999999999,0.35415704095591294
224,1743.9199999999998,0.34851217074605073
225,1756.01,0.3682943194555096
226,1764.1200000000001,0.344528654611317
227,1776.34,0.3501222102961463
228,1784.54,0.35828155028105635
229,1796.9099999999999,0.3777585140143902
230,1805.2099999999998,0.3768986593649699
231,1813.54,0.35415990632525046
232,1826.11,0.36074448078992355
233,1834.54,0.3517270331158738
234,1843.01,0.3305332875880918
235,1855.78,0.3336074727841042
236,1864.35,0.3429314326219919
237,1872.9499999999998,0.3640959940695805
238,1885.94,0.34135449107006605
239,1894.6399999999999,0.3328342578833242
240,1903.39,0.3501251273794173
241,1905.46072,0.3486270827718695
242,1916.58,0.3405815694326559
243,1925.4299999999998,0.3336090573305605
244,1934.31,0.34691474315354276
245,1943.24,0.359113825518321
246,1956.71,0.3390287938781826
247,1965.74,0.366612869326553
248,1974.82,0.37601354131671955
249,1983.93,0.3615743112319637
250,1993.09,0.3549881776890039
251,2006.91,0.36491852184143797
252,2016.1699999999998,0.35828038138207036
253,2025.48,0.3708655374644988
254,2034.82,0.3558169914720049
255,2044.22,0.3666036413296663
256,2053.65,0.32900788911240525
257,2063.13,0.34134713343694034
258,2072.65,0.3786125749949123
259,2077.4300000000003,0.3657727443906167
260,2087.02,0.3777519811071031
261,2096.66,0.36325231436538563
262,2106.33,0.36659984554874575
263,2116.06,0.37257197258226116
264,2125.8199999999997,0.3760057975408543
265,2135.63,0.3615645190412435
266,2145.49,0.3665990370834286
267,2155.4,0.37774405166741
268,2165.34,0.3674554641764689
269,2175.34,0.3691422725356831
270,2185.38,0.3649086781283342
271,2187.7616199999998,0.36813996340062743
272,2195.47,0.3785993384767069
273,2205.6,0.37342949708545164
274,2215.7799999999997,0.3599013584513965
275,2226.0099999999998,0.35660902257454147
276,2236.2799999999997,0.3717171889034465
277,2246.61,0.3632480585409917
278,2256.98,0.351714530384297
279,2267.39,0.3591037044333625
280,2272.62,0.36491299283649525
281,2283.1099999999997,0.37083247129708086
282,2293.65,0.3540975525148666
283,2304.24,0.3581079364898524
284,2314.87,0.3498934226705983
285,2325.56,0.3082290121599844
286,2336.29,0.33711280385513065
287,2347.08,0.331661498858917
288,2352.4900000000002,0.34565929718797017
289,2363.3399999999997,0.33003289550039666
290,2374.25,0.3345434971214633
291,2385.21,0.31722370149973006
292,2396.22,0.3321084086351969
293,2407.28,0.3259954185278639
294,2412.83,0.33125082457707744
295,2423.97,0.34439233888126464
296,2435.1600000000003,0.33650855594265194
297,2446.4,0.3474367757612394
298,2457.69,0.34497499833702694
299,2463.35,0.34337201045208077
300,2474.73,0.3370370379908285
301,2486.15,0.33617966773533636
302,2497.62,0.3023479002370444
303,2503.38,0.34547641786649846
304,2511.88643,0.3241419363527077
305,2514.94,0.3164832217752522
306,2520.73,0.32757759820402543
307,2526.54,0.3230412742059551
308,2532.37,0.32824044978104105
309,2544.0600000000004,0.32591540029094773
310,2555.7999999999997,0.3411876497337453
311,2567.6,0.3341314978960121
312,2573.5200000000004,0.34503197155030185
313,2585.3900000000003,0.34179621821861594
314,2597.33,0.3378106633929774
315,2603.32,0.3323611355533145
316,2615.33,0.32848867923372327
317,2627.41,0.3383907214201794
318,2633.46,0.35026179229998566
319,2645.6200000000003,0.36666473277906736
320,2657.83,0.38033147219103997
321,2663.95,0.35086844157689356
322,2676.25,0.35894667906806993
323,2682.4199999999996,0.3638987473868145
324,2694.8,0.3474378831706164
325,2707.2400000000002,0.3570927176738874
326,2713.4799999999996,0.3425408844986793
327,2726.0099999999998,0.3385541170811541
328,2732.29,0.34480868305225876
329,2744.9,0.32245481392735914
330,2757.5699999999997,0.32837444352192857
331,2763.93,0.3367566077856588
332,2776.69,0.34452953545943205
333,2783.0899999999997,0.32898129886947497
334,2795.93,0.2951762248358737
335,2802.3799999999997,0.30621398717880766
336,2815.32,0.33954891101098833
337,2821.7999999999997,0.3530511727136569
338,2834.83,0.34414169462504124
339,2847.9100000000003,0.33468121546931656
340,2854.48,0.3225355752511888
341,2867.6600000000003,0.3471002939612461
342,2874.27,0.3559798528894311
343,2884.0315,0.3534973819747771
344,2887.5299999999997,0.3526077430296847
345,2894.1899999999996,0.35913584012077954
346,2907.5499999999997,0.38295343428549844
347,2927.7,0.36981472548453176
348,2948.0,0.36209551661804923
349,2968.4300000000003,0.3653061076947863
350,2989.0099999999998,0.36430879870600735
351,3009.73,0.3633389896560804
352,3030.59,0.36571878054500523
353,3051.59,0.36724307137278184
354,3072.75,0.37222036213067494
355,3086.93,0.37039605593724034
356,3108.3300000000004,0.37974624659030803
357,3129.88,0.3701182371778598
358,3151.57,0.3708088277042634
359,3173.42,0.37581721816078345
360,3188.06,0.35797391176643345
361,3210.1600000000003,0.36530560211376034
362,3232.41,0.34953699239557134
363,3247.33,0.379636385878925
364,3269.84,0.39371777604717517
365,3292.51,0.3908377661455417
366,3307.71,0.38270385950659913
367,3311.31121,0.38267867778250997
368,3322.9700000000003,0.38259706058969006
369,3330.63,0.38785299663322154
370,3338.31,0.3661079325097648
371,3346.0099999999998,0.38419806821931995
372,3353.7200000000003,0.369399003845381
373,3361.4500000000003,0.3684856393044539
374,3369.2,0.3642246745965386
375,3376.9700000000003,0.3591614097216351
376,3384.7500000000005,0.3607675447632376
377,3392.5499999999997,0.38563767963785184
378,3400.38,0.3981968142619839
379,3408.2200000000003,0.3724401488026219
380,3416.07,0.3655805832597657
381,3423.9500000000003,0.39346611746642735
382,3431.8399999999997,0.3952357515895949
383,3439.7499999999995,0.39155778554577425
384,3447.6800000000003,0.35133221933496545
385,3455.63,0.36867725295716847
386,3463.5899999999997,0.34721038649587743
387,3471.5800000000004,0.3762852197841041
388,3479.58,0.34709995298883667
389,3487.6000000000004,0.35924388602658114
390,3495.64,0.3633393188973374
391,3503.7000000000003,0.38480625160110554
392,3511.7799999999997,0.37600768413788543
393,3519.87,0.37595331659117126
394,3527.99,0.34759584879397487
395,3536.12,0.3810434809132844
396,3544.27,0.3907825128656057
397,3552.44,0.3961481446509389
398,3560.63,0.3852766762692839
399,3568.8399999999997,0.35622720772064076
400,3577.07,0.3504736390050094
401,3585.31,0.325520570205884
402,3593.58,0.3535992011562763
403,3601.86,0.39033883202317454
404,3606.05,0.36723779703915327
405,3608.7799999999997,0.32820237424526827
406,3611.5000000000005,0.3543195515348774
407,3614.23,0.37697672874099236
408,3616.96,0.3566149059471074
409,3619.69,0.3547886831532224
410,3622.42,0.35357106035933733
411,3625.14,0.36618773764894647
412,3627.8700000000003,0.3612906148550614
413,3630.6,0.36018369206117645
414,3633.3300000000004,0.35733376926729143
415,3636.06,0.33628044647340644
416,3638.7799999999997,0.37664512376301557
417,3641.51,0.38840230096913053
418,3644.2400000000002,0.37614627817524554
419,3646.97,0.38142985538136054
420,3649.7000000000003,0.37503893258747556
421,3652.42,0.38724080987708465
422,3655.1499999999996,0.3893151870831996
423,3657.88,0.38762726428931465
424,3660.61,0.39993764149542965
425,3663.34,0.40428061870154464
426,3666.07,0.40347789590765964
427,3668.79,0.3610416731972687
428,3671.52,0.3774464504033837
429,3674.25,0.38948032760949874
430,3676.9800000000005,0.3672927048156137
431,3679.71,0.36892448202172873
432,3682.43,0.3763403593113378
433,3685.1600000000003,0.35265873651745283
434,3687.89,0.3479553137235678
435,3690.62,0.3946531909296828
436,3693.3500000000004,0.4115283681357978
437,3696.07,0.3906430454254069
438,3698.7999999999997,0.3883741226315219
439,3701.53,0.3853028998376369
440,3704.2599999999998,0.3694781770437519
441,3706.99,0.3695054542498669
442,3709.71,0.37302043153947595
443,3712.44,0.375731208745591
444,3715.17,0.405636585951706
445,3717.9,0.40237166315782097
446,3720.6299999999997,0.444338940363936
447,3723.36,0.508216417570051
448,3726.08,0.5597030948596601
449,3728.8100000000004,0.578182672065775
450,3731.54,0.5079685492718901
451,3734.27,0.41083672647800507
452,3736.9999999999995,0.4005173036841201
453,3739.7200000000003,0.42680068097372914
454,3742.45,0.39913535817984414
455,3745.1800000000003,0.38549613538595917
456,3747.91,0.3673752125920742
457,3750.64,0.4056352897981892
458,3753.36,0.4032854670877982
459,3756.09,0.43258214429391323
460,3758.82,0.4454459215000282
461,3761.55,0.4629849987061433
462,3764.2799999999997,0.43451737591225825
463,3767.0,0.4059689532018673
464,3769.73,0.4284324304079823
465,3772.46,0.4237290076140973
466,3775.19,0.4389718848202124
467,3777.92,0.4873295620263274
468,3780.6499999999996,0.5107335392324422
469,3783.37,0.5386219165220514
470,3786.1,0.4910100937281664
471,3788.8300000000004,0.4585309709342814
472,3791.56,0.44906904814039644
473,3794.29,0.39575842534651146
474,3797.01,0.39780730263612046
475,3799.74,0.40895587984223547
476,3801.8939600000003,0.4247368142931125
477,3802.47,0.4289571580504865
478,3805.2000000000003,0.4790578400059789
479,3807.93,0.4931664219614713
480,3810.65,0.5158261039830607
481,3813.38,0.5000288859385531
482,3816.1099999999997,0.4896262678940455
483,3818.84,0.4795004498495379
484,3821.57,0.45150313180503027
485,3824.29,0.45330321382661976
486,3827.02,0.42655079578211214
487,3829.75,0.41736557773760447
488,3832.4799999999996,0.38034955969309686
489,3835.21,0.3563914416485892
490,3837.94,0.3796571236040816
491,3840.6600000000003,0.42583150562567107
492,3843.39,0.4654195875811634
493,3846.12,0.5076080695366558
494,3848.85,0.5083821514921482
495,3851.58,0.5146615334476405
496,3854.2999999999997,0.5206947154692301
497,3857.03,0.5217453974247224
498,3859.7599999999998,0.5355496793802148
499,3862.4900000000002,0.5623287613357072
500,3865.22,0.5578187432911995
501,3867.94,0.5436566253127889
502,3870.67,0.5308749072682815
503,3873.4,0.5095723892237738
504,3876.1299999999997,0.5003041711792662
505,3878.86,0.4912295531347585
506,3881.58,0.44907013515634797
507,3884.3100000000004,0.4230369171118404
508,3887.04,0.4465240990673327
509,3889.77,0.4285966810228251
510,3892.5,0.4309478629783175
511,3895.23,0.4826253449338099
512,3897.95,0.48868592695539936
513,3900.6800000000003,0.5110110089108917
514,3903.41,0.5238746908663842
515,3906.1400000000003,0.5272492728218765
516,3908.87,0.5515107547773688
517,3911.5899999999997,0.5545008367989582
518,3914.32,0.5374864187544507
519,3917.05,0.542714500709943
520,3919.7799999999997,0.5306243826654354
521,3922.51,0.5252015646209278
522,3925.23,0.5035144466425173
523,3927.9599999999996,0.44234672859800966
524,3930.69,0.40284081055350207
525,3933.42,0.3827003925089944
526,3936.15,0.41061377446448677
527,3938.87,0.45579235648607624
528,3941.6,0.4909816384415686
529,3944.33,0.529352420397061
530,3947.06,0.5398092023525534
531,3949.7900000000004,0.5237077843080458
532,3952.52,0.5274419662635381
533,3955.24,0.5173187482851277
534,3957.9700000000003,0.49759313024061996
535,3960.7,0.4484045121961124
536,3963.43,0.3846088941516047
537,3966.1600000000003,0.3690884761070971
538,3968.88,0.36972625812868654
539,3971.6099999999997,0.3786063400841789
540,3974.34,0.41296572203967136
541,3977.0699999999997,0.45894430399516367
542,3979.8,0.49192038595065607
543,3982.52,0.5230730679722456
544,3985.25,0.5305145499277379
545,3987.98,0.5563530318832303
546,3990.71,0.5785673138387227
547,3993.4399999999996,0.578677495794215
548,3996.1600000000003,0.5647089778158045
549,3998.89,0.577019259771297
550,4001.6200000000003,0.5828559417267892
551,4004.35,0.5873371236822816
552,4007.08,0.594999705637774
553,4009.81,0.5916793875932663
554,4012.53,0.6090829696148559
555,4015.2599999999998,0.6065095515703481
556,4017.9900000000002,0.6309647335258406
557,4020.72,0.624158615481333
558,4023.4500000000003,0.6032156974368253
559,4026.17,0.5990129794584148
560,4028.9,0.6089718614139072
561,4031.63,0.5948621433693996
562,4034.36,0.577819925324892
563,4037.0899999999997,0.5954142072803843
564,4039.81,0.6028860893019737
565,4042.54,0.5975738712574662
566,4045.2700000000004,0.5958027532129585
567,4048.0,0.5984580351684509
568,4050.73,0.5975168171239433
569,4053.4500000000003,0.5887493991455328
570,4056.18,0.5838244811010251
571,4058.91,0.5906018630565175
572,4061.6400000000003,0.5865345450120099
573,4064.37,0.5869212269675023
