,lambda (Angstroms),Total Flux (erg/s/cm^2/Angstrom)
0,101.98,12.84789863915587
1,104.11999999999999,12.806658793694865
2,104.712855,12.795233927628496
3,106.05,12.659877784597295
4,108.03,12.459446952370495
5,110.03,12.256991789694707
6,113.9,11.86524086647422
7,117.9,11.460330472281042
8,120.22644299999999,11.224836197019718
9,120.92999999999999,11.16512804589555
10,124.89,10.82905045366593
11,126.92,10.656768053090648
12,128.09,10.557472519705533
13,131.08,10.303716757969127
14,131.99,10.226489811068484
15,134.13,10.044872151660154
16,136.94,9.80639786653146
17,138.038426,9.71317690577507
18,140.13,9.586298321549423
19,143.06,9.408623701896774
20,147.07,9.1655289619838
21,150.84,8.936854907475338
22,155.07,8.680281973033223
23,158.489319,8.472885769609046
24,159.04999999999998,8.447176522448348
25,162.0,8.31190849250577
26,166.16,8.121164223904708
27,170.03,7.943713039717664
28,173.19,7.798820138864935
29,176.82,7.632379091989489
30,180.10999999999999,7.481522454530478
31,181.970086,7.396234813321604
32,182.19,7.38854272379813
33,186.01,7.254929817302598
34,191.22,7.072695465985128
35,193.88,6.979666504351065
36,197.94,6.837657878535916
37,202.08,6.692858471847562
38,204.89000000000001,6.59457953392624
39,208.929613,6.453256391402
40,210.14999999999998,6.421159387919898
41,216.04000000000002,6.266342871989578
42,220.05,6.160922254640244
43,223.11,6.080456694682898
44,226.74,5.985037272890358
45,229.89,5.90278854616956
46,234.17000000000002,5.79145387152987
47,239.88329199999998,5.641869848814135
48,240.17,5.6360933560551585
49,245.77,5.522415891017352
50,252.07,5.39497673947482
51,256.76,5.299338922493157
52,259.73,5.2396494776945355
53,263.95,5.154314206280331
54,268.86,5.054812411054325
55,273.86,4.953467966591997
56,275.42287,4.9217902691831155
57,278.95,4.866925519748315
58,284.14,4.786203914974768
59,290.09,4.693474365594692
60,296.16,4.59912611185569
61,300.96999999999997,4.5242606093854105
62,307.98,4.415262085001489
63,316.227766,4.287021044469313
64,318.07,4.265630579354351
65,327.73999999999995,4.153260532994274
66,337.7,4.037492812192165
67,347.96,3.9182212090707176
68,356.88,3.81454790150899
69,363.078055,3.7425296240247468
70,366.03999999999996,3.716755450273721
71,375.43,3.6349824154967334
72,385.06,3.5510085312110693
73,394.94,3.465104548770533
74,405.07,3.3769293671751255
75,413.55,3.3030695542018718
76,416.86938299999997,3.2741527255842313
77,422.21000000000004,3.238611178778095
78,430.06,3.1863801195368726
79,441.09000000000003,3.1130345228412435
80,451.36,3.0446926199460385
81,459.76000000000005,2.988795292783456
82,470.46,2.9176155350406425
83,478.630092,2.8632865583802074
84,480.32,2.8546421626375524
85,490.36999999999995,2.8031625176769794
86,499.49,2.75653090022619
87,506.44,2.7209409482982325
88,512.3,2.691126408010774
89,519.4300000000001,2.6546361384357606
90,530.3100000000001,2.5989397975471005
91,540.1700000000001,2.5484125579917527
92,549.5408739999999,2.500489486290839
93,550.21,2.4978785433267126
94,560.4399999999999,2.458027222955338
95,569.54,2.42256858084297
96,580.13,2.3811761852297866
97,589.5600000000001,2.344423915395762
98,600.52,2.3015863430340535
99,610.28,2.2632925384783715
100,620.1899999999999,2.2249478713219366
101,630.27,2.1855985215513143
102,630.957344,2.182917907345859
103,640.51,2.153381956794399
104,649.42,2.1258377450185773
105,658.46,2.097861112202256
106,664.55,2.0790753563049775
107,675.35,2.045665277940346
108,684.7399999999999,2.0165307640149854
109,694.27,1.9872568810460094
110,705.5500000000001,1.9522424535318381
111,715.36,1.9220991024756309
112,724.43596,1.8940422391397813
113,725.3199999999999,1.8920135072138464
114,735.41,1.8688649846147731
115,745.6400000000001,1.8454652004940073
116,754.27,1.8256986703354345
117,764.76,1.801530137245813
118,775.4,1.777328105597236
119,784.3799999999999,1.7567532511344335
120,795.2900000000001,1.7317854764797367
121,804.4999999999999,1.710711990159869
122,815.69,1.6850755394617878
123,825.14,1.6635418922475915
124,831.763771,1.6480403963985644
125,834.69,1.6428874892110248
126,844.36,1.6267902713781817
127,854.14,1.6100570620632695
128,864.03,1.5932548002662872
129,874.03,1.5762628729872357
130,884.15,1.559107401636835
131,894.3900000000001,1.5416919142150858
132,904.75,1.5239168177219882
133,915.22,1.507570187746821
134,925.8199999999999,1.5146363791110264
135,934.39,1.535954118098879
136,945.2099999999999,1.5779389944989453
137,953.9499999999999,1.617171627469054
138,954.992586,1.6172983897780484
139,965.0,1.6188858344774208
140,973.93,1.4346621324632627
141,985.2099999999999,1.5483230614980101
142,994.32,1.5456751525003638
143,1005.84,1.614005805557127
144,1015.14,1.5893889114102433
145,1024.54,1.4272691356058662
146,1034.02,1.4762187344754947
147,1045.99,1.6247713700735373
148,1055.6699999999998,1.6006960056281792
149,1065.43,1.5091836158568257
150,1075.29,1.544656944427979
151,1085.24,1.4579862695073882
152,1095.28,1.5266094910950536
153,1096.4782,1.5229376863578081
154,1105.42,1.498255347854741
155,1115.6499999999999,1.4700697449684186
156,1125.97,1.4238778077458525
157,1133.78,1.4911955947896276
158,1144.27,1.4434470260430465
159,1154.8500000000001,1.4497532229602217
160,1165.54,1.4443879112442113
161,1176.32,1.3206690651919573
162,1184.48,1.4074962520392305
163,1195.44,1.2859395373144897
164,1203.72,1.2109255783801054
165,1214.86,1.1470369949828785
166,1226.1,1.2448630401009364
167,1234.6,1.3503189639001794
168,1246.03,1.3686440031972793
169,1254.6599999999999,1.3389511440663933
170,1258.92541,1.314450449234259
171,1266.27,1.2751596414361868
172,1275.0500000000002,1.359377301067723
173,1283.89,1.3696425027924137
174,1295.77,1.2676242372369075
175,1304.75,1.2550390371789575
176,1313.79,1.3307892792141616
177,1325.9499999999998,1.301287610093374
178,1335.1399999999999,1.246251157361463
179,1344.4,1.3055677537382313
180,1353.7099999999998,1.2832575851926287
181,1366.24,1.2271930756462905
182,1375.71,1.2365674193490983
183,1385.25,1.2315924121605855
184,1394.85,1.167582147065227
185,1404.52,1.166491231078548
186,1414.25,1.1768870571850232
187,1424.06,1.1763774394157034
188,1433.9299999999998,1.1667121637395381
189,1440.55,1.1792056080175302
190,1445.43977,1.179675849472773
191,1447.1899999999998,1.1803617733409364
192,1453.87,1.1642626799899554
193,1463.95,1.1295960762507509
194,1474.1000000000001,1.1234871231800239
195,1484.3200000000002,1.1246890207777747
196,1494.6100000000001,1.1243763690440034
197,1504.97,1.0991451679787099
198,1511.9099999999999,1.059296348539218
199,1515.4,1.077826217581894
200,1525.9,1.0615176178535557
201,1536.48,1.0129007331749065
202,1543.57,1.0249034794535812
203,1554.2700000000002,1.0053591673494648
204,1565.05,1.010907370295038
205,1575.89,1.0243620595278773
206,1586.82,1.0329055281916169
207,1594.14,1.0349845552381467
208,1605.19,1.0211241964764195
209,1616.32,1.015065652764381
210,1623.78,0.9961337811478667
211,1635.0300000000002,1.0086390100103615
212,1646.3700000000001,1.0057284183037563
213,1653.9699999999998,0.9815823480241974
214,1659.58691,0.9906374739487938
215,1665.43,1.0012539275986432
216,1673.12,0.9621606933317111
217,1676.9800000000002,1.0024179948570218
218,1684.72,1.0107180227860133
219,1696.4,0.9864274517537939
220,1704.2199999999998,0.9720908791962635
221,1716.04,0.9499415823126303
222,1723.96,0.9453739341469471
223,1735.9099999999999,0.9617585989727158
224,1743.9199999999998,0.9522784627596952
225,1756.01,0.9662718017340501
226,1764.1200000000001,0.9386229899128771
227,1776.34,0.9383654905966339
228,1784.54,0.9425985907281234
229,1796.9099999999999,0.9561526779996512
230,1805.2099999999998,0.9513187025229883
231,1813.54,0.9245914643638797
232,1826.11,0.9251574004191024
233,1834.54,0.9121035866518412
234,1843.01,0.8868543226413188
235,1855.78,0.8838141074802365
236,1864.35,0.8890346678615617
237,1872.9499999999998,0.9060814655604412
238,1885.94,0.8771202240614229
239,1894.6399999999999,0.8644343461521499
240,1903.39,0.8775356304388005
241,1905.46072,0.8750461049301215
242,1916.58,0.863100266462613
243,1925.4299999999998,0.8530234276967936
244,1934.31,0.8632142637148192
245,1943.24,0.8722809577059191
246,1956.71,0.8474710356521806
247,1965.74,0.8718876455894293
248,1974.82,0.8781033134997528
249,1983.93,0.8604685561939207
250,1993.09,0.8506693568611632
251,2006.91,0.8557520406189458
252,2016.1699999999998,0.8458657572323374
253,2025.48,0.8551852318188032
254,2034.82,0.8368604811891138
255,2044.22,0.8443498801271137
256,2053.65,0.8034463538489582
257,2063.13,0.8124602855438772
258,2072.65,0.8463863836172559
259,2077.4300000000003,0.8318698658431749
260,2087.02,0.8404852050788578
261,2096.66,0.8226041022876154
262,2106.33,0.8225596742802173
263,2116.06,0.8251187958405086
264,2125.8199999999997,0.8251290921846448
265,2135.63,0.8072467465018552
266,2145.49,0.8088226587921403
267,2155.4,0.8164915290554997
268,2165.34,0.8027162741027037
269,2175.34,0.8008953687175973
270,2185.38,0.7931400297109504
271,2187.7616199999998,0.7955359108624688
272,2195.47,0.8041651946182464
273,2205.6,0.7965903310206832
274,2215.7799999999997,0.7806452993895686
275,2226.0099999999998,0.7749241997249023
276,2236.2799999999997,0.7875941056333946
277,2246.61,0.776672469901625
278,2256.98,0.762676939743014
279,2267.39,0.7675946151575619
280,2272.62,0.7721622188480599
281,2283.1099999999997,0.7755912054089251
282,2293.65,0.7563539239362385
283,2304.24,0.7578500744300004
284,2314.87,0.7471118304969209
285,2325.56,0.7029094449235793
286,2336.29,0.7292457649233967
287,2347.08,0.721232743282952
288,2352.4900000000002,0.733946122052664
289,2363.3399999999997,0.7157437587719573
290,2374.25,0.7176641538509887
291,2385.21,0.6977422808964683
292,2396.22,0.7100130399083964
293,2407.28,0.7012742308867727
294,2412.83,0.7052119791625402
295,2423.97,0.715708681287234
296,2435.1600000000003,0.705168215378376
297,2446.4,0.7134278814359665
298,2457.69,0.7082856794600053
299,2463.35,0.7053389180619594
300,2474.73,0.6963021536256051
301,2486.15,0.6927334947624096
302,2497.62,0.6561785678656626
303,2503.38,0.6979395704005131
304,2511.88643,0.6745855278752315
305,2514.94,0.6663868428937892
306,2520.73,0.6764573591722849
307,2526.54,0.6708936383740223
308,2532.37,0.6750618804990013
309,2544.0600000000004,0.6706696591338221
310,2555.7999999999997,0.6838658950767476
311,2567.6,0.6747231197893981
312,2573.5200000000004,0.6845767450689653
313,2585.3900000000003,0.6792419900129623
314,2597.33,0.6731450551883054
315,2603.32,0.6666363006992188
316,2615.33,0.6606400861059082
317,2627.41,0.6684059917439438
318,2633.46,0.6792072260245825
319,2645.6200000000003,0.6934598833555852
320,2657.83,0.7049674979946925
321,2663.95,0.6744222525066774
322,2676.25,0.6803254503003726
323,2682.4199999999996,0.6841864621204621
324,2694.8,0.6655364116071243
325,2707.2400000000002,0.6729914498635119
326,2713.4799999999996,0.6573361819149477
327,2726.0099999999998,0.6511337033259235
328,2732.29,0.6562777612238425
329,2744.9,0.6316940343277853
330,2757.5699999999997,0.6353731962014535
331,2763.93,0.6426307057923398
332,2776.69,0.648147250820596
333,2783.0899999999997,0.6314672862579659
334,2795.93,0.5953916829791892
335,2802.3799999999997,0.6052888757246635
336,2815.32,0.6363355870620957
337,2821.7999999999997,0.6486919741924326
338,2834.83,0.6374783686844528
339,2847.9100000000003,0.6257049204845775
340,2854.48,0.6123974907695025
341,2867.6600000000003,0.6346315571858361
342,2874.27,0.6423422533172447
343,2884.0315,0.6381336319955205
344,2887.5299999999997,0.6368070273987861
345,2894.1899999999996,0.6425032847757361
346,2907.5499999999997,0.6646522034778461
347,2927.7,0.6489967423885883
348,2948.0,0.6387420461051176
349,2968.4300000000003,0.6394009126533293
350,2989.0099999999998,0.6358331440073279
351,3009.73,0.6322753891800614
352,3030.59,0.6320497481715295
353,3051.59,0.6309511209817322
354,3072.75,0.6332855095847747
355,3086.93,0.6296901092251879
356,3108.3300000000004,0.6363674215174897
357,3129.88,0.6240477986155788
358,3151.57,0.6220292895324027
359,3173.42,0.624308596242066
360,3188.06,0.604636741286893
361,3210.1600000000003,0.6092081226728684
362,3232.41,0.5906604688646309
363,3247.33,0.6188963415469273
364,3269.84,0.6301662134020543
365,3292.51,0.6244547010500208
366,3307.71,0.6144223013697866
367,3311.31121,0.6139473254269323
368,3322.9700000000003,0.6128343554394169
369,3330.63,0.6174126772187436
370,3338.31,0.5949882296032383
371,3346.0099999999998,0.6123972125929009
372,3353.7200000000003,0.5969161108851473
373,3361.4500000000003,0.5953189397825619
374,3369.2,0.5903723992851444
375,3376.9700000000003,0.5846217893928949
376,3384.7500000000005,0.5855396948032292
377,3392.5499999999997,0.6097198308187317
378,3400.38,0.621586312741986
379,3408.2200000000003,0.5951361099678243
380,3416.07,0.5875821224962465
381,3423.9500000000003,0.6147705809324207
382,3431.8399999999997,0.6158422546711789
383,3439.7499999999995,0.6114645590151051
384,3447.6800000000003,0.5705374939641991
385,3455.63,0.5871792595184611
386,3463.5899999999997,0.5650082403753072
387,3471.5800000000004,0.5933762671399051
388,3479.58,0.563483309207087
389,3487.6000000000004,0.5749177818794369
390,3495.64,0.5783019851569547
391,3503.7000000000003,0.5990559190396405
392,3511.7799999999997,0.5895425835274943
393,3519.87,0.5887725633179319
394,3527.99,0.5596967890161216
395,3536.12,0.5924252300168953
396,3544.27,0.6014433016228369
397,3552.44,0.6060862038339464
398,3560.63,0.5944902366502239
399,3568.8399999999997,0.5647145000716693
400,3577.07,0.5582328940982827
401,3585.31,0.5325509034274801
402,3593.58,0.5598979586644295
403,3601.86,0.5959051292039628
404,3606.05,0.5724334409866493
405,3608.7799999999997,0.5331565185920751
406,3611.5000000000005,0.5590330808949169
407,3614.23,0.5814487585003427
408,3616.96,0.5608454361057686
409,3619.69,0.5587777137111944
410,3622.42,0.5573185913166203
411,3625.14,0.5696946536194621
412,3627.8700000000003,0.5645560312248878
413,3630.6,0.5632076088303137
414,3633.3300000000004,0.5601161864357396
415,3636.06,0.5388213640411654
416,3638.7799999999997,0.5789454263440074
417,3641.51,0.5904611039494331
418,3644.2400000000002,0.5779635815548589
419,3646.97,0.5830056591602848
420,3649.7000000000003,0.5763732367657106
421,3652.42,0.5883344990685525
422,3655.1499999999996,0.5901673766739783
423,3657.88,0.5882379542794042
424,3660.61,0.60030683188483
425,3663.34,0.6044083094902558
426,3666.07,0.6033640870956817
427,3668.79,0.5606872493985235
428,3671.52,0.5768505270039493
429,3674.25,0.5886429046093752
430,3676.9800000000005,0.566213782214801
431,3679.71,0.5676040598202269
432,3682.43,0.5747793221230687
433,3685.1600000000003,0.5508561997284945
434,3687.89,0.5459112773339203
435,3690.62,0.5923676549393462
436,3693.3500000000004,0.609001332544772
437,3696.07,0.5878753948476139
438,3698.7999999999997,0.5853649724530396
439,3701.53,0.5820522500584655
440,3704.2599999999998,0.5659860276638914
441,3706.99,0.5657718052693173
442,3709.71,0.569046167572159
443,3712.44,0.5715154451775849
444,3715.17,0.6011793227830107
445,3717.9,0.5976729003884365
446,3720.6299999999997,0.6393986779938624
447,3723.36,0.7030346555992882
448,3726.08,0.7542807179021301
449,3728.8100000000004,0.7725187955075559
450,3731.54,0.7020631731129817
451,3734.27,0.6046898507184075
452,3736.9999999999995,0.5941289283238333
453,3739.7200000000003,0.6201716906266752
454,3742.45,0.5922648682321011
455,3745.1800000000003,0.5783841458375268
456,3747.91,0.5600217234429528
457,3750.64,0.5980403010483786
458,3753.36,0.5954498633512204
459,3756.09,0.6245050409566462
460,3758.82,0.637127318562072
461,3761.55,0.6544248961674979
462,3764.2799999999997,0.6257157737729238
463,3767.0,0.5969267360757656
464,3769.73,0.6191487136811914
465,3772.46,0.6142037912866173
466,3775.19,0.6292051688920431
467,3777.92,0.677321346497469
468,3780.6499999999996,0.7004838241028948
469,3783.37,0.7281315864057366
470,3786.1,0.6802782640111624
471,3788.8300000000004,0.6475576416165882
472,3791.56,0.6378542192220141
473,3794.29,0.5843020968274399
474,3797.01,0.5861103591302818
475,3799.74,0.5970174367357076
476,3801.8939600000003,0.6126078288862546
477,3802.47,0.6167919948711378
478,3805.2000000000003,0.6667212211657378
479,3807.93,0.6806583474603379
480,3810.65,0.7031472018637489
481,3813.38,0.687178528158349
482,3816.1099999999997,0.676604454452949
483,3818.84,0.6663071807475491
484,3821.57,0.6381384070421492
485,3824.29,0.6397676614455603
486,3827.02,0.6128437877401602
487,3829.75,0.6034871140347604
488,3832.4799999999996,0.5662996403293604
489,3835.21,0.5421700666239604
490,3837.94,0.5652642929185605
491,3840.6600000000003,0.6112678473219715
492,3843.39,0.6506844736165716
493,3846.12,0.6927014999111717
494,3848.85,0.6933041262057718
495,3851.58,0.6994120525003718
496,3854.2999999999997,0.7052744069037828
497,3857.03,0.7061536331983829
498,3859.7599999999998,0.7197864594929829
499,3862.4900000000002,0.746394085787583
500,3865.22,0.7417126120821831
501,3867.94,0.727379666485594
502,3870.67,0.7144264927801942
503,3873.4,0.6929525190747943
504,3876.1299999999997,0.6835128453693943
505,3878.86,0.6742667716639943
506,3881.58,0.6319365260674054
507,3884.3100000000004,0.6057318523620053
508,3887.04,0.6290475786566054
509,3889.77,0.6109487049512055
510,3892.5,0.6131284312458055
511,3895.23,0.6646344575404055
512,3897.95,0.6705242119438166
513,3900.6800000000003,0.6926778382384167
514,3903.41,0.7053700645330168
515,3906.1400000000003,0.7085731908276168
516,3908.87,0.7326632171222168
517,3911.5899999999997,0.7354824715256278
518,3914.32,0.7182965978202279
519,3917.05,0.7233532241148279
520,3919.7799999999997,0.711091650409428
521,3922.51,0.7054973767040281
522,3925.23,0.6836394311074392
523,3927.9599999999996,0.6223002574020393
524,3930.69,0.5826228836966393
525,3933.42,0.5623110099912394
526,3936.15,0.5900529362858393
527,3938.87,0.6350606906892504
528,3941.6,0.6700785169838505
529,3944.33,0.7082778432784506
530,3947.06,0.7185631695730506
531,3949.7900000000004,0.7022902958676507
532,3952.52,0.7058530221622508
533,3955.24,0.6955589765656618
534,3957.9700000000003,0.6756619028602617
535,3960.7,0.6263018291548619
536,3963.43,0.562334755449462
537,3966.1600000000003,0.546642881744062
538,3968.88,0.547109836147473
539,3971.6099999999997,0.555818462442073
540,3974.34,0.5900063887366731
541,3977.0699999999997,0.6358135150312731
542,3979.8,0.6686181413258732
543,3982.52,0.6995999957292843
544,3985.25,0.7068700220238844
545,3987.98,0.7325370483184844
546,3990.71,0.7545798746130845
547,3993.4399999999996,0.7545186009076845
548,3996.1600000000003,0.7403792553110955
549,3998.89,0.7525180816056957
550,4001.6200000000003,0.7581833079002955
551,4004.35,0.7624930341948958
552,4007.08,0.7699841604894957
553,4009.81,0.7664923867840958
554,4012.53,0.7837251411875068
555,4015.2599999999998,0.7809802674821069
556,4017.9900000000002,0.805263993776707
557,4020.72,0.7982864200713071
558,4023.4500000000003,0.777172046365907
559,4026.17,0.7727985007693181
560,4028.9,0.7825859270639182
561,4031.63,0.7683047533585183
562,4034.36,0.7510910796531183
563,4037.0899999999997,0.7685139059477183
564,4039.81,0.7758149603511293
565,4042.54,0.7703312866457294
566,4045.2700000000004,0.7683887129403294
567,4048.0,0.7708725392349295
568,4050.73,0.7697598655295296
569,4053.4500000000003,0.7608216199329406
570,4056.18,0.7557252462275407
571,4058.91,0.7623311725221407
572,4061.6400000000003,0.7580923988167407
573,4064.37,0.7583076251113409
574,4067.1000000000004,0.760791451405941
575,4069.82,0.7602909058093519
576,4072.5499999999997,0.744875532103952
577,4075.28,0.7384512583985521
578,4078.01,0.7372833846931521
579,4080.74,0.7539592109877522
580,4083.46,0.7478980653911632
581,4086.19,0.7450148916857633
582,4088.9199999999996,0.7366541179803633
583,4091.65,0.7165910442749633
584,4094.38,0.6955044705695634
585,4097.1,0.6657894249729744
586,4099.83,0.6733360512675746
587,4102.56,0.6865539775621746
588,4105.29,0.6914446038567746
589,4108.02,0.6964736301513748
590,4110.74,0.7107735845547858
591,4113.47,0.7314057108493858
592,4116.2,0.7420783371439859
