,lambda (Angstroms),Total Flux (erg/s/cm^2/Angstrom)
0,101.98,0.05238084408996888
1,104.11,0.06241195025068724
2,104.712855,0.0652510594166812
3,106.05,0.05999679747251223
4,108.02000000000001,0.05225575518899353
5,110.03,0.044357534505790795
6,113.9,0.02915051261127394
7,117.9,0.013432660741032016
8,120.22644299999999,0.004290992891238143
9,120.92,0.004164889891983285
10,124.89,0.00344305850934583
11,126.91,0.003075779360295222
12,128.09,0.002861230296903775
13,131.07,0.002319403545455552
14,131.98,0.002153949348750625
15,134.13,0.0017630349667650247
16,136.93,0.0012539436822544751
17,138.038426,0.0010524102606910047
18,140.12,0.0010390495938094688
19,143.06,0.001020258346931203
20,147.07,0.00099473949095833
21,150.84,0.0009706266513481728
22,155.06,0.0009436506268954239
23,158.489319,0.0009217615900392989
24,159.04000000000002,0.000916349547423684
25,162.0,0.0008872761604655692
26,166.15,0.0008465484774192254
27,170.02,0.0008086038024054061
28,173.19,0.0007775414409728979
29,176.80999999999997,0.00074213695916669
30,180.10000000000002,0.0007099461718345279
31,181.970086,0.0006916748337917973
32,182.18,0.0006923615196499746
33,185.99999999999997,0.0007049223131119033
34,191.20999999999998,0.0007220916226974136
35,193.87,0.0007309858278044112
36,197.93,0.0007445059925466706
37,202.07,0.0007583834183823735
38,204.89000000000001,0.0007679305406762583
39,208.929613,0.0007813819923215722
40,210.14000000000001,0.0008049074121003922
41,216.03,0.0009202615466774762
42,220.05,0.0009989489575246546
43,223.11,0.001058777375900865
44,227.25,0.0011400337050569138
45,229.89,0.0011981111878520752
46,234.16,0.0012959387847594015
47,239.88329199999998,0.0014185801901441483
48,240.17,0.0014146418954528405
49,245.76000000000002,0.001328432672275453
50,252.06,0.001236707496744588
51,256.75,0.0011572041600716105
52,259.71999999999997,0.00112096020360706
53,263.94,0.0010611129308863848
54,268.84999999999997,0.0009884035815123297
55,273.85,0.0009142820764878325
56,275.42287,0.0008909881867712931
57,278.94,0.000954405925466914
58,284.13,0.0010482357194806363
59,290.08,0.0011517490541399131
60,296.15,0.0012634507431116457
61,300.96000000000004,0.0013491968918025918
62,307.97,0.001478295902888563
63,316.227766,0.001630726307017064
64,318.06,0.0016107190940464146
65,327.72999999999996,0.00150354901809124
66,337.69,0.0013918121549564369
67,347.95,0.0012761511947392606
68,356.87000000000006,0.0011771592614900185
69,363.078055,0.0011085943635355336
70,366.03,0.0011412740461186207
71,375.42,0.001242925307765888
72,385.04999999999995,0.0013415626473466306
73,394.92,0.0014555108648608508
74,405.05,0.0015673050418030033
75,413.53000000000003,0.001658637395452505
76,416.86938299999997,0.0016937342286859752
77,422.19,0.001729021803541534
78,430.04,0.001782556416885496
79,441.07,0.0018599585688834452
80,451.35,0.0019282486711988507
81,459.74,0.001984466004314244
82,470.45,0.002056469029780975
83,478.630092,0.0021135795081897724
84,480.3,0.0021027906110948702
85,490.36,0.0020312320162193926
86,499.46999999999997,0.001975414100184045
87,506.42,0.0019599958234062546
88,512.29,0.002206228516257244
89,519.41,0.00218971790537122
90,530.29,0.002155258822444262
91,540.15,0.002076606844166707
92,549.5408739999999,0.0022534335658590497
93,550.1899999999999,0.002268995452929013
94,560.42,0.002440186394616706
95,569.52,0.002596881128669298
96,580.11,0.0025483285081876438
97,589.54,0.002870965143585
98,600.5,0.0029578991397626268
99,610.26,0.0032929966765047466
100,620.1700000000001,0.003639169895676305
101,630.25,0.0038997991549345606
102,630.957344,0.003904482001584415
103,640.4899999999999,0.004023146290284965
104,649.4,0.004550503887456437
105,658.43,0.0048948579741521035
106,664.53,0.005192421024965345
107,675.3199999999999,0.005360391624682537
108,684.72,0.005449741637411138
109,694.24,0.006822850139663934
110,705.52,0.006734193154938254
111,715.34,0.007986484381001538
112,724.43596,0.008391992491831302
113,725.29,0.008428834925238621
114,735.3800000000001,0.008849272504299864
115,745.61,0.010033357590900113
116,754.24,0.010816760877054575
117,764.74,0.011601459942480052
118,775.38,0.012730744515444535
119,784.35,0.013863850034193726
120,795.26,0.014617838585983435
121,804.47,0.015444530974799496
122,815.66,0.016155812541667217
123,825.11,0.017880661800550146
124,831.763771,0.016046115846233288
125,834.66,0.015230048760762404
126,844.3299999999999,0.01921136834052201
127,854.11,0.019961621421188912
128,865.99,0.021602949519176934
129,874.0,0.02336300808524461
130,884.12,0.025608100168715887
131,894.36,0.027240244253176938
132,904.7099999999999,0.02755774183854529
133,915.19,0.04298592992498589
134,925.79,0.3114677200124163
135,934.35,0.7022186960830205
136,945.1700000000001,1.3524105931722654
137,953.9200000000001,1.8578772807444366
138,954.992586,1.8807902552770375
139,964.97,2.0939662849101994
140,973.89,0.335829133901936
141,985.17,1.7061520348690646
142,994.2900000000001,1.8239280526722752
143,1005.8000000000001,2.654180502772599
144,1015.11,2.6297993959467094
145,1024.5,1.2391732366454098
146,1033.98,1.949807018309273
147,1045.95,3.514710166675987
148,1055.63,3.3797538171513244
149,1065.3999999999999,2.697222408591825
150,1075.26,3.212831940997489
151,1085.2,2.5997814209277426
152,1095.25,3.4346338287043063
153,1096.4782,3.405060804181194
154,1105.3799999999999,3.190707747843211
155,1115.61,3.075337745840582
156,1125.93,2.6724745590696006
157,1133.74,3.474334525282647
158,1144.23,3.183295989504779
159,1154.81,3.3640842689585604
160,1165.5,3.426618322584356
161,1176.28,2.2126801914418004
162,1184.4399999999998,3.410783439111257
163,1195.3999999999999,2.709456938431998
164,1203.68,1.9051349397436528
165,1214.8200000000002,1.3963440695276905
166,1226.0600000000002,2.69072699401356
167,1234.56,3.6045105436692446
168,1245.98,3.7830720986184105
169,1254.62,3.621137360856659
170,1258.92541,3.5314899598960547
171,1266.2300000000002,3.3794095885979467
172,1275.0,3.933961869256894
173,1283.84,4.016381160137748
174,1295.72,3.1684938949414314
175,1304.7,3.3101212062661003
176,1313.75,3.9979325278126763
177,1325.9,3.765588302043715
178,1335.09,3.442240644034106
179,1344.35,3.9159379962464036
180,1353.6699999999998,3.8356073572203364
181,1366.1899999999998,3.474136185481456
182,1375.6599999999999,3.538694568359476
183,1385.2,3.5632399614594026
184,1394.8,2.8566833633209643
185,1404.4699999999998,3.0398347754044326
186,1414.1999999999998,3.3101041962495366
187,1424.01,3.3483986287768195
188,1433.8799999999999,3.4264500700657377
189,1440.49,3.555064035305834
190,1445.43977,3.548935230896589
191,1447.14,3.5468299664858907
192,1453.8200000000002,3.4581367851811375
193,1463.8999999999999,3.2052290205775584
194,1474.0500000000002,3.264758264553121
195,1484.27,3.2797635171078254
196,1494.55,3.28735777701608
197,1504.91,3.053980046729068
198,1511.86,2.709377898515291
199,1515.3500000000001,2.8632693262467894
200,1525.85,2.9098446131180613
201,1536.43,2.5112079097940665
202,1543.52,2.5815727787385727
203,1554.22,2.5054480901216785
204,1564.99,2.6660494100839256
205,1575.84,2.850168739850906
206,1586.7600000000002,2.9367480781970285
207,1594.09,2.963830976555735
208,1605.1399999999999,2.9843903308345503
209,1616.26,2.984420693692506
210,1623.7199999999998,2.889733607983905
211,1634.98,3.089297988000145
212,1646.31,3.110646376595527
213,1653.91,2.991313308045209
214,1659.58691,3.0863274458305026
215,1665.37,3.183123179822324
216,1673.0600000000002,2.991333062577362
217,1676.92,3.234909517380281
218,1684.66,3.2798134448866523
219,1696.3400000000001,3.1035598987980753
220,1704.17,3.0121049068568464
221,1715.98,2.850211477121736
222,1723.8999999999999,2.8436825657329066
223,1735.85,3.012153261301529
224,1743.8600000000001,2.9368314304650993
225,1755.95,3.0680632513374544
226,1764.05,2.9166125010534243
227,1776.28,2.876621447229512
228,1784.48,2.9504147864481487
229,1796.8500000000001,3.0965488579279694
230,1805.14,3.125251277699005
231,1813.48,2.8111737422213743
232,1826.05,2.9436539927065275
233,1834.47,2.83724652883103
234,1842.94,2.605535109706865
235,1855.7199999999998,2.5936495481476176
236,1864.2800000000002,2.6724472095758522
237,1872.89,2.8965949157554207
238,1885.8700000000001,2.6055755332015056
239,1894.58,2.44866532888374
240,1903.32,2.6848061514167743
241,1905.46072,2.6585515442279553
242,1916.51,2.523016319871356
243,1925.3600000000001,2.4542031096323154
244,1934.2500000000002,2.599662853245302
245,1943.1699999999998,2.684780562247308
246,1956.64,2.459847021917378
247,1965.6699999999998,2.7095346040124593
248,1974.7500000000002,2.8176451284225728
249,1983.8600000000001,2.6357406182217074
250,1993.02,2.5817130503358756
251,2006.84,2.6908021062111813
252,2016.1000000000001,2.629570422955416
253,2025.4,2.7662516935516788
254,2034.75,2.552104906462975
255,2044.15,2.635636061689304
256,2053.58,2.540302182304654
257,2063.06,2.5697362452350374
258,2072.58,2.747075262017448
259,2077.36,2.5112677473346667
260,2086.95,2.647709683358124
261,2096.58,2.5054685732336086
262,2106.26,2.5815624054241266
263,2115.98,2.605337191466672
264,2125.75,2.6415559198242504
265,2135.56,2.551978602033856
266,2145.42,2.4996242265584954
267,2155.32,2.611312804935162
268,2165.27,2.5815123256268615
269,2175.2599999999998,2.563733800170589
270,2185.3,2.493811217029349
271,2187.7616199999998,2.5151954390699194
272,2195.3900000000003,2.5814793939173564
273,2205.52,2.54606671185444
274,2215.7,2.4767140757833164
275,2225.9300000000003,2.4091594857039844
276,2236.21,2.476729941616444
277,2246.5299999999997,2.448175434322338
278,2256.9,2.369299973020024
279,2267.31,2.4176595485111436
280,2272.54,2.4337623592525994
281,2283.03,2.460561008330586
282,2293.57,2.3270917034003653
283,2304.1600000000003,2.363665444461937
284,2314.79,2.282220222316942
285,2325.48,1.8799530553620973
286,2336.21,2.1671249252006866
287,2346.99,2.156015841031068
288,2352.4,2.2209328173429754
289,2363.26,2.139365806760224
290,2374.17,2.148031842169265
291,2385.13,2.0835929235700976
292,2396.14,2.1456130509627234
293,2407.2,2.0763912243471405
294,2412.75,2.0998343294360655
295,2423.88,2.142641567208992
296,2435.07,2.0687638601720684
297,2446.31,2.1303301991269374
298,2457.6,2.1193455840735984
299,2463.27,2.0944437995428253
300,2474.64,2.050341258076353
301,2486.06,2.072911762601674
302,2497.54,1.9068993223171449
303,2503.2900000000004,2.080592611373239
304,2511.88643,1.9831686108031064
305,2514.8500000000004,1.949578463644709
306,2520.6499999999996,2.017471398840715
307,2526.46,1.9619033304767146
308,2532.28,1.9613572585527068
309,2543.97,1.9198950969046573
310,2555.71,1.9861259174565733
311,2567.51,1.962232716648448
312,2573.43,2.0118966091243715
313,2585.31,1.996889379836191
314,2597.2400000000002,1.9818811327479762
315,2603.2300000000005,1.9406570003038515
316,2615.24,1.9216587247355816
317,2627.31,1.9426644278072702
318,2633.37,1.9599862704430975
319,2645.52,2.022883945034731
320,2657.7400000000002,2.0403135947063165
321,2663.86,1.9300894159821025
322,2676.1600000000003,1.9737430371736329
323,2682.33,1.9685158406493841
324,2694.71,1.9005134333608598
325,2707.1499999999996,1.9080600047122935
326,2713.39,1.868271783267997
327,2725.9100000000003,1.8584933261393755
328,2732.2000000000003,1.8968240868950446
329,2744.81,1.7731395977263613
330,2757.48,1.784247087197637
331,2763.83,1.8084768265932643
332,2776.5899999999997,1.849364284024478
333,2782.9900000000002,1.802472005620071
334,2795.84,1.6428844310112225
335,2802.2799999999997,1.700004138366788
336,2815.22,1.8118955317178778
337,2828.21,1.827340907268933
338,2834.7299999999996,1.7566635861444433
339,2847.81,1.7474469296554367
340,2854.38,1.7188735907309127
341,2867.5499999999997,1.7903319022018438
342,2874.1699999999996,1.7815365454772856
343,2884.0315,1.7745132234265706
344,2887.4300000000003,1.7720940100162668
345,2894.09,1.7633119614939423
346,2907.45,1.8072108641578677
347,2927.6000000000004,1.7683137173523362
348,2947.8900000000003,1.730201569526816
349,2968.33,1.7323134206084505
350,2988.9,1.7185302707429526
351,3009.62,1.7008651197846096
352,3030.48,1.7029769678062776
353,3051.4900000000002,1.6893038147351007
354,3072.64,1.6796396606439348
355,3086.82,1.6591955573336403
356,3108.22,1.657303401421066
357,3129.77,1.6289582444156463
358,3151.46,1.619624086390238
359,3173.31,1.606617927199128
360,3187.95,1.5544008205374418
361,3210.0499999999997,1.5705136595249234
362,3232.3,1.5259484974195598
363,3247.2200000000003,1.5601793887178959
364,3269.73,1.5764042247182672
365,3292.39,1.5563970596257937
366,3307.59,1.5409489488841521
367,3311.31121,1.5547052140641968
368,3322.86,1.5973963133351148
369,3330.52,1.6040652465019234
370,3338.1899999999996,1.5383911782759991
371,3345.8900000000003,1.5699521058718773
372,3353.6,1.554839032075023
373,3361.33,1.5329469554927029
374,3369.08,1.507831876124918
375,3376.85,1.4627047939716677
376,3384.63,1.5099407104256848
377,3392.44,1.555158622701504
378,3400.2599999999998,1.5980505335845907
379,3408.1,1.504591441682212
380,3415.95,1.5143763483871007
381,3423.83,1.5741592509137916
382,3431.72,1.5662651520477497
383,3439.63,1.5619360503962427
384,3447.56,1.4739199459592702
385,3455.5099999999998,1.4801388387368328
386,3463.4700000000003,1.4325797301216627
387,3471.46,1.4856926173282945
388,3479.4599999999996,1.4346885031421939
389,3487.48,1.457249386170628
390,3495.5199999999995,1.476912266413597
391,3503.58,1.4729131438711003
392,3511.65,1.4553560199358713
393,3519.75,1.4614688918224443
394,3527.8599999999997,1.4275757623162848
395,3536.0000000000005,1.4770176286319274
396,3544.1499999999996,1.4969094935548373
397,3552.3199999999997,1.5101323556922819
398,3560.51,1.4955732150442616
399,3568.71,1.4276820730035082
400,3576.94,1.3817769267845572
401,3585.1899999999996,1.3404357777801408
402,3593.4500000000003,1.380557627382992
403,3601.73,1.4515714742003776
404,3610.04,1.4081103168395657
405,3618.36,1.433673158086021
406,3626.7,1.486786996547011
407,3635.06,1.4323378322225357
408,3643.44,1.4991196651125953
409,3651.84,1.4178894952171897
410,3659.1800000000003,1.3156454729514422
411,3661.86,1.0803950996990985
412,3664.54,1.2695337264467548
413,3667.23,1.5225633518016786
414,3669.9100000000003,1.0760059785493346
415,3672.6,1.2839746039042583
416,3675.28,1.2985352306519147
417,3677.97,1.4017658560068385
418,3680.6499999999996,1.5060054827544946
419,3683.3300000000004,1.429776109502151
420,3686.02,1.3289797348570744
421,3688.7,1.3324273616047306
422,3691.39,1.1907379869596544
423,3694.0699999999997,1.2678616137073107
424,3696.76,1.4935542390622345
425,3699.44,1.5417858658098906
426,3702.13,1.2566324911648141
427,3704.81,1.3797621179124706
428,3707.49,1.0991157446601267
429,3710.1800000000003,1.2959713700150506
430,3712.86,1.3140879967627068
431,3715.55,1.5787856221176304
432,3718.23,1.3595372488652866
433,3720.9199999999996,1.8429288742202103
434,3723.6000000000004,2.4439025009678663
435,3726.28,4.044791127715523
436,3728.97,5.740336753070447
437,3731.65,5.787134379818103
438,3734.3399999999997,4.586402005173026
439,3737.02,2.5434716319206827
440,3739.71,2.059066257275606
441,3742.39,1.7018008840232628
442,3745.08,1.395977509378186
443,3747.7599999999998,1.8650431361258426
444,3750.44,1.5393367628734989
445,3753.13,1.3609743882284224
446,3755.81,1.2681870149760788
447,3758.5,1.7905856403310023
448,3761.1800000000003,1.8468182670786586
449,3763.8700000000003,1.6237828924335822
450,3766.55,1.6491235191812386
451,3769.23,1.3405291459288948
452,3771.92,1.5772237712838186
453,3774.6000000000004,1.6071193980314746
454,3777.29,1.3887520233863984
455,3779.9700000000003,1.4967696501340546
456,3782.66,1.6291152754889784
457,3785.3399999999997,1.7320219022366348
458,3788.03,1.5602155275915581
459,3790.71,1.5379941543392144
460,3793.39,1.6334547810868707
461,3796.08,1.4356454064417945
462,3798.7599999999998,1.5852240331894507
463,3801.4500000000003,1.5919976585443745
464,3801.8939600000003,1.6099836090409785
465,3804.13,1.7005713501802182
466,3806.82,1.6828960535969049
467,3809.5,1.6367827581161316
468,3812.1899999999996,1.8782534615328184
469,3814.8700000000003,1.8434751660520452
470,3817.55,1.902264870571272
471,3820.24,2.0975075739879587
472,3822.92,1.6234482785071855
473,3825.6099999999997,1.7341239819238723
474,3828.29,1.5822186864430992
475,3830.98,1.7384563898597858
476,3833.66,1.5017620943790124
477,3836.3399999999997,1.4319777988982394
478,3839.0299999999997,1.351184502314926
479,3841.71,1.343186206834153
480,3844.4,1.1169299102508397
481,3847.08,1.7472386147700665
482,3849.77,1.816798318186753
483,3852.45,1.81146802270598
484,3855.1400000000003,2.001153726122667
485,3857.82,1.9422614306418935
486,3860.5,1.7532401351611202
487,3863.19,1.845913838577807
488,3865.8700000000003,2.0146065430970337
489,3868.56,2.24329724651372
490,3871.2400000000002,2.1123959510329473
491,3873.93,2.198400654449634
492,3876.6099999999997,1.9743753589688608
493,3879.2900000000004,1.7452380634880877
494,3881.98,1.6537757669047743
495,3884.66,1.959375471424001
496,3887.35,1.8367981748406879
497,3890.0299999999997,1.4456388793599146
498,3892.7200000000003,1.5988765827766012
499,3895.4,1.7534562872958284
500,3898.09,1.703109990712515
501,3900.77,1.7022246952317417
502,3903.45,1.5522083997509684
503,3906.1400000000003,1.7890131031676553
504,3908.82,2.118282807686882
505,3911.51,1.8749115111035688
506,3914.19,1.9888192156227955
507,3916.8799999999997,2.057266919039482
508,3919.5600000000004,1.8809136235587092
509,3922.2400000000002,1.939037328077936
510,3924.93,1.9791480314946226
511,3927.61,1.7516767360138494
512,3930.2999999999997,1.7485594394305362
513,3932.98,1.921698143949763
514,3935.67,1.7805628473664497
515,3938.35,1.6194335518856766
516,3941.04,1.806008255302363
517,3943.72,1.98925895982159
518,3946.4,2.097277664340817
519,3949.09,1.8256793677575034
520,3951.77,1.8582430722767302
521,3954.46,2.119382775693417
522,3957.1400000000003,1.8934684802126438
523,3959.83,1.7583341836293305
524,3962.51,1.8782428881485573
525,3965.19,1.6098765926677843
526,3967.8799999999997,1.7990082960844707
527,3970.5600000000004,1.7261130006036975
528,3973.25,1.6606547040203843
529,3975.93,1.6359884085396112
530,3978.62,1.4000631119562978
531,3981.2999999999997,1.6469878164755247
532,3983.9900000000002,1.7366615198922113
533,3986.67,1.798895224411438
534,3989.35,1.9722559289306651
535,3992.04,2.153384632347352
536,3994.72,2.134276336866579
537,3997.4100000000003,2.0573710402832655
538,4000.09,1.9655847448024921
539,4002.78,2.2013874482191786
540,4005.46,2.0807091527384056
541,4008.1499999999996,1.964910856155092
542,4010.8300000000004,2.0705945606743192
543,4013.51,2.338969265193546
544,4016.2,2.1987209686102327
545,4018.88,2.283848673129459
546,4021.5699999999997,2.134488376546146
547,4024.2499999999995,2.024700081065373
548,4026.94,2.01091478448206
549,4029.62,2.1031534890012864
550,4032.2999999999997,2.1162701935205135
551,4034.99,2.0449218969372
552,4037.67,1.8619016014564267
553,4040.36,2.0036923048731135
554,4043.04,2.0431460093923404
555,4045.73,1.977686712809027
556,4048.41,1.9090154173282539
557,4051.1000000000004,1.9564601207449404
558,4053.78,2.1183748252641674
559,4056.46,2.256841529783394
560,4059.15,2.033472233200081
561,4061.8300000000004,2.0771489377193078
562,4064.52,2.133817641135994
563,4067.2000000000003,2.1131523456552213
564,4069.89,2.0733630490719075
565,4072.5699999999997,2.0580317535911345
566,4075.2500000000005,2.0981524581103614
567,4077.94,2.0883671615270485
568,4080.62,2.184383866046275
569,4083.31,2.1468175694629617
570,4085.99,2.0893702739821887
571,4088.6800000000003,2.198600977398875
572,4091.36,2.097590681918102
573,4094.05,1.9892373853347887
574,4096.7300000000005,1.9866860898540157
575,4099.41,2.1531567943732424
576,4102.1,2.127591497789929
577,4104.78,1.9571282023091559
578,4107.469999999999,1.9751249057258427
579,4110.150000000001,2.0020216102450696
580,4112.84,2.153591313661756
581,4115.5199999999995,1.997575018180983
582,4118.2,2.07870072270021
583,4120.889999999999,2.0365784261168964
584,4123.57,2.058363130636123
585,4126.26,2.27316283405281
