,lambda (Angstroms),Total Flux (erg/s/cm^2/Angstrom)
0,102.07000000000001,10.64447089858909
1,103.97,10.61413137970741
2,104.712855,10.602269346931184
3,105.9,10.50269345539462
4,108.12,10.316483280904226
5,109.88,10.168857204821796
6,114.0,9.82327797439996
7,118.01,9.486925383711032
8,120.22644299999999,9.301013781080858
9,121.02999999999999,9.244505095659838
10,125.0,8.96532182333191
11,127.03,8.822565641110854
12,127.91,8.760681207977758
13,130.89,8.551117966878905
14,132.1,8.466026974840183
15,133.94,8.336632254067446
16,137.06,8.117224028739589
17,138.038426,8.048417992057898
18,139.93,7.953336437672752
19,142.86,7.8060610085593565
20,146.85999999999999,7.605007582944872
21,150.98,7.397914462730721
22,154.85,7.203388473303789
23,158.489319,7.020458062896743
24,158.82,7.007891839237798
25,162.15,6.881348236963216
26,165.92,6.738085604545567
27,170.17999999999998,6.576201849842228
28,172.94,6.471320431977529
29,176.97,6.318177907086247
30,179.85000000000002,6.208736536915257
31,181.93,6.129695612296209
32,181.970086,6.12817232698348
33,186.17000000000002,6.006415402131375
34,190.94,5.86813304846826
35,194.04999999999998,5.7779747057312605
36,198.10999999999999,5.660275444866784
37,201.79,5.553594310141299
38,205.07000000000002,5.458507845030539
39,208.929613,5.346615999051641
40,209.85,5.326556105453643
41,216.22,5.187732781862823
42,220.23999999999998,5.100122773559354
43,222.79,5.0445485813922275
44,226.94,4.954106416086906
45,230.09,4.885540025180456
46,233.83,4.80420593888867
47,239.83,4.673555424795433
48,239.88329199999998,4.672393811402558
49,245.98,4.569986076712926
50,251.70999999999998,4.473805890750005
51,256.97999999999996,4.3852122036556604
52,259.96,4.335253096607055
53,264.18,4.264420822012721
54,269.09,4.181973993915525
55,274.1,4.0978432113468966
56,275.42287,4.075628906464166
57,279.19,4.027083582555603
58,283.72999999999996,3.968581411826419
59,289.67,3.89200034960894
60,295.74,3.8137923650404044
61,301.23,3.7430341471227346
62,308.25,3.6525785186657127
63,316.227766,3.5497818044730756
64,318.35,3.529359951935293
65,328.02,3.4362909812819233
66,337.99,3.3403258552883246
67,348.26000000000005,3.241466264254497
68,357.19,3.1555086511136916
69,363.078055,3.0988363773245906
70,366.36,3.0751824167151236
71,374.89000000000004,3.013689969258435
72,385.39,2.937961880655243
73,395.28000000000003,2.8666998138537596
74,405.42,2.7936066198712473
75,413.90999999999997,2.7323955974835235
76,416.86938299999997,2.711055396615832
77,421.6,2.685004144001441
78,430.43,2.636386130582179
79,441.46999999999997,2.5756068790772346
80,450.72,2.5246685358724585
81,460.16,2.472684034121854
82,469.79,2.4196559048254214
83,478.630092,2.370986620483182
84,479.63,2.366752940129718
85,489.66999999999996,2.3242149095568942
86,499.93,2.2807779502205214
87,505.71,2.2562880027054883
88,511.57,2.231546858640075
89,519.88,2.196355296844241
90,529.5500000000001,2.1553936946919285
91,539.39,2.1136888819950572
92,549.42,2.07124205886603
93,549.5408739999999,2.0707306527571134
94,559.64,2.0381447593319795
95,570.04,2.004580301727199
96,580.64,1.9703087336877103
97,590.0699999999999,1.9398951358412597
98,599.66,1.9088971094470428
99,609.4,1.8773737569767954
100,619.31,1.8455166294870475
101,629.3700000000001,1.813032711921268
102,630.957344,1.8079056783790117
103,639.6,1.7857771471182757
104,649.99,1.7592190142093498
105,657.51,1.739983086470647
106,665.13,1.720508159945525
107,674.38,1.6968156582017746
108,685.34,1.6687140632102608
109,694.8699999999999,1.644503752864538
110,704.5400000000001,1.6196732542178276
111,715.99,1.5905194551728612
112,724.43596,1.5689166397571805
113,725.95,1.5660433198338983
114,734.35,1.5501117078718272
115,744.5699999999999,1.5308159920179738
116,754.9300000000001,1.5111983758647518
117,765.43,1.4912517414121629
118,774.29,1.474593157466454
119,785.0600000000001,1.4542177334365123
120,794.15,1.4370183459989854
121,805.1999999999999,1.416095861370308
122,814.53,1.3984225524195784
123,825.86,1.3770772841921655
124,831.763771,1.365584753800366
125,835.4200000000001,1.3602225615838346
126,845.09,1.3470203789018764
127,854.88,1.3331749271307933
128,864.78,1.3192925597780125
129,874.79,1.3052658558435342
130,884.92,1.2911295978199315
131,895.17,1.276739483707204
132,905.53,1.2620014820127787
133,916.02,1.249090776721802
134,924.5,1.2701990964236627
135,935.2,1.3017118134767178
136,946.0300000000001,1.3660571969332214
137,954.78,1.4278007779345514
138,954.992586,1.4278849912986968
139,965.84,1.432515009950151
140,974.78,1.1987403019544332
141,986.06,1.3458651124699037
142,995.1899999999999,1.358739865635351
143,1004.4,1.474353498237078
144,1016.03,1.4533151087862735
145,1025.43,1.2429517925491653
146,1034.92,1.3093168531778723
147,1044.49,1.5414229932428591
148,1054.1599999999999,1.519227507603196
149,1063.91,1.3916261013998126
150,1076.23,1.4552519345869224
151,1086.1899999999998,1.335428774403774
152,1096.24,1.4564337910864404
153,1096.4782,1.4555429433474374
154,1103.84,1.4298654785930898
155,1114.05,1.3951958903301152
156,1124.36,1.3356427745621164
157,1134.76,1.450396914039596
158,1145.26,1.3879238260120512
159,1155.86,1.4126639104794823
160,1163.8700000000001,1.419583527327041
161,1174.64,1.2359779050359305
162,1185.51,1.3800526552397963
163,1193.73,1.1955821343268043
164,1204.77,1.0829707777721285
165,1215.92,1.0139519109619262
166,1224.35,1.1770939522883832
167,1235.68,1.3591996959691373
168,1244.24,1.4069053615390625
169,1255.76,1.3598666329602707
170,1258.92541,1.3245359300070456
171,1264.46,1.2645704420795987
172,1276.16,1.4179713912555187
173,1285.01,1.4478271938373044
174,1293.91,1.2772046235523207
175,1305.89,1.258373264674331
176,1314.94,1.4040005757890386
177,1324.05,1.3676828994636225
178,1336.3,1.2724015471050771
179,1345.5700000000002,1.3926146376059985
180,1354.8899999999999,1.3627556552401503
181,1364.29,1.2771447562874707
182,1373.74,1.3051419844680214
183,1386.4499999999998,1.3016828617351963
184,1396.0600000000002,1.2130323567420844
185,1405.74,1.2258612497354953
186,1415.48,1.2279704552887825
187,1425.3,1.2431990442552385
188,1435.18,1.228644945781571
189,1441.8,1.2609061982212797
190,1445.43977,1.2656374588125487
191,1448.46,1.2703035013431077
192,1455.14,1.245559803912538
193,1465.2299999999998,1.186180559290615
194,1475.38,1.1816562302606324
195,1485.61,1.1911067886865716
196,1495.91,1.1982789986364417
197,1506.2800000000002,1.1579619601102429
198,1513.23,1.085740532843408
199,1516.72,1.1243110731079753
200,1523.72,1.1008033255010912
201,1534.2800000000002,1.0228274696827055
202,1544.9199999999998,1.0710615013202416
203,1555.63,1.0365023844817083
204,1566.41,1.0376090191671064
205,1573.64,1.0668896979959959
206,1584.5500000000002,1.090619199797266
207,1595.53,1.0963803531224676
208,1606.59,1.0805026939035904
209,1614.01,1.0798799554402931
210,1625.19,1.0410862274052977
211,1636.46,1.0719736227582137
212,1644.01,1.0774700514107887
213,1655.4099999999999,1.0250688138795772
214,1659.58691,1.0412281439457787
215,1666.88,1.0706807966732697
216,1670.73,0.9995214920802147
217,1678.4399999999998,1.0710933158691875
218,1686.1799999999998,1.0976613385834093
219,1693.97,1.0562249261730459
220,1705.71,1.027459038920457
221,1713.5800000000002,0.9945869903107574
222,1725.46,0.9876674647093304
223,1733.43,1.0223669458504605
224,1745.44,1.0046838489251122
225,1753.5,1.041317326841989
226,1765.65,0.9851598915678021
227,1773.8000000000002,0.9968999662604259
228,1786.1,1.0026983256124837
229,1794.3400000000001,1.0416698970808542
230,1806.78,1.0316115180840737
231,1815.1200000000001,0.9805057193032737
232,1823.5000000000002,0.9902233524228057
233,1836.14,0.9617628329276847
234,1844.6100000000001,0.9145902628229635
235,1853.13,0.9132931575936571
236,1865.97,0.9253043976001957
237,1874.59,0.9663707221217192
238,1883.24,0.9195548455684914
239,1896.29,0.8961767780517724
240,1905.04,0.9208389312493745
241,1905.46072,0.9197828006097925
242,1913.84,0.8996364877192189
243,1927.1,0.8873129693702625
244,1936.0,0.8964274478539946
245,1944.94,0.9193557979264175
246,1953.91,0.8847954266903587
247,1967.46,0.9301876023594116
248,1976.54,0.9418945529922529
249,1985.6599999999999,0.9098071752137851
250,1994.83,0.892481661921181
251,2004.03,0.904468627320095
252,2013.2900000000002,0.8827035501020455
253,2027.2399999999998,0.9022927416580078
254,2036.6000000000001,0.8737210934116854
255,2046.0,0.8934073167540542
256,2055.44,0.8638714116851138
257,2064.9300000000003,0.863277971102037
258,2074.46,0.9002687021076514
259,2079.24,0.8780335069562176
260,2084.04,0.8986637975991294
261,2093.66,0.8659577646792982
262,2103.3199999999997,0.864294703348158
263,2113.0299999999997,0.8682080065028814
264,2122.7799999999997,0.8710894812462958
265,2132.58,0.8296621204755739
266,2147.36,0.8426255224968726
267,2157.27,0.8587787835950508
268,2167.23,0.8379524091790926
269,2177.23,0.8317374063518252
270,2187.28,0.8233800680104215
271,2187.7616199999998,0.8243485403179152
272,2197.38,0.8445942166912714
273,2207.52,0.8280968852291725
274,2212.61,0.7993189859054955
275,2222.82,0.7840333868692007
276,2233.08,0.8175948538513372
277,2243.3900000000003,0.7932621868519052
278,2253.75,0.7680171858709048
279,2264.15,0.7758992177046495
280,2274.6,0.7881487155568256
281,2285.1,0.8019647794274332
282,2295.65,0.7707284093164722
283,2306.24,0.7718028720202565
284,2316.89,0.7470484339461585
285,2327.58,0.6506928286868057
286,2332.95,0.708110959066345
287,2343.72,0.6913952194364825
288,2354.5299999999997,0.7276683126213652
289,2365.4,0.6856238050283655
290,2376.32,0.6973193634537974
291,2387.29,0.6633950878976609
292,2392.79,0.6881413499251219
293,2403.8399999999997,0.6708612399984757
294,2414.9300000000003,0.6796862628865745
295,2426.08,0.7077211849967913
296,2437.28,0.6902618731254392
297,2442.9,0.7139085335971358
298,2454.17,0.7071250541515881
299,2465.5,0.6994165739281579
300,2476.88,0.6810469597231592
301,2482.59,0.6844176190280326
302,2494.0499999999997,0.6571819704525244
303,2505.56,0.7069079878954475
304,2511.34,0.6505885796261248
305,2511.88643,0.6512771687166055
306,2517.13,0.6581477994340905
307,2522.93,0.642385049964898
308,2534.5800000000004,0.6506757238759164
309,2546.27,0.6432442360664579
310,2552.14,0.6769665285864304
311,2563.92,0.659403751905898
312,2575.76,0.68377078264465
313,2587.65,0.6747780862328053
314,2593.61,0.665863789881704
315,2605.5899999999997,0.6493328045987858
316,2617.61,0.6408714575953904
317,2623.65,0.6617200378033348
318,2635.7599999999998,0.6830161019288656
319,2647.92,0.7251724389037999
320,2654.03,0.7457466611009091
321,2666.2799999999997,0.68358820920477
322,2672.4199999999996,0.7063715351115214
323,2684.7599999999998,0.7077545943443084
324,2697.1499999999996,0.678395226426499
325,2703.37,0.695134728892296
326,2715.8500000000004,0.6635950721034127
327,2722.1099999999997,0.6581081128487327
328,2734.67,0.679988132618895
329,2747.29,0.6112925598083419
330,2753.63,0.6237473771127073
331,2766.3399999999997,0.6411566154310804
332,2772.7200000000003,0.6595157710149686
333,2785.5099999999998,0.6244737858923872
334,2791.9300000000003,0.5452582797557982
335,2804.82,0.566084940332024
336,2817.77,0.6458626083275338
337,2824.26,0.6785633441801098
338,2837.2999999999997,0.6610871233045461
339,2843.84,0.6441318320065255
340,2856.97,0.6154635222598881
341,2863.55,0.6741851692413903
342,2876.77,0.6815066706236792
343,2883.3999999999996,0.6724976904545852
344,2884.0315,0.6725546636402224
345,2896.71,0.6742442926354103
346,2910.08,0.7232599702330381
347,2930.25,0.6971752847539171
348,2950.56,0.6846702100349806
349,2971.02,0.6955161111305277
350,2991.61,0.6946847579319605
351,3012.35,0.7015215805478767
352,3033.23,0.6995599139239774
353,3047.23,0.700473689942436
354,3068.3500000000004,0.7040822846217102
355,3089.6200000000003,0.7066475551154681
356,3111.04,0.7091973014237095
357,3132.6,0.6981412584921355
358,3147.06,0.6979462270083432
359,3168.88,0.7015544754885404
360,3190.8399999999997,0.6675266347289224
361,3212.96,0.6884445348380865
362,3227.79,0.6545992103633536
363,3250.1600000000003,0.6974814368299903
364,3272.6899999999996,0.7226120041654096
365,3287.8,0.7151776012110456
366,3310.59,0.7094672599582361
367,3311.31121,0.7095158576429967
368,3318.2200000000003,0.7101899560448914
369,3325.8700000000003,0.7073407575769352
370,3333.54,0.7262440929691933
371,3341.22,0.6969590952915588
372,3348.92,0.7441523314741386
373,3356.6400000000003,0.719904901516933
374,3364.38,0.645531305419942
375,3372.1400000000003,0.6524885431831653
376,3379.91,0.717250447876496
377,3387.7000000000003,0.716758286430041
378,3395.5099999999998,0.6947502588438007
379,3403.34,0.7395693651177748
380,3411.18,0.6867848383218562
381,3419.05,0.6979896123162592
382,3426.9300000000003,0.7082874532407695
383,3434.83,0.7414773280254945
384,3442.75,0.6848252366704337
385,3450.68,0.7020150122454804
386,3458.64,0.7015102886108486
387,3466.61,0.6891442319063241
388,3474.6,0.7138950090620142
389,3482.6099999999997,0.6940788200779189
390,3490.64,0.7141376649540379
391,3498.69,0.6687454436903714
392,3506.75,0.7180789893568121
393,3514.84,0.6815101358135747
394,3522.94,0.7183498492004444
395,3531.06,0.6781536964475288
396,3539.2000000000003,0.7210978775548275
397,3547.36,0.7385068925223408
398,3555.54,0.7264406413500685
399,3563.73,0.7158345571079034
400,3571.95,0.6710178736560601
401,3580.18,0.6716386571343242
402,3588.44,0.6136979414029098
403,3596.71,0.6834295926016029
404,3605.0,0.7120592776605102
405,3613.31,0.6615645965796322
406,3621.64,0.6610719493589687
407,3629.9900000000002,0.7697259359985196
408,3633.22,0.6378418544231603
409,3635.9599999999996,0.5908300932725459
410,3638.71,0.6120230990520387
411,3641.45,0.7607690379014242
412,3644.19,0.8231029767508098
413,3646.94,0.8411427825303026
414,3649.6800000000003,0.6750535213796882
415,3652.42,0.7112231602290737
416,3655.16,0.7178793990784594
417,3657.91,0.7924246048579522
418,3660.6499999999996,0.8459715437073377
419,3663.3900000000003,0.7798885825567233
420,3666.14,0.9155484883362162
421,3668.88,0.8002901271856017
422,3671.62,0.6330180660349873
423,3674.3700000000003,0.7420810718144801
424,3677.11,0.7974010106638658
425,3679.85,0.7144532495132513
426,3682.6,0.7682719552927442
427,3685.3399999999997,0.8234342941421297
428,3688.0800000000004,0.7224003329915153
429,3690.82,0.7208606718409007
430,3693.5699999999997,0.7844908776203936
431,3696.31,0.8341762164697792
432,3699.0499999999997,0.7840912553191648
433,3701.8,0.7265549610986577
434,3704.54,0.7393189999480432
435,3707.28,0.7284800387974287
436,3710.03,0.6705499445769216
437,3712.7700000000004,0.7887186834263071
438,3715.51,0.7563259222756928
439,3718.2599999999998,0.9630307280551855
440,3721.0,1.256821666904571
441,3723.74,1.4768118057539568
442,3726.48,1.4007999446033423
443,3729.23,1.1314269503828351
444,3731.97,1.0385500892322208
445,3734.71,0.8447597280816064
446,3737.46,0.7930156338610991
447,3740.2000000000003,0.7298091727104847
448,3742.94,0.7073855115598703
449,3745.69,0.7344492173393631
450,3748.43,0.7291268561887486
451,3751.1699999999996,0.8050943950381343
452,3753.92,0.820376100817627
453,3756.66,0.7251345396670126
454,3759.4,0.7629592785163981
455,3762.14,0.8551614173657838
456,3764.8900000000003,0.7643681231452766
457,3767.63,0.7475004619946621
458,3770.37,0.8107013008440478
459,3773.12,0.8702332066235405
460,3775.8599999999997,0.9257504454729262
461,3778.6,0.9057306843223117
462,3781.35,0.8673047901018045
463,3784.09,0.8213179289511902
464,3786.83,0.8100063678005757
465,3789.5800000000004,0.8384487735800685
466,3792.32,0.7983331124294542
467,3795.06,0.7888339512788396
468,3797.8,0.8130645901282252
469,3800.5499999999997,0.857307895907718
470,3801.8939600000003,0.8492470488916628
471,3803.2899999999995,0.8409035162576097
472,3806.03,0.9586188108241571
473,3808.7799999999997,0.9258859849329182
474,3811.52,0.9352802794994657
475,3814.2599999999998,0.9058225740660131
476,3817.01,0.8708439481747742
477,3819.75,0.7882698427413216
478,3822.4900000000002,0.7940782373078691
479,3825.23,0.7847161318744165
480,3827.9800000000005,0.7770840059831776
481,3830.7200000000003,0.807519800549725
482,3833.46,0.7862970951162724
483,3836.21,0.7428864692250335
484,3838.95,0.771391363791581
485,3841.6899999999996,0.9056167583581285
486,3844.44,0.9920407324668895
487,3847.18,0.997849527033437
488,3849.92,0.9685100215999844
489,3852.67,0.9938974957087455
490,3855.4100000000003,1.002700890275293
491,3858.15,0.9587820848418404
492,3860.8900000000003,0.9581285794083878
493,3863.64,1.009640753517149
494,3866.3799999999997,1.0648618480836962
495,3869.12,0.9759044426502438
496,3871.87,0.9428561167590049
497,3874.61,0.9344400113255523
498,3877.35,0.9118385058920998
499,3880.1000000000004,0.869294280000861
500,3882.84,0.8152090745674083
501,3885.58,0.7575380691339557
502,3888.33,0.7757154432427169
503,3891.0699999999997,0.7648560378092644
504,3893.81,0.8108168323758117
505,3896.5499999999997,0.8924383269423591
506,3899.3,0.9758678010511201
507,3902.04,1.0261632956176676
508,3904.7799999999997,0.9545434901842151
509,3907.53,0.9397392642929762
510,3910.27,0.9612700588595235
511,3913.01,1.0040000534260711
512,3915.7599999999998,0.9557026275348321
513,3918.4999999999995,0.9648212221013797
514,3921.24,0.9404072166679271
515,3923.99,0.8152333907766882
516,3926.73,0.8193868853432356
517,3929.47,0.8009224799097829
518,3932.21,0.8548824744763304
519,3934.96,0.8638784485850916
520,3937.7000000000003,0.914883143151639
521,3940.44,0.8872378377181864
522,3943.1899999999996,0.9202700118269475
523,3945.9300000000003,0.944637706393495
524,3948.67,0.9414623009600424
525,3951.42,0.9225995750688035
526,3954.16,0.9139470696353509
527,3956.8999999999996,0.8885083642018984
528,3959.65,0.8119590383106595
529,3962.39,0.7224103328772069
530,3965.13,0.6829042274437543
531,3967.87,0.7417499220103018
532,3970.6200000000003,0.8314057961190628
533,3973.36,0.8204281906856103
534,3976.1000000000004,0.8115389852521577
535,3978.85,0.9117153593609189
536,3981.5899999999997,0.9515687539274663
537,3984.33,1.0044254484940136
538,3987.08,0.9695254226027749
539,3989.82,1.0076451171693221
540,3992.56,1.0716926117358696
541,3995.3100000000004,1.0157112858446307
542,3998.05,0.9951588804111782
543,4000.79,1.0024254749777257
544,4003.53,1.093701069544273
545,4006.2799999999997,1.0645142436530342
546,4009.02,1.0932560382195815
547,4011.7599999999998,1.105605732786129
548,4014.51,1.09281080689489
549,4017.25,1.1123714014614376
550,4019.99,1.062896796027985
551,4022.7400000000002,1.080876270136746
552,4025.48,1.0786072647032936
553,4028.2200000000003,1.069363859269841
554,4030.97,1.066538033378602
555,4033.7099999999996,1.0852713279451496
556,4036.45,0.9812222225116969
557,4039.1899999999996,1.0747833170782444
558,4041.94,1.0442960911870056
559,4044.68,1.052981385753553
560,4047.42,1.0106780803201003
561,4050.17,1.0444191544288615
562,4052.9100000000003,1.1261983489954088
563,4055.65,1.1121082435619563
564,4058.3999999999996,1.1426175176707174
565,4061.14,1.1085107122372648
566,4063.88,1.0607699068038121
567,4066.63,1.0776065809125734
568,4069.37,0.9726907754791209
569,4072.1099999999997,0.9838188700456683
570,4074.85,0.9252417646122156
571,4077.6,1.0286882387209768
572,4080.34,1.0553809332875241
573,4083.08,1.0125653278540716
574,4085.83,0.9590668019628328
575,4088.57,0.9531724965293802
576,4091.3100000000004,0.9820716910959275
577,4094.06,0.9468958652046886
578,4096.8,0.9298897597712361
579,4099.54,0.8900686543377836
580,4102.29,0.9073000284465447
581,4105.03,0.9564133230130921
582,4107.77,0.9384612175796395
583,4110.5199999999995,1.0652345916884007
584,4113.26,1.0370775862549482
585,4116.0,1.0047432808214956
586,4118.74,1.037109975388043
587,4121.49,1.0236059494968042
588,4124.23,1.1127932440633514
589,4126.97,1.086330138629899
590,4129.72,1.10029031273866
591,4132.46,1.1476310073052076
592,4135.2,1.0498076018717548
593,4137.95,1.081263175980516
594,4140.6900000000005,1.0287150705470633
595,4143.43,1.0482756651136107
596,4146.18,1.054394539222372
597,4148.92,1.0873131337889195
598,4151.66,1.050486928355467
