,lambda (Angstroms),Total Flux (erg/s/cm^2/Angstrom)
0,102.08,0.0012634388158156583
1,103.97999999999999,0.0014773446396493504
2,104.712855,0.0015598517920713034
3,105.91,0.0014474049935454534
4,107.88000000000001,0.0012623679397717122
5,109.89,0.0010735851849554606
6,114.00999999999999,0.0006866205733566755
7,118.02,0.00031000136575479837
8,120.22644299999999,0.00010309540551174288
9,121.05,9.964761486616298e-05
10,125.01,8.267316754435015e-05
11,127.04,7.396768350438045e-05
12,127.92,7.022472623286652e-05
13,130.9,5.746867254069426e-05
14,132.11,5.2476404917362536e-05
15,133.95000000000002,4.4644583167833354e-05
16,137.07,3.167213311428398e-05
17,138.038426,2.7584444116621824e-05
18,139.94,2.7531170450965355e-05
19,142.87,3.2375318395760936e-05
20,146.88,4.577121531679516e-05
21,150.99,4.822542358748111e-05
22,154.85999999999999,5.1409863419002916e-05
23,158.489319,5.4814314296736715e-05
24,158.83999999999997,5.511438810496572e-05
25,162.16000000000003,5.7786066467851614e-05
26,165.94,6.241943972439038e-05
27,170.20000000000002,6.666736069604517e-05
28,172.95999999999998,7.047297005796237e-05
29,176.98999999999998,7.558450858279074e-05
30,179.87,7.961798487348694e-05
31,181.95,8.268960830565641e-05
32,181.970086,8.271831403325191e-05
33,186.19,9.006475962653395e-05
34,190.95999999999998,9.994366958665057e-05
35,194.07,0.0001069178466046721
36,198.13,0.00011540391801726613
37,201.81,0.00012511412767203116
38,205.09,0.00013249537758171302
39,208.929613,0.00013800634596913575
40,209.86999999999998,0.00013971814634304244
41,216.24999999999997,0.00016409532547887606
42,219.76,0.00017764855992507923
43,222.82,0.0001855887796986922
44,226.96,0.00020097569468652157
45,230.12,0.000301106806609599
46,233.86,0.0005096097529995704
47,239.85,0.0006436245727524927
48,239.88329199999998,0.0006435942136718015
49,246.01000000000002,0.0006328570756479878
50,251.73999999999998,0.0006888347591097679
51,257.01,0.0006029125993966059
52,259.98,0.0006964927238087328
53,264.21,0.0007428439403957015
54,269.12,0.0007577243686325847
55,274.12,0.0007712745248819565
56,275.42287,0.0007747960004412569
57,279.21999999999997,0.0007880400847844373
58,283.76,0.0008059465674494977
59,289.7,0.0007905010689980569
60,295.77,0.0008234899687286552
61,301.26,0.0008331652534932326
62,308.28000000000003,0.0008642098553233479
63,316.227766,0.0009023655130794232
64,317.65000000000003,0.0009081945524677826
65,328.06,0.0009275040855850863
66,338.02,0.0009390517339855038
67,348.3,0.0009465397670734848
68,357.22999999999996,0.0009545869460108069
69,363.078055,0.0009611195213911265
70,366.39,0.0009665700221866212
71,374.93,0.000972896148799411
72,385.43,0.0009516433782413658
73,395.32,0.0009841944486395499
74,405.46,0.000990962153072066
75,413.95,0.0009907073928779894
76,416.86938299999997,0.000988895164367326
77,421.65000000000003,0.0009854844116577055
78,430.48,0.000982266526088379
79,440.5,0.000983684596937229
80,450.76,0.0009721681371477286
81,460.2,0.0009670751653725935
82,469.84,0.0009598779013988327
83,478.630092,0.0009573589181486248
84,479.67999999999995,0.0009567206678367811
85,489.72,0.0009382184663157435
86,499.96999999999997,0.0009343257815955608
87,505.76000000000005,0.0009250067591048429
88,511.62,0.0009550809755477434
89,519.93,0.000947261354667283
90,529.6,0.0009309250044971203
91,539.45,0.0009046460401562617
92,549.48,0.0009028362616447073
93,549.5408739999999,0.0009028976299542136
94,559.6899999999999,0.0009143771676306434
95,570.1,0.0009219031920910866
96,579.36,0.0009010488516015288
97,590.13,0.0009125593155245809
98,599.72,0.0008918428945424148
99,609.46,0.0008224861733363356
100,619.37,0.0009211130652098219
101,629.43,0.0009143166568593953
102,630.957344,0.0009151519938000621
103,639.66,0.0009211240689494896
104,650.05,0.0009302259591841441
105,657.5799999999999,0.0009266322071597888
106,665.1899999999999,0.0009482275535203009
107,674.45,0.0009553269665687034
108,685.4100000000001,0.0009268230452955381
109,694.94,0.001000680352892868
110,704.61,0.0009577579576637159
111,716.0600000000001,0.0010433600264978635
112,724.43596,0.0010578578368328428
113,726.02,0.0010605450175519694
114,734.43,0.0010776197231895132
115,744.64,0.0011123733396650565
116,755.0,0.001140444782043767
117,765.51,0.001105835050325644
118,774.37,0.0012150332336726879
119,785.14,0.0012264563335200535
120,794.2299999999999,0.0012829809832519531
121,805.28,0.0013273578247852298
122,814.61,0.001363881395962196
123,825.94,0.001436592979181384
124,831.763771,0.0013303116180376023
125,835.5,0.001261586342313905
126,845.18,0.0014981370355417105
127,854.96,0.0015277328082450095
128,864.8599999999999,0.0016115346763189012
129,874.88,0.0016886626397633856
130,885.01,0.0017777136906309133
131,895.26,0.0018505538368690337
132,905.62,0.001866416070530197
133,914.0,0.0023731257305765825
134,924.59,0.010815745147031382
135,935.29,0.022513263650909224
136,943.95,0.041322224533486995
137,954.88,0.05782162022015847
138,954.992586,0.05789339799718139
139,965.9399999999999,0.06487369739273961
140,974.87,0.011825737368018388
141,983.89,0.05421373593207377
142,995.2900000000001,0.057688047177110506
143,1004.5,0.0847273427619165
144,1016.13,0.08222975040049345
145,1025.53,0.037255243006050064
146,1035.02,0.05848964420038328
147,1044.6,0.1106589539834931
148,1054.26,0.10839590251218212
149,1064.02,0.08551138947284516
150,1073.86,0.10209179517908738
151,1083.8,0.08091548931730362
152,1093.83,0.10764828204429648
153,1096.4782,0.1065048566186463
154,1103.9499999999998,0.10327847383097406
155,1114.16,0.09930988276118623
156,1124.47,0.0887181267837609
157,1134.88,0.11375535589869809
158,1145.38,0.10350724059676152
159,1155.97,0.11015102087795121
160,1163.99,0.11322992728542443
161,1174.76,0.07744842873286666
162,1185.63,0.11014736527267137
163,1193.8500000000001,0.07709063186486961
164,1204.89,0.0562393900616906
165,1216.04,0.03954516286011035
166,1224.47,0.07691314914626986
167,1235.8,0.11454170311094211
168,1244.3700000000001,0.12530078252640914
169,1255.88,0.1199395176573339
170,1258.92541,0.11435391123608776
171,1264.58,0.10398308793852688
172,1276.29,0.13333632881544927
173,1285.1299999999999,0.13962475967386037
174,1294.04,0.1104026907766254
175,1306.02,0.10963753259605583
176,1315.0700000000002,0.1370759641875287
177,1324.18,0.13120629598844785
178,1336.44,0.116671138785294
179,1345.7,0.13834487110982868
180,1355.0300000000002,0.13394920367871732
181,1364.42,0.1199391364570522
182,1373.88,0.125594669479741
183,1386.5900000000001,0.12674891384743386
184,1396.2,0.10813914739373824
185,1405.8799999999999,0.11193898118439656
186,1415.62,0.11774711518450108
187,1425.44,0.12048854946386726
188,1435.32,0.12048958395267967
189,1441.9399999999998,0.12675010706158027
190,1445.43977,0.12783205267982548
191,1448.6,0.12880902853721432
192,1455.29,0.12501664813736116
193,1465.3700000000001,0.11559827766942099
194,1475.53,0.11559760743586223
195,1485.7600000000002,0.11774563740738724
196,1496.06,0.11966436758399598
197,1506.43,0.11322619796568847
198,1513.38,0.10115091832757496
199,1516.87,0.10789042855246471
200,1523.87,0.10495184906083958
201,1534.43,0.09098403999918797
202,1545.0700000000002,0.09771508117191778
203,1555.78,0.09310603254973135
204,1566.56,0.09637409413262865
205,1573.79,0.10303389531485015
206,1584.7,0.10789142727861727
207,1595.6899999999998,0.10988835947676583
208,1606.7500000000002,0.10789099187999812
209,1614.17,0.1081385136188755
210,1625.3500000000001,0.10279494637367993
211,1636.6200000000001,0.10939137939216349
212,1644.18,0.11090860154120835
213,1655.5700000000002,0.10350493491126404
214,1659.58691,0.10807554881613421
215,1663.21,0.11219812419786655
216,1670.8899999999999,0.10068958851565983
217,1678.6000000000001,0.11349385347531951
218,1686.3500000000001,0.11774731929080103
219,1694.14,0.11065178596210438
220,1705.8799999999999,0.10665783714581445
221,1713.75,0.10115290552876148
222,1725.6299999999999,0.100460759707848
223,1733.6,0.10714593023034963
224,1745.61,0.10495428719085712
225,1753.6699999999998,0.11116875963895789
226,1765.83,0.10279601980879728
227,1773.98,0.1044654941824972
228,1786.27,0.10666015713375757
229,1794.52,0.11349613364701208
230,1806.96,0.11271499980760435
231,1815.3,0.10398687824645801
232,1823.68,0.1064110575411335
233,1836.32,0.10256652798083497
234,1844.79,0.09440765920110962
235,1853.31,0.09506381149116154
236,1866.16,0.09817169642392767
237,1874.77,0.10543615063957874
238,1883.42,0.09727610571105166
239,1896.48,0.09376002513688246
240,1905.23,0.09930963234790997
241,1905.46072,0.09921558348974488
242,1914.03,0.09572205095128734
243,1922.8600000000001,0.09311213742786222
244,1936.19,0.09594403979850127
245,1945.1299999999999,0.10092391324137549
246,1954.1100000000001,0.09418413558108583
247,1967.6499999999999,0.10327679216011457
248,1976.7299999999998,0.10567484174191523
249,1985.8600000000001,0.10069198994476103
250,1995.0200000000002,0.09817083732023395
251,2004.2299999999998,0.10092298331675201
252,2013.48,0.0979488682101062
253,2022.7800000000002,0.10162337172450556
254,2036.8,0.0972727550655678
255,2046.2,0.10092162582205746
256,2055.64,0.09483970547538326
257,2065.13,0.0959402037497542
258,2074.67,0.10374454064517032
259,2079.45,0.10279410881708739
260,2084.24,0.10838877671321351
261,2093.8599999999997,0.10256341140230187
262,2103.53,0.10256274471243539
263,2113.2400000000002,0.10470207691940504
264,2122.99,0.10446270802321081
265,2132.79,0.09794466774806174
266,2142.63,0.10185186636974879
267,2152.52,0.105429593612481
268,2167.44,0.10114968213235608
269,2177.45,0.10068730606559669
270,2187.5,0.10161982889567339
271,2187.7616199999998,0.1018175420336045
272,2192.54,0.10542892675035286
273,2202.66,0.10256164927506173
274,2212.83,0.095715522899201
275,2223.04,0.09461516740288457
276,2233.3,0.10279282300599853
277,2243.61,0.09885018970854285
278,2253.97,0.09225351751051755
279,2264.37,0.09353193619203656
280,2274.83,0.09659506619287204
281,2285.33,0.10162136707325181
282,2295.8700000000003,0.09418997883317588
283,2306.47,0.09751145191241642
284,2317.12,0.09185508609108733
285,2322.46,0.07416040351025191
286,2333.18,0.08283773922812535
287,2343.95,0.07821676604542917
288,2354.77,0.08817713396216338
289,2365.64,0.07824019297832797
290,2376.56,0.08175150309392293
291,2387.5299999999997,0.07371801430894828
292,2393.0299999999997,0.07881372524629006
293,2404.08,0.07632619822040401
294,2415.17,0.07902063207406226
295,2426.3199999999997,0.08806300724703697
296,2437.52,0.08548049351944206
297,2443.14,0.09138685709541677
298,2454.42,0.09140505512691047
299,2465.74,0.08872305403794846
300,2477.13,0.084743984488189
301,2482.84,0.08149916004313838
302,2494.3,0.07695337203258146
303,2505.81,0.0914687151214549
304,2511.59,0.0745313522156068
305,2511.88643,0.07456694210897472
306,2517.38,0.07522634198247483
307,2523.18,0.0735209326234885
308,2534.83,0.07788802348000728
309,2546.53,0.0775426339110176
310,2552.4,0.08883116395631933
311,2564.18,0.08272664370651604
312,2576.01,0.08926621303120424
313,2587.9,0.08645324184528223
314,2593.87,0.08391074103956697
315,2605.8399999999997,0.07978006917283137
316,2617.87,0.07779816679548555
317,2623.91,0.0843329853940584
318,2636.02,0.09572942233589897
319,2642.09,0.10991884067916671
320,2654.2900000000004,0.121381036855092
321,2666.54,0.09982295260550876
322,2672.6899999999996,0.1067216802679629
323,2685.02,0.11075367533756607
324,2697.4199999999996,0.09895216981145732
325,2703.64,0.10652571687819956
326,2716.11,0.09452156075637891
327,2722.3799999999997,0.09132463739761265
328,2734.94,0.0985522105098767
329,2747.5699999999997,0.07775773302642884
330,2753.9,0.08390242915705237
331,2766.61,0.09159081099279091
332,2772.9900000000002,0.09658052669790594
333,2785.7900000000004,0.08202905776772917
334,2792.21,0.0625224331324374
335,2805.1,0.06731439343634532
336,2818.05,0.09229151322964306
337,2824.54,0.10768838799863938
338,2837.58,0.10477577702602181
339,2844.12,0.09689120136950961
340,2857.25,0.08248879963097673
341,2863.84,0.10949905354895603
342,2877.0499999999997,0.11762404112960956
343,2883.69,0.11208288462208035
344,2884.0315,0.11222571902990687
345,2897.0,0.11764997945723028
346,2910.37,0.13730037712867701
347,2930.54,0.12729357361581842
348,2950.86,0.12357237007683544
349,2971.31,0.12883866651521134
350,2991.91,0.12946816292746283
351,3012.65,0.1328245593153316
352,3026.55,0.13408595689447217
353,3047.5299999999997,0.13661645324054192
354,3068.65,0.1401600495622289
355,3089.9300000000003,0.1408515458560499
356,3111.34,0.14685474212722974
357,3132.91,0.14256583837054357
358,3147.37,0.1419358358521531
359,3169.19,0.14730663205192632
360,3191.1600000000003,0.13469862822557513
361,3213.28,0.14470522437309957
362,3228.11,0.129895021790269
363,3250.48,0.15442011789425278
364,3273.02,0.16858991396862896
365,3288.12,0.1659364113387745
366,3310.9100000000003,0.16333430736961002
367,3311.31121,0.16333477992931542
368,3318.55,0.16334328319950758
369,3326.2000000000003,0.16074965773023242
370,3333.87,0.17668793219437093
371,3341.5499999999997,0.16078630662521626
372,3349.2499999999995,0.18083588098947526
373,3356.9700000000003,0.1739190552871479
374,3364.71,0.13658082951823422
375,3372.4700000000003,0.1423790036827342
376,3380.24,0.171982577813941
377,3388.04,0.17358885184526832
378,3395.8500000000004,0.16127342584330243
379,3403.68,0.1851852997747502
380,3411.52,0.1605720736729048
381,3419.39,0.16281864747117994
382,3427.27,0.16740032123616186
383,3435.17,0.17450379493455748
384,3443.0899999999997,0.1475197685663667
385,3451.0299999999997,0.1721499421315896
386,3458.98,0.16980681566351938
387,3466.95,0.16368018912886276
388,3474.95,0.17580826249432666
389,3482.96,0.16637853582649736
390,3490.99,0.17503580909208175
391,3499.03,0.15037908232437297
392,3507.1000000000004,0.17833005545678468
393,3515.18,0.15969352855590319
394,3523.29,0.17270960155514223
395,3531.41,0.16919337452108807
396,3539.55,0.1817308474204476
397,3547.71,0.18856792025322075
398,3555.89,0.18176639301940758
399,3564.0899999999997,0.1784721657190081
400,3572.2999999999997,0.1543916383853154
401,3580.54,0.1613174109517432
402,3588.79,0.13450198348487782
403,3597.0600000000004,0.16856375595142614
404,3605.36,0.17370382831809494
405,3613.67,0.15662900065147056
406,3622.0,0.15449797291825984
407,3626.29,0.16877575863548983
408,3629.0299999999997,0.1668048495131612
409,3631.7700000000004,0.1683412403908326
410,3634.52,0.1638655312352108
411,3637.2599999999998,0.1709514221128822
412,3640.0,0.1788898129905536
413,3642.75,0.1781255038349318
414,3645.4900000000002,0.16676929471260318
415,3648.23,0.16747988559027457
416,3650.9799999999996,0.17452057643465277
417,3653.72,0.18667656731232415
418,3656.4600000000005,0.19325645818999554
419,3659.21,0.18799924903437376
420,3661.95,0.19445483991204515
421,3664.69,0.19433083078971652
422,3667.44,0.19134672163409475
423,3670.1800000000003,0.19147131251176613
424,3672.92,0.1883817033894375
425,3675.6699999999996,0.1904142942338157
426,3678.41,0.1878663851114871
427,3681.15,0.18413737598915847
428,3683.9,0.18018546683353667
429,3686.64,0.17986605771120806
430,3689.38,0.18328494858887945
431,3692.13,0.19578623943325765
432,3694.87,0.19848583031092903
433,3697.61,0.19869932118860043
434,3700.3599999999997,0.19209241203297864
435,3703.1,0.17748640291065004
436,3705.84,0.1746719937883214
437,3708.59,0.18386138463269963
438,3711.33,0.193051775510371
439,3714.0699999999997,0.1882661663880424
440,3716.82,0.19403695723242062
441,3719.56,0.202312748110092
442,3722.3,0.22357903898776338
443,3725.0499999999997,0.25375882983214154
444,3727.7900000000004,0.26140432070981295
445,3730.53,0.24084031158748437
446,3733.2799999999997,0.19705590243186258
447,3736.02,0.18746659330953397
448,3738.7599999999998,0.18979328418720534
449,3741.51,0.18635637503158356
450,3744.25,0.17612776590925494
451,3746.9900000000002,0.1755864567869263
452,3749.74,0.17295754763130453
453,3752.4800000000005,0.1847850385089759
454,3755.2200000000003,0.19694992938664727
455,3757.97,0.2053401202310255
456,3760.71,0.19791741110869687
457,3763.45,0.19751820198636827
458,3766.2000000000003,0.19763289283074648
459,3768.94,0.20439928370841787
460,3771.68,0.20156717458608925
461,3774.43,0.21643916543046746
462,3777.17,0.23669315630813884
463,3779.9100000000003,0.24979044718581023
464,3782.66,0.24685063803018845
465,3785.4,0.23778522890785983
466,3788.14,0.23308851978553122
467,3790.89,0.21461001062990942
468,3793.63,0.1977753015075808
469,3796.37,0.1927498923852522
470,3799.1200000000003,0.1969490832296304
471,3801.86,0.2054557741073018
472,3801.8939600000003,0.20567158979423947
473,3804.6000000000004,0.22286846686216083
474,3807.35,0.23841525961422186
475,3810.0899999999997,0.24400065239263902
476,3812.83,0.24839634517105622
477,3815.58,0.23741183792311724
478,3818.32,0.22426203070153444
479,3821.06,0.2198317234799516
480,3823.8100000000004,0.20971741623201265
481,3826.55,0.19141760901042984
482,3829.2900000000004,0.17372150178884702
483,3832.04,0.16404259454090805
484,3834.7799999999997,0.15681508731932522
485,3837.52,0.17086238009774243
486,3840.27,0.19020077284980347
487,3843.01,0.20835036562822065
488,3845.75,0.2196362584066378
489,3848.5000000000005,0.23655935115869886
490,3851.2400000000002,0.23633784393711604
491,3853.98,0.23213833671553322
492,3856.73,0.23227072946759428
493,3859.47,0.23391372224601142
494,3862.21,0.24323741502442864
495,3864.96,0.2550903077764896
496,3867.7,0.25284430055490686
497,3870.44,0.24717089333332404
498,3873.19,0.23940068608538506
499,3875.9300000000003,0.23597367886380224
500,3878.67,0.2307797716422194
501,3881.42,0.21228346439428047
502,3884.16,0.20552665717269764
503,3886.8999999999996,0.19237684995111481
504,3889.65,0.19042274270317586
505,3892.39,0.21093413548159304
506,3895.13,0.23341682826001023
507,3897.88,0.24006662101207127
508,3900.6200000000003,0.25046461379048846
509,3903.36,0.2558548065689056
510,3906.1099999999997,0.2609505993209667
511,3908.85,0.26658049209938384
512,3911.5899999999997,0.278274984877801
513,3914.34,0.27061117762986203
514,3917.08,0.2645293704082793
515,3919.82,0.2593353631866964
516,3922.57,0.24412435593875748
517,3925.3100000000004,0.22792014871717464
518,3928.05,0.19940024149559182
519,3930.7999999999997,0.16820673424765287
520,3933.54,0.16202702702607005
521,3936.2799999999997,0.18227201980448723
522,3939.03,0.21500031255654828
523,3941.77,0.23286580533496545
524,3944.5099999999998,0.24396529811338263
525,3947.26,0.2542111908654437
526,3950.0,0.26185668364386083
527,3952.7400000000002,0.26198137642227803
528,3955.49,0.2502243691743391
529,3958.23,0.23283026195275627
530,3960.97,0.20802195473117344
531,3963.72,0.17531004748323445
532,3966.46,0.15618434026165165
533,3969.2,0.15306803304006883
534,3971.9500000000003,0.17255742579212988
535,3974.69,0.20520681857054704
536,3977.4300000000003,0.23384291134896426
537,3980.18,0.25558740410102526
538,3982.9199999999996,0.2691020968794425
539,3985.66,0.28333598965785967
540,3988.41,0.2912464824099207
541,3991.15,0.29979767518833783
542,3993.89,0.30014446796675504
543,3996.6400000000003,0.3089072607188161
544,3999.38,0.31343625349723325
545,4002.1200000000003,0.3078516462756504
546,4004.87,0.31579753902771146
547,4007.6099999999997,0.3151587318061287
548,4010.35,0.31900402458454585
549,4013.1,0.32363791733660685
550,4015.84,0.32766081011502407
551,4018.59,0.3228116028670851
552,4021.3300000000004,0.3178219956455023
553,4024.07,0.31540738842391947
554,4026.8199999999997,0.3133551811759805
555,4029.56,0.31093167395439764
556,4032.2999999999997,0.30869456673281487
557,4035.05,0.3164362594848759
558,4037.79,0.3253071522632931
559,4040.5299999999997,0.3235141450417103
560,4043.28,0.3155039377937713
561,4046.02,0.3132491305721885
562,4048.76,0.31534512335060566
563,4051.5099999999998,0.3209736161026667
564,4054.25,0.31070080888108387
565,4056.99,0.3094493016595011
566,4059.7400000000002,0.3079920944115621
567,4062.48,0.3079037871899793
568,4065.22,0.30545367996839645
569,4067.9700000000003,0.3112507727204575
570,4070.71,0.3076285654988747
