,lambda (Angstroms),Total Flux (erg/s/cm^2/Angstrom)
0,102.07000000000001,0.0069824552038990455
1,103.97,0.008165657618243553
2,104.712855,0.00862826227799295
3,105.9,0.0080114261313207
4,108.12,0.006857923711785055
5,109.88,0.005943443505351844
6,114.0,0.0038027216114165873
7,118.01,0.0017191647081377817
8,120.22644299999999,0.0005677266792014541
9,121.02999999999999,0.0005484879482210335
10,125.0,0.0004531998696583846
11,127.03,0.0004044755897114885
12,127.91,0.0003833739778847553
13,130.89,0.0003118691669646817
14,132.1,0.00028295796999042335
15,133.94,0.00023883946899816284
16,137.06,0.00016424408018519946
17,138.038426,0.00014081195193587197
18,139.93,0.00013938330149587222
19,142.86,0.000140649893737558
20,146.85999999999999,0.00014755971356579796
21,150.98,0.00014658499675888512
22,154.85,0.00014647010252520726
23,158.489319,0.00014673441859779885
24,158.82,0.00014660779773396687
25,162.15,0.00014521126466591848
26,165.92,0.00014507603785914906
27,170.17999999999998,0.00014414309393425838
28,172.94,0.00014455341139137145
29,176.97,0.00014469793101172133
30,179.85000000000002,0.00014523542835827408
31,181.93,0.0001456885697752289
32,181.970086,0.00014569780940372544
33,186.17000000000002,0.00015390866036100708
34,190.94,0.00016479083578914937
35,194.04999999999998,0.00017247817381462578
36,198.10999999999999,0.00018192538155849535
37,201.79,0.00019242752941500763
38,205.07000000000002,0.00020068224054798603
39,208.929613,0.00020786579089704496
40,209.85,0.00021153903947201133
41,216.22,0.00024819588369783896
42,220.23999999999998,0.00027038873390000944
43,222.79,0.0002837868508192968
44,226.94,0.0003076998509036272
45,230.09,0.0004083322365098057
46,233.83,0.0006027116946580938
47,239.83,0.0007465276815270051
48,239.88329199999998,0.0007466295284231405
49,245.98,0.000729932018081378
50,251.70999999999998,0.0007821132666681771
51,256.97999999999996,0.0006953328398012367
52,259.96,0.0007837745329580711
53,264.18,0.0008242031903815077
54,269.09,0.0008382691609855538
55,274.1,0.0008478286045143257
56,275.42287,0.0008504367432648663
57,279.19,0.0008742230739629833
58,283.72999999999996,0.0009056735594017073
59,289.67,0.0009082479090726373
60,295.74,0.0009599727618508433
61,301.23,0.0009836007623042786
62,308.25,0.0010359064300971953
63,316.227766,0.001095477079507431
64,318.35,0.0011030795714835613
65,328.02,0.0011213133158200187
66,337.99,0.0011313091262682585
67,348.26000000000005,0.0011347573028282808
68,357.19,0.0011408189574223409
69,363.078055,0.0011492669149539636
70,366.36,0.001163573144330557
71,374.89000000000004,0.0011865734283356731
72,385.39,0.0011808999807452532
73,395.28000000000003,0.0012421365972529437
74,405.42,0.0012751606792941951
75,413.90999999999997,0.0012911196888139413
76,416.86938299999997,0.0012929786430680153
77,421.6,0.0012935245390923917
78,430.43,0.0013028637139971193
79,441.46999999999997,0.0013215706053842304
80,450.72,0.0013235458033308586
81,460.16,0.0013257041307488233
82,469.79,0.001330576587638124
83,478.630092,0.00134422210370842
84,479.63,0.0013439882086330296
85,489.66999999999996,0.0013136707876380462
86,499.93,0.0013158685167806224
87,505.71,0.0012974929158492473
88,511.57,0.0013666276422406214
89,519.88,0.0013582427678911877
90,529.5500000000001,0.001337834458028489
91,539.39,0.0012939677187266325
92,549.42,0.0013125193818163054
93,549.5408739999999,0.0013128739620937
94,559.64,0.0013493688159419122
95,570.04,0.0013791883893445036
96,580.64,0.0013479413199279137
97,590.0699999999999,0.0013953082610035326
98,599.66,0.0013750816878238066
99,609.4,0.0013140618825296948
100,619.31,0.0014684042808392791
101,629.3700000000001,0.0014804894470344778
102,630.957344,0.0014809245887328216
103,639.6,0.001489954082148959
104,649.99,0.0015450817537255598
105,657.51,0.0015711096998522237
106,665.13,0.0016142818872837636
107,674.38,0.0016150102079847796
108,685.34,0.0015866910549991726
109,694.8699999999999,0.0017868112513538409
110,704.5400000000001,0.0017253433855353357
111,715.99,0.0018999210149436205
112,724.43596,0.0019308432636039007
113,725.95,0.0019360977308614021
114,734.35,0.001975018172512687
115,744.5699999999999,0.002110116743188417
116,754.9300000000001,0.0021894905545583347
117,765.43,0.002206021606622441
118,774.29,0.002392546839126058
119,785.0600000000001,0.0024936268553860984
120,794.15,0.002576636983315881
121,805.1999999999999,0.0026630074809642977
122,814.53,0.002728397021512689
123,825.86,0.0029243350005494816
124,831.763771,0.002656371996804708
125,835.4200000000001,0.002487494702289613
126,845.09,0.003020599196242528
127,854.88,0.0030808828390345693
128,864.78,0.0032604951182624766
129,874.79,0.0034520150339262495
130,884.92,0.0037044290984291485
131,895.17,0.0038734353117711737
132,905.53,0.003850798161549064
133,916.02,0.005840109672569342
134,924.5,0.03899343819053425
135,935.2,0.085704456462023
136,946.0300000000001,0.16543279339475414
137,954.78,0.23960489174760707
138,954.992586,0.2399910626877172
139,965.84,0.25970083422459955
140,974.78,0.03835424880221879
141,986.06,0.20116018041693304
142,995.1899999999999,0.2267271885146583
143,1004.4,0.3551442896734809
144,1016.03,0.35027358093049565
145,1025.43,0.15297786560942417
146,1034.92,0.23253564248208716
147,1044.49,0.4779457124158474
148,1054.1599999999999,0.4691931736759792
149,1063.91,0.35514592799720823
150,1076.23,0.43589865940618694
151,1086.1899999999998,0.3299215955127963
152,1096.24,0.46489782381314015
153,1096.4782,0.4643381146420309
154,1103.84,0.4470384046530509
155,1114.05,0.423987832955917
156,1124.36,0.3761675341118965
157,1134.76,0.5027569108356779
158,1145.26,0.4522328604125726
159,1155.86,0.4890357828425806
160,1163.8700000000001,0.5050708083769545
161,1174.64,0.33372148465725504
162,1185.51,0.4901663337906689
163,1193.73,0.3150502023165807
164,1204.77,0.2150024053002871
165,1215.92,0.15867227842241813
166,1224.35,0.33140768993986786
167,1235.68,0.5264070141976028
168,1244.24,0.5838539904240997
169,1255.76,0.5499250631027499
170,1258.92541,0.5181966080660458
171,1264.46,0.46272231066211283
172,1276.16,0.6256175365821299
173,1285.01,0.6626549074703479
174,1293.91,0.49925447932403627
175,1305.89,0.49014461065068626
176,1314.94,0.643115785400785
177,1324.05,0.6141906613094479
178,1336.3,0.5288498978496368
179,1345.5700000000002,0.6565853768478042
180,1354.8899999999999,0.6342893568114417
181,1364.29,0.5563063383198315
182,1373.74,0.5919720207936915
183,1386.4499999999998,0.5988267662162058
184,1396.0600000000002,0.5179745517795703
185,1405.74,0.5386585386945931
186,1415.48,0.5486715267681799
187,1425.3,0.5718688163865191
188,1435.18,0.5653321071634224
189,1441.8,0.6029653349916714
190,1445.43977,0.6106501839303646
191,1448.46,0.6170269542198606
192,1455.14,0.596066962477169
193,1465.2299999999998,0.5424029259975645
194,1475.38,0.5436277904903309
195,1485.61,0.5588728562795922
196,1495.91,0.5718792232032862
197,1506.2800000000002,0.5374359912614131
198,1513.23,0.46915120389439113
199,1516.72,0.5096985604539729
200,1523.72,0.4901557738972601
201,1534.2800000000002,0.41816134503456204
202,1544.9199999999998,0.4724221174683586
203,1555.63,0.4439293910365881
204,1566.41,0.4511420657392504
205,1573.64,0.4845179829099599
206,1584.5500000000002,0.5144271597194261
207,1595.53,0.5264076376633253
208,1606.59,0.5167946169037191
209,1614.01,0.5203747371536036
210,1625.19,0.4879136183387395
211,1636.46,0.5251846009824318
212,1644.01,0.5349575233391203
213,1655.4099999999999,0.4890135080896166
214,1659.58691,0.5075387360786856
215,1666.88,0.5398854389238897
216,1670.73,0.47025389457418765
217,1678.4399999999998,0.5448852070582908
218,1686.1799999999998,0.5745246230929155
219,1693.97,0.5361794450450768
220,1705.71,0.5120722344826085
221,1713.5800000000002,0.48232316590282787
222,1725.46,0.48011787190946137
223,1733.43,0.5179800151647533
224,1745.44,0.5050627365569814
225,1753.5,0.5448945904638388
226,1765.65,0.4935585284251685
227,1773.8000000000002,0.5085326929835913
228,1786.1,0.5192119486975301
229,1794.3400000000001,0.5614533239075183
230,1806.78,0.5563313961905588
231,1815.1200000000001,0.5085350832356197
232,1823.5000000000002,0.5215780750147097
233,1836.14,0.49813337096789545
234,1844.6100000000001,0.4543218733985508
235,1853.13,0.45640568174674256
236,1865.97,0.4735121013700737
237,1874.59,0.517999021553338
238,1883.24,0.47461564528712424
239,1896.29,0.456416089764108
240,1905.04,0.4845504253329669
241,1905.46072,0.48366124515821174
242,1913.84,0.465949596821043
243,1927.1,0.45747887393639225
244,1936.0,0.4691793161933009
245,1944.94,0.49470525234799345
246,1953.91,0.4627511839260238
247,1967.46,0.5120804168003061
248,1976.54,0.5264256315972421
249,1985.6599999999999,0.496988140291962
250,1994.83,0.48232704135891163
251,2004.03,0.49698713784919923
252,2013.2900000000002,0.4779126251861626
253,2027.2399999999998,0.5015550970382835
254,2036.6000000000001,0.4757030691197065
255,2046.0,0.4981205350989134
256,2055.44,0.4713274949759041
257,2064.9300000000003,0.47349144722512465
258,2074.46,0.5132511933721291
259,2079.24,0.4924048641573003
260,2084.04,0.5144298318913634
261,2093.66,0.4845189643083815
262,2103.3199999999997,0.48566269062318346
263,2113.0299999999997,0.4923973093102152
264,2122.7799999999997,0.4981117218950309
265,2132.58,0.45953182685207633
266,2147.36,0.47678967208321227
267,2157.27,0.4958223602591633
268,2167.23,0.47788994080734426
269,2177.23,0.474580515253309
270,2187.28,0.46914328207150363
271,2187.7616199999998,0.4702516927916306
272,2197.38,0.4923902784936601
273,2207.52,0.47788851183485936
274,2212.61,0.45011233093808467
275,2222.82,0.43683607279347364
276,2233.08,0.47241672073042673
277,2243.3900000000003,0.45011307474894396
278,2253.75,0.4269069348490252
279,2264.15,0.4368356998143578
280,2274.6,0.4511417708612545
281,2285.1,0.46702424798971526
282,2295.65,0.4378641311997401
283,2306.24,0.4410227192750163
284,2316.89,0.4183642146481693
285,2327.58,0.32411241488657366
286,2332.95,0.3825873680465579
287,2343.72,0.36799117801546477
288,2354.5299999999997,0.40639169284962295
289,2365.4,0.36648641498165807
290,2376.32,0.38033104319525723
291,2387.29,0.34856567749042056
292,2392.79,0.37439434646247144
293,2403.8399999999997,0.3592888904881373
294,2414.9300000000003,0.37029643937905443
295,2426.08,0.40052569556784845
296,2437.28,0.38527055783820663
297,2442.9,0.4100232414060113
298,2454.17,0.4054577121905592
299,2465.5,0.39997899027298406
300,2476.88,0.38384897443697297
301,2482.59,0.38834336895159305
302,2494.0499999999997,0.3633630628460845
303,2505.56,0.4153542628221401
304,2511.34,0.3601723658509499
305,2511.88643,0.3609684930553819
306,2517.13,0.3686072854754511
307,2522.93,0.353694212443302
308,2534.5800000000004,0.3636915640252786
309,2546.27,0.3579726137242748
310,2552.14,0.39255483739691016
311,2563.92,0.3767177828592006
312,2575.76,0.40281932549702054
313,2587.65,0.3955684657811151
314,2593.61,0.3875272852170447
315,2605.5899999999997,0.37275132126443344
316,2617.61,0.36605085542884186
317,2623.65,0.3877842710988108
318,2635.7599999999998,0.41085440102651344
319,2647.92,0.4547921286004907
320,2654.03,0.4762614409752441
321,2666.2799999999997,0.4158975643125155
322,2672.4199999999996,0.4395803752750337
323,2684.7599999999998,0.44277119437559936
324,2697.1499999999996,0.41522691112243965
325,2703.37,0.43287761831899707
326,2715.8500000000004,0.4031662308291316
327,2722.1099999999997,0.39859633614270873
328,2734.67,0.4223163448868825
329,2747.29,0.35546955080658593
330,2753.63,0.36885315235420235
331,2766.3399999999997,0.38812435403719986
332,2772.7200000000003,0.407418153701836
333,2785.5099999999998,0.37424985161887286
334,2791.9300000000003,0.29597484940052865
335,2804.82,0.3186898426101147
336,2817.77,0.4003646329952303
337,2824.26,0.4340161274816704
338,2837.2999999999997,0.41845021363008017
339,2843.84,0.4024530057627949
340,2856.97,0.375708187674499
341,2863.55,0.43539377792423334
342,2876.77,0.44465195559923165
343,2883.3999999999996,0.4366142434952406
344,2884.0315,0.4367637288653595
345,2896.71,0.43976550155334304
346,2910.08,0.49016488867281305
347,2930.25,0.4661676692412282
348,2950.56,0.4557645496747687
349,2971.02,0.46872792996380064
350,2991.61,0.4700275101275918
351,3012.35,0.4790107901468744
352,3033.23,0.4792100700312824
353,3047.23,0.4815727565438164
354,3068.3500000000004,0.48736713619701066
355,3089.6200000000003,0.49213371570569636
356,3111.04,0.4969002950698735
357,3132.6,0.488075574299176
358,3147.06,0.48937706036855044
359,3168.88,0.49524353934737136
360,3190.8399999999997,0.4634884181913177
361,3212.96,0.4866955968811215
362,3227.79,0.45438508259404153
363,3250.1600000000003,0.49958246104299775
364,3272.6899999999996,0.5270447393378115
365,3287.8,0.5211741247809821
366,3310.59,0.5178224028253144
367,3311.31121,0.5179456411341773
368,3318.2200000000003,0.5191260748960633
369,3325.8700000000003,0.5168375340112632
370,3333.54,0.5363029927581366
371,3341.22,0.5075808513208471
372,3348.92,0.5553384095152312
373,3356.6400000000003,0.531656767341289
374,3364.38,0.4578504247990206
375,3372.1400000000003,0.4653763818884259
376,3379.91,0.5307077387936681
377,3387.7000000000003,0.530786495330584
378,3395.5099999999998,0.5093508514991736
379,3403.34,0.5547438072994368
380,3411.18,0.5025338629155371
381,3419.05,0.5143154179791479
382,3426.9300000000003,0.5251907728585955
383,3434.83,0.5589596273697168
384,3442.75,0.5028879815125119
385,3450.68,0.520658935471144
386,3458.64,0.5207375888772865
387,3466.61,0.5089556420992658
388,3474.6,0.5342919949529189
389,3482.6099999999997,0.5150628474382458
390,3490.64,0.5357101995552463
391,3498.69,0.49090795130392073
392,3506.75,0.5408322028684319
393,3514.84,0.5048562538804536
394,3522.94,0.5422896047083122
395,3531.06,0.5026885551678446
396,3539.2000000000003,0.5462293052590508
397,3547.36,0.5642363549819305
398,3555.54,0.552769604336484
399,3563.73,0.5427637535068744
400,3571.95,0.49854950212477533
401,3580.18,0.4997734505585132
402,3588.44,0.44243809843976156
403,3596.71,0.5127758461368469
404,3605.0,0.5420130934656059
405,3613.31,0.4921274404260386
406,3621.64,0.4922452870181451
407,3629.9900000000002,0.6015112332419252
408,3633.22,0.4698638737572318
409,3635.9599999999996,0.42305292329653216
410,3638.71,0.44444747265166934
411,3641.45,0.5933942221909696
412,3644.19,0.65592897173027
413,3646.94,0.6741703210854071
414,3649.6800000000003,0.5082818706247075
415,3652.42,0.5446523201640078
416,3655.16,0.5515093697033082
417,3657.91,0.6262561190584454
418,3660.6499999999996,0.6800038685977456
419,3663.3900000000003,0.614121718137046
420,3666.14,0.7499831674921831
421,3668.88,0.6349256170314834
422,3671.62,0.46785436657078383
423,3674.3700000000003,0.577118915925921
424,3677.11,0.6326396654652213
425,3679.85,0.5498927150045216
426,3682.6,0.6039129643596588
427,3685.3399999999997,0.6592761138989591
428,3688.0800000000004,0.5584429634382595
429,3690.82,0.5571041129775598
430,3693.5699999999997,0.6209358623326969
431,3696.31,0.6708220118719972
432,3699.0499999999997,0.6209378614112976
433,3701.8,0.5636031107664348
434,3704.54,0.5765679603057351
435,3707.28,0.5659298098450354
436,3710.03,0.5082012592001727
437,3712.7700000000004,0.6265708087394729
438,3715.51,0.5943788582787733
439,3718.2599999999998,0.8012852076339104
440,3721.0,1.0952769571732108
441,3723.74,1.315467906712511
442,3726.48,1.2396568562518113
443,3729.23,0.9704854056069486
444,3731.97,0.8778093551462489
445,3734.71,0.6842198046855493
446,3737.46,0.6326772540406864
447,3740.2000000000003,0.5696716035799868
448,3742.94,0.5474487531192871
449,3745.69,0.5747140024744243
450,3748.43,0.5695924520137245
451,3751.1699999999996,0.6457608015530248
452,3753.92,0.6612440509081621
453,3756.66,0.5662033004474624
454,3759.4,0.6042288499867627
455,3762.14,0.696631799526063
456,3764.8900000000003,0.6060400488812003
457,3767.63,0.5893731984205005
458,3770.37,0.6527748479598009
459,3773.12,0.712508297314938
460,3775.8599999999997,0.7682263468542384
461,3778.6,0.7484073963935387
462,3781.35,0.7101830457486759
463,3784.09,0.6643969952879762
464,3786.83,0.6532862448272765
465,3789.5800000000004,0.6819301941824137
466,3792.32,0.6420153437217141
467,3795.06,0.6327169932610144
468,3797.8,0.6571484428003147
469,3800.5499999999997,0.701593292155452
470,3801.8939600000003,0.693630942049914
471,3803.2899999999995,0.6853600470517183
472,3806.03,0.8032179071051063
473,3808.7799999999997,0.7706281670127036
474,3811.52,0.7801650270660917
475,3814.2599999999998,0.7508498871194796
476,3817.01,0.7160143470270771
477,3819.75,0.6335828070804651
478,3822.4900000000002,0.6395337671338531
479,3825.23,0.6303142271872411
480,3827.9800000000005,0.6228251870948386
481,3830.7200000000003,0.6534035471482266
482,3833.46,0.6323234072016145
483,3836.21,0.589055867109212
484,3838.95,0.6177033271626
485,3841.6899999999996,0.752071287215988
486,3844.44,0.8386383471235854
487,3847.18,0.8445897071769735
488,3849.92,0.8153927672303615
489,3852.67,0.8409233271379588
490,3855.4100000000003,0.8498692871913469
491,3858.15,0.8060930472447349
492,3860.8900000000003,0.8055821072981229
493,3863.64,0.8572373672057203
494,3866.3799999999997,0.9126010272591083
495,3869.12,0.8237861873124963
496,3871.87,0.7908809472200937
497,3874.61,0.7826074072734817
498,3877.35,0.7601484673268697
499,3880.1000000000004,0.7177473272344672
500,3882.84,0.6638046872878551
501,3885.58,0.6062762473412431
502,3888.33,0.6245967072488406
503,3891.0699999999997,0.6138798673022287
504,3893.81,0.6599832273556165
505,3896.5499999999997,0.7417472874090045
506,3899.3,0.825319847316602
507,3902.04,0.87575790736999
508,3904.7799999999997,0.804280667423378
509,3907.53,0.7896195273309755
510,3910.27,0.8112928873843634
511,3913.01,0.8541654474377515
512,3915.7599999999998,0.8060111073453489
513,3918.4999999999995,0.8152722673987369
514,3921.24,0.791000827452125
515,3923.99,0.6659700873597223
516,3926.73,0.6702661474131103
517,3929.47,0.6519443074664983
518,3932.21,0.7060468675198863
519,3934.96,0.7151859274274838
520,3937.7000000000003,0.7663331874808718
521,3940.44,0.7388304475342597
522,3943.1899999999996,0.7720057074418571
523,3945.9300000000003,0.7965159674952452
524,3948.67,0.7934831275486331
525,3951.42,0.7747634874562307
526,3954.16,0.7662535475096186
527,3956.8999999999996,0.7409574075630067
528,3959.65,0.6645511674706042
529,3962.39,0.5751450275239921
530,3965.13,0.5357814875773801
531,3967.87,0.5947697476307681
532,3970.6200000000003,0.6845687075383655
533,3973.36,0.6737336675917536
534,3976.1000000000004,0.6649870276451415
535,3978.85,0.7653064875527389
536,3981.5899999999997,0.805302447606127
537,3984.33,0.858301707659515
538,3987.08,0.8235447675671124
539,3989.82,0.8618070276205003
540,3992.56,0.9259970876738884
541,3995.3100000000004,0.8701588475814858
542,3998.05,0.8497490076348738
543,4000.79,0.8571581676882618
544,4003.53,0.9485763277416498
545,4006.2799999999997,0.9195325876492473
546,4009.02,0.9484169477026352
547,4011.7599999999998,0.9609092077560232
548,4014.51,0.9482573676636207
549,4017.25,0.9679605277170087
550,4019.99,0.9186284877703966
551,4022.7400000000002,0.9367510476779941
552,4025.48,0.9346246077313821
553,4028.2200000000003,0.9255237677847701
554,4030.97,0.9228410276923675
555,4033.7099999999996,0.9417168877457556
556,4036.45,0.8378103477991435
557,4039.1899999999996,0.9315140078525316
558,4041.94,0.901169867760129
559,4044.68,0.9099977278135171
560,4047.42,0.867836987866905
561,4050.17,0.9017211477745024
562,4052.9100000000003,0.9836429078278903
563,4055.65,0.9696953678812783
564,4058.3999999999996,1.000347727788876
565,4061.14,0.9663834878422638
566,4063.88,0.9187852478956517
567,4066.63,0.9357650078032493
568,4069.37,0.8309917678566373
569,4072.1099999999997,0.8422624279100253
570,4074.85,0.7838278879634132
571,4077.6,0.8874174478710107
572,4080.34,0.9142527079243987
573,4083.08,0.8715796679777867
574,4085.83,0.8182242278853842
575,4088.57,0.8124724879387721
576,4091.3100000000004,0.8415142479921601
577,4094.06,0.8064815078997575
578,4096.8,0.7896179679531456
579,4099.54,0.7499394280065336
580,4102.29,0.767313887914131
