,lambda (Angstroms),Total Flux (erg/s/cm^2/Angstrom)
0,100.05,0.016878458577795765
1,101.91000000000001,0.02029731287488513
2,104.04,0.024205548290745494
3,104.712855,0.025442214087142853
4,105.97,0.023535804705955315
5,107.95,0.020538868984075878
6,109.94999999999999,0.01754307955591486
7,114.08,0.011302657958762296
8,118.09,0.005246793099299403
9,120.22644299999999,0.0025014782623536667
10,121.11999999999999,0.002653541344428109
11,125.08,0.0025691881264231042
12,127.11999999999999,0.002504892529269012
13,128.0,0.002502136703045677
14,130.98,0.0024044732915166596
15,131.89,0.00256998047121753
16,134.03,0.0024964028938107845
17,137.15,0.002666210509928054
18,138.038426,0.0026503892732222902
19,140.02,0.0027500589148762937
20,142.96,0.005986095262080347
21,146.96,0.01239232858480695
22,151.08,0.013064815697215352
23,154.95,0.013869966164453339
24,158.489319,0.014689368482368858
25,158.93,0.014790802875328347
26,161.88000000000002,0.015459201198759697
27,166.04000000000002,0.016522823919259497
28,169.9,0.017352315962800176
29,173.05999999999997,0.018101499760102915
30,177.09,0.018968660520587096
31,179.97,0.01961366701939465
32,181.970086,0.020078972241474077
33,182.06,0.020100345385879917
34,185.87,0.02099268250577043
35,191.07,0.02212825327307507
36,194.18,0.02300132740505919
37,197.79000000000002,0.02385924795697645
38,201.92999999999998,0.024862611914022833
39,205.21,0.02561261562878422
40,208.929613,0.025662459201350126
41,209.99,0.025683300208028476
42,215.88,0.028174447385925637
43,219.89000000000001,0.029249709403475314
44,222.95,0.029673308972977066
45,227.09,0.0308731842728912
46,230.25,0.046108312521134835
47,233.99,0.07641477310608143
48,239.88329199999998,0.09466313663713827
49,240.0,0.09502292515525337
50,246.15,0.0890859861558643
51,251.89,0.09343838575643448
52,257.15999999999997,0.07688199399598238
53,260.14,0.08941000539140036
54,263.76,0.09358109970395508
55,269.28000000000003,0.0924812361142595
56,274.28999999999996,0.09118408785622059
57,275.42287,0.09086122638253706
58,278.74,0.0899581626307168
59,283.92,0.08916804018516886
60,289.87,0.08423805778149891
61,295.94,0.08428077551422557
62,300.75,0.08146602681478819
63,307.75,0.08151258810458827
64,316.227766,0.08156330959720545
65,317.84,0.08155456398695449
66,328.25,0.07948472714644393
67,338.21999999999997,0.07675562240101738
68,347.70000000000005,0.07395087089784348
69,356.62,0.07223572024295837
70,363.078055,0.07162134399205083
71,365.77,0.07138836618643207
72,375.15,0.06916973353803357
73,384.77,0.06461978427603
74,394.64,0.06510319604152112
75,404.77,0.06395379647560676
76,414.19,0.0619802643916074
77,416.86938299999997,0.061216878126440284
78,421.89,0.0597788885584346
79,429.74,0.05791808717528334
80,440.76,0.056512824991547424
81,451.03,0.05438849899091514
82,460.46999999999997,0.052346528499584204
83,470.10999999999996,0.05072881969275896
84,478.630092,0.04966487684748986
85,479.96,0.049491863630055956
86,490.01000000000005,0.047051794273974115
87,500.27000000000004,0.046489893080601
88,506.06,0.044917208138141915
89,511.92,0.04645570591658574
90,520.24,0.04507987931533191
91,529.9100000000001,0.043145915188634254
92,539.76,0.04045691805854409
93,549.5408739999999,0.03893382969695969
94,549.8,0.03889399587889211
95,560.02,0.03915014604038892
96,570.4300000000001,0.03878645308355737
97,579.7,0.037220868836695856
98,590.48,0.0363744492810144
99,600.0699999999999,0.03419950662433674
100,609.82,0.029833859762751002
101,619.73,0.0333361686962572
102,629.8,0.031844993424855306
103,630.957344,0.0318194289656578
104,640.0300000000001,0.031639554458280254
105,650.4300000000001,0.0305238952952119
106,657.9699999999999,0.029311280651987334
107,665.58,0.029454806947088276
108,674.84,0.02893805678843318
109,684.23,0.027111215515239727
110,695.35,0.027371621717805095
111,705.02,0.02547531419791365
112,716.48,0.026071322100917164
113,724.43596,0.02561743515410983
114,726.45,0.025501406533403784
115,734.86,0.024995072853939024
116,745.08,0.024118547050832027
117,755.45,0.023483572121456336
118,764.19,0.021091022364200452
119,774.8199999999999,0.02236581961595903
120,785.6,0.021249497741448912
121,794.7,0.021207934081148162
122,805.76,0.02093329917093648
123,815.09,0.020477045517023736
124,824.52,0.020121885778931863
125,831.763771,0.018700839162971435
126,834.0699999999999,0.01824299381589832
127,845.6700000000001,0.01909820158384752
128,855.47,0.018535829870563226
129,865.37,0.018273817017347458
130,875.3900000000001,0.017974580796213925
131,885.5300000000001,0.017600351207162624
132,895.7800000000001,0.017233834364186705
133,904.07,0.016764565863867643
134,914.54,0.01807228451304248
135,925.13,0.03270063979429956
136,935.84,0.04946584170763886
137,944.5000000000001,0.06967835698957335
138,954.992586,0.08401743610017674
139,955.44,0.08462947528921273
140,964.28,0.09190784377826415
141,975.45,0.03592027882608139
142,984.47,0.07882171146988726
143,995.87,0.07881923793766848
144,1005.09,0.10048854964231262
145,1014.39,0.09775853097129206
146,1026.1299999999999,0.05316615084249835
147,1035.63,0.07719957123231605
148,1045.21,0.11853103124646906
149,1054.8799999999999,0.11530556833799929
150,1064.64,0.09552927250690674
151,1074.49,0.10763497375319142
152,1084.43,0.0873577420768533
153,1094.47,0.10962018493093434
154,1096.4782,0.10859771177065344
155,1104.6000000000001,0.10445809914354894
156,1114.82,0.10068305225243833
157,1125.13,0.09059272361766824
158,1135.54,0.10834013526772093
159,1146.05,0.09996955720259643
160,1153.99,0.10298842781752614
161,1164.67,0.10393151423660038
162,1175.45,0.0748559809404974
163,1186.32,0.09879727590073496
164,1194.55,0.07552957534165078
165,1205.6,0.05949768681456935
166,1213.96,0.0414348226257548
167,1225.19,0.0722825406113544
168,1233.68,0.09651633279280948
169,1245.1,0.10268309931957238
170,1253.73,0.09851760989977938
171,1258.92541,0.09390765678606021
172,1265.3300000000002,0.08823025151541082
173,1274.1,0.10578283878217026
174,1285.89,0.10849020728560173
175,1294.8000000000002,0.08924994249048504
176,1303.78,0.0880280816644303
177,1315.8400000000001,0.10433890547710065
178,1324.96,0.09965171258916977
179,1334.15,0.08966606367030082
180,1346.49,0.10220344335921891
181,1355.8200000000002,0.09874446237847384
182,1365.22,0.08945813536679069
183,1374.69,0.09174960232416947
184,1384.2099999999998,0.09175154211659252
185,1393.81,0.07812826644508632
186,1403.47,0.07939328417563321
187,1416.46,0.08427919072012639
188,1426.27,0.08486194695580601
189,1436.1599999999999,0.08466868772755641
190,1442.79,0.08763292365442245
191,1445.43977,0.08811651767154872
192,1446.12,0.08824065626983126
193,1456.1399999999999,0.08544959310630675
194,1466.23,0.07957957327397518
195,1476.3999999999999,0.07903636724872126
196,1486.6299999999999,0.07958004407877557
197,1493.49,0.07994748053568394
198,1503.84,0.07566463307635474
199,1510.79,0.06824421381622545
200,1517.76,0.07177433550786559
201,1524.77,0.06998837910304456
202,1535.33,0.061272751637294176
203,1545.98,0.06400091845450616
204,1556.69,0.06099409812702635
205,1563.8799999999999,0.06269394028813002
206,1574.72,0.06609005614715141
207,1585.63,0.06809257533736575
208,1596.6299999999999,0.06903423881054244
209,1603.9999999999998,0.0671620795375708
210,1615.11,0.06670019824547926
211,1626.31,0.06356329123635007
212,1633.82,0.06670046862576433
213,1645.1399999999999,0.06700794732725161
214,1656.54,0.06269880983581655
215,1659.58691,0.06441548833827018
216,1664.19,0.06701032454404907
217,1671.8700000000001,0.06044309357207627
218,1675.73,0.0673204050366837
219,1683.46,0.06904553144119546
220,1695.1299999999999,0.06505189711268991
221,1706.88,0.06257019058655966
222,1714.76,0.05949499912052507
223,1726.65,0.058960451248551565
224,1734.6100000000001,0.062155117584892255
225,1746.64,0.0606089683670755
226,1754.6999999999998,0.0637437794563853
227,1766.8600000000001,0.05883540541742838
228,1775.02,0.05965586125970728
229,1783.21,0.06062224752787691
230,1795.57,0.06405395299485821
231,1803.86,0.06332475401599694
232,1816.36,0.058583888137134964
233,1824.75,0.059532843911242805
234,1833.17,0.05739460011124138
235,1845.88,0.05237926721361453
236,1854.3999999999999,0.05298511816658221
237,1862.9599999999998,0.05471443302073753
238,1875.8700000000001,0.058071439629048885
239,1884.5300000000002,0.05397404923617331
240,1893.23,0.05251591274448538
241,1905.46072,0.054695376325998954
242,1906.35,0.054853134912388184
243,1915.1499999999999,0.05299841277957047
244,1923.9899999999998,0.05120719272796722
245,1932.87,0.05085308475757843
246,1946.27,0.05534071196442418
247,1955.25,0.05213911919707156
248,1968.81,0.05713292472877517
249,1977.8899999999999,0.05738785716445871
250,1982.45,0.05583029442290771
251,1996.1999999999998,0.05468843484038003
252,2005.41,0.055313929040010576
253,2014.67,0.05417994084115921
254,2023.97,0.0542996147235223
255,2033.3100000000002,0.054047980687099866
256,2042.69,0.056578128731891886
257,2056.85,0.05354468548181247
258,2066.35,0.0535399497702479
259,2075.88,0.05787089061959417
260,2085.4700000000003,0.07743536459076213
261,2095.09,0.07227710512284094
262,2104.7599999999998,0.07128810325643785
263,2114.48,0.07583506899155282
264,2124.2400000000002,0.07176829680788226
265,2134.04,0.06761065670542617
266,2143.89,0.07723220420448816
267,2153.79,0.07776036930506822
268,2163.73,0.07109459648686275
269,2173.7200000000003,0.07125683127017537
270,2183.75,0.08065291813470246
271,2187.7616199999998,0.08079882269068221
272,2193.83,0.08102441845058563
273,2203.96,0.07900944651016965
274,2214.13,0.06697712885626733
275,2224.35,0.0724150690605071
276,2234.62,0.08822682712288893
277,2244.93,0.08407723947178442
278,2255.29,0.06997802967882198
279,2265.7,0.06715194774400161
280,2276.1600000000003,0.07161066366732333
281,2286.67,0.0880412974487871
282,2297.2200000000003,0.07570766551676454
283,2302.52,0.0869173584798243
284,2313.15,0.07614340512082905
285,2323.82,0.061711236048347475
286,2334.55,0.06077322840563638
287,2345.33,0.049041678621067356
288,2356.15,0.07212876312301199
289,2367.0299999999997,0.051542819054727115
290,2372.48,0.06011433559221309
291,2383.43,0.04498637652532712
292,2394.44,0.05153147888821163
293,2405.4900000000002,0.0508716255376098
294,2416.59,0.05592766004515004
295,2427.75,0.08076293598246079
296,2433.34,0.08079766252274456
297,2444.57,0.0936563034614542
298,2455.86,0.09813113582993432
299,2467.19,0.0859751624849281
300,2472.88,0.07775533474149603
301,2484.3,0.05544064354114554
302,2495.7599999999998,0.06250427662730872
303,2507.28,0.08904056114324238
304,2511.88643,0.05793692121217454
305,2513.06,0.050012134164619
306,2518.86,0.04452562242236512
307,2524.6600000000003,0.046307100680111256
308,2536.31,0.06457829028403236
309,2542.16,0.06701471163020734
310,2553.9,0.11184388879330037
311,2565.6800000000003,0.08597303042713647
312,2577.53,0.10724032238477296
313,2583.47,0.09609669129011987
314,2595.3900000000003,0.08773893357155674
315,2607.37,0.07740107755910823
316,2613.38,0.07129887678825551
317,2625.45,0.09225421833497893
318,2637.57,0.1533603229701312
319,2643.65,0.20355068252307884
320,2655.8500000000004,0.2830316960997173
321,2661.9700000000003,0.179599450123408
322,2674.2599999999998,0.20350235125921834
323,2686.6,0.23650144548345753
324,2692.79,0.17267588983094867
325,2705.22,0.21352397161435976
326,2717.71,0.15525484510388549
327,2723.9799999999996,0.12287267839286277
328,2736.5499999999997,0.15616604082387464
329,2742.8599999999997,0.092125208583595
330,2755.52,0.12256691857377879
331,2761.8700000000003,0.15896644080424222
332,2774.62,0.16928977835359796
333,2787.42,0.1048285089913825
334,2793.85,0.0534409901633321
335,2806.75,0.06278628697797436
336,2813.2200000000003,0.14991414262066702
337,2826.2,0.21674614837679543
338,2832.7200000000003,0.20378764710791694
339,2845.7900000000004,0.1461544404232173
340,2852.3500000000004,0.08761761362508187
341,2865.5199999999995,0.2037621131172399
342,2872.1200000000003,0.28063500078984754
343,2884.0315,0.25657167509466794
344,2885.38,0.25384765043142965
345,2892.0299999999997,0.3145363316189972
346,2912.0800000000004,0.4277117748988058
347,2932.27,0.3722042177825633
348,2952.59,0.34308016029855887
349,2973.06,0.35972670239021387
350,2986.78,0.3650596635771952
351,3007.48,0.36640570501819464
352,3028.3300000000004,0.3940415460348535
353,3049.3199999999997,0.4122209866554612
354,3070.46,0.4525979268517283
355,3091.7400000000002,0.44089006665194413
356,3113.17,0.5163056060278195
357,3127.54,0.47680086537599153
358,3149.22,0.47748420404463254
359,3171.05,0.529122142288933
360,3193.03,0.4562730801088927
361,3207.77,0.5077063384103581
362,3230.0,0.42589017552308356
363,3252.39,0.6079280121831792
364,3267.41,0.713222369692542
365,3290.0600000000004,0.6996656056171139
366,3311.31121,0.6570388804859245
367,3312.86,0.6539321617427174
368,3320.5,0.6162627485838778
369,3328.15,0.6760445348842543
370,3335.8199999999997,0.7098918201030631
371,3343.51,0.6462910042403044
372,3351.22,0.637734687295978
373,3358.95,0.719138669270084
374,3366.69,0.604049350703406
375,3374.45,0.4724482310551606
376,3382.23,0.5695570103253474
377,3390.03,0.6897590885139666
378,3397.8399999999997,0.6038864661618021
379,3405.67,0.7313528427280698
380,3413.53,0.6704423176719861
381,3421.3900000000003,0.7220992926159023
382,3429.28,0.6883609659374672
383,3437.19,0.6998740381774643
384,3445.11,0.44295230987667766
385,3453.0499999999997,0.7403912804943233
386,3461.0099999999998,0.6008155500304014
387,3468.9900000000002,0.6620995184849119
388,3476.99,0.6168467858578547
389,3484.9999999999995,0.6813626526900136
390,3493.04,0.5762771178998211
391,3501.09,0.6619350825688447
392,3509.16,0.7379657461563007
393,3517.25,0.6015647086621891
394,3525.36,0.6187809700865099
395,3533.48,0.7563120309700468
396,3541.63,0.8221153902312323
397,3549.79,0.8206648489516338
398,3557.98,0.7151482060496841
399,3566.18,0.7666926626069505
400,3574.3999999999996,0.5444201180826491
401,3582.6400000000003,0.5347440724767802
402,3590.9,0.4660235257893436
403,3599.1800000000003,0.8138266780203394
404,3607.47,0.6649458297105513
405,3615.79,0.6982500797784118
406,3624.1299999999997,0.6084988287647046
407,3632.48,0.8880785772102137
408,3640.85,0.8273329245741551
409,3649.2400000000002,0.7226768708565289
410,3657.66,0.9574854155165511
411,3666.09,0.9870810596357895
412,3674.54,0.9518938026734604
413,3683.0099999999998,0.7904173446295635
414,3691.5,0.7605024855040989
415,3700.01,0.925362925297067
416,3708.54,0.6738726640084671
417,3717.09,1.0321673016382997
418,3725.6600000000003,0.5943991381865646
419,3734.25,0.8114519736532619
420,3742.86,0.7735693080383916
421,3751.48,0.4873395418827375
422,3760.1299999999997,0.8891481741047319
423,3768.7999999999997,0.7485529052451586
424,3777.4900000000002,0.9277793353040177
425,3786.2000000000003,1.0535745642813092
426,3794.9300000000003,0.8015475921770329
427,3801.8939600000003,0.7456854996885539
428,3803.67,0.7314388395441696
429,3812.44,0.9340754640960208
430,3821.23,0.7139499877916621
431,3830.04,0.5104762106310932
432,3838.87,0.4968449326143141
433,3847.7200000000003,0.7913762537413248
434,3856.5899999999997,0.8083800740121255
435,3865.48,0.799552593426716
436,3874.39,0.6856992119850964
437,3883.32,0.7085676296872665
438,3886.7000000000003,0.8124122849877521
439,3890.75,0.8360882116051976
440,3894.7999999999997,0.8971598382226433
441,3898.85,0.9524742648400889
442,3902.9,0.8968350914575345
443,3906.9500000000003,0.9928272180749802
444,3911.0099999999998,0.9638220442643206
445,3915.0600000000004,0.9434845708817663
446,3919.11,0.9576908974992119
447,3923.16,0.7318120241166576
448,3927.21,0.6716538507341031
449,3931.2599999999998,0.5146365773515488
450,3935.3100000000004,0.5315970039689945
451,3939.37,0.6512604301583349
452,3943.42,0.7806661567757806
453,3947.4700000000003,0.8944097833932262
454,3951.52,0.9270176100106717
455,3955.5699999999997,0.8330727366281174
456,3959.62,0.760004663245563
457,3963.67,0.6796186898630087
458,3967.7200000000003,0.6909727164804542
459,3971.7799999999997,0.7150182426697949
460,3975.8300000000004,0.8345231692872404
461,3979.88,0.9919081959046859
462,3983.93,1.1777579225221315
463,3987.98,1.1863147491395771
464,3992.0299999999997,1.260778575757023
465,3996.0800000000004,1.3413284023744685
466,4000.14,1.2513592285638089
467,4004.19,1.2747670551812547
468,4008.2400000000002,1.4714858817987004
469,4012.29,1.4100337084161458
470,4016.3399999999997,1.4143945350335916
471,4020.39,1.4594863616510372
472,4024.44,1.2685281882684827
473,4028.5,1.3466510144578232
474,4032.5499999999997,1.324376841075269
475,4036.6000000000004,1.4076646676927147
476,4040.65,1.33906349431016
477,4044.7,1.3600503209276058
478,4048.75,1.3767321475450514
479,4052.7999999999997,1.3169549741624968
480,4056.8500000000004,1.3240528007799426
481,4060.91,1.3102736269692832
482,4064.96,1.2970934535867287
483,4069.01,1.2483462802041743
484,4073.06,1.37038110682162
485,4077.11,1.3000519334390657
486,4081.16,1.3909867600565111
487,4085.21,1.4510365866739567
488,4089.27,1.3661254128632974
489,4093.3199999999997,1.4132082394807428
490,4097.37,1.3431000660981887
491,4101.42,1.4276788927156343
492,4105.47,1.3212517193330797
493,4109.5199999999995,1.3367495459505254
494,4113.57,1.334007372567971
495,4117.62,1.4492091991854168
496,4121.679999999999,1.337603025374757
497,4125.7300000000005,1.3077428519922027
498,4129.78,1.3796836786096485
499,4133.83,1.252756505227094
500,4137.88,1.3249133318445396
501,4141.929999999999,1.2824011584619854
502,4145.9800000000005,1.3114589850794307
503,4150.04,1.3283498112687713
504,4154.09,1.3055376378862171
505,4158.14,1.3609054645036627
506,4162.1900000000005,1.3402462911211082
507,4166.24,1.304944117738554
508,4170.29,1.3237789443559995
509,4174.34,1.358108770973445
510,4178.39,1.3329835975908908
511,4182.45,1.2101924237802313
512,4186.5,1.299668250397677
513,4190.55,1.2807300770151224
514,4194.6,1.318503903632568
515,4198.65,1.3525657302500138
516,4202.7,1.4186415568674593
517,4206.75,1.413855383484905
518,4210.8099999999995,1.4006072096742457
519,4214.860000000001,1.4500030362916914
520,4218.91,1.2839048629091367
521,4222.96,1.2977886895265824
522,4227.01,1.3133945161440281
523,4231.0599999999995,1.3440603427614735
524,4235.110000000001,1.4102441693789192
525,4239.16,1.429400995996365
526,4243.219999999999,1.5178538221857054
527,4247.27,1.5343206488031509
528,4251.32,1.4300924754205966
529,4255.37,1.3938293020380423
530,4259.42,1.4667391286554878
531,4263.469999999999,1.4341879552729335
532,4267.52,1.4150887818903792
533,4271.58,1.4758316080797196
534,4275.63,1.4526904346971652
535,4279.68,1.359768261314611
536,4283.7300000000005,1.3432520879320566
537,4287.78,1.2934829145495021
538,4291.83,1.2440357411669478
539,4295.88,1.2304185677843935
540,4299.93,1.145244394401839
541,4303.99,1.1512672205911796
542,4308.04,1.1431980472086252
543,4312.09,1.2692678738260705
544,4316.14,1.4159397004435164
545,4320.19,1.481370527060962
546,4324.24,1.5027873536784078
547,4328.29,1.6541471802958532
548,4332.349999999999,1.4764730064851936
549,4336.400000000001,1.6553818331026393
550,4340.45,1.6181956597200848
551,4344.5,1.6194894863375306
552,4348.55,1.6264333129549762
553,4352.599999999999,1.5843051395724217
554,4356.650000000001,1.6819659661898674
555,4360.7,1.8117957928073132
556,4364.759999999999,1.7497516189966538
557,4365.15832,1.7418456875739994
558,4368.81,1.6693666913622422
559,4372.86,1.5618647905336847
560,4376.91,1.5642338897051273
561,4380.96,1.5244129888765696
562,4385.009999999999,1.5372210880480124
563,4389.06,1.5345861872194546
564,4393.12,1.603077286635765
565,4397.17,1.6393453858072076
566,4401.22,1.61217548497865
567,4405.27,1.6938485841500925
568,4409.32,1.668293683321535
569,4413.37,1.6405317824929777
570,4417.42,1.68309588166442
571,4421.47,1.7590189808358627
572,4425.53,1.6928780802521728
573,4429.58,1.7767111794236152
574,4433.63,1.8353622785950576
575,4437.68,1.8022743777665002
576,4441.73,1.7585324769379427
577,4445.78,1.8309505761093854
578,4449.83,1.8191156752808277
579,4453.889999999999,1.702081774697138
