,lambda (Angstroms),Total Flux (erg/s/cm^2/Angstrom)
0,102.03999999999999,0.006260428321350788
1,103.92999999999999,0.007301811812605812
2,104.712855,0.007735541985112592
3,106.11,0.007108975028666183
4,108.08,0.006230094764156797
5,110.09,0.0053871581663578775
6,113.96,0.003667026270595787
7,117.97,0.0018740322083203329
8,120.22644299999999,0.0012269476683041574
9,120.99000000000001,0.0013400471505680379
10,124.96000000000001,0.0013675325094573611
11,126.99000000000001,0.0013751483599725568
12,127.87,0.0013898817720185532
13,131.15,0.0013960883078263568
14,132.06,0.0014915457339193757
15,133.89,0.0015026935907877543
16,137.01,0.001621531051678104
17,138.038426,0.0016337862861051395
18,139.88,0.0016932154295724547
19,143.14000000000001,0.0026861851234125005
20,147.15,0.00412906292779857
21,150.93,0.004412814124950524
22,155.15,0.004739001440289481
23,158.489319,0.005043344423283848
24,159.13,0.005101479472818833
25,162.09,0.005370189392191511
26,165.87,0.005755011444633648
27,170.12,0.00611355636603023
28,172.89,0.006407827827740474
29,176.91,0.006762996089861476
30,180.20000000000002,0.007041410172542595
31,181.86999999999998,0.00725078208989137
32,181.970086,0.007259868443927042
33,186.10999999999999,0.007641977837780435
34,190.88,0.008110524333921525
35,193.98,0.008451185522189321
36,198.04,0.008847727420372304
37,202.19,0.009261252478859837
38,205.0,0.009563688817257419
39,208.929613,0.009727813609790942
40,209.78,0.009764920423385105
41,216.14999999999998,0.010688276357106207
42,220.17,0.011144941144164111
43,223.23,0.011383457922372364
44,226.86,0.011867290080835096
45,230.02,0.01765795060996519
46,233.76000000000002,0.028954038894441942
47,239.75,0.037879741574660064
48,239.88329199999998,0.03784142609964612
49,245.9,0.03608733999573849
50,252.21,0.038029729587463416
51,256.90000000000003,0.030435055116019658
52,259.87,0.03681399089849557
53,264.1,0.038889114285658236
54,269.01,0.03870281431662011
55,274.01,0.03851612846220245
56,275.42287,0.03834350246787883
57,279.1,0.03790824031099721
58,284.29,0.03800429340926589
59,290.24,0.03623044206720395
60,296.32,0.036241036544559166
61,301.14,0.03422938154140983
62,308.15,0.03487692611151839
63,316.227766,0.03528165943266633
64,318.24,0.03537562146216081
65,327.92,0.034715038807298745
66,337.88,0.033682442563246456
67,348.15,0.03267787948830499
68,357.08,0.03229254787591674
69,363.078055,0.03238209757192226
70,366.23999999999995,0.03243741935667894
71,374.77000000000004,0.031564835145166774
72,385.27,0.029545317077068565
73,395.15000000000003,0.030103861542515205
74,405.29,0.02990766849389465
75,413.77,0.029107878035087714
76,416.86938299999997,0.028760308607105774
77,422.43999999999994,0.02813310458655732
78,430.28999999999996,0.02731404297976777
79,441.33,0.02694812447798986
80,450.57,0.02616559105802356
81,460.0,0.025117975879421595
82,469.64,0.024443612441274937
83,478.630092,0.024096057865345008
84,479.46999999999997,0.024062277054377905
85,489.51,0.022874341991361045
86,499.76,0.022813531085392642
87,505.55,0.022090527129728536
88,512.5799999999999,0.023436275815683864
89,519.71,0.022692096004995596
90,530.59,0.021718347570172547
91,540.4599999999999,0.0203169029514498
92,549.5408739999999,0.019650272907514966
93,550.51,0.01957970753907655
94,559.45,0.02007586249264539
95,569.85,0.019935676912904442
96,580.45,0.01921605372586078
97,589.88,0.01886496754153798
98,599.46,0.017733808151738147
99,610.61,0.015708046544612036
100,620.53,0.01752579922239759
101,630.61,0.01677822581434098
102,630.957344,0.016778134479890666
103,639.38,0.016781615913829834
104,649.77,0.016220229894305965
105,657.3,0.015569633462446992
106,664.91,0.015750948091072917
107,675.71,0.015541471256534151
108,685.11,0.01458347086350967
109,694.64,0.014787900943773146
110,704.31,0.013720385379885196
111,715.75,0.014201897029225613
112,724.43596,0.013953751562108234
113,725.7099999999999,0.013917140848420434
114,735.8000000000001,0.013668379785976981
115,744.3199999999999,0.013241701901733354
116,754.68,0.01288765048380331
117,765.1800000000001,0.011717079992657994
118,775.8199999999999,0.012347760428297409
119,784.8,0.011775024160632178
120,795.72,0.011777386449841047
121,804.9399999999999,0.011646343199521066
122,814.26,0.011439062039761605
123,825.58,0.01126160269121256
124,831.763771,0.010602501874133604
125,835.1400000000001,0.010240272781312428
126,844.8100000000001,0.010758315859138702
127,854.5999999999999,0.010464811146824246
128,864.49,0.010389378276059184
129,874.5,0.010197907615153393
130,884.63,0.010009937164106872
131,894.87,0.009825203738764684
132,905.2399999999999,0.009578156707436706
133,915.72,0.009443644701813058
134,924.19,0.01575365768104662
135,934.89,0.02219077472683164
136,945.72,0.028413439166630867
137,954.47,0.031787765302202724
138,954.992586,0.031902047458655776
139,965.52,0.034208512300243896
140,974.45,0.01800981256061757
141,985.7399999999999,0.030150763180955612
142,994.86,0.02879812897878404
143,1004.06,0.033048478687119735
144,1015.69,0.032593293427113666
145,1025.09,0.021037597911717526
146,1034.57,0.028533866306828654
147,1044.1499999999999,0.03638799709007387
148,1053.81,0.03523535178382635
149,1066.01,0.031128333136184554
150,1075.8700000000001,0.0331952226062052
151,1085.83,0.028204224464359936
152,1095.88,0.033269139471835345
153,1096.4782,0.03317669681516823
154,1106.02,0.03170061072190243
155,1116.25,0.030978943551019288
156,1123.99,0.02826073959181738
157,1134.3899999999999,0.031549341920538335
158,1144.88,0.029855092807873216
159,1155.48,0.029921507489069573
160,1166.17,0.029714610728879858
161,1174.25,0.022979575768886137
162,1185.1200000000001,0.028310446125924288
163,1196.0800000000002,0.024442155041576367
164,1204.3700000000001,0.02110346005168182
165,1215.52,0.015169533702185531
166,1223.94,0.023179747741399994
167,1235.27,0.02690583850913157
168,1243.83,0.027590769195078815
169,1255.3400000000001,0.026901487080038256
170,1258.92541,0.02632963781275829
171,1264.04,0.025515199570721056
172,1275.74,0.027715817835252912
173,1284.58,0.027844447635121426
174,1296.47,0.024596079119333713
175,1305.45,0.024484651291598335
176,1314.5,0.026839664650061004
177,1323.6100000000001,0.02581100902526487
178,1335.8600000000001,0.024095566609924294
179,1345.12,0.025811333526981128
180,1354.45,0.025169571630236018
181,1363.8300000000002,0.023548120580775232
182,1376.4499999999998,0.02354851443533865
183,1385.99,0.023440756097187702
184,1395.6,0.019825738945234806
185,1405.28,0.019599582979479967
186,1415.02,0.02198227803046631
187,1424.82,0.021483894098193852
188,1434.6999999999998,0.021731771521576307
189,1441.3200000000002,0.022033193702020826
190,1445.43977,0.021970761778495773
191,1447.98,0.02193225964236823
192,1454.66,0.021385894647604334
193,1464.74,0.020380338008798935
194,1474.9,0.02024059250778079
195,1485.1200000000001,0.02024082786010309
196,1495.41,0.02001033420798924
197,1505.78,0.019244921693662653
198,1512.73,0.017924540538930757
199,1516.22,0.018424620174899917
200,1526.73,0.01821475965170103
201,1533.7700000000002,0.016392039776979797
202,1544.4099999999999,0.015911261102685204
203,1555.1100000000001,0.015515303281731058
204,1565.89,0.016280326598564168
205,1576.74,0.016888730910961134
206,1584.02,0.017083344449601676
207,1595.0,0.017161870610902935
208,1606.06,0.016619967909991453
209,1613.4699999999998,0.01643102329753629
210,1624.66,0.0159853324455291
211,1635.9199999999998,0.01643118258908577
212,1643.47,0.016318729967758308
213,1654.86,0.01580383196021927
214,1659.58691,0.01603152442503197
215,1666.33,0.016356939546118148
216,1670.17,0.015270988380389837
217,1677.8799999999999,0.016584659164825964
218,1685.6299999999999,0.016623324103785753
219,1693.4099999999999,0.01591631215863829
220,1705.14,0.015486240472702589
221,1716.9599999999998,0.014964498134445132
222,1724.89,0.014828771768761408
223,1736.8500000000001,0.015489403971336772
224,1744.8600000000001,0.015174205914700372
225,1756.9599999999998,0.015741692658108562
226,1765.07,0.01479895498778132
227,1773.22,0.014901961471977743
228,1785.5099999999998,0.015143667949373331
229,1793.75,0.015890133781247998
230,1806.18,0.015746834799476406
231,1814.52,0.014838071017660234
232,1827.1000000000001,0.01507882761535238
233,1835.53,0.014738833181214448
234,1844.0,0.01339000290160018
235,1856.7800000000002,0.013921990271910644
236,1865.3500000000001,0.014641280378605534
237,1873.96,0.015049384639824087
238,1886.95,0.014279943821383785
239,1895.66,0.014378908468911497
240,1904.41,0.014712307270962871
241,1905.46072,0.014692456308065548
242,1913.1999999999998,0.01454440026191642
243,1926.47,0.013703223665284366
244,1935.3600000000001,0.012794253466033502
245,1944.29,0.015150957911555412
246,1953.27,0.014638925663043291
247,1966.81,0.016150462918627463
248,1975.88,0.015747718620854084
249,1985.0,0.015964177629046675
250,1994.17,0.015962809943205234
251,2003.37,0.01574409824094337
252,2017.26,0.015923478638289322
253,2026.57,0.014933522209152589
254,2035.9199999999998,0.01625246042478863
255,2045.32,0.017327601946390644
256,2054.7599999999998,0.016175548112765427
257,2064.25,0.016100367585106183
258,2073.77,0.01797094304102652
259,2078.56,0.023554671752566265
260,2083.35,0.026539990464106013
261,2092.96,0.02471638387076509
262,2102.62,0.023933280583390136
263,2117.2,0.026293008603066447
264,2126.97,0.023929970588816622
265,2136.79,0.022802285880532763
266,2146.65,0.027085315817021685
267,2156.56,0.02702209905947657
268,2166.51,0.02409109694670423
269,2176.51,0.024367888139897858
270,2186.56,0.028812232639057456
271,2187.7616199999998,0.028851671634769246
272,2196.65,0.0291455405293908
273,2206.79,0.028160612893931163
274,2216.98,0.02322129059557478
275,2227.21,0.025988542566901005
276,2237.4900000000002,0.03254791987533049
277,2242.65,0.03101589066438653
278,2253.0,0.024710485444760566
279,2263.4,0.02344039556223786
280,2273.85,0.025054961016818415
281,2284.34,0.03181629074108157
282,2294.89,0.027034226869868633
283,2305.48,0.0319017572683383
284,2316.1200000000003,0.027994113003911227
285,2326.81,0.023038334076587407
286,2337.5499999999997,0.021120000486366843
287,2342.94,0.015788215826097865
288,2353.76,0.026332180775242513
289,2364.62,0.016881399994069766
290,2375.5299999999997,0.020993234550000277
291,2386.5,0.01384006551045469
292,2397.5099999999998,0.01654968074059171
293,2403.04,0.01647636102421185
294,2414.13,0.01895203479371408
295,2425.2799999999997,0.03026769496774022
296,2436.47,0.030067069411448964
297,2447.72,0.035317100259681614
298,2453.36,0.03698094228492892
299,2464.68,0.032674330605106126
300,2476.06,0.028674195329807244
301,2487.49,0.018767645391611614
302,2493.23,0.02208579809106543
303,2504.73,0.03308017562481436
304,2510.51,0.01607075259395078
305,2511.88643,0.0153381958227101
306,2516.29,0.012993897596693775
307,2522.09,0.014369667987154538
308,2533.74,0.022408326702476587
309,2545.4300000000003,0.023625903765319055
310,2557.18,0.04015282834944216
311,2563.08,0.030486274608703966
312,2574.9100000000003,0.038272475887867904
313,2586.79,0.03397117510143236
314,2592.75,0.030570768881974804
315,2604.72,0.026338334377460203
316,2616.7400000000002,0.02376065780734613
317,2622.78,0.032168578282929405
318,2634.88,0.05444730840785617
319,2647.05,0.07342706564094366
320,2653.15,0.10040364363780757
321,2665.3900000000003,0.06623144797905581
322,2677.7000000000003,0.07448558942846477
323,2683.87,0.0861073345334894
324,2696.2599999999998,0.062418762677939214
325,2702.4700000000003,0.07677780613048428
326,2714.95,0.055275270556855015
327,2727.48,0.04454628291762629
328,2733.77,0.05644827306521218
329,2746.38,0.0320091321210243
330,2752.7200000000003,0.044155590203010714
331,2765.42,0.05805813554074376
332,2778.1899999999996,0.06193049798663755
333,2784.59,0.0364246835899046
334,2797.44,0.016361382730839216
335,2803.89,0.019654256268506788
336,2816.8399999999997,0.054109011278242455
337,2823.33,0.07890397316343044
338,2836.36,0.07349068486820697
339,2842.9,0.05253986468779548
340,2856.0200000000004,0.029656932674492924
341,2862.6099999999997,0.07251505042848196
342,2875.82,0.09826014469710036
343,2882.45,0.08963211079860982
344,2884.0315,0.09196682223738283
345,2895.7500000000005,0.10926689555618505
346,2909.12,0.14740098425239587
347,2929.28,0.1290293672079389
348,2949.59,0.11908735003666304
349,2970.03,0.1235955327554775
350,2990.62,0.12593561534747308
351,3011.35,0.12598029782110437
352,3032.22,0.1347225801763714
353,3053.24,0.14209606240481953
354,3067.34,0.15299015048384515
355,3088.6000000000004,0.1485349325093831
356,3110.01,0.17177371440810216
357,3131.57,0.15817249618000231
358,3153.2700000000004,0.1571433778335382
359,3167.83,0.17433256552365264
360,3189.7799999999997,0.15260784696582372
361,3211.8999999999996,0.16932122826426677
362,3226.7200000000003,0.1444974157345618
363,3249.09,0.20181289682164003
364,3271.6099999999997,0.23555457778189942
365,3286.71,0.23131506501546586
366,3309.49,0.21596504575590586
367,3311.31121,0.2139245738813304
368,3324.7700000000004,0.19884522669622523
369,3332.4300000000003,0.21016550289589833
370,3340.11,0.188642378772333
371,3347.82,0.22628555416390994
372,3355.5299999999997,0.2191395295554869
373,3363.27,0.1438357044622062
374,3371.02,0.17453327920730624
375,3378.79,0.21129965362916786
376,3386.58,0.206043727727791
377,3394.39,0.21429260150317572
378,3402.21,0.2600373751169412
379,3410.06,0.21092324824584902
380,3417.92,0.1893240212131376
381,3425.8,0.23293119385718772
382,3433.6899999999996,0.2644081663396186
383,3441.61,0.21694673833719186
384,3449.54,0.19607931017314584
385,3457.49,0.22880368168586138
386,3465.46,0.2016251528753385
387,3473.4500000000003,0.24979452374157715
388,3481.46,0.20685009428457732
389,3489.4900000000002,0.23696876450433904
390,3497.5299999999997,0.21123613456248158
391,3505.59,0.2604866042973856
392,3513.67,0.22902137370905126
393,3521.77,0.2672344427974784
394,3529.89,0.18156671156266713
395,3538.0299999999997,0.25295328000461736
396,3546.19,0.2667347481233292
397,3554.3599999999997,0.26433451608042174
398,3562.5499999999997,0.24166698371427592
399,3570.77,0.19245055086327234
400,3579.0,0.21545731785064956
401,3587.25,0.16348328451478836
402,3595.52,0.2363026508556887
403,3603.81,0.28674081687335057
404,3612.11,0.20352388272939317
405,3620.4399999999996,0.23102284810057816
406,3628.79,0.29287131314852466
407,3637.15,0.21967577803485197
408,3645.54,0.2843160424363216
409,3653.94,0.24881720667617196
410,3662.36,0.33645107059278395
411,3670.81,0.3033725340245382
412,3679.27,0.3013299972946732
413,3687.75,0.2838646602415698
414,3696.25,0.3200068228652279
415,3704.77,0.3328372851656476
416,3713.3100000000004,0.2548762471428288
417,3721.87,0.2650693087967716
418,3730.4500000000003,0.26573387012747596
419,3739.0499999999997,0.1470975311349418
420,3747.67,0.21656869181916924
421,3756.31,0.2509783521801582
422,3764.9700000000003,0.24472831221790875
423,3773.65,0.2545410719324208
424,3782.35,0.30959713132369443
425,3791.07,0.2623581903917296
426,3799.81,0.2223157491365263
427,3801.8939600000003,0.2409424877465967
428,3808.57,0.30061393003984305
429,3817.35,0.26307111770506775
430,3826.14,0.21585730524234845
431,3834.96,0.18208049239579738
432,3843.81,0.1715296791654145
433,3852.67,0.2554664658070877
434,3861.55,0.21648365219287302
435,3870.45,0.26269063832277045
436,3879.37,0.27198172419678
437,3882.9700000000003,0.21812397813696327
438,3885.98,0.26922403962583874
439,3888.98,0.29975720124265803
440,3891.98,0.09777307285947744
441,3894.98,0.1359292244762968
442,3897.9799999999996,0.14249188609311617
443,3900.98,0.15805144770993554
444,3903.98,0.28516850932675486
445,3906.98,0.24306267094357423
446,3909.98,0.1983276325603936
447,3912.98,0.14831149417721295
448,3915.98,0.2908474557940323
449,3918.98,0.2912525174108517
450,3921.98,0.2618589790276711
451,3924.99,0.16650474051654648
452,3927.9900000000002,0.20467120213336587
453,3930.99,0.21699366375018522
454,3933.99,0.1439456253670046
455,3936.9900000000002,0.09036138698382395
456,3939.99,0.17417784860064334
457,3942.9900000000002,0.3027988102174627
458,3945.99,0.27585427183428207
459,3948.99,0.3555266334511014
460,3951.9900000000002,0.3300061950679208
461,3954.99,0.32501745668474014
462,3957.9900000000002,0.37508271830155954
463,3961.0,0.3266543797904349
464,3963.9999999999995,0.4036668414072543
465,3967.0,0.3948746030240736
466,3970.0,0.471528664640893
467,3973.0,0.39185772625771237
468,3976.0,0.3599216878745317
469,3978.9999999999995,0.4021455494913511
470,3982.0,0.4126971111081705
471,3985.0,0.4516894727249898
472,3988.0,0.4205374343418092
473,3991.0,0.43603149595862856
474,3994.0,0.4043566575754479
475,3997.0,0.4597682191922673
476,4000.0099999999998,0.4116979806811427
477,4003.01,0.3965850422979621
478,4006.0099999999998,0.39059670391478146
479,4009.01,0.3291963655316008
480,4012.0099999999998,0.3487058271484202
481,4015.0099999999998,0.4482188887652396
482,4018.01,0.40753855038205894
483,4021.0099999999998,0.4321570119988783
484,4024.01,0.37950067361569767
485,4027.0099999999998,0.34882403523251704
486,4030.0099999999998,0.4166172968493364
487,4033.01,0.4153336584661557
488,4036.0099999999998,0.4143589200829751
489,4039.02,0.4190631815718505
490,4042.02,0.4156884431886699
491,4045.0199999999995,0.38745930480548924
492,4048.02,0.4125290664223086
493,4051.02,0.42217582803912795
494,4054.02,0.43552928965594734
495,4057.02,0.41419285127276667
496,4060.0199999999995,0.4605036128895861
497,4063.02,0.42388647450640543
498,4066.02,0.3771250361232248
499,4069.02,0.35457479774004413
500,4072.02,0.39527795935686355
501,4075.0199999999995,0.3838024209736829
502,4078.03,0.36906798246255834
503,4081.0299999999997,0.4757566440793777
504,4084.03,0.41602170569619706
505,4087.0299999999997,0.3613220673130164
506,4090.03,0.3939937289298358
507,4093.0299999999997,0.41728149054665514
508,4096.03,0.3563087521634745
509,4099.03,0.3962039137802939
510,4102.03,0.35866197539711325
511,4105.03,0.4224852370139326
512,4108.03,0.41250469863075195
513,4111.03,0.3855129602475713
514,4114.04,0.35238692173644676
515,4117.04,0.3711818833532661
516,4120.04,0.44168384497008545
517,4123.04,0.39957770658690484
518,4126.04,0.3801165682037242
519,4129.04,0.39221072982054356
520,4132.04,0.41295599143736295
521,4135.04,0.4194186530541823
522,4138.04,0.35497671467100167
523,4141.04,0.38061677628782103
524,4144.04,0.4241713379046404
525,4147.04,0.41787399952145976
526,4150.04,0.38997926113827913
527,4153.05,0.39444402262715456
528,4156.05,0.4284699842439739
529,4159.05,0.4077277458607933
530,4162.05,0.39451580747761267
531,4165.05,0.382563269094432
532,4168.05,0.4178505307112514
533,4171.05,0.40361689232807074
534,4174.05,0.42628485394489013
535,4177.05,0.4755917155617094
536,4180.05,0.4457227771785288
537,4183.05,0.43944913879534814
538,4186.05,0.4350073004121675
539,4189.06,0.37878486190104294
540,4192.06,0.39532242351786234
541,4195.0599999999995,0.3617960851346817
542,4198.06,0.4484540467515011
543,4201.0599999999995,0.42355150836832045
544,4204.06,0.4684860699851398
545,4207.06,0.45560673160195914
546,4210.0599999999995,0.4661087932187785
547,4213.06,0.48017735483559787
548,4216.0599999999995,0.4551082164524173
549,4219.06,0.4147604780692366
550,4222.06,0.435054339686056
551,4225.0599999999995,0.43298650130287536
552,4228.07,0.4525635627917508
553,4231.07,0.4908213244085702
554,4234.07,0.41552018602538954
555,4237.07,0.3913779476422089
556,4240.070000000001,0.3942545092590283
557,4243.07,0.4374763708758476
558,4246.07,0.4557009324926669
559,4249.07,0.4754721941094863
560,4252.07,0.43721535572630565
561,4255.070000000001,0.39057081734312504
562,4258.07,0.4441051789599444
563,4261.07,0.5830886405767638
564,4264.07,0.4598839021935831
565,4267.08,0.31507856368245857
566,4270.08,0.3119194252992779
567,4273.08,0.3229443869160973
568,4276.08,0.30127344853291665
569,4279.08,0.396368410149736
570,4282.08,0.4856637717665554
571,4285.08,0.4974727333833748
572,4288.08,0.4538956950001941
573,4291.08,0.4775379566170135
574,4294.08,0.5007761182338328
575,4297.08,0.5110190798506522
576,4300.08,0.5110897414674715
