,lambda (Angstroms),Total Flux (erg/s/cm^2/Angstrom)
0,100.03,8.426661e-06
1,101.89,1.017837e-05
2,104.02,1.126368e-05
3,104.712855,1.1841571328911922e-05
4,105.95,1.287344e-05
5,107.92,1.495228e-05
6,109.92999999999999,2.078351e-05
7,114.05,2.574744e-05
8,118.06,3.032136e-05
9,120.22644299999999,7.426169317426704e-05
10,121.09,9.177657e-05
11,125.06,0.0001053614
12,127.09,0.0001110934
13,127.97,0.000115272
14,130.95000000000002,0.0001226613
15,131.85999999999999,0.0001392138
16,134.0,0.0001444602
17,137.12,0.0001708936
18,138.038426,0.00017413196367581878
19,139.98999999999998,0.0001810132
20,142.93,0.0003799315
21,146.93,0.0007340264
22,151.05,0.0007704175
23,154.92000000000002,0.000816095
24,158.489319,0.0008593868934891959
25,158.9,0.000864368
26,161.85000000000002,0.0009009205
27,166.0,0.0009587258
28,169.86999999999998,0.00100395
29,173.03,0.001043974
30,177.06,0.001090692
31,179.92999999999998,0.001126512
32,181.970086,0.0011520130750000003
33,182.01999999999998,0.001152637
34,185.82999999999998,0.00120146
35,191.02999999999997,0.001261084
36,194.14000000000001,0.001305235
37,198.20000000000002,0.001354369
38,201.89,0.00140513
39,205.17000000000002,0.001444415
40,208.929613,0.001447042009920502
41,209.95,0.001447755
42,215.83,0.001576572
43,219.84,0.001632009
44,222.9,0.001650856
45,227.04,0.001712824
46,230.2,0.002551175
47,233.94000000000003,0.004272811
48,239.88329199999998,0.005164220603363327
49,239.94000000000003,0.005172726
50,246.1,0.004860732
51,251.83,0.005031661
52,257.11,0.004165837
53,260.08,0.004783346
54,263.7,0.004951184
55,269.22,0.004872331
56,274.23,0.004793916
57,275.42287,0.004770591504620225
58,278.68,0.004706904
59,283.86,0.004642222
60,289.81,0.004362222
61,295.88,0.004362328
62,300.68,0.004204716
63,307.69,0.004175476
64,316.227766,0.004134982595542857
65,317.77,0.004127668
66,328.18,0.003996726
67,338.15,0.003843567
68,347.62,0.003687542
69,357.35999999999996,0.003570362
70,363.078055,0.0035090126927352938
71,365.69,0.003480989
72,375.07,0.003355007
73,384.69000000000005,0.003131348
74,394.56,0.003109589
75,404.67999999999995,0.003017864
76,414.11,0.002908768
77,416.86938299999997,0.002868695587008063
78,421.8,0.002797092
79,429.65000000000003,0.002702159
80,440.67,0.00261044
81,450.93,0.002498734
82,460.37,0.002402821
83,470.01,0.002310546
84,478.630092,0.002246395012795127
85,479.86,0.002237242
86,489.9,0.002126764
87,500.15999999999997,0.002073548
88,505.95,0.002012423
89,511.80999999999995,0.002040387
90,520.13,0.001980245
91,529.8,0.001891111
92,539.65,0.001789404
93,549.5408739999999,0.0017178179365621147
94,549.6800000000001,0.001716811
95,559.9,0.00169711
96,570.31,0.001662347
97,579.58,0.001587457
98,590.35,0.001544268
99,599.9399999999999,0.001464601
100,609.69,0.001293348
101,619.6,0.001398667
102,629.67,0.001341857
103,630.957344,0.0013383960203292276
104,639.9000000000001,0.001314354
105,650.3000000000001,0.001266786
106,657.8299999999999,0.001218158
107,665.44,0.001212581
108,674.7,0.001182267
109,685.66,0.001116127
110,695.1999999999999,0.001108429
111,704.8699999999999,0.001044047
112,716.33,0.001044017
113,724.43596,0.00102088897075502
114,726.29,0.001015599
115,734.6999999999999,0.0009901724
116,744.9200000000001,0.0009565767
117,755.28,0.0009283655
118,765.79,0.0008427715
119,774.66,0.0008764382
120,785.44,0.0008388998
121,794.53,0.0008273758
122,805.58,0.000810434
123,814.91,0.0007901505
124,824.3499999999999,0.0007721642
125,831.763771,0.0007324581884455099
126,835.82,0.0007107342
127,845.49,0.000728973
128,855.2800000000001,0.0007091079
129,865.1899999999999,0.000694576
130,875.21,0.0006803115
131,885.34,0.0006648289
132,895.59,0.0006497201
133,905.9599999999999,0.000630549
134,914.35,0.0007058532
135,924.9300000000001,0.001232305
136,935.64,0.001848042
137,944.3,0.002628563
138,954.992586,0.0031911552694204727
139,955.24,0.003204173
140,964.07,0.003537673
141,975.24,0.001424666
142,984.26,0.003174714
143,995.66,0.003138533
144,1004.8700000000001,0.003914723
145,1014.17,0.003738629
146,1025.91,0.001948601
147,1035.4099999999999,0.00298333
148,1044.99,0.004546944
149,1054.66,0.004433017
150,1064.4099999999999,0.003730059
151,1074.26,0.004175565
152,1084.2,0.003409797
153,1094.23,0.0042241
154,1096.4782,0.00418394133330701
155,1104.3600000000001,0.004043152
156,1114.58,0.003914735
157,1124.89,0.0035457
158,1135.3,0.004165869
159,1145.8,0.003852312
160,1153.75,0.003960293
161,1164.42,0.004006149
162,1175.2,0.002969666
163,1186.07,0.003799475
164,1194.29,0.00292896
165,1205.34,0.002331945
166,1213.7,0.001530081
167,1224.93,0.00273972
168,1236.26,0.00365341
169,1244.83,0.00389679
170,1256.35,0.003755808
171,1258.92541,0.0036396147261492503
172,1265.0600000000002,0.003362844
173,1273.83,0.004006103
174,1285.6100000000001,0.00410881
175,1294.5300000000002,0.003433343
176,1303.5,0.003378403
177,1315.5600000000002,0.003951208
178,1324.68,0.003782029
179,1333.8600000000001,0.003433387
180,1346.1999999999998,0.003861131
181,1355.53,0.003738641
182,1364.93,0.003409773
183,1374.39,0.003497142
184,1383.9199999999998,0.003497134
185,1393.51,0.003024917
186,1406.4099999999999,0.00306697
187,1416.1499999999999,0.003226476
188,1425.97,0.0032337
189,1435.85,0.00321899
190,1442.4799999999998,0.003324283
191,1445.43977,0.0033447516316306306
192,1445.81,0.003347312
193,1455.83,0.003248709
194,1465.92,0.00303883
195,1476.08,0.003010979
196,1486.3100000000002,0.003024897
197,1496.62,0.003031846
198,1503.5200000000002,0.00288206
199,1510.46,0.002622505
200,1517.4399999999998,0.002752298
201,1524.44,0.00267742
202,1535.01,0.002369817
203,1545.65,0.002470096
204,1556.36,0.002353516
205,1563.55,0.002408291
206,1574.3799999999999,0.002527655
207,1585.3,0.002598442
208,1596.29,0.002634605
209,1603.65,0.002556931
210,1614.77,0.002539295
211,1625.9599999999998,0.002425014
212,1633.47,0.002533447
213,1644.79,0.002545161
214,1656.1899999999998,0.002380758
215,1659.58691,0.0024537555977176477
216,1663.8400000000001,0.002545152
217,1671.52,0.002305211
218,1675.37,0.002610442
219,1683.1,0.002671248
220,1694.77,0.002516034
221,1706.52,0.002447443
222,1714.39,0.002386243
223,1726.28,0.00238621
224,1734.25,0.002545162
225,1746.27,0.002487208
226,1754.3300000000002,0.002671246
227,1766.49,0.002419431
228,1774.64,0.002510249
229,1786.9399999999998,0.002580568
230,1795.19,0.002816655
231,1803.48,0.002758743
232,1815.98,0.002592478
233,1824.36,0.002634593
234,1837.01,0.002556907
235,1845.4799999999998,0.002252763
236,1854.0,0.002419453
237,1866.86,0.002610429
238,1875.47,0.002702208
239,1884.1299999999999,0.002574608
240,1892.8300000000002,0.002634597
241,1905.46072,0.00267581146295122
242,1905.9499999999998,0.002677408
243,1914.74,0.002671248
244,1923.58,0.002498699
245,1936.92,0.00221672
246,1945.8600000000001,0.002835931
247,1954.84,0.002752311
248,1968.3899999999999,0.003109586
249,1977.47,0.003004018
250,1982.03,0.00310262
251,1995.77,0.003095383
252,2004.98,0.003024893
253,2014.24,0.003045798
254,2023.53,0.002835963
255,2032.87,0.003174743
256,2046.9699999999998,0.003417535
257,2056.41,0.003241205
258,2065.91,0.0031747
259,2075.44,0.003545669
260,2080.23,0.005125121
261,2085.02,0.00595277
262,2094.65,0.005504358
263,2104.31,0.005268806
264,2114.03,0.005790312
265,2123.79,0.00524461
266,2133.59,0.004894609
267,2143.44,0.006007688
268,2153.33,0.006035599
269,2163.27,0.005317551
270,2173.25,0.005403886
271,2183.29,0.006467113
272,2187.7616199999998,0.006500452990190663
273,2193.36,0.006542194
274,2203.49,0.006290977
275,2213.66,0.005031575
276,2223.88,0.005632725
277,2234.14,0.007256159
278,2244.4500000000003,0.006866218
279,2254.81,0.005391528
280,2265.22,0.005125137
281,2275.68,0.005619613
282,2286.18,0.007222944
283,2296.73,0.0060769
284,2307.33,0.007237938
285,2312.65,0.006231553
286,2323.33,0.004937774
287,2334.05,0.00448188
288,2344.83,0.003201784
289,2355.65,0.005719322
290,2366.52,0.003485635
291,2377.4500000000003,0.004469249
292,2382.93,0.002787432
293,2393.93,0.003436559
294,2404.97,0.003412471
295,2416.08,0.003999414
296,2427.23,0.006590919
297,2432.82,0.006605689
298,2444.05,0.007813676
299,2455.33,0.008218395
300,2466.67,0.007223171
301,2472.35,0.006378126
302,2483.77,0.004242526
303,2495.23,0.004972351
304,2506.75,0.007611834
305,2511.88643,0.0039607662471506325
306,2512.53,0.003503305
307,2518.32,0.002782607
308,2524.1200000000003,0.003086019
309,2535.77,0.004823075
310,2547.4799999999996,0.005167481
311,2553.35,0.00885597
312,2565.1400000000003,0.006670517
313,2576.98,0.008435157
314,2582.92,0.007500056
315,2594.84,0.006729751
316,2606.82,0.005793274
317,2612.83,0.005198818
318,2624.89,0.007175198
319,2637.0,0.01201599
320,2643.08,0.01632048
321,2655.2799999999997,0.02191086
322,2667.54,0.01424269
323,2673.69,0.01627636
324,2686.0299999999997,0.01855596
325,2692.2200000000003,0.01375465
326,2704.65,0.01684141
327,2717.1299999999997,0.01231163
328,2723.4,0.01026308
329,2735.96,0.01277046
330,2742.27,0.007033457
331,2754.93,0.009552033
332,2767.6499999999996,0.01250317
333,2774.03,0.01348924
334,2786.83,0.008052187
335,2793.25,0.003466334
336,2806.15,0.004234468
337,2812.6200000000003,0.011961
338,2825.6,0.01756698
339,2832.11,0.01677499
340,2845.19,0.01272297
341,2851.74,0.007422639
342,2864.91,0.01723757
343,2878.1299999999997,0.02215152
344,2884.0315,0.020211881816265025
345,2884.77,0.01996916
346,2898.08,0.0236206
347,2911.46,0.03149252
348,2931.64,0.02761161
349,2951.96,0.02582179
350,2972.42,0.02728198
351,2993.0299999999997,0.02765454
352,3006.84,0.02816377
353,3027.68,0.02954963
354,3048.67,0.03093508
355,3069.7999999999997,0.03306066
356,3091.08,0.0325996
357,3112.51,0.03664934
358,3126.88,0.03427729
359,3148.55,0.03403083
360,3170.3700000000003,0.03721772
361,3192.35,0.03248164
362,3207.09,0.03610252
363,3229.32,0.03057865
364,3251.7000000000003,0.04171504
365,3266.71,0.04821711
366,3289.35,0.04721503
367,3311.31121,0.04495684764109605
368,3312.1600000000003,0.04486957
369,3319.7900000000004,0.04235544
370,3327.44,0.04274156
371,3335.11,0.04873205
372,3342.8,0.0438298
373,3350.5099999999998,0.04717732
374,3358.23,0.04860578
375,3365.97,0.04089225
376,3373.7299999999996,0.03408707
377,3381.5099999999998,0.04360713
378,3389.31,0.04737004
379,3397.1200000000003,0.04144423
380,3404.95,0.0492516
381,3412.7999999999997,0.04389131
382,3420.67,0.04595498
383,3428.55,0.04648045
384,3436.46,0.04626323
385,3444.38,0.03237426
386,3452.3199999999997,0.04921954
387,3460.2699999999995,0.04498761
388,3468.25,0.04550477
389,3476.25,0.04315141
390,3484.26,0.04623379
391,3492.29,0.04354298
392,3500.34,0.04072594
393,3508.4100000000003,0.05021405
394,3516.5,0.0417605
395,3524.61,0.04484797
396,3532.73,0.0499673
397,3540.88,0.05280013
398,3549.04,0.05553944
399,3557.22,0.04858976
400,3565.42,0.05351852
401,3573.6400000000003,0.03762225
402,3581.88,0.04250279
403,3590.13,0.03231288
404,3598.4100000000003,0.0506187
405,3606.7,0.04637332
406,3615.02,0.04468998
407,3623.3500000000004,0.04132103
408,3631.71,0.06340318
409,3640.08,0.05176846
410,3648.47,0.04909343
411,3656.88,0.06066938
412,3665.31,0.06308436
413,3673.7599999999998,0.05765969
414,3682.23,0.05393129
415,3690.7200000000003,0.04861651
416,3699.22,0.05857898
417,3707.75,0.04916878
418,3716.3,0.06421533
419,3724.8700000000003,0.03652606
420,3733.45,0.05426652
421,3742.06,0.044513
422,3750.6800000000003,0.03736243
423,3759.3300000000004,0.05989489
424,3768.0000000000005,0.05132629
425,3776.68,0.05865409
426,3785.3900000000003,0.06874485
427,3794.1200000000003,0.05262609
428,3801.8939600000003,0.043252348652539824
429,3802.86,0.04208751
430,3811.6299999999997,0.05889792
431,3820.42,0.0500074
432,3829.22,0.03899464
433,3838.05,0.03183829
434,3846.8999999999996,0.05174698
435,3855.77,0.05660358
436,3864.65,0.05044178
437,3873.56,0.04985752
438,3882.4900000000002,0.04939655
439,3884.16,0.04719859
440,3885.9300000000003,0.07077153
441,3887.7099999999996,0.04832975
442,3889.48,0.0473274
443,3891.26,0.05272811
444,3893.04,0.05902105
445,3894.8100000000004,0.05959469
446,3896.5899999999997,0.05370899
447,3898.36,0.05362597
448,3900.1400000000003,0.0462688
449,3901.9199999999996,0.04862988
450,3903.69,0.05567357
451,3905.47,0.07254833
452,3907.2400000000002,0.06308721
453,3909.0200000000004,0.0662657
454,3910.7999999999997,0.06079277
455,3912.57,0.07416714
456,3914.35,0.06677516
457,3916.1200000000003,0.06438983
458,3917.9,0.06731907
459,3919.68,0.04910703
460,3921.4500000000003,0.05330968
461,3923.2299999999996,0.05199349
462,3925.0,0.04168296
463,3926.78,0.04110655
464,3928.56,0.03701102
465,3930.3300000000004,0.02983897
466,3932.1099999999997,0.03098598
467,3933.88,0.03276049
468,3935.6600000000003,0.0244825
469,3937.44,0.04428247
470,3939.21,0.03854705
471,3940.99,0.04311131
472,3942.76,0.05142272
473,3944.5400000000004,0.0608411
474,3946.3199999999997,0.06209252
475,3948.09,0.06172035
476,3949.87,0.05615061
477,3951.6400000000003,0.05550743
478,3953.42,0.06303624
479,3955.2,0.06495235
480,3956.9700000000003,0.05638644
481,3958.7499999999995,0.04744796
482,3960.52,0.04104496
483,3962.3,0.04200989
484,3964.08,0.04278163
485,3965.8500000000004,0.02504773
486,3967.6299999999997,0.02434179
487,3969.4,0.02701936
488,3971.1800000000003,0.03768652
489,3972.96,0.04318637
490,3974.73,0.05903189
491,3976.5099999999998,0.06409491
492,3978.28,0.06714239
493,3980.0600000000004,0.07659526
494,3981.8399999999997,0.06693047
495,3983.61,0.07125911
496,3985.39,0.08386388
497,3987.1600000000003,0.08524471
498,3988.94,0.08559818
499,3990.72,0.07653108
500,3992.4900000000002,0.0836418
501,3994.27,0.082229
502,3996.04,0.08696815
503,3997.82,0.08599489
504,3999.6,0.08190724
505,4001.3700000000003,0.09077393
506,4003.1499999999996,0.09657358
507,4004.92,0.09014428
508,4006.7000000000003,0.08938007
509,4008.48,0.09644745
510,4010.25,0.09536791
511,4012.0299999999997,0.08919231
512,4013.8,0.09533816
513,4015.5800000000004,0.0973806
514,4017.3599999999997,0.0985622
515,4019.13,0.1102647
516,4020.91,0.1028508
517,4022.6800000000003,0.1015671
518,4024.46,0.1035398
519,4026.24,0.09543445
520,4028.01,0.08826229
521,4029.79,0.08978476
522,4031.56,0.07875305
523,4033.34,0.08555823
524,4035.12,0.09877942
525,4036.8900000000003,0.09515588
526,4038.6699999999996,0.09571079
527,4040.44,0.1023713
528,4042.2200000000003,0.09789224
529,4044.0,0.08394983
530,4045.77,0.0888735
531,4047.5499999999997,0.08864802
532,4049.32,0.09566271
533,4051.1000000000004,0.09476447
534,4052.8799999999997,0.09667023
535,4054.65,0.09315924
536,4056.43,0.08620641
537,4058.2000000000003,0.0887317
538,4059.9800000000005,0.09081926
539,4061.7599999999998,0.09188831
540,4063.53,0.09388295
541,4065.31,0.08813621
542,4067.08,0.09425303
543,4068.86,0.0984901
544,4070.64,0.09513679
545,4072.4100000000003,0.08808835
546,4074.1899999999996,0.08931289
547,4075.96,0.09385864
548,4077.7400000000002,0.09844729
549,4079.52,0.09152391
550,4081.2900000000004,0.09544831
551,4083.0699999999997,0.09781728
552,4084.84,0.1041802
553,4086.6200000000003,0.1019665
554,4088.3999999999996,0.1013416
555,4090.17,0.1049225
556,4091.95,0.09705348
557,4093.7200000000003,0.09616642
558,4095.5000000000005,0.09923806
559,4097.28,0.08304652
560,4099.05,0.0850943
561,4100.83,0.07515611
562,4102.6,0.08108218
563,4104.38,0.09342696
564,4106.15,0.09648565
565,4107.93,0.0962628
566,4109.71,0.09309757
567,4111.4800000000005,0.1006023
568,4113.26,0.1046089
569,4115.03,0.08921959
570,4116.81,0.09672923
571,4118.59,0.09593822
572,4120.360000000001,0.09870212
573,4122.14,0.09667547
574,4123.91,0.08860318
575,4125.6900000000005,0.09703755
576,4127.469999999999,0.09418541
577,4129.24,0.100916
578,4131.02,0.09623599
579,4132.79,0.09184321
580,4134.570000000001,0.09297973
581,4136.349999999999,0.09356902
582,4138.12,0.1039845
583,4139.900000000001,0.09649605
584,4141.67,0.08927293
585,4143.45,0.08926767
586,4145.23,0.09131502
587,4147.0,0.09675597
588,4148.780000000001,0.09541597
589,4150.55,0.1013099
590,4152.33,0.09845508
591,4154.11,0.09102831
592,4155.88,0.09729208
593,4157.66,0.09910132
594,4159.43,0.09885751
595,4161.21,0.1028721
596,4162.99,0.09990524
597,4164.76,0.09976867
598,4166.54,0.09874982
599,4168.31,0.09924624
600,4170.09,0.09296879
601,4171.87,0.09448589
602,4173.64,0.100814
603,4175.42,0.09632964
604,4177.1900000000005,0.08909894
605,4178.97,0.08808546
606,4180.75,0.09546379
607,4182.52,0.09551525
608,4184.3,0.09201991
609,4186.07,0.09828684
610,4187.85,0.1010256
611,4189.63,0.1011271
612,4191.400000000001,0.09944991
613,4193.18,0.09964785
614,4194.95,0.1029822
615,4196.7300000000005,0.09868587
616,4198.509999999999,0.09349394
617,4200.28,0.09364459
618,4202.06,0.0873055
619,4203.83,0.0932423
620,4205.610000000001,0.1050247
621,4207.389999999999,0.1023065
622,4209.16,0.1094735
623,4210.9400000000005,0.1060644
624,4212.71,0.1041911
625,4214.49,0.1016771
626,4216.2699999999995,0.09815763
627,4218.04,0.1016983
628,4219.820000000001,0.1043787
629,4221.59,0.1092112
630,4223.37,0.08851951
631,4225.15,0.08283755
632,4226.92,0.08916566
633,4228.7,0.09805289
634,4230.47,0.1043681
635,4232.25,0.1020976
636,4234.03,0.1045206
637,4235.8,0.1038668
638,4237.58,0.09344835
639,4239.35,0.0982465
640,4241.13,0.1014812
641,4242.91,0.1059594
642,4244.68,0.1072305
643,4246.46,0.1012452
644,4248.2300000000005,0.09651245
645,4250.01,0.0883026
646,4251.79,0.09180262
647,4253.56,0.100412
648,4255.34,0.09727583
649,4257.11,0.1053756
650,4258.89,0.1007308
651,4260.67,0.09540491
652,4262.4400000000005,0.09449147
653,4264.22,0.09937181
654,4265.99,0.1068899
655,4267.77,0.09684457
656,4269.55,0.09099869
657,4271.32,0.09567038
658,4273.1,0.08751188
659,4274.87,0.08856262
660,4276.650000000001,0.09478354
661,4278.429999999999,0.09731331
662,4280.2,0.1011917
663,4281.9800000000005,0.1004869
664,4283.75,0.09776123
665,4285.53,0.09645561
666,4287.3099999999995,0.08826764
667,4289.08,0.08844997
668,4290.860000000001,0.09082476
669,4292.63,0.08618271
670,4294.41,0.08899928
671,4296.19,0.08382657
672,4297.96,0.0763676
673,4299.74,0.0722103
674,4301.51,0.06731663
675,4303.29,0.06703496
676,4305.07,0.06729233
677,4306.84,0.06882014
678,4308.62,0.07194232
679,4310.39,0.0807875
680,4312.17,0.08665958
681,4313.95,0.09592474
682,4315.72,0.1050917
683,4317.5,0.1043623
684,4319.27,0.1079061
685,4321.05,0.1065576
686,4322.83,0.100449
687,4324.6,0.09445122
688,4326.38,0.09187521
689,4328.15,0.09784951
690,4329.93,0.1049415
691,4331.71,0.1099611
692,4333.4800000000005,0.1097527
693,4335.26,0.101835
694,4337.03,0.09294209
695,4338.81,0.09208986
696,4340.58,0.09624697
697,4342.36,0.1023629
698,4344.14,0.1056061
699,4345.91,0.1094737
700,4347.6900000000005,0.09888697
701,4349.469999999999,0.08455282
702,4351.24,0.09102294
703,4353.02,0.09432776
704,4354.79,0.09985179
705,4356.570000000001,0.1081414
706,4358.349999999999,0.1083827
707,4360.12,0.1081309
708,4361.900000000001,0.1133815
709,4363.67,0.114494
710,4365.15832,0.11279489040898912
711,4365.45,0.1124619
712,4367.23,0.1142256
713,4369.0,0.1109934
714,4370.780000000001,0.1040888
715,4372.55,0.1036739
716,4374.33,0.1027784
717,4376.1,0.1011677
718,4377.88,0.1054749
719,4379.66,0.103057
720,4381.43,0.1026126
721,4383.21,0.1003073
722,4384.98,0.09415358
723,4386.76,0.09583151
724,4388.54,0.1015266
725,4390.31,0.1021459
726,4392.09,0.1071928
727,4393.86,0.1059386
728,4395.64,0.1064533
729,4397.42,0.1075384
730,4399.19,0.1081979
731,4400.97,0.1072599
732,4402.74,0.1060003
733,4404.52,0.1005725
734,4406.3,0.1027596
735,4408.07,0.1110443
736,4409.85,0.1088038
737,4411.63,0.111237
738,4413.400000000001,0.1154665
739,4415.18,0.1127542
740,4416.95,0.1090583
741,4418.7300000000005,0.113089
742,4420.5,0.1171234
743,4422.28,0.1159222
744,4424.06,0.1180665
745,4425.83,0.1136764
746,4427.610000000001,0.1106072
747,4429.38,0.1125912
748,4431.16,0.1173106
749,4432.9400000000005,0.1116898
750,4434.71,0.1119209
751,4436.49,0.1186854
752,4438.26,0.1162792
753,4440.04,0.1172571
754,4441.820000000001,0.1154476
755,4443.59,0.1144887
756,4445.37,0.1192751
757,4447.14,0.122186
758,4448.92,0.1247323
759,4450.7,0.1216952
760,4452.47,0.1158181
