,lambda (Angstroms),Total Flux (erg/s/cm^2/Angstrom)
0,101.98,0.03604523244786706
1,104.11,0.0429480145456053
2,104.712855,0.04490171253062414
3,106.05,0.04128605688973907
4,108.02000000000001,0.03595915397667199
5,110.03,0.03052409063555762
6,113.89,0.02008660583577702
7,117.9,0.009243519390245336
8,120.22644299999999,0.0029527921073569017
9,120.92,0.0028660155298599744
10,124.88000000000001,0.002370546361923615
11,126.91,0.0021165559566246866
12,128.09,0.0019689163266795387
13,131.07,0.0015960638569353209
14,131.98,0.0014822076209698354
15,134.12,0.0012144549470624484
16,136.93,0.0008628763463833863
17,138.038426,0.0007241928693128948
18,140.12,0.0007149975088291731
19,143.05,0.0007020989622917169
20,147.06,0.0006845263122264952
21,150.82999999999998,0.0006679246872596657
22,155.06,0.0006493071547467509
23,158.489319,0.0006342338804945313
24,159.04000000000002,0.0006305079473789612
25,162.0,0.0006104908401824109
26,166.15,0.0005824497323561661
27,170.02,0.0005563202879133788
28,173.18,0.0005349973762143587
29,176.80999999999997,0.0005105460404145351
30,180.10000000000002,0.0004883730027089095
31,181.970086,0.0004757855895089421
32,182.18,0.0004762565280835701
33,185.99999999999997,0.00048486980643483446
34,191.20999999999998,0.0004966458763432343
35,193.87,0.0005027379627763136
36,197.93,0.0005119957094899611
37,202.07,0.0005214989599910695
38,204.88,0.0005280046912756384
39,208.929613,0.0005372305816079354
40,210.14000000000001,0.0005534033263887597
41,216.02,0.0006325556975827082
42,220.04,0.0006866365095418362
43,223.1,0.0007277504967346055
44,227.25,0.0007837013971725113
45,229.88000000000002,0.0008231600933970159
46,234.14999999999998,0.0008894227544307161
47,239.88329199999998,0.0009731019757815715
48,240.16,0.000970444788444253
49,245.75,0.000910878990745559
50,252.06,0.000847252914488178
51,256.74,0.0007932103438567133
52,259.71999999999997,0.0007674065909332596
53,263.94,0.0007258824682698445
54,268.84999999999997,0.000675530033654355
55,273.84,0.0006243177980879001
56,275.42287,0.0006081235999535645
57,278.93,0.0006515003279761383
58,284.12,0.0007157266854417345
59,290.07,0.0007868017172568205
60,296.14,0.000863303860284984
61,300.96000000000004,0.0009226554623435923
62,307.97,0.0010109507215408618
63,316.227766,0.0011153574762124844
64,318.05,0.001101557578389478
65,327.72,0.0010273579601059696
66,337.68,0.0009501027499090988
67,347.94,0.0008701907242846113
68,356.86,0.0008015179495701444
69,363.078055,0.0007542482825240377
70,366.02000000000004,0.0007766547458923424
71,375.40999999999997,0.0008461296033127815
72,385.03999999999996,0.0009140939666736796
73,394.90999999999997,0.0009920572359750366
74,405.03999999999996,0.0010687934283785565
75,413.53000000000003,0.0011320935135222773
76,416.86938299999997,0.0011561502056828474
77,422.18,0.0011802365780010898
78,430.03,0.0012167858149844696
79,441.06,0.0012703998042744927
80,451.34000000000003,0.0013175513651903076
81,459.73,0.0013564431186031173
82,470.44,0.001406154127786811
83,478.630092,0.0014464313477964917
84,480.29,0.0014392399048672683
85,490.35,0.0013908528866380717
86,499.46,0.0013542248737088496
87,506.40999999999997,0.001357946298093252
88,512.27,0.0016955043190849924
89,520.6,0.001701884986296801
90,530.28,0.0017119908301875945
91,540.13,0.001656896148919445
92,549.5408739999999,0.0019668725090601913
93,550.18,0.001990186459197716
94,560.4,0.002241696307494699
95,569.51,0.0024738970783347684
96,580.1,0.002414714952450722
97,589.52,0.002908402231409389
98,600.48,0.0030564241313443133
99,610.24,0.003596633677271765
100,620.16,0.004075532937066879
101,630.2299999999999,0.004482239991112928
102,630.957344,0.004487843500965188
103,640.47,0.0045992789701944274
104,649.38,0.005366989765358308
105,658.42,0.0058662288639308655
106,664.51,0.006243441077460388
107,675.31,0.006381977283719638
108,684.7,0.006442320199161708
109,694.23,0.008538263441351583
110,705.51,0.008286725767889021
111,715.3199999999999,0.010116308663574507
112,724.43596,0.010656910032138629
113,725.27,0.010705543203368511
114,735.36,0.011273854662253682
115,745.59,0.013036175515018334
116,754.23,0.014150553537294637
117,764.72,0.015236854978692602
118,775.3599999999999,0.016842182913532865
119,784.34,0.01850166632094504
120,795.25,0.019466977943981435
121,804.46,0.02057116264133847
122,815.65,0.021506121052133818
123,825.09,0.024013407039435705
124,831.763771,0.020786787581879337
125,834.65,0.019379336993917518
126,844.3100000000001,0.025626880297310462
127,854.09,0.02658015090882009
128,865.9699999999999,0.028948804412371656
129,876.0,0.031406461082457704
130,884.1,0.03470880938033377
131,894.34,0.03701078633962401
132,904.6899999999999,0.03714869916468788
133,915.17,0.058334450740211485
134,925.7700000000001,0.44297904962385176
135,934.33,0.9461598042695084
136,945.15,1.651181104884696
137,954.992586,2.083170612861142
138,956.1,2.1317774969020076
139,964.9399999999999,2.2580675067130653
140,976.12,0.3471306602976381
141,985.1500000000001,1.5914463843467161
142,994.26,1.797944272285487
143,1005.78,2.7271380724012544
144,1015.08,2.7972078745780458
145,1024.48,1.5659646316169535
146,1033.96,2.146510352545554
147,1045.93,3.7039969495408434
148,1055.6100000000001,3.505059580193676
149,1065.3700000000001,2.739708174736201
150,1075.23,3.263548724140842
151,1085.18,2.6834652329213875
152,1095.22,3.5290757010778377
153,1096.4782,3.4961164972949934
154,1105.36,3.263444585531676
155,1115.5800000000002,3.1456161473896604
156,1125.9099999999999,2.6224915538468996
157,1133.71,3.5209155345212912
158,1144.2,3.248523714941082
159,1154.79,3.393585754087468
160,1165.47,3.3936216660877885
161,1176.26,1.9802194226873635
162,1184.41,3.354865908904837
163,1195.3700000000001,2.8163414253396235
164,1203.65,1.9620877279016697
165,1214.79,1.7128819900443264
166,1226.03,2.862093110913578
167,1234.53,3.636316102674133
168,1245.95,3.7380519692512553
169,1254.59,3.5863667632290426
170,1258.92541,3.546825508135042
171,1266.2,3.4804883694483406
172,1274.98,3.941333251722885
173,1283.81,4.014576139021773
174,1295.6899999999998,3.130749332805553
175,1304.67,3.316379235177468
176,1313.7199999999998,4.023921144583462
177,1325.8700000000001,3.7727923654986926
178,1335.0600000000002,3.504821288972846
179,1344.32,3.9052572194810793
180,1353.64,3.8250241560185225
181,1366.1599999999999,3.4645504141138876
182,1375.6299999999999,3.4805033657243594
183,1385.17,3.45672032436891
184,1394.77,2.5566592890426723
185,1404.44,2.7522392607505135
186,1414.1699999999998,3.189038238487566
187,1423.97,3.2037142232586984
188,1433.8400000000001,3.32394821506391
189,1440.46,3.448643880286858
190,1445.43977,3.4308340273529225
191,1447.1100000000001,3.42486052155142
192,1453.7900000000002,3.3315410849264673
193,1463.87,3.0526019350492937
194,1474.02,3.152434791075751
195,1484.23,3.1671316521624626
196,1494.52,3.1671025199961815
197,1504.88,2.9017873937335312
198,1511.8300000000002,2.5507929798797258
199,1515.31,2.6958062733745107
200,1525.82,2.7647841597624976
201,1536.3899999999999,2.321060051210739
202,1543.48,2.3263816491641953
203,1554.18,2.2892065515763225
204,1564.95,2.48703645989208
205,1575.8,2.695811374954845
206,1586.73,2.790428296764616
207,1594.05,2.796976914115716
208,1605.1000000000001,2.848718846045997
209,1616.2299999999998,2.842163784723284
210,1623.69,2.752250413881646
211,1634.94,2.983079362679443
212,1646.27,3.0175933182242467
213,1653.8700000000001,2.91512695918987
214,1659.58691,3.0012319810211423
215,1665.34,3.087884984677405
216,1673.02,2.88193871480147
217,1676.88,3.203729092181534
218,1684.6200000000001,3.2110508592596934
219,1696.3,3.0246710529900427
220,1704.13,2.955660875499343
221,1715.94,2.783917149296897
222,1723.8600000000001,2.7711370272373395
223,1735.8100000000002,2.955680387261112
224,1743.8200000000002,2.881992320632696
225,1755.91,3.0037937668826897
226,1764.01,2.8885387556854143
227,1776.24,2.7904962881616275
228,1784.4399999999998,2.88854233855451
229,1796.8100000000002,3.038599957256943
230,1805.1000000000001,3.0739070630809664
231,1813.43,2.733281193541053
232,1826.0000000000002,2.8752589354238003
233,1834.4299999999998,2.7777361274740437
234,1842.9,2.52753034416035
235,1855.68,2.5508992153824273
236,1864.24,2.622479487499875
237,1872.8500000000001,2.8357617904124015
238,1885.83,2.5333677848147924
239,1894.5300000000002,2.3698111431584605
240,1903.28,2.6224855322972065
241,1905.46072,2.5935408347025164
242,1916.47,2.4473991350948983
243,1925.3200000000002,2.3643121090446972
244,1934.2,2.5275450591773767
245,1943.13,2.6224719696148573
246,1956.6,2.3752252757282797
247,1965.6299999999999,2.6465181067753627
248,1974.7,2.758641906066286
249,1983.82,2.574488665662011
250,1992.97,2.5274934014406165
251,2006.79,2.652736429687647
252,2016.05,2.598288078136815
253,2025.36,2.7207046868907834
254,2034.71,2.492786263888594
255,2044.1000000000001,2.5922748091302443
256,2053.53,2.4813313226157363
257,2063.01,2.510055796406029
258,2072.54,2.7143642305011233
259,2077.31,2.4472834435791504
260,2086.9,2.604223830040006
261,2096.53,2.452915184744702
262,2106.21,2.5390894997541995
263,2115.93,2.568461783007538
264,2125.7000000000003,2.6041840265656773
265,2135.5099999999998,2.515764238367657
266,2145.37,2.4528564104744386
267,2155.27,2.574364550825061
268,2165.22,2.5566256514804846
269,2175.21,2.5390397203797486
270,2185.25,2.4641767495838143
271,2187.7616199999998,2.485722911884135
272,2195.34,2.550745552513951
273,2205.47,2.5273659645375544
274,2215.65,2.4585064082098427
275,2225.88,2.3915008835308162
276,2236.1600000000003,2.4415983905004746
277,2246.48,2.4303749227890807
278,2256.85,2.3478874867263726
279,2267.26,2.402577075982612
280,2272.4900000000002,2.4136803864350744
281,2282.98,2.442025026329211
282,2293.52,2.2796806978720316
283,2304.1,2.360428394733801
284,2314.7400000000002,2.270459129573992
285,2325.42,1.8847358897331312
286,2336.16,2.154534687870693
287,2346.94,2.160105511327202
288,2352.35,2.220916935714931
289,2363.21,2.151071809809337
290,2374.1200000000003,2.1516737155524277
291,2385.07,2.0936506466144666
292,2396.08,2.1430026156549276
293,2407.1400000000003,2.0852046163440736
294,2412.69,2.1047911293481207
295,2423.83,2.154428180675163
296,2435.02,2.0819022636508904
297,2446.26,2.1457573782753028
298,2457.55,2.1414295245484007
299,2463.21,2.112385107179555
300,2474.58,2.0696803040905487
301,2486.0099999999998,2.070273538979965
302,2497.48,1.8330327991883286
303,2503.24,2.0711754451168534
304,2511.88643,1.9748230060554175
305,2514.79,1.942464206770377
306,2520.5899999999997,2.024934785900948
307,2526.3999999999996,1.974587362581744
308,2532.22,1.974887936812765
309,2543.91,1.9305210730259332
310,2555.65,2.003525196990227
311,2567.45,1.976645306255871
312,2573.37,2.0276148559891434
313,2585.25,2.009622945656589
314,2597.18,1.9918270230751598
315,2603.17,1.955774555660008
316,2615.18,1.93397761348038
317,2627.25,1.9614806566021028
318,2633.31,1.979889172038527
319,2645.46,2.0406821955620504
320,2657.6699999999996,2.060169204386925
321,2663.8,1.9363237026749247
322,2676.1000000000004,1.9865766894518253
323,2682.27,1.9868831779407257
324,2694.65,1.9112311451194273
325,2707.0899999999997,1.9118300975994795
326,2713.33,1.8815515689399556
327,2725.8500000000004,1.886502501821809
328,2732.1299999999997,1.9174579633631856
329,2744.7500000000005,1.79416187174729
330,2757.4100000000003,1.8071867703322948
331,2763.77,1.8326112122754725
332,2776.5299999999997,1.875867086362729
333,2782.9300000000003,1.8250525185068072
334,2795.77,1.6574193729958642
335,2802.2200000000003,1.715911792891068
336,2815.15,1.8434276253321513
337,2828.1499999999996,1.8696624406248104
338,2834.67,1.79406584337159
339,2847.75,1.7946686390660502
340,2854.32,1.7581390295639554
341,2867.49,1.8331358032104415
342,2874.1,1.8250061839092473
343,2884.0315,1.8160639040803617
344,2887.3700000000003,1.8130587341776927
345,2894.02,1.8008787008377882
346,2907.38,1.8476716338571677
347,2927.5299999999997,1.81070953283475
348,2947.8300000000004,1.7744764310603043
349,2968.2599999999998,1.783570328634101
350,2988.8399999999997,1.7721942254558698
351,3009.5499999999997,1.752841121625881
352,3030.41,1.7577730170438643
353,3051.42,1.7506119117098198
354,3072.57,1.7435008056738828
355,3086.7499999999995,1.7201867345821762
356,3108.15,1.7210986272928592
357,3129.69,1.6945195193016491
358,3151.39,1.6915074105082764
359,3173.23,1.6730813010130106
360,3187.88,1.62432622756495
361,3209.98,1.6478261167661692
362,3232.23,1.6001180052153603
363,3247.1499999999996,1.6379899304136496
364,3269.66,1.646464817559326
365,3292.32,1.632300703952974
366,3307.52,1.6216796277474779
367,3311.31121,1.6369505330566856
368,3322.78,1.6831455095807464
369,3330.44,1.6873537754526295
370,3338.12,1.6229070394077292
371,3345.8199999999997,1.623194301446045
372,3353.53,1.6012355625259693
373,3361.2599999999998,1.6200808216891098
374,3369.01,1.587169078935467
375,3376.77,1.5549453352234321
376,3384.56,1.598772588636222
377,3392.3599999999997,1.64010784109062
378,3400.18,1.6747680916282344
379,3408.02,1.5850513402490654
380,3415.88,1.6037135869531125
381,3423.75,1.679595832698768
382,3431.6400000000003,1.67220507652764
383,3439.55,1.668673318439728
384,3447.48,1.586589558435033
385,3455.43,1.575972796513554
386,3463.39,1.540428033633683
387,3471.38,1.594849267878637
388,3479.38,1.5552685011651992
389,3487.4,1.5377857325349777
390,3495.44,1.5994729619879726
391,3503.5,1.5742171895241839
392,3511.57,1.5672944161020035
393,3519.6699999999996,1.5857446398046475
394,3527.7799999999997,1.5499888625488996
395,3535.92,1.6121450824179766
396,3544.07,1.6273803013286616
397,3552.24,1.6427805183225632
398,3560.43,1.6280317333996812
399,3568.6299999999997,1.5658829475184075
400,3576.86,1.499192158761958
401,3585.11,1.4823263680887253
402,3593.3700000000003,1.5101685764571007
403,3601.65,1.5889577829086925
404,3609.96,1.5495319864851087
405,3618.2799999999997,1.5714131891031333
406,3626.62,1.6382213898043743
407,3634.98,1.5829365885888316
408,3643.36,1.6502487854565053
409,3649.6099999999997,1.5608271864616319
410,3652.34,1.3420509248206713
411,3655.06,1.5832486641381025
412,3657.7799999999997,1.5783624034555335
413,3660.5,1.5998501427729648
414,3663.22,1.5528248820903958
415,3665.9399999999996,1.465177621407827
416,3668.67,1.4532503597668662
417,3671.39,1.5302090990842974
418,3674.1099999999997,1.6348758384017283
419,3676.83,1.6386405777191595
420,3679.5499999999997,1.4914983170365905
421,3682.2700000000004,1.5045430563540216
422,3685.0,1.5855187947130611
423,3687.72,1.5156205340304922
424,3690.44,1.5509112733479233
425,3693.16,1.5669630126653544
426,3695.88,1.5614487519827855
427,3698.6000000000004,1.5241204913002164
428,3701.33,1.5740152296592558
429,3704.0499999999997,1.498313968976687
430,3706.77,1.5156727082941182
431,3709.49,1.7809464476115493
432,3712.21,1.9609761869289803
433,3714.9300000000003,2.5127229262464117
434,3717.66,3.9698756646054507
435,3720.3799999999997,6.370342403922882
436,3723.1,8.702327143240314
437,3725.82,8.814475882557744
438,3728.54,6.715934621875175
439,3731.26,3.9513323611926063
440,3733.99,2.491275099551646
441,3736.7099999999996,1.9574918388690767
442,3739.4300000000003,1.6477045781865078
443,3742.15,1.632936317503939
444,3744.8700000000003,1.62164505682137
445,3747.59,1.5170317961388011
446,3750.3199999999997,1.6330355344978404
447,3753.0400000000004,1.7065952738152714
448,3755.76,1.7661180131327028
449,3758.48,1.6622377524501337
450,3761.2000000000003,1.7242704917675649
451,3763.92,1.747014231084996
452,3766.65,1.6683499694440354
453,3769.3700000000003,1.6443277087614665
454,3772.09,1.7368654480788974
455,3774.81,1.9339391873963285
456,3777.53,1.8788109267137598
457,3780.25,1.8421106660311908
458,3782.98,1.8820184043902302
459,3785.7000000000003,1.7892741437076614
460,3788.42,1.7833938830250924
461,3791.14,1.6873556223425237
462,3793.86,1.6219273616599545
463,3796.58,1.6658181009773856
464,3799.3100000000004,1.7344288393364249
465,3801.8939600000003,1.825839976632999
466,3802.03,1.8306525813704708
467,3804.75,1.8776803750042195
468,3807.47,1.915115168637968
469,3810.19,1.8447209622717164
470,3812.91,1.8825737559054652
471,3815.6400000000003,1.8509355487805144
472,3818.36,1.794395342414263
473,3821.08,1.7735361360480115
474,3823.8,1.8180289296817602
475,3826.52,1.6295577233155087
476,3829.24,1.5314545169492573
477,3831.9700000000003,1.6086133098243065
478,3834.69,1.7484651034580552
479,3837.41,1.6851028970918036
480,3840.13,1.7639956907255523
481,3842.85,1.804540484359301
482,3845.5699999999997,1.9465882779930495
483,3848.3,1.9467630708680985
484,3851.02,1.9336418645018472
485,3853.74,2.026232658135596
486,3856.46,2.0457614517693443
487,3859.18,2.117805245403093
488,3861.8999999999996,2.1540110390368414
489,3864.63,2.299341831911891
490,3867.35,2.1786016255456393
491,3870.0699999999997,2.052502419179388
492,3872.79,1.9706062128131365
493,3875.5099999999998,1.8763980064468853
494,3878.2299999999996,1.8539968000806337
495,3880.96,1.9518315929556829
496,3883.68,1.9957483865894314
497,3886.3999999999996,2.00045618022318
498,3889.12,1.8986139738569285
499,3891.8399999999997,1.8120647674906774
500,3894.5600000000004,1.8296065611244259
501,3897.29,1.787983353999475
502,3900.0099999999998,1.8688621476332234
503,3902.73,1.9977359412669722
504,3905.45,2.0189897349007206
505,3908.17,1.9784215285344693
506,3910.8900000000003,1.9411983221682179
507,3913.62,1.943150115043267
508,3916.3399999999997,1.9315199086770156
509,3919.06,1.8920227023107643
510,3921.78,1.7749154959445128
511,3924.5,1.6977242895782614
512,3927.2200000000003,1.69589608321201
513,3929.95,1.6432418760870593
514,3932.6699999999996,1.6087636697208079
515,3935.3900000000003,1.7328794633545563
516,3938.11,1.852525256988305
517,3940.8300000000004,1.8316660506220535
518,3943.55,1.8873468442558021
519,3946.2799999999997,1.9407176371308514
520,3948.9999999999995,1.9280144307645999
521,3951.7200000000003,1.8154292243983485
522,3954.44,1.819012018032097
523,3957.1600000000003,1.7228428116658456
524,3959.88,1.6983766052995943
525,3962.6099999999997,1.7646083981746434
526,3965.3300000000004,1.7854701918083922
527,3968.05,1.7738129854421407
528,3970.77,1.7229447790758892
529,3973.4900000000002,1.7301345727096378
530,3976.21,1.8513493663433864
531,3978.94,1.8645681592184358
532,3981.6600000000003,1.8957809528521843
533,3984.38,1.9210337464859328
534,3987.1,1.9652905401196814
535,3989.82,1.97778733375343
536,3992.54,1.9495831273871786
537,3995.2700000000004,2.005357920262228
538,3997.9900000000002,2.0412507138959763
539,4000.71,2.019764507529725
540,4003.43,2.0669753011634735
541,4006.15,2.056599094797222
542,4008.87,2.0492028884309708
543,4011.6000000000004,2.13961368130602
544,4014.32,2.1183894749397685
545,4017.04,2.080827268573517
546,4019.76,2.1448200622072657
547,4022.48,2.096984855841014
548,4025.2,1.9779436494747629
549,4027.9300000000003,2.069216442349812
550,4030.65,2.0627612359835608
551,4033.37,2.011449029617309
552,4036.09,2.048386823251058
553,4038.81,2.118444616884806
554,4041.5299999999997,2.081196410518555
555,4044.26,2.022764203393604
556,4046.98,2.0146099970273528
557,4049.7,2.035104790661101
558,4052.42,2.08511358429485
559,4055.14,2.0205743779285985
560,4057.8599999999997,2.099101171562347
561,4060.59,2.069474964437396
562,4063.31,2.158248758071145
563,4066.0299999999997,2.050604551704893
564,4068.75,2.078629345338642
565,4071.47,2.0468441389723906
566,4074.1899999999996,2.0135419326061395
567,4076.92,2.0159647254811883
568,4079.64,2.034186519114937
569,4082.3599999999997,2.0250903127486857
570,4085.08,1.9549311063824342
571,4087.7999999999997,1.9586709000161826
572,4090.5200000000004,1.9913476936499312
573,4093.25,2.0657604865249803
574,4095.97,2.1970132801587288
575,4098.69,2.373122073792478
576,4101.41,2.281187867426226
577,4104.13,2.019785661059975
578,4106.85,1.9066254546937234
579,4109.58,1.9338552475687727
580,4112.3,1.8577630412025212
581,4115.0199999999995,1.8920868348362698
582,4117.74,1.9705866284700184
583,4120.46,1.927247422103767
584,4123.18,1.9470112157375155
