,lambda (Angstroms),Total Flux (erg/s/cm^2/Angstrom)
0,102.08999999999999,0.015806583717825944
1,103.97999999999999,0.01846622389392331
2,104.712855,0.019497514666595047
3,105.92,0.01808018447755562
4,107.89,0.015767184558288076
5,109.89,0.013419052136104273
6,114.02000000000001,0.008570029630066213
7,118.02,0.003873668157498626
8,120.22644299999999,0.0012841804014436782
9,121.05,0.0012398798258136641
10,125.02,0.0010249152409248746
11,127.05,0.0009149984660648639
12,127.93,0.0008674253783817061
13,130.91,0.0007061459296364693
14,132.12,0.0006410609575721275
15,133.96,0.0005415965356891621
16,137.07999999999998,0.0003735142865397873
17,138.038426,0.00032178315593466976
18,139.95000000000002,0.0003187924142049235
19,142.88,0.00032106775471040655
20,146.88,0.00032758630683393266
21,151.0,0.00032454247482116463
22,154.87,0.0003228503689256762
23,158.489319,0.0003219974911336809
24,158.83999999999997,0.0003215538705152314
25,162.17,0.0003171496122608043
26,165.95,0.0003141029199179412
27,169.81,0.0003109550744038006
28,172.97,0.0003086489941383384
29,177.0,0.00030645265063523305
30,179.87,0.00030562736811565183
31,181.96,0.0003049927240160265
32,181.970086,0.0003049905980483371
33,186.19,0.0003205456209201139
34,190.97,0.00034028999717657235
35,194.07,0.00035378772571109565
36,198.14,0.0003714934115612602
37,201.82,0.00039023189704740397
38,205.1,0.000405166094980706
39,208.929613,0.00041967013431479065
40,209.88,0.0004278434599811124
41,215.76000000000002,0.0004950735631338146
42,219.77,0.0005375637892634634
43,222.83,0.0005678477062102778
44,226.96999999999997,0.0006138424114912616
45,230.13,0.0007857569662467954
46,233.87,0.0011141028202929018
47,239.86,0.0014297047750351955
48,239.88329199999998,0.0014298387346211347
49,246.01999999999998,0.0014006521924102857
50,251.75,0.0014900786493154852
51,257.02,0.001280433663257964
52,260.0,0.001490809202451244
53,264.22,0.0015754931096309897
54,269.13,0.0015971582812548174
55,274.14,0.0016167648535227149
56,275.42287,0.0016179350358144088
57,279.23,0.0016587671236429516
58,283.77,0.0017342173455803611
59,289.71,0.0017510593804500117
60,295.78000000000003,0.0018391341265205133
61,301.28,0.0018363196773257449
62,308.3,0.0019585910821716956
63,316.227766,0.002099317573376461
64,317.66,0.002112168487905095
65,328.07000000000005,0.0021401183447156045
66,338.04,0.0021394152373573703
67,348.31,0.0021384836964778247
68,357.25,0.002164467377542758
69,363.078055,0.0021961152197477935
70,366.41,0.0022362262868153493
71,374.94,0.0022880245494982226
72,384.55999999999995,0.0022664231400034087
73,395.34,0.0024165898225029835
74,404.54999999999995,0.0025104567942860158
75,413.97,0.002547496058585273
76,416.86938299999997,0.0025522565108990532
77,421.66,0.002554571331048054
78,430.48999999999995,0.0025650273869391236
79,440.52,0.0026315679770396254
80,450.78,0.0026544682945302683
81,460.22,0.0026509414969777996
82,469.86,0.002672632288460236
83,478.630092,0.002718938535109839
84,479.7,0.0027202902214892937
85,489.73999999999995,0.0026527050107770962
86,500.0,0.002694313484690727
87,505.78999999999996,0.002753420775525028
88,511.64,0.0036431663439845537
89,519.96,0.0036461715080158804
90,529.62,0.0036314572056772524
91,539.47,0.003464478949151839
92,549.5,0.003879778525502104
93,549.5408739999999,0.003881506316357997
94,559.71,0.004326997278181069
95,570.12,0.0046317195223474945
96,579.38,0.004508610683825025
97,590.16,0.004996599511117443
98,599.75,0.004957546922410048
99,609.49,0.005292201083618595
100,619.39,0.006099021578070816
101,629.46,0.006363796989094437
102,630.957344,0.006389567954408236
103,639.6899999999999,0.006555073697264462
104,650.0799999999999,0.007119763821718922
105,657.61,0.007349440737709498
106,665.22,0.007823867631559202
107,674.4799999999999,0.008077890068753457
108,685.4399999999999,0.007912984035454216
109,694.97,0.009617191397923032
110,704.64,0.009109854721645326
111,716.09,0.010909525552733253
112,724.43596,0.01131166276735585
113,726.0500000000001,0.011388737287222783
114,734.4599999999999,0.011858070990954563
115,744.6700000000001,0.012939198555175906
116,755.03,0.013687071441104714
117,765.54,0.014158749648740983
118,774.4,0.015592799317595154
119,785.1800000000001,0.01653354110430486
120,794.27,0.01745254159977714
121,805.32,0.018302086965560276
122,814.64,0.01906170828765067
123,824.0799999999999,0.020721027867107035
124,831.763771,0.018837685025904324
125,835.5400000000001,0.017905275826246635
126,845.21,0.022159354684871648
127,855.0000000000001,0.02296134473926036
128,864.9,0.0246714183897658
129,874.92,0.026272593236034942
130,885.05,0.028237471678420813
131,895.3,0.029737641316570387
132,905.66,0.030271594550836688
133,914.04,0.0421094230550019
134,924.63,0.24277803108114865
135,935.33,0.5198266627034122
136,943.99,0.9811050239976926
137,954.92,1.3448340704118364
138,954.992586,1.3463058289073355
139,965.98,1.5690988268863424
140,974.92,0.3083263746600545
141,983.9399999999999,1.4343713067538892
142,995.3299999999999,1.4476470743313592
143,1004.54,1.9571332691854855
144,1013.83,1.8604774483597342
145,1025.57,0.8179591473377411
146,1035.06,1.3920862873122968
147,1044.64,2.4357764096469907
148,1054.31,2.374743514341822
149,1064.06,1.9527596033567767
150,1073.91,2.2678876727718844
151,1083.84,1.869082726507115
152,1093.87,2.358402760642499
153,1096.4782,2.323075572166571
154,1103.99,2.2213276414028367
155,1114.21,2.150948372048934
156,1124.52,1.9214190474854569
157,1134.9199999999998,2.358365667712405
158,1145.43,2.160780220460985
159,1156.02,2.262672724134387
160,1164.04,2.315360804347861
161,1174.81,1.6391781976021138
162,1185.68,2.2678175295123952
163,1193.8999999999999,1.7523814870379255
164,1204.94,1.3202157146634552
165,1216.09,0.8273466748106163
166,1224.52,1.650517703513806
167,1235.85,2.272984753241818
168,1244.42,2.4077604960634473
169,1255.93,2.3153134353723104
170,1258.92541,2.245252706530157
171,1264.6399999999999,2.111595847216791
172,1276.34,2.463716357729516
173,1285.19,2.5096077438865776
174,1294.1,2.068276132661653
175,1306.07,2.1067426549554416
176,1315.12,2.4637110498392163
177,1324.2399999999998,2.3420854477773405
178,1336.49,2.1458199822885278
179,1345.76,2.402221386771687
180,1355.09,2.3474117938728605
181,1364.4800000000002,2.1607392035920476
182,1373.9399999999998,2.195940616365585
183,1383.46,2.2162180317571356
184,1396.26,1.8647515902667844
185,1405.94,1.9391970126397058
186,1415.69,2.0729734380669766
187,1425.5,2.072998866112262
188,1435.3799999999999,2.106728297211897
189,1442.01,2.170788586502441
190,1445.43977,2.1682078986998987
191,1448.6599999999999,2.165784854084239
192,1455.35,2.116471099080096
193,1465.44,1.9888154685880475
194,1475.59,1.998075840293271
195,1485.82,2.0026292149281915
196,1496.12,2.0026125921265963
197,1506.49,1.8950889718884847
198,1513.45,1.7163422267720667
199,1516.9299999999998,1.8015103542138577
200,1523.94,1.8014746109285
201,1534.5,1.5908309976484176
202,1545.14,1.6240453872980316
203,1555.85,1.5689827795111297
204,1566.6299999999999,1.6467721742877124
205,1573.86,1.7403624390590196
206,1584.77,1.7766898385963588
207,1595.76,1.7972832410633943
208,1606.82,1.768568646093914
209,1614.23,1.7645379174570381
210,1625.4199999999998,1.7163573272483144
211,1636.69,1.801497739969287
212,1644.2499999999998,1.8014970168255915
213,1655.6399999999999,1.7322494339411088
214,1659.58691,1.7808548722437987
215,1663.29,1.8264585688279444
216,1670.96,1.7204066200758603
217,1678.6799999999998,1.8433446846956665
218,1686.4199999999998,1.8603937546642284
219,1694.2099999999998,1.7766998380046801
220,1705.95,1.7243159777244368
221,1713.8300000000002,1.6428910851342906
222,1725.71,1.627971262295339
223,1733.6699999999998,1.7085923911002168
224,1745.69,1.6696656057025572
225,1753.75,1.7283707612512147
226,1765.8999999999999,1.6429120106204689
227,1774.0500000000002,1.635461190238528
228,1786.35,1.6657854797234521
229,1794.6000000000001,1.7204326860852914
230,1807.04,1.7243360130115073
231,1815.38,1.5945232434427483
232,1823.76,1.6391794845715013
233,1836.3999999999999,1.5945358649852768
234,1844.8700000000001,1.4813141301834318
235,1853.39,1.4710994087534768
236,1866.24,1.50535784532919
237,1874.8500000000001,1.5982301479686367
238,1883.51,1.4677324639799736
239,1896.56,1.3920539540432466
240,1905.31,1.495029294123985
241,1905.46072,1.4938206114140278
242,1914.11,1.424453352763338
243,1922.95,1.3856343053475033
244,1936.27,1.4509367135399334
245,1945.21,1.4881346316510689
246,1954.19,1.3792645359729925
247,1967.74,1.4847048648774541
248,1976.82,1.5333357347263479
249,1985.9399999999998,1.4509145907860297
250,1995.11,1.4178814296091966
251,2004.32,1.4609612546431516
252,2013.5700000000002,1.434299065887895
253,2022.86,1.4915548633434261
254,2036.89,1.3984200267773446
255,2046.29,1.424402786312543
256,2055.73,1.3416525320585295
257,2065.2200000000003,1.3760522605680012
258,2074.7599999999998,1.4642849718409578
259,2079.54,1.369733324030133
260,2084.33,1.4211206727720056
261,2093.95,1.3540513564665384
262,2103.62,1.3855650229245564
263,2113.33,1.3919676755933623
264,2123.08,1.4080813144729565
265,2132.88,1.3634249361160358
266,2142.73,1.3416205405226
267,2152.62,1.3855521311399526
268,2162.55,1.3602717079680928
269,2172.54,1.3509062641124154
270,2182.56,1.323208809914829
271,2187.7616199999998,1.3407072686496888
272,2192.64,1.3571213575858898
273,2202.76,1.3354461390768737
274,2212.93,1.302047934310402
275,2223.1400000000003,1.2694887405379658
276,2233.4,1.302064560508074
277,2243.71,1.2812343942207265
278,2254.07,1.2463382416759234
279,2264.4700000000003,1.263682100125156
280,2274.92,1.2724459723169328
281,2285.42,1.278176858251254
282,2295.97,1.2204627579281195
283,2306.57,1.2315606713475298
284,2317.2200000000003,1.197796598509484
285,2322.56,1.0265070662132245
286,2333.28,1.151544012614741
287,2344.05,1.1381819727588018
288,2354.87,1.1618149466454073
289,2365.7400000000002,1.127366934274557
290,2376.66,1.129784935646251
291,2387.63,1.0937729507604896
292,2393.13,1.121734462440372
293,2404.18,1.0934974995426816
294,2415.2799999999997,1.0983465503875354
295,2426.42,1.1160176122264247
296,2437.62,1.0829226905563676
297,2443.2400000000002,1.1080452352183565
298,2454.52,1.09769633553637
299,2465.85,1.084954449596928
300,2477.23,1.0649795774000308
301,2482.94,1.0747261467985996
302,2494.4,0.9890778965897731
303,2505.9199999999996,1.074355462872
304,2511.6899999999996,1.016524048761622
305,2511.88643,1.0175683707695824
306,2517.4800000000005,1.047304507737203
307,2523.2900000000004,1.0233768897011843
308,2534.9300000000003,1.0208386515016568
309,2546.64,1.004335405855912
310,2552.51,1.0299897814374215
311,2564.29,1.0156825283454598
312,2576.12,1.0367582699347715
313,2582.06,1.029519638070064
314,2593.98,1.0222513700856681
315,2605.9500000000003,1.0011060967825456
316,2617.9799999999996,0.9917449170969512
317,2624.0200000000004,0.9985190745947908
318,2636.1299999999997,1.005246886399234
319,2642.21,1.0309232396420926
320,2654.4,1.0354839429365734
321,2666.6600000000003,0.9909743387848372
322,2672.8,1.0046649856452239
323,2685.14,1.0021616729835252
324,2697.53,0.9724339550031003
325,2703.7499999999995,0.9768301933535245
326,2716.23,0.9565990657993917
327,2722.4900000000002,0.9477437998948348
328,2735.0600000000004,0.9607358627669943
329,2747.6800000000003,0.9131168203204274
330,2754.02,0.9151211459059081
331,2766.73,0.9234087938856335
332,2773.1099999999997,0.9383136152161329
333,2785.91,0.9210069536221506
334,2792.33,0.8535510706976688
335,2805.22,0.8772780995299788
336,2818.1699999999996,0.918424121979817
337,2824.66,0.9204407316091182
338,2837.7000000000003,0.8910815444852487
339,2844.2400000000002,0.8828083487958235
340,2857.3700000000003,0.8725224520982463
341,2863.96,0.8948060510900945
342,2877.18,0.8925642448188096
343,2883.81,0.8883840395556766
344,2884.0315,0.8883807326015318
345,2897.1200000000003,0.8881866875003321
346,2910.4900000000002,0.9045225583941267
347,2930.67,0.8836436144626959
348,2950.9800000000005,0.865257270248258
349,2971.44,0.8629965257072733
350,2992.0400000000004,0.8528419808615115
351,3012.7799999999997,0.8447522357109727
352,3026.68,0.8406815054509684
353,3047.66,0.8327201597779549
354,3068.79,0.8286126137783943
355,3090.06,0.8151029674740569
356,3111.48,0.8148274208431726
357,3133.05,0.7996779738857415
358,3147.51,0.7921662424066291
359,3169.3300000000004,0.7882603949049533
360,3191.29,0.7630096470985005
361,3213.41,0.7662714989437311
362,3228.2499999999995,0.7486534666373669
363,3250.6200000000003,0.7640620179383527
364,3273.16,0.7690736688692522
365,3288.26,0.7600877359968735
366,3311.06,0.7476788863617585
367,3311.31121,0.7480181082096371
368,3318.69,0.7579817787432347
369,3326.3399999999997,0.7613866603850642
370,3334.01,0.7665759411945848
371,3341.7000000000003,0.7336781211717965
372,3349.4,0.7681631007328537
373,3357.12,0.7335016794616018
374,3364.86,0.7004134573580412
375,3372.62,0.6987091344221715
376,3380.39,0.7265115110701474
377,3388.1800000000003,0.7399232868858143
378,3395.99,0.7330490618691723
379,3403.82,0.7295928360202214
380,3411.67,0.7112635093389614
381,3419.53,0.7161153822415471
382,3427.42,0.7276412538956694
383,3435.32,0.7309198251336371
384,3443.2400000000002,0.693127495539296
385,3451.17,0.7190477655288002
386,3459.13,0.6993718342698412
387,3467.1000000000004,0.6944755025947277
388,3475.1,0.6975873696711506
389,3483.1099999999997,0.6895243363314193
390,3491.14,0.7022418021593789
391,3499.1899999999996,0.6798896671550295
392,3507.25,0.6908389317345258
393,3515.34,0.6673026950655586
394,3523.44,0.6890862579804369
395,3531.5600000000004,0.6826810200630062
396,3539.7000000000003,0.6984796813132668
397,3547.86,0.7097329417312184
398,3556.04,0.6966939013168608
399,3564.2400000000002,0.6950042600701944
400,3572.45,0.6636575184073735
401,3580.69,0.6499656754960893
402,3588.9500000000003,0.6192114317524962
403,3597.22,0.6558022875927485
404,3605.51,0.6632960426006919
405,3613.8199999999997,0.6466395967763263
406,3622.15,0.6510355501196518
407,3630.5,0.7137191026306683
408,3638.8700000000003,0.670625354309376
409,3644.89,0.6808607037843842
410,3647.62,0.6763820901742136
411,3650.34,0.6581046769801975
412,3653.0699999999997,0.6933304633700268
413,3655.79,0.7126328501760106
414,3658.52,0.67735413656584
415,3661.2400000000002,0.6713546233718238
416,3663.97,0.6362707097616532
417,3666.69,0.5807218965676371
418,3669.4100000000003,0.5664827833736209
419,3672.14,0.6239451697634503
420,3674.8599999999997,0.5535231565694341
421,3677.59,0.6515495429592634
422,3680.31,0.6444957297652473
423,3683.0400000000004,0.7118353161550767
424,3685.76,0.5923832029610605
425,3688.49,0.6444769893508898
426,3691.2099999999996,0.7142855761568737
427,3693.94,0.628744062546703
428,3696.66,0.6375685493526868
429,3699.38,0.7062257361586707
430,3702.11,0.6757802225485
431,3704.83,0.7139941093544839
432,3707.56,0.6262790957443133
433,3710.28,0.47215018255029706
434,3713.0099999999998,0.5897207689401264
435,3715.73,0.6704933557461102
436,3718.46,0.7787049421359397
437,3721.18,1.1309205289419233
438,3723.9100000000003,2.112252415331753
439,3726.63,3.397459302137737
440,3729.3599999999997,4.099734188527567
441,3732.08,3.54391607533355
442,3734.7999999999997,2.225308962139534
443,3737.53,1.165448848529363
444,3740.25,0.7709378353353469
445,3742.98,0.6730533217251763
446,3745.7000000000003,0.6664861085311602
447,3748.43,0.6845845949209894
448,3751.1499999999996,0.6490014817269733
449,3753.88,0.7070637681168027
450,3756.6,0.7260578549227865
451,3759.3300000000004,0.742534141312616
452,3762.05,0.7421466281185997
453,3764.77,0.7497227149245835
454,3767.4999999999995,0.6250604013144129
455,3770.2200000000003,0.6677992881203967
456,3772.95,0.7220338745102262
457,3775.67,0.76446476131621
458,3778.4,0.7695228477060393
459,3781.12,0.790139034512023
460,3783.8500000000004,0.7555900209018525
461,3786.57,0.7807314077078363
462,3789.2999999999997,0.7725870940976657
463,3792.02,0.7067392809036496
464,3794.74,0.7047134677096334
465,3797.47,0.7787028540994627
466,3800.19,0.6973980409054465
467,3801.8939600000003,0.6707420436471323
468,3802.92,0.6546911361921447
469,3805.6400000000003,0.7712108465834497
470,3808.37,0.7625150566453109
471,3811.0899999999997,0.7501577670366161
472,3813.82,0.7710944770984773
473,3816.54,0.7565638874897824
474,3819.27,0.7460678975516437
475,3821.9900000000002,0.7237197079429487
476,3824.72,0.69243101800481
477,3827.4399999999996,0.7566115283961151
478,3830.1600000000003,0.6808051387874202
479,3832.89,0.6314807488492815
480,3835.6099999999997,0.6319686592405864
481,3838.34,0.7833395693024477
482,3841.06,0.6850858796937528
483,3843.7900000000004,0.7043845897556141
484,3846.51,0.7255197001469192
485,3849.24,0.7752290102087804
486,3851.96,0.7629204206000855
487,3854.69,0.8326927306619468
488,3857.41,0.7939146410532518
489,3860.13,0.791889151444557
490,3862.86,0.9097346615064182
491,3865.58,0.8750925718977232
492,3868.31,0.9295700819595846
493,3871.0299999999997,1.0092568923508898
494,3873.7599999999998,0.8911465024127508
495,3876.48,0.8410314128040559
496,3879.21,0.8340548228659173
497,3881.9300000000003,0.8029484332572223
498,3884.66,0.7704593433190836
499,3887.3799999999997,0.8747822537103886
500,3890.11,0.89524816377225
501,3892.83,0.851701974163555
502,3895.5499999999997,0.8152107845548601
503,3898.28,0.7275280946167213
504,3901.0,0.7614763050080263
505,3903.7300000000005,0.7473472150698878
506,3906.4500000000003,0.7578103254611928
507,3909.18,0.787505235523054
508,3911.8999999999996,0.7745803459143591
509,3914.63,0.7887536559762204
510,3917.35,0.8485876663675255
511,3920.0800000000004,0.8515045764293867
512,3922.8,0.7834511868206917
513,3925.52,0.7889835972119968
514,3928.25,0.7276570072738581
515,3930.97,0.7308537176651632
516,3933.7,0.6625530277270245
517,3936.42,0.6475193381183295
518,3939.15,0.6993050481801908
519,3941.87,0.7098488585714958
520,3944.6,0.8181740686333572
521,3947.32,0.7924686790246622
522,3950.0499999999997,0.8093827890865235
523,3952.77,0.7933115994778285
524,3955.5,0.8457941095396899
525,3958.2200000000003,0.7540121199309948
526,3960.94,0.7803212303222999
527,3963.67,0.7049164403841612
528,3966.3900000000003,0.7784879507754662
529,3969.12,0.7837893608373276
530,3971.8399999999997,0.9133818712286326
531,3974.57,0.7658992812904939
532,3977.29,0.8070811916817989
533,3980.0200000000004,0.7011035017436602
534,3982.7400000000002,0.8313445121349653
535,3985.47,0.8040779221968266
536,3988.1899999999996,0.8677072325881316
537,3990.91,0.8650492429794367
538,3993.64,0.869166353041298
539,3996.36,0.9596872634326031
540,3999.09,0.8662787734944644
541,4001.81,0.9071528838857693
542,4004.54,0.8778099939476307
543,4007.26,0.9395581043389357
544,4009.99,0.886454314400797
545,4012.71,0.9317236247921021
546,4015.44,0.8744191348539634
547,4018.16,0.9108491452452685
548,4020.89,0.9026235553071298
549,4023.61,0.9211638656984348
550,4026.3300000000004,0.9307027760897398
551,4029.06,0.8823672861516011
552,4031.7799999999997,0.9043785965429062
553,4034.51,0.9107827066047675
554,4037.23,0.8507414169960725
555,4039.96,0.8966390270579337
556,4042.6800000000003,0.8784107374492388
557,4045.41,0.8396122475111001
558,4048.1299999999997,0.8724090579024052
559,4050.86,0.8215273679642665
560,4053.58,0.8765443783555715
561,4056.2999999999997,0.8083123887468766
562,4059.03,0.8580540988087378
563,4061.75,0.874680609200043
564,4064.4799999999996,0.8128834192619042
565,4067.2000000000003,0.8626616296532092
566,4069.93,0.8978708397150706
567,4072.65,0.8879791501063756
568,4075.38,0.8783588601682369
569,4078.1,0.792610170559542
570,4080.83,0.8234728806214032
571,4083.55,0.8244478910127083
572,4086.27,0.8157886014040133
573,4089.0,0.8034436114658746
574,4091.72,0.7649572218571797
575,4094.45,0.767306831919041
576,4097.17,0.8162417423103461
577,4099.900000000001,0.9295784523722074
578,4102.62,1.0114872627635125
579,4105.349999999999,1.0030011728253738
580,4108.07,0.8946114832166787
581,4110.8,0.80895609327854
582,4113.5199999999995,0.7918466036698452
583,4116.25,0.8081607137317064
584,4118.97,0.8125902241230114
