,lambda (Angstroms),Total Flux (erg/s/cm^2/Angstrom)
0,102.03,0.0008716228733226159
1,103.92,0.0010190756411417366
2,104.712855,0.001080943371971468
3,106.1,0.0009908535240565931
4,108.07000000000001,0.0008629929656859883
5,110.08,0.000732878265272327
6,113.95,0.0004819214733564702
7,117.95,0.00022256724105067542
8,120.22644299999999,8.046253541178253e-05
9,120.97999999999999,8.016199294645418e-05
10,124.94,7.093767028178154e-05
11,126.97,6.604867166832561e-05
12,127.85,6.42706455206206e-05
13,131.13,5.625125987917458e-05
14,132.04,5.6376336362797794e-05
15,133.88,5.228531441759637e-05
16,137.0,4.829545807573307e-05
17,138.038426,4.6190400350072406e-05
18,139.87,4.7794500426237256e-05
19,143.13,8.772324928136087e-05
20,147.13,0.0001675873313121874
21,150.91,0.00018176459483131845
22,155.14,0.0001985553325789175
23,158.489319,0.00021422249392132018
24,159.12,0.00021713668109883636
25,162.07,0.00023110305849448307
26,165.85,0.0002535674003777185
27,170.1,0.00027358619323585357
28,172.87,0.0002904463638751558
29,176.9,0.0003116786818088697
30,180.18,0.0003282097715911481
31,181.85,0.0003405448676083447
32,181.970086,0.00034121462251456036
33,186.09,0.00036508185361783946
34,190.85999999999999,0.00039679361024982663
35,193.96,0.0004188197107863382
36,198.02,0.00044511805794060814
37,202.17,0.00047415883446529295
38,204.98,0.0004949665959193567
39,208.929613,0.0005070220803433202
40,210.24,0.0005113711088871268
41,216.13,0.0005779009067726455
42,220.15,0.000611167056263271
43,223.21,0.0006287964536367323
44,226.84,0.0006661776475797599
45,229.98999999999998,0.0010066009654642054
46,234.27,0.0016932715853198964
47,239.73000000000002,0.0021426499629862684
48,239.88329199999998,0.0021407854229941172
49,245.88,0.0020643554923005995
50,252.18,0.002203890375471233
51,256.87,0.00185198748849826
52,259.85,0.0021719411189504013
53,264.07,0.0022932067835504124
54,268.97999999999996,0.0023075480639262553
55,273.97999999999996,0.0023116866854902504
56,275.42287,0.002312851175906005
57,279.07,0.0023177769804762585
58,284.26,0.0023350465872672066
59,290.21000000000004,0.0022424984929331295
60,296.28999999999996,0.0022856158839329303
61,301.1,0.0022406878412863907
62,308.12,0.0022836890493157657
63,316.227766,0.0023282992982498565
64,318.21000000000004,0.0023382420518350015
65,327.88,0.0023309101598255797
66,337.84000000000003,0.002302432651613187
67,348.11,0.002269089415735549
68,357.04,0.002256952647830261
69,363.078055,0.002259063297599827
70,366.2,0.0022612972753038815
71,374.73,0.0022318798404844164
72,385.23,0.0021289504752318514
73,395.10999999999996,0.0021747986363084854
74,405.23999999999995,0.0021664619077362483
75,413.73,0.0021286900552606024
76,416.86938299999997,0.0021101112963503813
77,422.39,0.002077086173379289
78,430.24,0.002040547837853323
79,441.28000000000003,0.0020184035812664874
80,450.52000000000004,0.0019695040512970703
81,459.96000000000004,0.0019217807739257183
82,469.59000000000003,0.0018838867865225274
83,478.630092,0.001863747276582147
84,480.52,0.0018591164777172907
85,489.46000000000004,0.0017917681139345471
86,499.71000000000004,0.0017823674082552271
87,505.48999999999995,0.001741694884467279
88,512.53,0.0018215763295421656
89,519.66,0.0017838314152501117
90,530.54,0.001726704194002209
91,540.4,0.0016413237122462974
92,549.5408739999999,0.001609956905309655
93,550.4499999999999,0.0016069146480517573
94,559.39,0.0016323543912194068
95,569.79,0.0016319221573204757
96,580.38,0.0015803281181868524
97,589.81,0.0015692227320650333
98,599.4,0.0014990137731139997
99,610.54,0.0013498111398799523
100,620.4599999999999,0.0015015956244686642
101,630.54,0.0014607595362281615
102,630.957344,0.0014605826316167031
103,639.32,0.0014578444623538872
104,649.7,0.0014321762407254945
105,658.74,0.001397300818420998
106,664.84,0.0014136055976181853
107,675.64,0.0013982366329181235
108,685.04,0.0013306791451236253
109,694.57,0.001380391855902182
110,704.23,0.0012989937652537933
111,715.6700000000001,0.0013598062396826165
112,724.43596,0.0013468214602760807
113,725.63,0.001345024262061958
114,735.73,0.0013331804714066663
115,744.24,0.0013274855864089902
116,754.6,0.001318789987281384
117,765.0999999999999,0.001235456798976378
118,775.74,0.0013135420214939715
119,784.72,0.0012932219442578807
120,795.64,0.0013023189884206743
121,804.85,0.0013026501575359975
122,814.1700000000001,0.001297038792297649
123,825.5,0.0013150857538694854
124,831.763771,0.001221685587442118
125,835.06,0.0011722047003571794
126,844.73,0.0012908575234066866
127,854.51,0.001278598791185816
128,864.4,0.0012982865036945677
129,874.4100000000001,0.0013153399740901796
130,884.5400000000001,0.001335641202372652
131,894.78,0.0013470828753847468
132,905.14,0.0013281883062837016
133,915.62,0.0016926684950695175
134,924.09,0.00717035373925042
135,934.7900000000001,0.01468615481749548
136,945.6199999999999,0.026953940966784638
137,954.3699999999999,0.03720033997936822
138,954.992586,0.037494142033564645
139,965.4200000000001,0.04241550401589927
140,974.3499999999999,0.008133403070454332
141,985.63,0.0372005446130502
142,994.7499999999999,0.03833098560493623
143,1003.96,0.0536391656197685
144,1015.5799999999999,0.05075638947127241
145,1024.98,0.021810827423435642
146,1034.46,0.03618694450710665
147,1044.04,0.06659712050516237
148,1056.1299999999999,0.06523033925427443
149,1065.9,0.052297153189661105
150,1075.76,0.06130036614799402
151,1085.71,0.04903353812927319
152,1095.76,0.06345358902493707
153,1096.4782,0.06327121084106584
154,1105.8999999999999,0.060878441096077415
155,1116.13,0.05854077350325439
156,1123.8700000000001,0.05265877051513608
157,1134.27,0.06537909714608822
158,1144.76,0.059217500719039
159,1155.35,0.062438480894210474
160,1166.05,0.0641859373318247
161,1174.13,0.04523542279125676
162,1184.99,0.061438513792424106
163,1195.96,0.0430005510560342
164,1204.25,0.031442199380129716
165,1215.3899999999999,0.019842170867515004
166,1223.81,0.040781634774497415
167,1235.14,0.06087371980610202
168,1243.7,0.06674471895619341
169,1255.21,0.06388853787179526
170,1258.92541,0.06015006004125968
171,1263.91,0.05513470367721108
172,1275.6000000000001,0.0698886219298161
173,1284.44,0.0728470432944892
174,1296.33,0.05853563203045787
175,1305.3200000000002,0.05746798375765369
176,1314.36,0.07053679560569043
177,1326.53,0.0673607150183682
178,1335.72,0.06003798722892767
179,1344.98,0.07021196960866442
180,1354.3,0.06782902213341026
181,1363.6899999999998,0.06087308482733337
182,1376.31,0.06344722532757933
183,1385.8500000000001,0.06403555838402519
184,1395.45,0.05577382158548013
185,1405.1299999999999,0.057732994980280526
186,1414.8700000000001,0.05894196852009002
187,1424.67,0.060037892204908606
188,1434.55,0.059488146083072645
189,1441.1699999999998,0.06243465208240929
190,1445.43977,0.06299190912126124
191,1447.82,0.0633025572297513
192,1454.51,0.06143577079981907
193,1464.5900000000001,0.056810041246199205
194,1474.74,0.0564192318345681
195,1484.9599999999998,0.05720470256492574
196,1495.26,0.05786753345755624
197,1505.6200000000001,0.05475628447189139
198,1512.57,0.049028098569345945
199,1516.06,0.05217186564849939
200,1526.57,0.05063343696709614
201,1533.61,0.044305621247107664
202,1544.24,0.048133862809113706
203,1554.95,0.045441534533392614
204,1565.7299999999998,0.04617900639966025
205,1576.58,0.04891521840791666
206,1583.86,0.05098417317474676
207,1594.8300000000002,0.05193298542641245
208,1605.89,0.0506339278606351
209,1613.3,0.050516952891158595
210,1624.48,0.04780272556879054
211,1635.74,0.050517218408695344
212,1643.3,0.05110269374348044
213,1654.69,0.047254326847078636
214,1659.58691,0.04899799963222046
215,1666.1599999999999,0.05133860414788771
216,1673.8500000000001,0.04596677806065576
217,1677.7,0.051456005091105296
218,1685.45,0.053264429892659566
219,1693.23,0.05005544513860695
220,1704.97,0.048023289044445285
221,1716.78,0.045757363987200886
222,1724.71,0.04533775145511383
223,1736.6599999999999,0.04813521847170396
224,1744.68,0.046822807272796245
225,1756.77,0.0495972763632209
226,1764.88,0.04544375649749253
227,1773.03,0.0466084572242883
228,1785.32,0.047256359277333716
229,1793.56,0.05005710133730883
230,1805.99,0.04948464546418878
231,1814.3300000000002,0.04596908900547427
232,1826.8999999999999,0.04660928520618874
233,1835.34,0.044819830228784614
234,1843.81,0.0411610656957736
235,1856.59,0.04144680500723986
236,1865.1599999999999,0.04260765195553923
237,1873.77,0.04554868949636274
238,1886.75,0.04212163177044976
239,1895.46,0.04059890079258365
240,1904.21,0.042706130407241694
241,1905.46072,0.04248646188718787
242,1913.0,0.04116205497734765
243,1926.26,0.04022501178751867
244,1935.1499999999999,0.040878282039586586
245,1944.09,0.04310162133694171
246,1953.0600000000002,0.04040994006146917
247,1966.6,0.04390213152524863
248,1975.6699999999998,0.04471865834035053
249,1984.79,0.042606984200739655
250,1993.9599999999998,0.04144554910641599
251,2003.1599999999999,0.04221562343926467
252,2017.04,0.04097238841099724
253,2026.3600000000001,0.042312940452535246
254,2035.71,0.040596331921245586
255,2045.1,0.042119282626185695
256,2054.54,0.04003863237641303
257,2064.03,0.04022205117192759
258,2073.56,0.04290018920367193
259,2078.33,0.04260531812407282
260,2083.13,0.04450933647164604
261,2092.74,0.04211832297584993
262,2107.25,0.04211792591820148
263,2116.97,0.04280172032203725
264,2126.75,0.0428011735802177
265,2136.56,0.039944996265570465
266,2146.42,0.04163456799621046
267,2156.33,0.042801098772137676
268,2166.2799999999997,0.04096944878429467
269,2176.2799999999997,0.04068573784173888
270,2186.33,0.04106295594447031
271,2187.7616199999998,0.041281474127681746
272,2196.42,0.04260336042139349
273,2206.56,0.041346384789783794
274,2216.7400000000002,0.03858817976712238
275,2226.98,0.0380592256578834
276,2237.26,0.04153839215759271
277,2247.58,0.0397610592662503
278,2252.76,0.03710792812505324
279,2263.16,0.0374506664516074
280,2273.61,0.03858875553934691
281,2284.1,0.040780875236034714
282,2294.64,0.03788816569390787
283,2305.2400000000002,0.039053067065203464
284,2315.88,0.03680022904544733
285,2326.57,0.02985757178687656
286,2337.31,0.03328117528949115
287,2342.69,0.031137617193035507
288,2353.51,0.035436721913546666
289,2364.37,0.031162737243006104
290,2375.2799999999997,0.0327953533336509
291,2386.25,0.029308740337718124
292,2397.2599999999998,0.031488997950733635
293,2402.79,0.03042782213783407
294,2413.88,0.03143563096874615
295,2425.02,0.035204040560843586
296,2436.21,0.03417946091412638
297,2447.46,0.0366393921808316
298,2453.1,0.03664724804253982
299,2464.42,0.03533501037490454
300,2475.7999999999997,0.03360513362069169
301,2487.23,0.03210733762766419
302,2492.96,0.031095964859506053
303,2504.47,0.03637975008437513
304,2510.2400000000002,0.029714917925165275
305,2511.88643,0.02969746353361216
306,2516.03,0.029653448576120598
307,2527.64,0.02892359017028537
308,2533.47,0.030785515820068377
309,2545.1600000000003,0.030726196942875112
310,2556.91,0.035948407712163316
311,2562.81,0.033172472949508036
312,2574.63,0.03622055330635796
313,2586.52,0.03500572325076961
314,2592.4799999999996,0.0338256381345958
315,2604.45,0.0320954876076494
316,2616.4700000000003,0.031089746786104235
317,2622.5,0.03401706125749215
318,2634.6000000000004,0.03970697996458894
319,2646.77,0.04602878825924745
320,2652.87,0.05249416231819707
321,2665.11,0.0420076402004173
322,2677.41,0.045032377729119
323,2683.59,0.04749034131671059
324,2695.97,0.04119320837405425
325,2702.19,0.045070431725966816
326,2714.66,0.039095168253032685
327,2727.19,0.03666979442658003
328,2733.48,0.04040144736605431
329,2746.1000000000004,0.03152376300932386
330,2752.4300000000003,0.03457175571311912
331,2765.13,0.03845119088503063
332,2777.89,0.04037269570342361
333,2784.3,0.033513957935860844
334,2797.15,0.024630512223976032
335,2803.6,0.026703344220734244
336,2816.54,0.038343527978571636
337,2823.03,0.04516173973965083
338,2836.0600000000004,0.04334939296721043
339,2842.6,0.03829173443369085
340,2855.72,0.032161197130972666
341,2862.2999999999997,0.044196088361774064
342,2875.51,0.049724970528778084
343,2882.1400000000003,0.047389611464980705
344,2884.0315,0.04799177803293113
345,2895.45,0.05162696894345946
346,2908.81,0.06224074733250256
347,2928.9700000000003,0.05693596490159755
348,2949.28,0.054287982452605445
349,2969.7200000000003,0.05610831998793786
350,2990.31,0.056537027505183184
351,3011.03,0.057102515006753035
352,3031.9,0.05888066249023579
353,3052.92,0.06043579995563146
354,3067.01,0.06316993825665074
355,3088.27,0.06263913569310706
356,3109.6800000000003,0.06778860311147628
357,3131.23,0.06449181051296422
358,3152.94,0.06453952789515928
359,3167.4900000000002,0.06839776614071146
360,3189.45,0.06157396349276135
361,3211.56,0.06633253082672416
362,3226.3799999999997,0.05901450903971958
363,3248.74,0.07367038634353724
364,3271.2599999999998,0.08234279362806199
365,3286.3599999999997,0.08106906180729484
366,3309.14,0.07784061906046864
367,3311.31121,0.0774464063516144
368,3324.42,0.07506629858242098
369,3332.08,0.07665862092583997
370,3339.7599999999998,0.06961268322315824
371,3347.46,0.08275479547437577
372,3355.18,0.07941544767949256
373,3362.91,0.05970964986155899
374,3370.66,0.07000912199752468
375,3378.43,0.07713758408738965
376,3386.22,0.07609907613115387
377,3394.03,0.07682498812881736
378,3401.8500000000004,0.0886360501034305
379,3409.69,0.07686727203194288
380,3417.56,0.07093587389130417
381,3425.43,0.08127751575066547
382,3433.33,0.09038300754087565
383,3441.25,0.0771294992849851
384,3449.18,0.0728341810060442
385,3457.13,0.07970058268100255
386,3465.1,0.07237447430986017
387,3473.0899999999997,0.08466203589261707
388,3481.09,0.07530567745232358
389,3489.12,0.08202410894287901
390,3497.1600000000003,0.07500114041038407
391,3505.22,0.08773701183178838
392,3513.2999999999997,0.07912395320709197
393,3521.4,0.08941721453629482
394,3529.52,0.06847953581939695
395,3537.6600000000003,0.08583619705639833
396,3545.81,0.08786142827034936
397,3553.98,0.09055527943819963
398,3562.18,0.08376172053689883
399,3570.39,0.07066146161254763
400,3578.6200000000003,0.07608522264209572
401,3586.87,0.06243706362554308
402,3595.14,0.0804532045628897
403,3603.4300000000003,0.09389979545413557
404,3611.73,0.07257743632233109
405,3620.06,0.0860834371213755
406,3628.4,0.09750744789736955
407,3629.2200000000003,0.08891697600723948
408,3631.96,0.09183479969143896
409,3634.7000000000003,0.07637071337563844
410,3637.45,0.08169237703678756
411,3640.1899999999996,0.09155869072098705
412,3642.93,0.08652028440518653
413,3645.6699999999996,0.08384402808938601
414,3648.4100000000003,0.0827463617735855
415,3651.16,0.08821167543473461
416,3653.9,0.0855181891189341
417,3656.64,0.08741680280313358
418,3659.3799999999997,0.09612217648733307
419,3662.12,0.08222329017153256
420,3664.8599999999997,0.09041524385573203
421,3667.61,0.09576558751688115
422,3670.35,0.09716036120108064
423,3673.09,0.08653173488528011
424,3675.83,0.08935950856947959
425,3678.5699999999997,0.09039028225367908
426,3681.32,0.0896944459148282
427,3684.06,0.0838744195990277
428,3686.8,0.08008126328322716
429,3689.54,0.09013916696742665
430,3692.28,0.09056072065162614
431,3695.03,0.09209868431277525
432,3697.7700000000004,0.09910474799697475
433,3700.51,0.08619060168117422
434,3703.25,0.0753052553653737
435,3705.9900000000002,0.0844665690495732
436,3708.73,0.08095694273377267
437,3711.4799999999996,0.08768668639492178
438,3714.22,0.09248578007912127
439,3716.96,0.09929262376332075
440,3719.7000000000003,0.10129088744752024
441,3722.44,0.12752178113171972
442,3725.19,0.16004727479286884
443,3727.93,0.1804445684770683
444,3730.6699999999996,0.1485758621612678
445,3733.41,0.1107068558454673
446,3736.1499999999996,0.08111008952966678
447,3738.9,0.08114038319081589
448,3741.64,0.07667096687501539
449,3744.38,0.07831285055921486
450,3747.12,0.07511547424341433
451,3749.8599999999997,0.06866321792761383
452,3752.6,0.08833067161181331
453,3755.35,0.08799694527296244
454,3758.09,0.09303550895716191
455,3760.83,0.09425019264136139
456,3763.57,0.08672319632556089
457,3766.31,0.08720797000976035
458,3769.0600000000004,0.09324035367090949
459,3771.8,0.09956823735510896
460,3774.54,0.10513366103930845
461,3777.28,0.11132745472350794
462,3780.02,0.11721854840770742
463,3782.7699999999995,0.11381564206885653
464,3785.51,0.10700713575305602
465,3788.2500000000005,0.1023308294372555
466,3790.9900000000002,0.09277118312145499
467,3793.73,0.08843969680565447
468,3796.4700000000003,0.09092455048985394
469,3799.22,0.09310429415100308
470,3801.8939600000003,0.10323577604275848
471,3801.9599999999996,0.10348599786692037
472,3804.7,0.1038231928670921
473,3807.44,0.10826988786726383
474,3810.1800000000003,0.10180228286743555
475,3812.93,0.10241487784935974
476,3815.67,0.10120617284953147
477,3818.41,0.09313889784970321
478,3821.1499999999996,0.09458731284987493
479,3823.89,0.08552002785004667
480,3826.64,0.07729909283197085
481,3829.38,0.07655200783214258
482,3832.12,0.0682414428323143
483,3834.86,0.06663607783248604
484,3837.6,0.07474945283265777
485,3840.3399999999997,0.0769086078328295
486,3843.09,0.08758104281475368
487,3845.83,0.09539747781492543
488,3848.57,0.10176561281509715
489,3851.31,0.10190560781526888
490,3854.05,0.09926762281544062
491,3856.8,0.09774798779736481
492,3859.5400000000004,0.09979221279753653
493,3862.28,0.09924248779770825
494,3865.02,0.10899768279788
495,3867.76,0.10786937779805172
496,3870.5099999999998,0.10258337277997591
497,3873.2499999999995,0.10038606778014764
498,3875.9900000000002,0.10043596278031935
499,3878.73,0.09870992778049109
500,3881.4700000000003,0.09707011278066283
501,3884.21,0.09513909778083457
502,3886.96,0.09646057276275874
503,3889.7,0.09837834776293047
504,3892.4399999999996,0.1008689327631022
505,3895.18,0.10471402776327393
506,3897.92,0.10438652276344566
507,3900.67,0.10441101774536986
508,3903.41,0.10989981274554157
509,3906.15,0.1114593077457133
510,3908.89,0.11180420274588504
511,3911.6299999999997,0.11766279774605677
512,3914.38,0.12084249272798095
513,3917.12,0.11369678772815268
514,3919.86,0.10537478272832441
515,3922.6,0.09776154772849614
516,3925.34,0.09458910272866787
517,3928.08,0.08381866772883961
518,3930.8300000000004,0.0731666227107638
519,3933.57,0.06824315771093553
520,3936.31,0.07760561271110725
521,3939.05,0.08548527771127899
522,3941.79,0.09526348271145071
523,3944.5400000000004,0.1020449376933749
524,3947.28,0.10905863269354663
525,3950.02,0.10804342769371837
526,3952.76,0.10763922269389009
527,3955.5,0.10312001769406182
528,3958.25,0.09916929267598601
529,3960.99,0.08809429767615773
530,3963.7299999999996,0.08019180267632947
531,3966.4700000000003,0.0727165176765012
532,3969.21,0.07019350267667294
533,3971.96,0.0806188376585971
534,3974.7,0.09177637265876885
535,3977.44,0.10568117765894057
536,3980.18,0.11956097265911231
537,3982.9199999999996,0.12124316765928404
538,3985.66,0.12592356265945576
539,3988.41,0.13061855764137995
540,3991.15,0.13706915264155167
541,3993.89,0.1343316476417234
542,3996.63,0.13687584264189515
543,3999.37,0.1446214376420669
544,4002.1200000000003,0.14056713262399106
545,4004.86,0.14286802762416279
546,4007.6,0.14380882262433453
547,4010.34,0.14431661762450626
548,4013.08,0.14667321262467797
549,4015.8300000000004,0.14878950760660217
550,4018.57,0.14761530260677388
551,4021.31,0.14905229760694563
552,4024.05,0.15028229260711737
553,4026.79,0.15061578760728908
554,4029.53,0.14764648260746083
555,4032.2799999999997,0.144197477589385
556,4035.0200000000004,0.14286997258955672
557,4037.76,0.14663656758972846
558,4040.5,0.1491923625899002
559,4043.2400000000002,0.14223625759007194
560,4045.99,0.14578755257199613
561,4048.73,0.15080884757216784
562,4051.47,0.14817484257233957
563,4054.2099999999996,0.1474910375725113
564,4056.95,0.14519413257268302
565,4059.7,0.1396531275546072
566,4062.44,0.14407102255477897
567,4065.18,0.14261131755495068
568,4067.92,0.1441728125551224
569,4070.66,0.14401400755529414
570,4073.3999999999996,0.14311750255546588
571,4076.15,0.14932789753739006
