,lambda (Angstroms),Total Flux (erg/s/cm^2/Angstrom)
0,102.06,0.028652279382644814
1,103.96000000000001,0.033511839687879325
2,104.712855,0.035437389306451114
3,105.89,0.03292528692670601
4,108.11,0.02818766558028282
5,110.11999999999999,0.02389819761677668
6,113.99,0.015639371247089872
7,118.0,0.007081775994784103
8,120.22644299999999,0.002330405338695176
9,121.02,0.0022520445333439974
10,124.99,0.0018600214548297291
11,127.02,0.001659566371432707
12,127.89999999999999,0.0015726696637742101
13,130.88,0.0012784057108852762
14,132.09,0.0011589230673149668
15,133.93,0.0009772301112389269
16,137.05,0.0006691428562361636
17,138.038426,0.0005715397857886741
18,139.92,0.0005649788247630424
19,142.85,0.0005547757683207557
20,146.85,0.0005408715759648692
21,150.96,0.0005265582369729957
22,154.84,0.000513053551218186
23,158.489319,0.0005003554212600324
24,159.17000000000002,0.0004967134082768555
25,162.13000000000002,0.00048088222355193886
26,165.91000000000003,0.00046067894285593055
27,170.17000000000002,0.00043790907342074653
28,172.93,0.0004231716850204866
29,176.96,0.00040165542966865764
30,179.82999999999998,0.00038634537011983654
31,181.92,0.00037519685049717584
32,181.970086,0.00037492980778470764
33,186.15,0.0003822493083976363
34,190.92999999999998,0.0003906583508653739
35,194.03,0.00039612710012938804
36,198.09,0.000403300188338387
37,201.78,0.000409866545939423
38,205.06,0.00041569331591812176
39,208.929613,0.0004225575034011624
40,209.83,0.00043203059886542955
41,216.21,0.0004993673259290603
42,220.23000000000002,0.0005418204828688405
43,222.78,0.0005687682210619844
44,226.92000000000002,0.0006125662479402655
45,230.08,0.0006477576179874556
46,233.81,0.0006912216452425251
47,239.81,0.0007579375311675698
48,239.88329199999998,0.0007587166945982341
49,245.96,0.0007072666167127196
50,252.26999999999998,0.0006556413364736306
51,256.96,0.0006139812680391886
52,259.94,0.0005917017603985409
53,264.15999999999997,0.0005578053189074229
54,269.07,0.0005174261984995101
55,274.08,0.0004761767481036563
56,275.42287,0.00046513812232503446
57,279.17,0.0005011686080225814
58,283.71,0.0005452065550843101
59,290.32,0.0006073680580310128
60,295.71,0.0006603939738377792
61,301.21,0.0007130398015997858
62,308.23,0.0007816486654705657
63,316.227766,0.0008602148767031183
64,318.32,0.0008473857253042782
65,328.0,0.0007877238152608762
66,337.96,0.0007259133346377066
67,348.23,0.0006619613508726509
68,357.16999999999996,0.0006069901173614929
69,363.078055,0.0005710888285448388
70,366.33,0.0005903854394864154
71,374.85999999999996,0.0006404798427295599
72,385.36,0.0006989658694649669
73,395.25,0.0007597174982662212
74,405.39,0.0008199184429421282
75,413.88,0.0008695165648453285
76,416.86938299999997,0.0008867722184729465
77,421.57,0.0009040062718969919
78,430.40000000000003,0.0009359393581416612
79,441.44000000000005,0.0009779846129707834
80,450.67999999999995,0.0010119264110342874
81,460.11999999999995,0.0010457982709606382
82,469.75000000000006,0.0010816260046566932
83,478.630092,0.001115050782534279
84,479.59000000000003,0.001111656098085699
85,489.63,0.0010733130132384106
86,499.89,0.001037523060595663
87,505.67,0.0010177681976058894
88,511.53,0.0010257777008723127
89,519.84,0.0009978814082347656
90,529.51,0.0009645771419525663
91,540.59,0.0009191522184358372
92,549.38,0.000910682423335472
93,549.5408739999999,0.0009104162852852066
94,559.59,0.0009218655103588977
95,569.99,0.000930951299422534
96,580.59,0.0009172915844297017
97,590.03,0.0009425942729643869
98,599.61,0.000940737138659544
99,609.36,0.000950848140906703
100,620.68,0.000996601951310584
101,629.32,0.0010162818560711432
102,630.957344,0.0010167254021013607
103,639.54,0.0010462151071239465
104,649.9399999999999,0.0011197582378953705
105,657.46,0.0011662705616839386
106,665.0699999999999,0.0012164195200657208
107,674.33,0.0012550322126564312
108,685.2800000000001,0.0012791447214974975
109,694.82,0.0014519400883782076
110,704.48,0.0014521455013832034
111,715.9300000000001,0.0016258006357421266
112,724.43596,0.0016904721740939638
113,725.89,0.0017003885517945236
114,734.3,0.0017633814919511643
115,744.51,0.0019077140539011405
116,754.87,0.0020144526926672277
117,765.3699999999999,0.002101783069795019
118,774.23,0.002275018940399994
119,785.0,0.0024141284557967855
120,794.0899999999999,0.002538589110853131
121,805.14,0.0026647341029733306
122,814.46,0.002783361542481046
123,825.79,0.0030176100113246535
124,831.763771,0.0028193005365755334
125,835.35,0.002688459212415734
126,845.03,0.0032142261263706866
127,854.8100000000001,0.0033106466572053387
128,864.71,0.003536670728295631
129,874.7199999999999,0.003766270877953593
130,884.8499999999999,0.004056561567867195
131,895.1,0.004287577798036436
132,905.46,0.004347547106773348
133,915.9499999999999,0.00616520641745387
134,924.42,0.037412564467164455
135,935.13,0.0827423559349803
136,945.96,0.1599782869430518
137,954.71,0.23042806592002557
138,954.992586,0.23125195103339685
139,965.76,0.2626649932589124
140,974.7,0.04278353849290248
141,985.99,0.2267393865680421
142,995.11,0.24459283767922665
143,1004.3199999999999,0.3648396567290084
144,1015.95,0.3557342136832931
145,1025.35,0.1552356650478912
146,1034.8300000000002,0.2537417879134646
147,1044.41,0.4976635751552571
148,1054.07,0.49307843389802497
149,1063.8300000000002,0.39177575701701195
150,1076.14,0.47419267172958673
151,1086.1,0.37674152360101193
152,1096.15,0.5092224434110344
153,1096.4782,0.5085241112227331
154,1103.75,0.4930459187287519
155,1113.96,0.4785412349886885
156,1124.27,0.43244963975264017
157,1134.67,0.5595195441702053
158,1145.1699999999998,0.5126938370917856
159,1155.77,0.551839318517381
160,1163.78,0.5738506876889864
161,1174.55,0.39710677957140733
162,1185.4199999999998,0.5672573599578432
163,1193.6299999999999,0.3934537061374788
164,1204.68,0.28383518583114187
165,1215.82,0.19379046517841841
166,1224.25,0.3988922660668871
167,1235.58,0.6119424335717922
168,1244.1399999999999,0.6786946895154805
169,1255.66,0.6526261451780142
170,1258.92541,0.6200621253973165
171,1264.36,0.5658726353745541
172,1276.06,0.7390009632590326
173,1284.8999999999999,0.7809928643273054
174,1293.81,0.6190090709470238
175,1305.78,0.6175707202442212
176,1314.83,0.7827878379668308
177,1323.95,0.7527307612408859
178,1336.1999999999998,0.6709080327438658
179,1345.46,0.8065655671208121
180,1354.79,0.786384307049204
181,1364.18,0.7057657517359779
182,1373.63,0.7475831011811338
183,1386.3400000000001,0.7614488091650418
184,1395.95,0.6601969712992161
185,1405.6299999999999,0.691311238984836
186,1415.37,0.7189065114288379
187,1425.18,0.7424437894242855
188,1435.06,0.7441304729711785
189,1441.6899999999998,0.7882238987723831
190,1445.43977,0.796487053994969
191,1448.34,0.8028780891952773
192,1455.03,0.7845923344884925
193,1465.1100000000001,0.7272358054235613
194,1475.27,0.7322359816835116
195,1485.4899999999998,0.7493213619371228
196,1495.79,0.7667487475156157
197,1506.16,0.7288893377533798
198,1513.11,0.6511711003524601
199,1516.6,0.7009173326504153
200,1523.6,0.6834151985775464
201,1534.1599999999999,0.5966268014619042
202,1544.79,0.6541752090055332
203,1555.5,0.6232983218740438
204,1566.28,0.6422469394018256
205,1573.51,0.689740020637991
206,1584.42,0.7272456468187052
207,1595.3999999999999,0.7458747776586908
208,1606.46,0.7356426138235579
209,1613.88,0.7424450077063168
210,1625.0600000000002,0.7074173518585061
211,1636.33,0.7562446020011871
212,1643.88,0.7720867045368786
213,1655.28,0.7189134633324921
214,1659.58691,0.7449472749102146
215,1666.75,0.7882487318586342
216,1670.5900000000001,0.7074241984160401
217,1678.3000000000002,0.7991940461133316
218,1686.05,0.8329955132539294
219,1693.8300000000002,0.7864347949770069
220,1705.57,0.7597679015874091
221,1713.45,0.7239139319187524
222,1725.32,0.7222689017199002
223,1733.2900000000002,0.7738856757986826
224,1745.3,0.7597852136514026
225,1753.36,0.8122126314776242
226,1765.5100000000002,0.7510804373819163
227,1773.6599999999999,0.7703421989555771
228,1785.96,0.7883013777722678
229,1794.2,0.8427202830933678
230,1806.6399999999999,0.8388380299616306
231,1814.97,0.7774971790301698
232,1823.35,0.799270452402842
233,1835.99,0.7721715964876363
234,1844.47,0.7124083184685743
235,1852.98,0.719009255031992
236,1865.82,0.7442475963333178
237,1874.44,0.8048283863658278
238,1883.0900000000001,0.7442518909808177
239,1896.14,0.7173775343595017
240,1904.8899999999999,0.7633585875827571
241,1905.46072,0.7616786134362147
242,1913.69,0.7374457088131774
243,1926.95,0.7256552005486268
244,1935.8500000000001,0.7511185241116357
245,1944.7800000000002,0.7865111288776662
246,1953.76,0.7374236023153989
247,1967.3,0.8103766186123812
248,1976.38,0.8349991293935185
249,1985.5,0.7919512151120176
250,1994.67,0.7739172695022191
251,2003.8700000000001,0.7992444050954419
252,2013.12,0.775670509360367
253,2027.08,0.8140788624996487
254,2036.4299999999998,0.7738939041079784
255,2045.83,0.8047584143880103
256,2055.2799999999997,0.7632594933397446
257,2064.7599999999998,0.7738788534945005
258,2074.3,0.8349350760552988
259,2079.08,0.7973597810700385
260,2083.87,0.8272778798191187
261,2093.4900000000002,0.7864126522546409
262,2103.15,0.7955131996275248
263,2112.86,0.8065813156721111
264,2122.61,0.8196679066540591
265,2137.33,0.7702608836032155
266,2147.19,0.7882152056629088
267,2157.1,0.8196463963943041
268,2167.06,0.797308155797402
269,2177.06,0.7936333901378616
270,2187.1099999999997,0.7827536931500235
271,2187.7616199999998,0.7851348106603776
272,2197.2,0.8196346998697592
273,2207.35,0.8009679703666902
274,2217.54,0.7667140608458751
275,2222.65,0.7475585135788129
276,2232.91,0.7954814390269421
277,2243.21,0.7667305844573253
278,2253.57,0.7390022598610893
279,2263.97,0.7562291552471073
280,2274.42,0.7756011756109427
281,2284.92,0.7955089209525954
282,2295.46,0.7527909862765021
283,2306.06,0.7597428815737897
284,2316.7,0.7289142968533311
285,2327.4,0.5925519421062535
286,2332.76,0.6865836197282782
287,2343.53,0.6694375999501448
288,2354.35,0.7189438051498289
289,2365.21,0.6679030303317669
290,2376.13,0.6866023854870857
291,2387.1,0.643775565620222
292,2392.6,0.6818852131801354
293,2403.65,0.6587750332777794
294,2414.74,0.6740972733576776
295,2425.89,0.7107591434109564
296,2437.08,0.6866359334464891
297,2442.7,0.7223047409531643
298,2453.98,0.7140520759487683
299,2465.3,0.7107855309266264
300,2476.68,0.6882432158778653
301,2482.39,0.7010544683446116
302,2493.85,0.6527913932603584
303,2505.3599999999997,0.7323944431539224
304,2511.14,0.6603476305896132
305,2511.88643,0.6627314485729404
306,2516.93,0.6788352283422756
307,2522.7300000000005,0.6557957069618132
308,2534.3700000000003,0.6649322564672302
309,2546.07,0.6557925943721598
310,2557.82,0.6994338226100162
311,2563.72,0.6835206818954079
312,2575.5499999999997,0.7190112946659477
313,2587.4399999999996,0.7124460958359999
314,2593.41,0.7042943415874895
315,2605.38,0.6835101272902252
316,2617.3999999999996,0.6757142033258876
317,2623.44,0.7026674355434752
318,2635.5499999999997,0.7240082941784065
319,2647.7099999999996,0.7775312431462648
320,2653.81,0.7937935637633647
321,2666.06,0.7290163953304917
322,2672.21,0.7580857062805186
323,2684.5400000000004,0.759849322380329
324,2696.94,0.7256550249462371
325,2703.15,0.7459795242957765
326,2715.63,0.712419711394368
327,2721.8900000000003,0.7107985010768345
328,2734.45,0.7408564727081092
329,2747.08,0.6587840308054818
330,2753.41,0.6725802069540462
331,2766.1200000000003,0.696215849584102
332,2772.4900000000002,0.7239833179990081
333,2785.2900000000004,0.6882395432283326
334,2798.1499999999996,0.5778046568571694
335,2804.6,0.6134392098047589
336,2817.54,0.7190024079662791
337,2824.04,0.7511390512467955
338,2837.0699999999997,0.7256305320075843
339,2843.6099999999997,0.7091537675544424
340,2856.74,0.6834985289810854
341,2863.3199999999997,0.7459467567942851
342,2876.5400000000004,0.7476744008201968
343,2883.17,0.7442516189663235
344,2884.0315,0.7442511805544222
345,2896.48,0.7442472031467239
346,2909.85,0.7992868502446218
347,2930.02,0.7721555704364391
348,2950.33,0.7615702900743079
349,2970.78,0.7739577091582279
350,2991.37,0.7739551276881992
351,3012.11,0.781113945624654
352,3032.99,0.78291436300716
353,3046.99,0.7847155076122887
354,3068.11,0.7883489240451683
355,3089.3700000000003,0.7919865399240994
356,3110.79,0.7937836551699461
357,3132.35,0.7829186698618442
358,3146.81,0.7865164126468556
359,3168.62,0.7901507263495595
360,3190.5899999999997,0.7546168394191791
361,3212.7,0.7793174519348501
362,3227.53,0.7477065932558541
363,3249.9,0.7901526047427633
364,3272.43,0.8160456155965881
365,3287.54,0.8104359558096947
366,3310.3300000000004,0.8066954656347577
367,3311.31121,0.8072965187411302
368,3325.6000000000004,0.8160482809721867
369,3333.27,0.8293082008262338
370,3340.95,0.7901844199238978
371,3348.66,0.8446883367524118
372,3356.3700000000003,0.8123033535809259
373,3364.11,0.7442787681402903
374,3371.8700000000003,0.7511570811868881
375,3379.64,0.8160384934771027
376,3387.4300000000003,0.8216864042545508
377,3395.24,0.8048551135192324
378,3403.07,0.8350541212711475
379,3410.91,0.7847451282666793
380,3418.78,0.7938056329930614
381,3426.6600000000003,0.8160355369630602
382,3434.55,0.8486028401766758
383,3442.4700000000003,0.7920085411211416
384,3450.41,0.810422840552841
385,3458.3599999999997,0.7993110392281572
386,3466.34,0.7901704356343234
387,3474.33,0.8198040312841066
388,3482.33,0.7920083261775064
389,3490.36,0.8235824188017565
390,3498.4100000000003,0.77573750991324
391,3506.47,0.8179355002683405
392,3514.56,0.784732088354291
393,3522.6600000000003,0.8235782756838583
394,3530.78,0.7847341615006591
395,3538.9199999999996,0.8292911458046934
396,3547.0800000000004,0.8408289285959614
397,3555.25,0.8388893106308459
398,3563.4500000000003,0.8273880903965808
399,3571.66,0.7847329694059324
400,3579.8999999999996,0.7722038461461342
401,3588.15,0.7140600221299528
402,3596.42,0.7829298966010049
403,3604.71,0.8179292695592905
404,3613.02,0.7686406410048096
405,3621.35,0.777527210937562
406,3629.7000000000003,0.8885932793575482
407,3635.76,0.9240900209892986
408,3638.48,0.8902888152530545
409,3641.2,0.8889468095168105
410,3643.92,0.8335535037805665
411,3646.63,0.8284761988007056
412,3649.35,0.8283689930644615
413,3652.07,0.8326015873282175
414,3654.79,0.8331648815919734
415,3657.5099999999998,0.9192858758557294
416,3660.2200000000003,0.9036244708758685
417,3662.94,0.8572983651396245
418,3665.66,0.8828057594033805
419,3668.38,0.9035499536671364
420,3671.09,0.8544766486872757
421,3673.81,0.8522173429510316
422,3676.53,0.8344341372147875
423,3679.25,0.8238484314785435
424,3681.96,0.8345421264986826
425,3684.6800000000003,0.7874398207624387
426,3687.4,0.7930837150261945
427,3690.12,0.8097353092899504
428,3692.84,0.8587755035537065
429,3695.55,0.8792069985738457
430,3698.27,0.8400077928376016
431,3700.9900000000002,0.8655856871013576
432,3703.71,0.8711589813651134
433,3706.42,0.8266015763852527
434,3709.1400000000003,0.8166156706490086
435,3711.86,0.8253641649127647
436,3714.58,0.8951851591765205
437,3717.29,0.9152287541966597
438,3720.01,1.0127106484604156
439,3722.73,1.2673724427241715
440,3725.4500000000003,1.6391322369879275
441,3728.17,1.7676610312516834
442,3730.8799999999997,1.6253418262718229
443,3733.6000000000004,1.2458146205355787
444,3736.32,1.0024754147993344
445,3739.04,0.9015691090630905
446,3741.75,0.8854135040832297
447,3744.47,0.8989250983469856
448,3747.19,0.8560920926107416
449,3749.9100000000003,0.8424720868744976
450,3752.63,0.8592295811382535
451,3755.3399999999997,0.8609968761583927
452,3758.06,0.9285600704221486
453,3760.78,0.9738249646859046
454,3763.5,1.0131973589496606
455,3766.21,0.9562570539697998
456,3768.93,0.9429898482335556
457,3771.6499999999996,0.8982514424973116
458,3774.3700000000003,0.9805970367610676
459,3777.08,1.0588553317812068
460,3779.7999999999997,1.0710261260449627
461,3782.52,1.1449749203087187
462,3785.2400000000002,1.1989897145724746
463,3787.96,1.2255555088362307
464,3790.67,1.0598423038563698
465,3793.39,0.9846905981201257
466,3796.1099999999997,0.9050585923838816
467,3798.8300000000004,0.9141244866476376
468,3801.54,1.0164804816677768
469,3801.8939600000003,1.0237529014389612
470,3804.2599999999998,1.0723653132206679
471,3806.98,1.11180815035202
472,3809.7,1.2163819874833728
473,3812.41,1.2080598252135066
474,3815.13,1.201037662344859
475,3817.85,1.1468784994762113
476,3820.5699999999997,1.1395733366075638
477,3823.29,1.1535781737389161
478,3826.0,1.1236290114690501
479,3828.72,1.0407508486004025
480,3831.44,0.953215885731755
481,3834.16,0.9346918228631074
482,3836.87,0.9045294605932415
483,3839.59,0.9353643977245938
484,3842.31,1.010654034855946
485,3845.0299999999997,1.1155798719872985
486,3847.7400000000002,1.1237697097174326
487,3850.46,1.196166546848785
488,3853.18,1.2489813839801374
489,3855.9,1.1907652211114896
490,3858.62,1.252612058242842
491,3861.33,1.2623898959729762
492,3864.05,1.2818287331043285
493,3866.77,1.2539895702356807
494,3869.49,1.268277407367033
495,3872.2000000000003,1.2785132450971672
496,3874.92,1.1880500822285196
497,3877.64,1.164726919359872
498,3880.36,1.1336067564912242
499,3883.08,1.0933845936225766
500,3885.79,1.0615644313527108
501,3888.51,1.0250472684840632
502,3891.23,1.0050411056154156
503,3893.95,1.032382942746768
504,3896.6600000000003,1.0376437804769019
505,3899.38,1.1232006176082543
506,3902.1,1.1914334547396066
507,3904.82,1.175449291870959
508,3907.53,1.255861129601093
509,3910.25,1.2806619667324453
510,3912.9700000000003,1.2840118038637978
511,3915.69,1.3000986409951503
512,3918.41,1.2837974781265025
513,3921.1200000000003,1.2443923158566366
514,3923.84,1.233171152987989
515,3926.56,1.1976759901193412
516,3929.28,1.0690378272506937
517,3931.9900000000002,0.9936452649808277
518,3934.71,0.95673940211218
519,3937.4300000000003,1.0359103392435325
520,3940.15,1.1381901763748847
521,3942.86,1.2277740141050189
522,3945.5800000000004,1.2515178512363712
523,3948.3,1.2163396883677235
524,3951.02,1.259064525499076
525,3953.7400000000002,1.2423043626304282
526,3956.4500000000003,1.1765442003605624
527,3959.17,1.1337460374919148
528,3961.8900000000003,1.067978874623267
529,3964.61,0.9765279117546194
530,3967.3199999999997,0.8892446494847536
531,3970.0400000000004,0.883422086616106
532,3972.76,0.9224071237474583
533,3975.48,0.9476321608788106
534,3978.2000000000003,1.0559808980101628
535,3980.91,1.1680747357402972
536,3983.63,1.2319325728716495
537,3986.3500000000004,1.2496424100030017
538,3989.07,1.288662247134354
539,3991.7799999999997,1.3139290848644885
540,3994.5000000000005,1.3809269219958407
541,3997.2200000000003,1.414901759127193
542,3999.94,1.3686455962585453
543,4002.6499999999996,1.3637814339886793
544,4005.37,1.3721062711200316
545,4008.09,1.3822301082513841
546,4010.8100000000004,1.4162049453827366
547,4013.53,1.4400177825140887
548,4016.24,1.4284156202442229
549,4018.9599999999996,1.4336354573755752
550,4021.6800000000003,1.4592832945069276
551,4024.4,1.38011013163828
552,4027.1099999999997,1.468565969368414
553,4029.83,1.4503588064997663
554,4032.5499999999997,1.3856156436311187
555,4035.2700000000004,1.457305480762471
556,4037.98,1.4717413184926051
557,4040.7,1.4563221556239576
558,4043.4199999999996,1.4426309927553098
559,4046.14,1.4631278298866621
560,4048.86,1.4353236670180145
561,4051.5699999999997,1.4044575047481487
562,4054.29,1.4422073418795012
563,4057.0099999999998,1.4217421790108533
564,4059.7299999999996,1.4232220161422058
565,4062.44,1.37669085387234
566,4065.16,1.4071016910036922
567,4067.8799999999997,1.3482505281350445
568,4070.6,1.4391343652663968
569,4073.31,1.3481122029965311
570,4076.0299999999997,1.3759830401278834
571,4078.75,1.3561888772592359
572,4081.47,1.347683714390588
573,4084.1899999999996,1.3259495515219404
574,4086.9,1.3366093892520747
575,4089.62,1.306018226383427
576,4092.3399999999997,1.2558110635147792
577,4095.06,1.2256789006461315
578,4097.77,1.268197738376266
579,4100.49,1.207370575507618
580,4103.21,1.2517884126389704
581,4105.93,1.1849992497703228
