,lambda (Angstroms),Total Flux (erg/s/cm^2/Angstrom)
0,102.03,0.0016035826818835866
1,103.92999999999999,0.0018762931902859697
2,104.712855,0.0019886588453244393
3,106.1,0.0018225529543124885
4,108.08,0.001585463457712145
5,110.09,0.00134480450357013
6,113.95,0.0008826329155416838
7,117.96,0.0004025223150048798
8,120.22644299999999,0.00013182560109695557
9,120.97999999999999,0.0001278894224385586
10,124.94999999999999,0.00010633351709571617
11,126.97999999999999,9.529655142418715e-05
12,127.86,9.056929808874595e-05
13,131.14000000000001,7.274380374755615e-05
14,132.05,6.820262141204317e-05
15,133.88,5.8347002407659964e-05
16,137.0,4.2116109400186794e-05
17,138.038426,3.6583592521029195e-05
18,139.87,3.6616082454790266e-05
19,143.13,4.571237451610454e-05
20,147.14,7.078886406085001e-05
21,150.91,7.51034624108975e-05
22,155.14,8.042457721744947e-05
23,158.489319,8.575641590123038e-05
24,159.12,8.669419267379652e-05
25,162.08,9.117704038458299e-05
26,165.86,9.903339955579005e-05
27,170.10999999999999,0.00010594122285675037
28,172.87,0.00011214696923572694
29,176.9,0.00011991098507169637
30,180.19,0.00012611928397996915
31,181.86,0.0001310511261005818
32,181.970086,0.00013128728704243337
33,186.09,0.0001417629794845146
34,190.87,0.00015628340694088605
35,193.97,0.0001665199724460642
36,198.03,0.00017832253049478137
37,202.18,0.00019218239721945532
38,204.99,0.00020288580143543937
39,208.929613,0.00021026671993144418
40,209.76000000000002,0.0002122300645957207
41,216.14000000000001,0.0002463370964676886
42,220.16,0.0002648771391205586
43,223.22000000000003,0.0002754868641249821
44,226.85,0.0002962180339831707
45,230.0,0.00044569304501713606
46,233.73999999999998,0.0007468415533558758
47,239.73000000000002,0.0009359666124331623
48,239.88329199999998,0.0009354989466742415
49,245.88,0.0009107775236251124
50,252.19,0.0009874044048466771
51,256.88,0.0008566777633140527
52,259.85,0.0009881706050300666
53,264.08,0.00104734433111045
54,268.99,0.0010639295963716041
55,273.99,0.0010734472962302137
56,275.42287,0.001077554237897809
57,279.08,0.0010916967114412972
58,284.27,0.0011117179112747008
59,290.21999999999997,0.0010804388802551927
60,296.3,0.0011204130334318966
61,301.11,0.0011254338486917563
62,308.13,0.0011594727952872273
63,316.227766,0.0011973818385367712
64,318.22,0.001204924586925267
65,327.89,0.0012201050769993014
66,337.85,0.0012245517896298476
67,348.12,0.0012233851539587338
68,357.05,0.0012254347657851168
69,363.078055,0.0012304365687424695
70,366.21,0.0012351461815385014
71,374.74,0.001234867261303366
72,385.24,0.0011971473524558963
73,395.12,0.0012326222725118005
74,405.26,0.0012383690062533865
75,413.74,0.0012299133141556204
76,416.86938299999997,0.0012249494128404002
77,422.41,0.0012155059743711282
78,430.26,0.001206166457054691
79,441.3,0.001202804395758708
80,450.53999999999996,0.0011859762683696785
81,459.97,0.0011720698201793595
82,469.6,0.0011583998237771568
83,478.630092,0.0011537339016215356
84,480.54,0.0011519646008668453
85,489.46999999999997,0.0011199801527601143
86,499.72,0.0011151229194909104
87,505.51,0.0010991652482100624
88,512.54,0.001159807384806891
89,519.67,0.0011479532801035326
90,530.55,0.001127767626643148
91,540.42,0.0010886227103146556
92,549.5408739999999,0.0010997340669813413
93,550.47,0.0011010116167203966
94,559.41,0.001127604348958453
95,569.81,0.0011496726392577576
96,580.4,0.001118552556975992
97,589.83,0.0011558852230839193
98,599.4200000000001,0.0011346627859656821
99,610.56,0.0010770810988439759
100,620.48,0.0012117596988217743
101,630.57,0.0012218964391217729
102,630.957344,0.0012223533721839228
103,639.34,0.0012337308773997416
104,649.73,0.001276970295558306
105,657.25,0.001292143073667296
106,664.86,0.0013371000286419518
107,675.66,0.0013502622525218841
108,685.06,0.0013154117251581215
109,694.59,0.0014955874532669876
110,704.26,0.0014277984565002233
111,715.6999999999999,0.0016163939380915591
112,724.43596,0.001659352519606774
113,725.6500000000001,0.0016652691343138882
114,735.75,0.0017113050858944161
115,744.27,0.001827045373762347
116,754.62,0.0019074608290948686
117,765.12,0.001908044986678586
118,775.77,0.0021121378465134995
119,784.75,0.002185413821285098
120,795.67,0.0023075143451721644
121,804.88,0.002420117663395597
122,814.2,0.0025154563632699056
123,825.52,0.0027110470931601617
124,831.763771,0.0024524110427404707
125,835.08,0.0023144309041325125
126,844.75,0.002874046886831596
127,854.5400000000001,0.0029586976924804095
128,864.4300000000001,0.003173034850587332
129,874.4399999999999,0.003380256831643984
130,884.5699999999999,0.003625891635650366
131,894.8100000000001,0.0038195155273606676
132,905.17,0.0038530922420206993
133,915.65,0.0052545317796304615
134,924.1199999999999,0.02957889453283224
135,934.8199999999999,0.06422155124584984
136,945.65,0.122335911517063
137,954.4,0.17600390485714748
138,954.992586,0.1769860693591233
139,965.45,0.19431952086012402
140,974.38,0.031541672344509615
141,985.6700000000001,0.15758981665119642
142,994.79,0.17160093433737747
143,1003.99,0.25972355042431444
144,1015.62,0.25321351793421415
145,1025.02,0.11055143002304109
146,1034.5,0.172791140512624
147,1044.07,0.3423605492030574
148,1056.16,0.3353384075173039
149,1065.9299999999998,0.2591256122096272
150,1075.8,0.3129505149028955
151,1085.75,0.24238501599691978
152,1095.8,0.330724715091889
153,1096.4782,0.32987596165658567
154,1105.94,0.31803430953971623
155,1116.1699999999998,0.30303466948131624
156,1123.91,0.270693685214257
157,1134.31,0.3527496345195004
158,1144.8,0.31877937819373153
159,1155.39,0.34157441561128227
160,1166.0900000000001,0.3519438461464846
161,1174.1699999999998,0.23795624060671222
162,1185.03,0.34156946113122605
163,1196.0,0.22828227477339144
164,1204.29,0.1616222560945903
165,1215.43,0.1152194591003991
166,1223.86,0.23200173166224544
167,1235.18,0.3576625234060296
168,1243.74,0.3939728878341915
169,1255.25,0.37450576769028304
170,1258.92541,0.350959467150593
171,1263.95,0.3187700600927408
172,1275.65,0.42021141216167035
173,1284.49,0.4430690515026393
174,1296.3700000000001,0.3423537043726293
175,1305.3600000000001,0.3376591443811487
176,1314.41,0.4309824846566882
177,1323.52,0.41159412519924793
178,1335.77,0.36014277971586217
179,1345.0200000000002,0.4369750208814689
180,1354.35,0.42215296240310246
181,1363.74,0.3736540041917562
182,1376.3500000000001,0.3948844603104914
183,1385.8899999999999,0.3985422027666955
184,1395.5,0.3423493455344231
185,1405.17,0.3543808885691708
186,1414.92,0.3676832319599455
187,1424.7199999999998,0.3788467755732369
188,1434.6000000000001,0.3762421195425552
189,1441.22,0.3985367490037786
190,1445.43977,0.4032330227896385
191,1447.87,0.40593767686037596
192,1454.56,0.39306080184833686
193,1464.64,0.3601407394983586
194,1474.79,0.3609706774098389
195,1485.01,0.36853221558277766
196,1495.31,0.3753702540545261
197,1505.67,0.3543778927503818
198,1512.6200000000001,0.3136700187094742
199,1516.11,0.3376582317450472
200,1526.62,0.32619147100117113
201,1533.66,0.28085429729642447
202,1544.2900000000002,0.3079475370007629
203,1555.0,0.29139277700391103
204,1565.78,0.29887091726851767
205,1576.6299999999999,0.31949545779458277
206,1583.91,0.3368751849862652
207,1594.8899999999999,0.34392302599789604
208,1605.9399999999998,0.3368772672709854
209,1613.3600000000001,0.33842339498558477
210,1624.54,0.31949523674423985
211,1635.8,0.3415654788017046
212,1643.3500000000001,0.34710390700186977
213,1654.74,0.3202400495449003
214,1659.58691,0.3329542689840064
215,1666.2099999999998,0.3503278483059999
216,1673.9,0.3093706580652907
217,1677.76,0.3535723633540894
218,1685.51,0.3693806747499937
219,1693.29,0.3455129869642047
220,1705.02,0.3314853069221346
221,1716.8400000000001,0.3136719293349848
222,1724.77,0.31151884564072935
223,1736.72,0.3337982715995753
224,1744.74,0.32619319036024014
225,1756.8300000000002,0.34791472013785074
226,1764.94,0.31877664135343575
227,1773.09,0.32545056366009634
228,1785.38,0.3322478988930852
229,1793.62,0.355209123654666
230,1806.05,0.3519463627064195
231,1814.3899999999999,0.32394449019568944
232,1826.96,0.3314889330662077
233,1835.4,0.3180348632831666
234,1843.87,0.29205819431843233
235,1856.6499999999999,0.2934233429170977
236,1865.22,0.30303107668005247
237,1873.83,0.32770661153408287
238,1886.82,0.3009467658608953
239,1895.53,0.28939370344261484
240,1904.28,0.30654684211540995
241,1905.46072,0.3050560239081286
242,1913.07,0.29544780677785354
243,1926.33,0.28873154055339173
244,1935.22,0.29749412797907315
245,1944.15,0.3115260139983459
246,1953.1299999999999,0.2907142982596079
247,1966.66,0.3195025225418878
248,1975.74,0.3277069032871282
249,1984.86,0.3100770826259599
250,1994.02,0.301625460558383
251,2003.23,0.31007443673279533
252,2017.1100000000001,0.29955794870899977
253,2026.4199999999998,0.31294872136739055
254,2035.7800000000002,0.2968094922677704
255,2045.17,0.3086502621133439
256,2054.61,0.2900518302009066
257,2064.1,0.2934170965304585
258,2073.63,0.3173050614536017
259,2078.41,0.30441169338777013
260,2083.2000000000003,0.3165607249703364
261,2092.81,0.29955618708066234
262,2107.32,0.30093847690593084
263,2117.05,0.30440953479703087
264,2126.82,0.30723989128172235
265,2136.63,0.28608134636000515
266,2146.5,0.29407499932867504
267,2156.4,0.3051118512425384
268,2166.36,0.29475790104678884
269,2176.36,0.2927317494446307
270,2186.4,0.28872449643606385
271,2187.7616199999998,0.29046272500853715
272,2196.5,0.30161859352401676
273,2206.63,0.2934168774980742
274,2216.8199999999997,0.27826896315411026
275,2227.0499999999997,0.2706844499314654
276,2237.33,0.2893852381104694
277,2242.4900000000002,0.2776279827606309
278,2252.84,0.2639266729019433
279,2263.24,0.26944576444490453
280,2273.68,0.27698985710918483
281,2284.1800000000003,0.2847588514554438
282,2294.7200000000003,0.26756724692302186
283,2305.31,0.2699840437922487
284,2315.96,0.25717104234345417
285,2326.65,0.20518624201597876
286,2337.39,0.2377051430901522
287,2342.77,0.2290904939075687
288,2353.59,0.24882409722438026
289,2364.45,0.22741660166251096
290,2375.36,0.23427800750229047
291,2386.33,0.21658801502404865
292,2397.34,0.23041522366712588
293,2402.87,0.2215485786894889
294,2413.96,0.2271907895752043
295,2425.1,0.24281380186256854
296,2436.3,0.23398871583191144
297,2447.54,0.2466586309225734
298,2453.1800000000003,0.2438070890285639
299,2464.51,0.2403959066421938
300,2475.88,0.23165712537714278
301,2487.31,0.23320724579407034
302,2493.05,0.21562000670335857
303,2504.5499999999997,0.24637102908259453
304,2510.33,0.21603359111320186
305,2511.88643,0.21738627474041622
306,2516.1099999999997,0.22105678892094488
307,2527.7300000000005,0.2134915628497529
308,2533.55,0.21793599970566188
309,2545.25,0.21489797276650988
310,2557.0,0.23287584528488284
311,2562.89,0.22442378138132685
312,2574.72,0.23766935303173983
313,2586.6099999999997,0.2332671240311828
314,2592.57,0.22898935936816178
315,2604.54,0.2206402294996447
316,2616.56,0.21657039908865267
317,2622.59,0.22779093366616662
318,2634.69,0.24012880238721454
319,2646.8599999999997,0.26200987034879747
320,2652.9599999999996,0.2730670041668464
321,2665.2,0.24163697136896428
322,2677.51,0.25296033781161714
323,2683.68,0.2552535708702012
324,2696.06,0.239259936553389
325,2702.28,0.24878576906949795
326,2714.75,0.2321307337762308
327,2727.28,0.22940199783199366
328,2733.57,0.2413041295886376
329,2746.19,0.2067533926679454
330,2752.52,0.21348952399060933
331,2765.22,0.22349158620195717
332,2777.9900000000002,0.23343004765383996
333,2784.39,0.21483287821703886
334,2797.24,0.17417943880096165
335,2803.6899999999996,0.18575316882168555
336,2816.63,0.2279340284291533
337,2823.1299999999997,0.24475435790740221
338,2836.16,0.23638531653841496
339,2842.7000000000003,0.22677554558268384
340,2855.82,0.2120624032372416
341,2862.4,0.24289483184753047
342,2875.61,0.2478955885256332
343,2882.24,0.24334851659344708
344,2884.0315,0.24371894702874802
345,2895.54,0.24609869460124933
346,2908.9100000000003,0.27099779163260845
347,2929.0699999999997,0.2575251871563331
348,2949.3799999999997,0.25155208264675216
349,2969.82,0.2572972781083064
350,2990.41,0.25719437353655494
351,3011.13,0.26006696893593867
352,3032.0099999999998,0.2605406642997964
353,3053.02,0.2610382596347892
354,3067.12,0.2633727565040609
355,3088.38,0.26446775178354437
356,3109.7799999999997,0.26742414703194267
357,3131.34,0.26182344224481485
358,3153.0399999999995,0.2617005374266019
359,3167.6,0.2646545341937363
360,3189.5600000000004,0.2480186293177936
361,3211.6699999999996,0.25839142440854523
362,3226.4900000000002,0.24163422111795
363,3248.85,0.26541971615319226
364,3271.37,0.2790794111529085
365,3286.4700000000003,0.2751740078001428
366,3309.2599999999998,0.27252740273990894
367,3311.31121,0.2725995640403246
368,3324.53,0.2730645461772958
369,3332.19,0.274285313664418
370,3339.88,0.2606862810242051
371,3347.57,0.2844729483839923
372,3355.2900000000004,0.27225831561644437
373,3363.03,0.2431830827640065
374,3370.7799999999997,0.2551890498691236
375,3378.55,0.26777371688935064
376,3386.3399999999997,0.27083188382468765
377,3394.14,0.27203185071757974
378,3401.9700000000003,0.2927980174831367
379,3409.81,0.26515008420624875
380,3417.67,0.2620708508444707
381,3425.55,0.2769078173978026
382,3433.4500000000003,0.2952990838662446
383,3441.36,0.2711418502922415
384,3449.29,0.2625053166333484
385,3457.24,0.2667206828895653
386,3465.22,0.2540927490184471
387,3473.2000000000003,0.27663901514732897
388,3481.21,0.2599209811488758
389,3489.2400000000002,0.2733940470655326
390,3497.2799999999997,0.25983771293974434
391,3505.34,0.2777343787290661
392,3513.42,0.26457064443349787
393,3521.52,0.28215581005303964
394,3529.64,0.2496912755876913
395,3537.7799999999997,0.276265541037453
396,3545.93,0.28135010644476965
397,3554.1,0.28523617176719634
398,3562.2999999999997,0.27676163696228795
399,3570.51,0.25295700211493455
400,3578.7400000000002,0.2534937671826912
401,3586.99,0.23328463216555775
402,3593.31,0.2605822053403113
403,3596.05,0.25911439371037853
404,3598.7799999999997,0.30426748212289073
405,3601.5200000000004,0.3211497704929579
406,3604.25,0.28670265890547014
407,3606.99,0.2423350472755373
408,3609.7200000000003,0.23099083568804954
409,3612.46,0.22541082405811672
410,3615.2000000000003,0.19919101242818393
411,3617.93,0.19352120084069616
412,3620.67,0.22280668921076335
413,3623.4,0.22708497762327556
414,3626.14,0.3426616659933428
415,3628.8700000000003,0.286868054405855
416,3631.61,0.2656861427759222
417,3634.35,0.2865360311459894
418,3637.08,0.2759979195585016
419,3639.82,0.2775678079285688
420,3642.55,0.273538996341081
421,3645.29,0.2638259847111482
422,3648.02,0.24518717312366042
423,3650.76,0.2596518614937276
424,3653.5,0.2734138498637948
425,3656.2299999999996,0.293046138276307
426,3658.97,0.2741786266463742
427,3661.7,0.26568631505888646
428,3664.44,0.3006709034289537
429,3667.17,0.29110409184146585
430,3669.9100000000003,0.29184728021153306
431,3672.65,0.25076536858160026
432,3675.3799999999997,0.2817424569941125
433,3678.12,0.3009391453641797
434,3680.85,0.27961413377669186
435,3683.59,0.2856475221467591
436,3686.32,0.27389021055927126
437,3689.06,0.23386209892933849
438,3691.79,0.2748615873418507
439,3694.5299999999997,0.2845733757119179
440,3697.2699999999995,0.2794065640819851
441,3700.0,0.2915168524944974
442,3702.74,0.3297664408645646
443,3705.4700000000003,0.2830032292770768
444,3708.21,0.25545661764714395
445,3710.9399999999996,0.2837060060596562
446,3713.68,0.28905749442972334
447,3716.4199999999996,0.27124388279979056
448,3719.15,0.27246397121230276
449,3721.89,0.33699885958236997
450,3724.6200000000003,0.3999031479948822
451,3727.36,0.4312091363649494
452,3730.0899999999997,0.39386932477746156
453,3732.83,0.32408391314752877
454,3735.5699999999997,0.29168100151759596
455,3738.3,0.28176288993010823
456,3741.04,0.30988677830017547
457,3743.77,0.29860476671268765
458,3746.51,0.26547865508275487
459,3749.24,0.26235914349526707
460,3751.9799999999996,0.24655003186533425
461,3754.72,0.2751906202354015
462,3757.45,0.28649500864791366
463,3760.19,0.28234069701798087
464,3762.92,0.28889228543049306
465,3765.6600000000003,0.30575387380056024
466,3768.39,0.3098257622130725
467,3771.1299999999997,0.30507215058313963
468,3773.86,0.2997002389956519
469,3776.6,0.3333415273657191
470,3779.34,0.3768191157357863
471,3782.07,0.37890740414829854
472,3784.81,0.38665569251836573
473,3787.54,0.37884568093087795
474,3790.2799999999997,0.3589860693009451
475,3793.01,0.2996381577134573
476,3795.75,0.27101684608352455
477,3798.49,0.27471523445359175
478,3801.2200000000003,0.3360074228661039
479,3801.8939600000003,0.3350109922828521
480,3803.96,0.3319564130633611
481,3806.6899999999996,0.3525600038902644
482,3809.43,0.3770674946835666
483,3812.16,0.39054198551046987
484,3814.9,0.33030367630377205
485,3817.64,0.3347664670970742
486,3820.3700000000003,0.3464635579239775
487,3823.11,0.3442723487172797
488,3825.8399999999997,0.27324883954418294
489,3828.58,0.2878581303374852
490,3831.31,0.27453022116438847
491,3834.05,0.25417491195769065
492,3836.79,0.2712227027509928
493,3839.52,0.31168489357789614
494,3842.26,0.3357997843711983
495,3844.99,0.3199921751981016
496,3847.7299999999996,0.36758206599140375
497,3850.46,0.35652765681830706
498,3853.2,0.37462904761160926
499,3855.9300000000003,0.3487165384385125
500,3858.67,0.3901897292318147
501,3861.4100000000003,0.39008552002511687
502,3864.14,0.3980219108520202
503,3866.8799999999997,0.38644890164532236
504,3869.61,0.39541839247222565
505,3872.35,0.3676028832655278
506,3875.0800000000004,0.3520847740924311
507,3877.82,0.3647927648857333
508,3880.56,0.3439206556790355
509,3883.29,0.3411526465059388
510,3886.0299999999997,0.31335793729924094
511,3888.76,0.33454012812614425
512,3891.5,0.33553121891944643
513,3894.23,0.3677485097463497
514,3896.9700000000003,0.3515466005396519
515,3899.71,0.3628286913329541
516,3902.4399999999996,0.3860361821598574
517,3905.18,0.4056046729531596
518,3907.91,0.41079266378006285
519,3910.65,0.444247754573365
520,3913.38,0.43821494540026834
521,3916.1200000000003,0.4256704361935705
522,3918.86,0.3823359269868727
523,3921.5899999999997,0.375435017813776
524,3924.33,0.3656804086070782
525,3927.06,0.32947699943398145
526,3929.8,0.31596159022728365
527,3932.53,0.28690798105418697
528,3935.27,0.3151972718474891
529,3938.0,0.33925186267439245
530,3940.74,0.3616102534676946
531,3943.4799999999996,0.37156974426099676
532,3946.21,0.39481863508790005
533,3948.95,0.3929992258812023
534,3951.6800000000003,0.39041731670810553
535,3954.42,0.36803660750140776
536,3957.1499999999996,0.372542598328311
537,3959.89,0.3270588891216132
538,3962.6299999999997,0.29068837991491536
539,3965.36,0.27207037074181867
540,3968.1,0.25905096153512086
541,3970.8300000000004,0.2760588523620241
542,3973.57,0.29597894315532636
543,3976.2999999999997,0.3310477339822296
544,3979.04,0.3685533247755318
545,3981.7799999999997,0.398722815568834
546,3984.51,0.4130859063957372
547,3987.25,0.43052589718903944
548,3989.98,0.43474268801594274
549,3992.7200000000003,0.44883497880924494
550,3995.45,0.4523079696361482
551,3998.1899999999996,0.4444750604294504
552,4000.93,0.44817305122275264
553,4003.66,0.47241394204965587
554,4006.4,0.463072532842958
555,4009.13,0.4450336236698613
556,4011.8700000000003,0.4547243144631635
557,4014.6,0.4622888052900668
558,4017.3399999999997,0.463320996083369
559,4020.07,0.47915148691027226
560,4022.81,0.4630113777035745
561,4025.55,0.45125216849687666
562,4028.28,0.46038725932377994
563,4031.02,0.4596630501170821
564,4033.75,0.4595196409439854
565,4036.49,0.4694789317372876
566,4039.2200000000003,0.4765269225641909
567,4041.96,0.4689213133574931
568,4044.7,0.45195470415079525
569,4047.4300000000003,0.45817599497769856
570,4050.17,0.4521203857710008
571,4052.8999999999996,0.434287976597904
572,4055.64,0.4376553673912062
573,4058.37,0.43945435821810946
574,4061.11,0.44536344901141167
575,4063.85,0.45135523980471387
576,4066.5800000000004,0.43922633063161715
577,4069.32,0.44656132142491933
