,lambda (Angstroms),Total Flux (erg/s/cm^2/Angstrom)
0,102.00000000000001,12.715388588623213
1,103.89,12.67934686348047
2,104.712855,12.663655843595516
3,106.07000000000001,12.52769339812075
4,108.03999999999999,12.330336674796573
5,110.05,12.128987982861346
6,113.91999999999999,11.741294141252329
7,117.92,11.340576385747402
8,120.22644299999999,11.10974364845838
9,120.95,11.04904367904154
10,124.91,10.716511268520154
11,126.94,10.54603669167005
12,128.10999999999999,10.447790854897825
13,131.1,10.196698500391019
14,132.01,10.12036236682373
15,134.15,9.940651633136921
16,136.96,9.704799760171998
17,138.038426,9.614242979714485
18,140.15,9.487518417053888
19,143.07999999999998,9.312931407050954
20,147.09,9.074640193862631
21,150.87,8.848040369213791
22,155.09,8.595101214489423
23,158.489319,8.391426215977518
24,159.07000000000002,8.365139928896935
25,162.02999999999997,8.23111632582492
26,166.18,8.04328834449422
27,170.06,7.867638032507926
28,172.82,7.7427486507651
29,176.83999999999997,7.560763459748375
30,180.13000000000002,7.411801744033192
31,181.8,7.336263752384454
32,181.970086,7.328563118301796
33,186.03,7.188443028274964
34,190.81,7.023569440454229
35,193.91,6.916674331595594
36,197.97,6.776580010187187
37,202.10999999999999,6.633792381066299
38,204.92,6.5368955451654065
39,208.929613,6.398175294200421
40,210.17999999999998,6.365661985845986
41,216.07000000000002,6.213622526172777
42,220.09,6.109568200725188
43,223.15,6.0301998792650835
44,226.76999999999998,5.93660159381228
45,229.93,5.861962184853477
46,234.2,5.765590540659148
47,239.88329199999998,5.62784414547828
48,240.21,5.621876808804868
49,245.80999999999997,5.506932181278197
50,252.11,5.383471984060691
51,256.8,5.280460487132105
52,259.77,5.228472427158139
53,263.99,5.146496064164825
54,268.90000000000003,5.047990183904832
55,273.90000000000003,4.947333751827448
56,275.42287,4.9166459993713305
57,278.99,4.8614057955535355
58,284.18,4.78160664783205
59,290.13,4.68766812416291
60,296.2,4.59442903534414
61,301.02,4.518401531834013
62,308.03000000000003,4.411102409343143
63,316.227766,4.285489908511623
64,318.12,4.263869520696674
65,327.79,4.152021374414644
66,337.75,4.036329760539875
67,348.01,3.917113619500204
68,356.93999999999994,3.813919141558268
69,363.078055,3.743467057082215
70,366.09000000000003,3.7175938215499795
71,374.62,3.643140298139516
72,385.12,3.550061914328278
73,394.99,3.465893577345714
74,405.13,3.3783765831508608
75,413.61,3.3043341921871177
76,416.86938299999997,3.275792845744409
77,422.27,3.239493830819864
78,430.12,3.1868257945958898
79,441.15000000000003,3.113859047914306
80,451.43,3.0451655781331017
81,459.82,2.9886174533408547
82,470.53,2.9173231384034333
83,478.630092,2.8636720121787227
84,480.39,2.854687906589029
85,490.45,2.8022471155884205
86,499.56,2.7561678354377697
87,506.51,2.7199482292196557
88,512.38,2.691904909967809
89,519.51,2.6549675575886504
90,530.38,2.598723153863341
91,540.25,2.546871031032724
92,549.5408739999999,2.4989420522085686
93,550.29,2.4959761433531247
94,560.52,2.4571282458452024
95,569.63,2.4219757595502682
96,580.22,2.3801174302238852
97,589.65,2.3433052078680974
98,600.61,2.299440630283852
99,610.37,2.258614765427809
100,620.28,2.2233174239807405
101,630.3599999999999,2.183380753063844
102,630.957344,2.1810789698171416
103,640.61,2.1516033773940175
104,649.52,2.123556604463539
105,658.55,2.094970022806723
106,664.65,2.076661315884622
107,675.4499999999999,2.043324080514345
108,684.84,2.0132045126785196
109,694.37,1.9844294379953025
110,705.65,1.9483298377196796
111,715.47,1.9190952902811493
112,724.43596,1.891303602987212
113,725.42,1.8890291067073122
114,735.5100000000001,1.8657641915706373
115,745.75,1.8419087559710785
116,754.38,1.8218530713398098
117,764.88,1.7961673089379184
118,775.52,1.773122252104002
119,784.5000000000001,1.7518419863926695
120,795.41,1.727144996725562
121,804.62,1.7060823323044743
122,815.8100000000001,1.6803769637733157
123,825.26,1.6587004646116135
124,831.763771,1.6428324093543296
125,834.82,1.6371281450869244
126,844.4799999999999,1.6216415187289663
127,854.26,1.6046318862050704
128,864.1500000000001,1.587745579695732
129,874.16,1.5705903570204565
130,884.2800000000001,1.553151440359738
131,894.52,1.5355459375330827
132,904.88,1.5176159185404894
133,915.36,1.5005980433819592
134,925.9599999999999,1.4975887420574916
135,934.53,1.5010428633734643
136,945.3499999999999,1.5066396940781113
137,954.0899999999999,1.5100515383256727
138,954.992586,1.5092805918843
139,965.14,1.5009851662231104
140,974.0699999999999,1.420059484410927
141,985.35,1.4542781342271165
142,994.4699999999999,1.4395280066316956
143,1005.98,1.4470282883944916
144,1015.29,1.4272413050158328
145,1024.69,1.3582129815293238
146,1034.1699999999998,1.3703006035025047
147,1046.14,1.4021976291585139
148,1055.82,1.3827591397809182
149,1065.59,1.3432198002954725
150,1075.45,1.3419737107021767
151,1085.3999999999999,1.3017439610010324
152,1095.45,1.3113356756244987
153,1096.4782,1.309082624516651
154,1105.58,1.2918776355018067
155,1115.81,1.2736219979062533
156,1126.14,1.2479380019764321
157,1133.94,1.2589830519035763
158,1144.43,1.2341785226389277
159,1155.02,1.2243842350400118
160,1165.71,1.2115174891068283
161,1173.79,1.166426085698024
162,1184.65,1.1800297805965856
163,1195.61,1.1349658971608805
164,1203.8999999999999,1.1039157212501145
165,1215.04,1.0670172228127277
166,1226.28,1.0892234560410736
167,1234.78,1.1092326676283462
168,1246.21,1.102346930021584
169,1254.8500000000001,1.085653029940882
170,1258.92541,1.073708998623419
171,1263.55,1.0619607052315698
172,1275.24,1.07353567277729
173,1284.08,1.0690960296724281
174,1295.9599999999998,1.033693244594854
175,1304.94,1.0232851100833538
176,1313.9899999999998,1.035396529868535
177,1326.15,1.0179576619776842
178,1335.3400000000001,0.9965072903562272
179,1344.59,1.0037279652747826
180,1353.91,0.9905009944900187
181,1366.4399999999998,0.9668605135959106
182,1375.9099999999999,0.9609621591611773
183,1385.45,0.9522203590231249
184,1395.05,0.9273981754250852
185,1404.72,0.920266186123726
186,1414.4599999999998,0.9149901611190482
187,1424.27,0.906663870411051
188,1434.14,0.8963919262430661
189,1440.76,0.894084461157751
190,1445.43977,0.8902466684688746
191,1447.41,0.8892075944429214
192,1454.0900000000001,0.8814940738548125
193,1464.1699999999998,0.8672303211709597
194,1474.3200000000002,0.8596867813851352
195,1484.54,0.8534491344973398
196,1494.8300000000002,0.8471556905075731
197,1505.1899999999998,0.8350884294158355
198,1512.1399999999999,0.8210333557201233
199,1515.6200000000001,0.8234363612221263
200,1526.1299999999999,0.8139133206261645
201,1536.71,0.7961701829282314
202,1543.8,0.7960300950285769
203,1554.5,0.7846586337272646
204,1565.28,0.7789558700236996
205,1576.13,0.7758364092181633
206,1583.4,0.7737935659134398
207,1594.3799999999999,0.7675431862042429
208,1605.4299999999998,0.7577269993930749
209,1616.56,0.7498134401796536
210,1624.02,0.7406602661695797
211,1635.28,0.7371479980524979
212,1646.6100000000001,0.7298678728334448
213,1654.21,0.7189715446194286
214,1659.58691,0.7181219696709022
215,1665.6799999999998,0.7183942981126916
216,1673.3700000000001,0.7061626870850438
217,1677.22,0.7131191174158054
218,1684.97,0.7117978565231828
219,1696.65,0.7010637094746881
220,1704.4799999999998,0.694241542095432
221,1716.29,0.6847951270061577
222,1724.2099999999998,0.6803636248294389
223,1736.1699999999998,0.6786888750777269
224,1744.1799999999998,0.6727846281035452
225,1756.27,0.6711508303110535
226,1764.38,0.6609916402285799
227,1776.6100000000001,0.6565553660844798
228,1784.81,0.6535319212045436
229,1793.05,0.6537225330812905
230,1805.47,0.6469299710314357
231,1813.81,0.6372340297998909
232,1826.3799999999999,0.6322899130875982
233,1834.81,0.6254649470585906
234,1843.28,0.615658587786266
235,1856.06,0.6099032765465604
236,1864.62,0.6076811424767733
237,1873.2299999999998,0.6079159668528402
238,1886.21,0.5963755893965507
239,1894.9199999999998,0.5898539306643257
240,1903.67,0.5888685386887839
241,1905.46072,0.5876912900380897
242,1916.86,0.5816403617517306
243,1925.7099999999998,0.576808333716662
244,1934.6,0.5743021564249375
245,1943.53,0.5749555498765575
246,1957.0000000000002,0.5662330426977579
247,1966.03,0.5683913330077387
248,1975.11,0.5661889817468999
249,1984.2299999999998,0.5600547412294054
250,1993.3899999999999,0.5550662714552551
251,2007.2,0.5514712455948824
252,2016.47,0.5463131603649289
253,2025.77,0.5445707381924838
254,2035.12,0.5392528644492192
255,2044.52,0.5383607891351349
256,2053.96,0.5316999345643949
257,2063.44,0.5285510307369993
258,2072.96,0.529704857652948
259,2077.74,0.5305525114825945
260,2087.33,0.5318392221993957
261,2096.96,0.5240384636595412
262,2106.64,0.5205182235488672
263,2116.37,0.5192446918673737
264,2126.14,0.5145492209292244
265,2135.9500000000003,0.5069169307344192
266,2145.81,0.5082057189687947
267,2155.71,0.5059146179465145
268,2165.6600000000003,0.4984469953534146
269,2175.6600000000003,0.4945072411894951
270,2185.7,0.49451753776892016
271,2187.7616199999998,0.4941384418135426
272,2195.79,0.49356385014071014
273,2205.9300000000003,0.4892070622456857
274,2216.11,0.480029327593679
275,2226.34,0.47910916699544437
276,2236.61,0.48549121964022734
277,2246.94,0.47990623714953684
278,2257.31,0.469928027901864
279,2262.51,0.46784442949415905
280,2272.96,0.4678893467325215
281,2283.45,0.4733519272139017
282,2293.99,0.46372016174905384
283,2304.58,0.46593821033797805
284,2315.21,0.4577069521699199
285,2325.9,0.44310975886638826
286,2336.6400000000003,0.4442229296166287
287,2347.42,0.4353618036098868
288,2352.83,0.44628031222802467
289,2363.69,0.43236121270731803
290,2374.6,0.43431260724038356
291,2385.56,0.4229950158272211
292,2396.58,0.42489376927858513
293,2407.64,0.42091610597296675
294,2413.19,0.4221898459416664
295,2424.33,0.43202850912208346
296,2435.52,0.4282321963562725
297,2446.76,0.4326873976442336
298,2452.4,0.432844694909723
299,2463.7200000000003,0.4243183726837193
300,2475.09,0.4168201745114879
301,2486.52,0.40442365120378293
302,2492.25,0.404771725766062
303,2503.75,0.4161844581336379
304,2511.88643,0.40042730930184667
305,2515.31,0.3940021837836975
306,2526.92,0.389726232894732
307,2532.74,0.39740667193230494
308,2544.43,0.3959972082809694
309,2556.1800000000003,0.4165628225578561
310,2562.07,0.40280961917835517
311,2573.9,0.4120675406928718
312,2585.7799999999997,0.40460082048090723
313,2597.7099999999996,0.3982662585424612
314,2603.7,0.3915205017099976
315,2615.7200000000003,0.3861628666638851
316,2627.79,0.3947340998912915
317,2633.85,0.4238089106417539
318,2646.0099999999998,0.44685434076149383
319,2652.1099999999997,0.48659293013077126
320,2664.35,0.431529107488141
321,2676.6499999999996,0.4412619827737332
322,2682.82,0.4571591197259366
323,2695.2,0.42116299224915876
324,2707.64,0.4399369627006031
325,2713.88,0.4090097472357327
326,2726.4100000000003,0.38969011457951075
327,2732.69,0.4057458677334554
328,2745.3100000000004,0.37181495196956693
329,2757.98,0.3845731644791973
330,2764.34,0.4020646048707718
331,2777.1,0.4052549642727357
332,2783.5,0.3718506432831251
333,2796.3500000000004,0.3413007695774225
334,2802.79,0.34568620720662696
335,2815.73,0.38823508039325805
336,2822.22,0.4189283062959811
337,2835.2500000000005,0.40796410637494573
338,2841.7799999999997,0.3769948008964838
339,2854.9,0.347638277867782
340,2868.08,0.3995961227673027
341,2874.6899999999996,0.43824534452647057
342,2884.0315,0.42842367016125615
343,2887.96,0.42449523233820474
344,2894.62,0.45586184694067633
345,2907.98,0.5132986314885772
346,2928.13,0.48154646050356253
347,2948.4300000000003,0.46233544705463947
348,2968.8700000000003,0.46604212730606875
349,2989.4500000000003,0.4667203012578502
350,3010.1699999999996,0.46195806890998403
351,3031.04,0.47489559409820936
352,3052.05,0.4813159129867871
353,3073.2,0.5011504255757171
354,3087.39,0.49174090848999197
355,3108.79,0.5303026169724081
356,3130.3399999999997,0.5051519829909159
357,3152.04,0.5043096065455155
358,3166.59,0.5291898875464105
359,3188.5400000000004,0.4884256069944962
360,3210.6400000000003,0.5105916839786736
361,3232.89,0.4673107184989428
362,3247.81,0.5598815614221974
363,3270.3300000000004,0.6119833195074313
364,3293.0,0.6032607351287573
365,3308.1899999999996,0.5742370016169771
366,3311.31121,0.569311617194559
367,3323.4599999999996,0.5505784250286555
368,3331.13,0.5675002425366225
369,3338.81,0.5347821844481199
370,3346.5,0.577385350763148
371,3354.22,0.567948390288768
372,3361.9500000000003,0.4833617542179184
373,3369.7,0.5467563669541301
374,3377.4700000000003,0.530863528497403
375,3385.25,0.5366646144442064
376,3393.06,0.5743552736016018
377,3400.88,0.6086247571625275
378,3408.7200000000003,0.5698295895305145
379,3416.5800000000004,0.5333391707055628
380,3424.45,0.6129956762841418
381,3432.35,0.6337795550733123
382,3440.2599999999998,0.5753799582660135
383,3448.19,0.5031095102657759
384,3456.14,0.5643140110725996
385,3464.11,0.5125241606864843
386,3472.0899999999997,0.5983585347038998
387,3480.1,0.513946281931907
388,3488.12,0.5624858535634447
389,3496.16,0.5347978740020436
390,3504.2200000000003,0.6165908432477037
391,3512.2999999999997,0.5820362613004252
392,3520.39,0.6190187037566771
393,3528.51,0.4785285194235207
394,3536.64,0.5913058594938951
395,3544.8,0.6208062727748611
396,3552.97,0.6278029104593579
397,3561.16,0.5866608969509158
398,3569.37,0.49432833224953493
399,3577.6000000000004,0.5409151163552152
400,3585.84,0.44230142486442603
401,3594.1099999999997,0.5349532065842287
402,3602.39,0.656962912707562
403,3610.7,0.534348692041487
404,3619.02,0.6100286957789427
405,3627.36,0.6405558483234595
406,3635.73,0.5247209740785681
407,3644.1099999999997,0.6916761242372074
408,3652.5099999999998,0.5603986232029078
409,3660.93,0.7316180709756693
410,3669.3700000000003,0.6976422675554921
411,3677.82,0.7133465885388455
412,3686.3,0.6618277827327906
413,3694.7999999999997,0.714375725733797
414,3703.32,0.7444448175418645
415,3711.86,0.5481005581569933
416,3720.4100000000003,0.6580004231756527
417,3728.99,0.6374037614049038
418,3737.59,0.43118634844121617
419,3746.2000000000003,0.596844559881059
420,3754.8399999999997,0.5364917445314938
421,3763.49,0.5588513535854591
422,3772.17,0.5719984358500161
423,3780.8599999999997,0.6716954425181039
424,3789.5800000000004,0.6345476223967833
425,3798.32,0.5585454510825238
426,3798.9,0.6719054664872985
427,3800.62,0.6747036638945609
428,3801.8939600000003,0.6767408377269767
429,3802.35,0.6774816667982592
430,3804.0800000000004,0.6999254217963292
431,3805.81,0.7586127767943994
432,3807.54,0.7644323317924695
433,3809.27,0.6427730867905397
434,3811.0,0.6626909417886098
435,3812.7299999999996,0.6927818967866799
436,3814.46,0.6386071517847499
437,3816.19,0.5446004067828201
438,3817.92,0.5598020617808902
439,3819.65,0.5695780167789604
440,3821.3799999999997,0.5382443717770304
441,3823.11,0.5575142267751005
442,3824.8399999999997,0.5423563817731707
443,3826.57,0.5442494367712408
444,3828.3,0.512991891769311
445,3830.0299999999997,0.45436644676738114
446,3831.76,0.45314420176545117
447,3833.49,0.46378925676352134
448,3835.22,0.46053531176159146
449,3836.9399999999996,0.47167828840707154
450,3838.67,0.5791963434051417
451,3840.4,0.5870391984032117
452,3842.13,0.5404712534012819
453,3843.86,0.538267308399352
454,3845.5899999999997,0.6105068633974222
455,3847.32,0.5798213183954922
456,3849.05,0.5407569733935624
457,3850.7799999999997,0.6217279283916326
458,3852.51,0.5517703833897026
459,3854.24,0.4928967383877728
460,3855.9700000000003,0.5043330933858429
461,3857.7,0.536013848383913
462,3859.43,0.6023263033819831
463,3861.1600000000003,0.5755182583800532
464,3862.89,0.5592166133781233
465,3864.6200000000003,0.5527518683761935
466,3866.35,0.5612983233742637
467,3868.08,0.5731732783723338
468,3869.8100000000004,0.5413134333704038
469,3871.54,0.5246589883684739
470,3873.26,0.533722665013954
471,3874.99,0.5130456200120243
472,3876.7200000000003,0.5367575750100944
473,3878.45,0.5173483300081645
474,3880.18,0.5243619850062347
475,3881.9100000000003,0.5705505400043047
476,3883.64,0.6277314950023748
477,3885.3700000000003,0.6651120500004449
478,3887.1,0.5677975049985151
479,3888.83,0.6007553599965851
480,3890.56,0.7076936149946553
481,3892.29,0.6407649699927254
482,3894.0200000000004,0.6661947249907956
483,3895.75,0.7104788799888657
484,3897.48,0.6339515349869358
485,3899.21,0.6135701899850059
486,3900.94,0.699268544983076
487,3902.6699999999996,0.6872850999811461
488,3904.4,0.6660531549792162
489,3906.1299999999997,0.6456338099772865
490,3907.86,0.6696883649753564
491,3909.5800000000004,0.7147383416208366
492,3911.31,0.7499481966189068
493,3913.04,0.6640504516169768
494,3914.77,0.610964606615047
495,3916.5,0.632169461613117
496,3918.2299999999996,0.6380108166111873
497,3919.96,0.5878873716092574
498,3921.69,0.5588413266073274
499,3923.42,0.5474180816053975
500,3925.15,0.5035114366034678
501,3926.8799999999997,0.5280067916015379
502,3928.61,0.446008546599608
503,3930.34,0.39214070159767805
504,3932.0699999999997,0.4186840565957482
505,3933.8,0.40205801159381827
506,3935.5299999999997,0.4478368665918885
507,3937.26,0.5259402215899585
508,3938.99,0.5458488765880287
509,3940.72,0.7024008315860988
510,3942.4500000000003,0.7353989865841689
511,3944.18,0.645326641582239
512,3945.9,0.6327741182277191
513,3947.6299999999997,0.6544173732257893
514,3949.36,0.6869485282238593
515,3951.0899999999997,0.6480059832219296
516,3952.82,0.6531419382199997
517,3954.55,0.6743847932180698
518,3956.2799999999997,0.6212514482161399
519,3958.01,0.5837790032142101
520,3959.74,0.5348662582122802
521,3961.4700000000003,0.44935211321035023
522,3963.2000000000003,0.4400072682084204
523,3964.93,0.4378794232064905
524,3966.6600000000003,0.4308889782045606
525,3968.39,0.4590539332026307
526,3970.12,0.5325135882007008
527,3971.85,0.6577720431987709
528,3973.58,0.6927527981968411
529,3975.3100000000004,0.6634281531949111
530,3977.04,0.6819280081929813
531,3978.77,0.7725064631910514
532,3980.5,0.8126539181891216
533,3982.2200000000003,0.7972874948346016
534,3983.95,0.8068466498326718
535,3985.68,0.818680904830742
536,3987.4100000000003,0.8239983598288121
537,3989.14,0.7951052148268821
538,3990.8700000000003,0.8022496698249523
539,3992.6,0.8465721248230224
540,3994.33,0.8797390798210926
541,3996.06,0.8633903348191626
542,3997.79,0.8498786898172327
543,3999.5199999999995,0.8616874448153029
544,4001.25,0.8752182998133731
545,4002.98,0.8613572548114432
546,4004.71,0.8537494098095133
547,4006.44,0.8704066648075834
548,4008.1699999999996,0.8910231198056535
549,4009.9,0.9060598748037236
550,4011.63,0.9295360298017937
551,4013.36,0.9456496847998639
552,4015.09,0.9593554397979339
553,4016.8199999999997,0.9892332947960041
554,4018.55,0.9622755497940741
555,4020.2700000000004,0.9139132264395543
556,4022.0,0.9264144814376244
557,4023.73,0.9566393364356947
558,4025.46,0.9315364914337647
559,4027.19,0.8680612464318349
560,4028.9199999999996,0.8522715014299049
561,4030.65,0.8434148564279751
562,4032.3799999999997,0.8545055114260453
563,4034.11,0.9031937664241153
564,4035.84,0.9348769214221855
565,4037.5699999999997,0.9203928764202556
566,4039.3,0.9059123314183256
567,4041.0299999999997,0.9246951864163959
568,4042.76,0.8754895414144659
569,4044.4900000000002,0.8729492964125359
570,4046.22,0.9114096514106063
571,4047.9500000000003,0.9043989064086764
572,4049.68,0.9163603614067465
573,4051.41,0.9196475164048166
574,4053.14,0.8865284714028867
575,4054.86,0.8814696480483668
576,4056.59,0.8888904030464368
577,4058.32,0.9068761580445069
578,4060.05,0.8952612130425771
579,4061.7799999999997,0.8895120680406472
580,4063.51,0.8949978230387173
581,4065.24,0.8899159780367876
582,4066.97,0.8882369330348576
583,4068.7000000000003,0.8903004880329277
584,4070.43,0.9024907430309979
585,4072.1600000000003,0.8955464980290679
586,4073.89,0.8810185530271382
587,4075.62,0.8911271080252082
588,4077.3500000000004,0.9177582630232783
589,4079.08,0.9477697180213485
590,4080.8100000000004,0.9760787730194186
