,lambda (Angstroms),Total Flux (erg/s/cm^2/Angstrom)
0,102.00000000000001,0.003544127489595125
1,103.9,0.004148464870225483
2,104.712855,0.0044070115411436175
3,106.08,0.004044180587022004
4,108.05,0.0035213560709118886
5,110.06,0.0029879159796459883
6,113.93,0.001960844707376929
7,117.92999999999999,0.0008992724956545265
8,120.22644299999999,0.00028981577146930637
9,120.95,0.0002809315284577499
10,124.92,0.0002321824637235876
11,126.95,0.00020725555720589755
12,128.12,0.00019288895190406634
13,131.10999999999999,0.00015617466078272015
14,132.01,0.00014512575723054226
15,133.85,0.0001225333462358675
16,136.97,8.422789777098424e-05
17,138.038426,7.110988954688979e-05
18,140.16,7.019458913636979e-05
19,143.09,6.897771088497884e-05
20,147.10000000000002,6.736271654700014e-05
21,150.88,6.577935971394293e-05
22,155.1,6.402053430190548e-05
23,158.489319,6.262642688667083e-05
24,159.07999999999998,6.224603037008664e-05
25,162.04,6.035046617474885e-05
26,165.80999999999997,5.79629452279842e-05
27,170.07000000000002,5.526132311307235e-05
28,172.82999999999998,5.354468628228444e-05
29,176.86,5.104014191160493e-05
30,180.14,4.9008111732987414e-05
31,181.81,4.8007662263996155e-05
32,181.970086,4.7910246824592056e-05
33,186.05,4.9021210094842935e-05
34,190.82,5.0400734487556894e-05
35,193.92,5.131766682244436e-05
36,197.98,5.254279928039377e-05
37,202.12,5.383574099859834e-05
38,204.93999999999997,5.4778009922592746e-05
39,208.929613,5.598474243248512e-05
40,210.19,5.773703727506956e-05
41,216.07999999999998,6.639048738938721e-05
42,220.1,7.22772179665616e-05
43,223.16,7.67284683909779e-05
44,226.79000000000002,8.222997137484436e-05
45,229.94,9.03820067823317e-05
46,234.21999999999997,0.00010387746975504466
47,239.88329199999998,0.00011786448624287812
48,240.23,0.0001178973425219583
49,245.82,0.00011329469210156577
50,252.13,0.00011095963452505832
51,256.81,0.00010297714301031109
52,259.78999999999996,0.00010585549978083534
53,264.01,0.00010518974144916152
54,268.92,0.00010267212834287755
55,273.92,0.00010004799809207925
56,275.42287,9.926782922294496e-05
57,279.01,0.00010536212117758224
58,284.2,0.00011441843849306682
59,290.15,0.0001226287082478131
60,296.21999999999997,0.00013414137470349545
61,301.03999999999996,0.00014122374885776052
62,308.05,0.00015478483280410876
63,316.227766,0.00017063260248029565
64,318.14000000000004,0.00017054406318126126
65,327.81,0.00016909660119255796
66,337.77000000000004,0.00016686282673470006
67,348.03000000000003,0.00016423919075702722
68,356.96,0.0001627168685172009
69,363.078055,0.000162310164529371
70,366.12,0.00016665150712300857
71,374.64,0.00017757011593729516
72,385.14,0.00018695929229293004
73,395.02000000000004,0.00020326043537804175
74,405.15000000000003,0.00021703016123352572
75,413.64,0.00022737162811536758
76,416.86938299999997,0.00023075087207503106
77,422.29999999999995,0.00023501122073307595
78,430.15,0.00024157494478682016
79,441.17999999999995,0.000253145671705648
80,451.46,0.0002616308753072392
81,459.84999999999997,0.00026808912814939377
82,469.47999999999996,0.0002765467915427131
83,478.630092,0.00028480058613093836
84,480.42,0.0002847901215044536
85,490.48,0.0002818947143381545
86,499.59999999999997,0.00028424656390508803
87,506.55,0.00029265729444129284
88,512.41,0.0003798297407639059
89,519.54,0.0003865168604363002
90,530.42,0.0003930149037793087
91,540.28,0.0003845249086839101
92,549.5408739999999,0.00044231022232646264
93,550.33,0.00044750831018535803
94,560.5600000000001,0.0005014511481827528
95,569.67,0.0005477480435059462
96,580.26,0.0005385181309343343
97,589.68,0.0006208983577119941
98,600.65,0.0006407313417619864
99,610.41,0.0007167608707800289
100,620.3299999999999,0.0008205019773229572
101,630.4,0.0008834056377954662
102,630.957344,0.0008847582320342783
103,640.65,0.0009120960477176132
104,649.56,0.0010273483347693932
105,658.6,0.001095085197838764
106,664.69,0.0011667833512781962
107,675.49,0.0012074758204318689
108,684.89,0.0012173839324730287
109,694.4200000000001,0.0015230304205317788
110,705.6999999999999,0.0014864113549811705
111,715.5200000000001,0.001783054374156084
112,724.43596,0.0018675950545300095
113,725.47,0.001877299054022783
114,735.56,0.00197138032058727
115,745.8,0.0022261488725813586
116,754.43,0.0023954624276310635
117,764.9300000000001,0.0025612744077031266
118,775.57,0.002819026387509484
119,784.55,0.0030620579418949244
120,795.46,0.003239106635474563
121,804.67,0.0034184827608520585
122,815.8700000000001,0.0035841507395955926
123,825.31,0.003956491435965143
124,831.763771,0.0035959262202092447
125,834.87,0.003421114556914505
126,844.54,0.004286521176172054
127,854.3199999999999,0.0044809829637975805
128,864.2099999999999,0.004856837919791083
129,874.22,0.005253459241276922
130,884.34,0.0057613937311307385
131,894.5799999999999,0.0061359405864768925
132,904.94,0.006245559807315384
133,915.42,0.010004539393646214
134,926.02,0.06777879834546938
135,934.59,0.15480726628104718
136,945.41,0.32861153356960626
137,954.16,0.5304452810534226
138,954.992586,0.5397602232952241
139,965.2099999999999,0.6540746950389634
140,974.14,0.1132024994229054
141,985.4200000000001,0.7089714996973584
142,994.53,0.7339081961069566
143,1006.05,1.038969385748951
144,1015.36,0.934592773298167
145,1024.75,0.2955897573032303
146,1034.24,0.6246481368781025
147,1043.81,1.360216712908822
148,1055.89,1.4080321777417466
149,1065.6599999999999,1.149796744912084
150,1075.52,1.3823513080952496
151,1085.47,1.098039867291243
152,1095.52,1.4541374220570455
153,1096.4782,1.4531935431572511
154,1105.66,1.4441481064864918
155,1115.8899999999999,1.4015166880258045
156,1126.21,1.329216257085991
157,1134.02,1.6353041741751435
158,1144.51,1.4914197196636467
159,1155.1,1.6091512512864543
160,1165.79,1.7123817690435659
161,1173.8700000000001,1.3261886486953396
162,1184.73,1.6695621428807683
163,1195.69,1.003707623200501
164,1203.98,0.7527084737343136
165,1215.12,0.34966082909579366
166,1226.36,0.943230370591578
167,1234.87,1.7123611906208596
168,1246.29,1.9750996071583913
169,1254.9299999999998,1.8993354091622683
170,1258.92541,1.7311923881248878
171,1263.63,1.533204901570259
172,1275.3200000000002,2.1163670168638062
173,1284.16,2.2469691040490036
174,1296.04,1.8180112212164408
175,1305.03,1.7684353098810248
176,1314.07,2.211029399038738
177,1326.23,2.1409115189676977
178,1335.43,1.886220609703423
179,1344.68,2.283482700932278
180,1354.0,2.216152792851513
181,1366.53,1.9933759164296265
182,1376.0,2.1310910098282485
183,1385.5400000000002,2.185703103917251
184,1395.15,2.0211181986966342
185,1404.82,2.0969782940677724
186,1414.55,2.063486390030665
187,1424.3600000000001,2.1310644867825634
188,1434.23,2.106676584126217
189,1440.85,2.2315166494164895
190,1445.43977,2.26013753413609
191,1447.5,2.2729847117371382
192,1454.1899999999998,2.2212147671140228
193,1464.27,2.08254285055184
194,1474.4199999999998,2.0634689345690864
195,1484.63,2.1018270190829864
196,1494.9299999999998,2.1507521043418674
197,1505.29,2.0634711900974017
198,1512.24,1.873245247626452
199,1515.72,2.002633276432365
200,1526.23,1.9301643634295336
201,1533.27,1.724219421703565
202,1543.9,1.9212875096940405
203,1554.6,1.8096785982639458
204,1565.38,1.817996687496056
205,1576.23,1.9213017773075953
206,1583.51,2.011822837568241
207,1594.48,2.0682349283730876
208,1605.53,2.0072320198401394
209,1616.66,2.0304861119693958
210,1624.13,1.9257111738027781
211,1635.3799999999999,2.0304842669253422
212,1646.72,2.0587033607928866
213,1654.32,1.8993264237023517
214,1659.58691,1.9834661581321291
215,1665.79,2.082561842273086
216,1673.48,1.8862423071295864
217,1677.34,2.0634525404645787
218,1685.08,2.165685008343553
219,1696.76,2.0539527143934784
220,1704.59,1.9706041877129057
221,1716.4099999999999,1.8775799022257578
222,1724.33,1.8689363809856387
223,1736.28,1.9797081033569233
224,1744.29,1.9390985875572573
225,1756.3899999999999,2.068229318995964
226,1764.49,1.894955808636751
227,1776.72,1.97061754793389
228,1784.92,2.002655043619625
229,1793.16,2.1163865417233394
230,1805.59,2.101832293110374
231,1813.93,1.9706247972590367
232,1826.5,2.002630557108999
233,1834.9299999999998,1.9346070666981143
234,1843.4,1.8013415787052092
235,1856.18,1.793069351249562
236,1864.75,1.8433178693016046
237,1873.35,1.9933993891671316
238,1886.34,1.8560821744058755
239,1895.05,1.7848587009208454
240,1903.79,1.8905892292492996
241,1905.46072,1.882462669710121
242,1916.99,1.8263814318813558
243,1925.8400000000001,1.8013377422888943
244,1934.73,1.8560820495796309
245,1943.66,1.9212973537535651
246,1957.1299999999999,1.813835304170463
247,1966.16,1.966083600552392
248,1975.24,2.0164758930383186
249,1984.36,1.9169191824074432
250,1993.52,1.8603364686597657
251,2002.72,1.912473751795286
252,2016.6000000000001,1.8517976702649623
253,2025.9099999999999,1.9435739448292768
254,2035.2600000000002,1.8517962162767894
255,2044.65,1.9081104846074999
256,2054.09,1.8263897490422076
257,2063.57,1.851803010360113
258,2073.1,1.9480062677820165
259,2077.88,1.8732628953241672
260,2082.67,1.9301525220871174
261,2097.1,1.834810397700765
262,2106.78,1.8603426434346604
263,2116.51,1.8689298852725529
264,2126.28,1.8993271239936438
265,2136.09,1.780729359597932
266,2145.9500000000003,1.8263745913062182
267,2155.86,1.8819158191185015
268,2165.81,1.8263720438139825
269,2175.8,1.8096582653926616
270,2185.85,1.7848304822961376
271,2187.7616199999998,1.7991330021889889
272,2195.94,1.8603238414250758
273,2206.07,1.809660470752082
274,2216.25,1.740175103185342
275,2226.48,1.6811107387248556
276,2236.76,1.7930663773706232
277,2247.09,1.7163140191226447
278,2257.46,1.6618576633596687
279,2262.66,1.692739986410057
280,2273.11,1.740063635617087
281,2283.6,1.7722432873091203
282,2294.14,1.6962579421074073
283,2304.73,1.6805726000119479
284,2315.37,1.6196742610227421
285,2326.05,1.3194779245185397
286,2336.79,1.5359075917418414
287,2347.58,1.493935262071397
288,2352.9900000000002,1.5860455981680508
289,2363.85,1.4835002728463615
290,2374.7599999999998,1.5214149506309262
291,2385.7200000000003,1.4295886315217445
292,2396.73,1.5176893155188163
293,2402.2599999999998,1.4593846590704793
294,2413.35,1.4863713480375573
295,2424.49,1.5491600401108891
296,2435.6800000000003,1.4861537352904746
297,2446.92,1.5668524335763137
298,2452.56,1.5346787839617346
299,2463.88,1.5309964872175799
300,2475.25,1.4823301935796787
301,2486.68,1.537811903669282
302,2492.41,1.4685352596459598
303,2503.91,1.5843289740843185
304,2511.88643,1.497308412327376
305,2515.4700000000003,1.458212383457129
306,2527.08,1.43149610430583
307,2532.91,1.4446279641290796
308,2544.6000000000004,1.4214256830542573
309,2556.35,1.4951364005367929
310,2562.2400000000002,1.4711772589174001
311,2574.07,1.5403979744764125
312,2585.9500000000003,1.5296436888332225
313,2597.88,1.5225104019878313
314,2603.87,1.4707512579640343
315,2615.8900000000003,1.4605229689546793
316,2627.9700000000003,1.4978426785026817
317,2634.0200000000004,1.5221315330362426
318,2646.1800000000003,1.615911240660722
319,2652.28,1.6232600939920807
320,2664.5200000000004,1.5253187996930369
321,2676.8199999999997,1.5751265039513507
322,2682.9900000000002,1.5678303555996267
323,2695.38,1.5179530576939768
324,2707.82,1.5424587585861254
325,2714.06,1.4865956085513183
326,2726.5899999999997,1.483075307279503
327,2732.87,1.5386731562829348
328,2745.49,1.3934578528471562
329,2758.16,1.4062235482091752
330,2764.52,1.4455953952890839
331,2777.2799999999997,1.4962170884871393
332,2783.68,1.4553859346052864
333,2796.5299999999997,1.2443596256393785
334,2802.98,1.3180174705553234
335,2815.92,1.4889671594254519
336,2822.4100000000003,1.5165470033796353
337,2835.44,1.4649496900858003
338,2841.97,1.434834533078222
339,2855.09,1.4150352176204235
340,2868.27,1.4883739007199825
341,2874.88,1.478094741788881
342,2884.0315,1.4803344668892657
343,2888.15,1.4813425197232768
344,2894.81,1.4710625164461126
345,2908.17,1.5438025098721015
346,2928.33,1.5015154999520373
347,2948.6299999999997,1.4806864899630836
348,2969.0699999999997,1.4907454799052404
349,2989.6499999999996,1.487129469778508
350,3010.37,1.4971834595828861
351,3031.2400000000002,1.4901004493134544
352,3052.2500000000005,1.4830164389751332
353,3073.4,1.475992428567923
354,3087.59,1.4792344215854967
355,3108.99,1.4654464110552694
356,3130.54,1.4518184004512322
357,3152.2400000000002,1.4515463897733851
358,3166.79,1.444732382613815
359,3188.74,1.395467371812951
360,3210.85,1.4212023609333566
361,3233.1,1.3822713499848729
362,3248.03,1.4175813426383173
363,3270.54,1.437054331561896
364,3293.2099999999996,1.4301873204067443
365,3308.41,1.4234813129273305
366,3311.31121,1.4215903001618244
367,3323.68,1.413528195153714
368,3331.3500000000004,1.4167091230064761
369,3339.02,1.3559830508592385
370,3346.7200000000003,1.410062978429808
371,3354.44,1.3652269058122493
372,3362.17,1.3464048331006262
373,3369.92,1.334025760200875
374,3377.69,1.330886687112995
375,3385.48,1.3618176138369869
376,3393.28,1.4030875404669145
377,3401.1000000000004,1.4522974669087136
378,3408.9399999999996,1.3553343931623847
379,3416.7999999999997,1.377233319227927
380,3424.68,1.4124902451053412
381,3432.5699999999997,1.4453211708886908
382,3440.48,1.3994100964839125
383,3448.4199999999996,1.3425110217969414
384,3456.3700000000003,1.3362329470159062
385,3464.33,1.2997918721408066
386,3472.3199999999997,1.3672267969835146
387,3480.32,1.3146617217321583
388,3488.35,1.3576506461986093
389,3496.39,1.3389405705709962
390,3504.4500000000003,1.3388874947552547
391,3512.5299999999997,1.323475418751385
392,3520.62,1.357331342653451
393,3528.7400000000002,1.3021682662733243
394,3536.87,1.3603061897991335
395,3545.03,1.3823181130427504
396,3553.2000000000003,1.3886450361923026
397,3561.39,1.3790179591537266
398,3569.6,1.3108208819270222
399,3577.8300000000004,1.2779388045121896
400,3586.08,1.2430547269092282
401,3594.3399999999997,1.283675649212203
402,3602.63,1.3472135712329851
403,3610.94,1.3014044930656388
404,3616.7700000000004,1.3924844382262127
405,3619.48,1.302813412734816
406,3622.18,1.3706333873374832
407,3624.8799999999997,1.4364533619401505
408,3627.59,1.3676033364487534
409,3630.29,1.2280753110514206
410,3632.99,1.307794285654088
411,3635.7,1.239322260162691
412,3638.4,1.2181252347653584
413,3641.11,1.3848532092739614
414,3643.81,1.4143851838766288
415,3646.51,1.3239631584792961
416,3649.2200000000003,1.347322132987899
417,3651.92,1.3428361075905664
418,3654.62,1.3225040821932335
419,3657.33,1.2885360567018367
420,3660.03,1.2917830313045038
421,3662.73,1.3615510059071712
422,3665.4399999999996,1.254681980415774
423,3668.14,1.2765329550184414
424,3670.85,1.4167619295270444
425,3673.5499999999997,1.3236899041297117
426,3676.25,1.2508988787323791
427,3678.96,1.186753853240982
428,3681.66,1.2382418278436493
429,3684.3599999999997,1.2845928024463165
430,3687.07,1.3159007769549198
431,3689.77,1.3212037515575867
432,3692.47,1.2428957261602542
433,3695.1800000000003,1.2991367006688572
434,3697.88,1.2504116752715244
435,3700.59,1.2923206497801274
436,3703.2900000000004,1.2398636243827947
437,3705.9900000000002,1.269286598985462
438,3708.7,1.2353195734940652
439,3711.4,1.3580865480967323
440,3714.1000000000004,1.4147125226993997
441,3716.81,1.4632724972080027
442,3719.5099999999998,1.61784047181067
443,3722.21,2.1761284464133372
444,3724.92,3.3421164209219403
445,3727.62,4.367833395524608
446,3730.33,4.507781370033211
447,3733.0299999999997,3.5410303446358777
448,3735.73,2.4047283192385454
449,3738.44,1.7404932937471482
450,3741.14,1.5572142683498156
451,3743.84,1.4753922429524828
452,3746.55,1.423685217461086
453,3749.25,1.429042192063753
454,3751.9599999999996,1.3566761665723561
455,3754.6600000000003,1.4153031411750234
456,3757.36,1.5175741157776905
457,3760.0699999999997,1.5622400902862938
458,3762.7699999999995,1.579657064888961
459,3765.4700000000003,1.6152460394916281
460,3768.18,1.4738180140002313
461,3770.8799999999997,1.3499739886028985
462,3773.5800000000004,1.3768549632055658
463,3776.29,1.596258937714169
464,3778.99,1.7165939123168361
465,3781.7000000000003,1.8021438868254391
466,3784.4,1.8096648614281066
467,3787.1,1.812155836030774
468,3789.81,1.778457810539377
469,3792.51,1.6703517851420442
470,3795.21,1.6058897597447113
471,3797.92,1.3787967342533145
472,3800.62,1.4819327088559815
473,3801.8939600000003,1.5288611367392575
474,3803.32,1.5813916862536008
475,3806.03,1.6725676660736402
476,3808.73,1.8387096459681442
477,3811.44,1.9177166257881832
478,3814.14,1.8649366056826873
479,3816.84,1.9285935855771912
480,3819.5499999999997,1.9285875653972304
481,3822.25,1.8784035452917345
482,3824.95,1.7699735251862383
483,3827.66,1.6215685050062776
484,3830.3599999999997,1.6151354849007815
485,3833.07,1.5131864647208209
486,3835.77,1.4435334446153247
487,3838.47,1.4562994245098286
488,3841.1800000000003,1.512322404329868
489,3843.88,1.7094523842243716
490,3846.58,1.7632123641188757
491,3849.2900000000004,1.903710343938915
492,3851.9900000000002,1.8620173238334188
493,3854.69,1.938708303727923
494,3857.4,2.046161283547962
495,3860.1000000000004,2.0843472634424662
496,3862.81,2.112841243262505
497,3865.5099999999998,2.208461223157009
498,3868.21,2.274553203051513
499,3870.92,2.3569651828715523
500,3873.62,2.220522162766056
501,3876.3199999999997,2.1184741426605602
502,3879.03,1.9291281224805996
503,3881.73,1.8304871023751033
504,3884.43,1.7253020822696075
505,3887.14,1.6045870620896465
506,3889.84,1.5685180419841505
507,3892.55,1.5629960218041896
508,3895.25,1.6036140016986937
509,3897.95,1.6307659815931976
510,3900.6600000000003,1.7779159614132367
511,3903.36,1.9397309413077408
512,3906.06,1.9443859212022447
513,3908.7699999999995,2.0111159010222837
514,3911.4700000000003,2.121391880916788
515,3914.17,2.143947860811292
516,3916.8799999999997,2.047513840631331
517,3919.58,2.049031820525835
518,3922.29,1.939618800345874
519,3924.99,2.001058780240378
520,3927.6899999999996,2.001657760134882
521,3930.4,1.9180957399549212
522,3933.1,1.8223207198494253
523,3935.7999999999997,1.7936606997439293
524,3938.51,1.8753176795639683
525,3941.21,2.035726659458472
526,3943.92,2.0300416392785112
527,3946.6200000000003,2.0957546191730154
528,3949.32,2.0955955990675195
529,3952.03,2.0904515788875586
530,3954.73,2.0604405587820627
531,3957.4300000000003,2.0772635386765663
532,3960.14,1.9506525184966057
533,3962.84,1.8696954983911096
534,3965.54,1.6795484782856138
535,3968.25,1.6546114581056528
536,3970.95,1.601939438000157
537,3973.66,1.644604417820196
538,3976.3599999999997,1.7095043977147
539,3979.06,1.7463913776092042
540,3981.77,1.9321553574292432
541,3984.47,2.033778337323747
542,3987.17,2.060065317218251
543,3989.88,2.11084129703829
544,3992.58,2.2177102769327943
545,3995.2799999999997,2.2649812568272982
546,3997.9900000000002,2.2723832366473373
547,4000.69,2.2666012165418414
548,4003.3999999999996,2.1916371963618806
549,4006.1000000000004,2.2525361762563847
550,4008.8,2.2336661561508886
551,4011.5099999999998,2.219490135970928
552,4014.2099999999996,2.1958061158654316
553,4016.9100000000003,2.2741750957599356
554,4019.62,2.2035370755799746
555,4022.3199999999997,2.128692055474479
556,4025.03,2.278923035294518
557,4027.73,2.216463015189022
558,4030.43,2.196673995083526
559,4033.14,2.217757974903565
560,4035.84,2.195642954798069
561,4038.54,2.136048934692573
562,4041.25,2.258374914512612
563,4043.95,2.203809894407116
564,4046.65,2.1772058743016203
565,4049.36,2.1270658541216596
566,4052.06,2.077422834016163
567,4054.77,2.107917813836202
568,4057.4700000000003,2.063358793730706
569,4060.17,2.1462697736252103
570,4062.8799999999997,2.0658437534452494
571,4065.58,2.0677407333397535
572,4068.28,2.1146867132342577
573,4070.99,2.0724426930542963
574,4073.6899999999996,2.0598996729488004
575,4076.39,2.0683396528433047
576,4079.1,2.085314632663344
577,4081.7999999999997,2.0424316125578477
578,4084.51,2.085852592377887
579,4087.21,2.025447572272391
580,4089.91,1.935621552166895
581,4092.6200000000003,1.949352531986934
582,4095.32,1.850008511881438
583,4098.02,1.782788491775942
