,lambda (Angstroms),Total Flux (erg/s/cm^2/Angstrom)
0,100.09,2.374345e-05
1,101.94999999999999,2.962217e-05
2,104.09,3.384603e-05
3,104.712855,3.575838848367876e-05
4,106.02000000000001,3.977173e-05
5,107.99,4.759634e-05
6,110.0,6.645654e-05
7,114.13,8.621366e-05
8,117.87,0.0001063076
9,120.22644299999999,0.00028386994961317706
10,120.89000000000001,0.0003338702
11,125.14000000000001,0.0003958594
12,126.88,0.0004222091
13,128.06,0.000441051
14,131.04,0.0004781398
15,131.95,0.0005489588
16,134.09,0.0005762104
17,136.9,0.000695872
18,138.038426,0.0007142610415715358
19,140.09,0.0007474002
20,143.02,0.00169652
21,147.03,0.003503738
22,151.15,0.003719683
23,155.02,0.003986588
24,158.489319,0.004252106838029396
25,159.0,0.004291191
26,161.95999999999998,0.004503392
27,166.11,0.004847967
28,169.98,0.005135229
29,173.14,0.005376946
30,177.17,0.005670083
31,180.05,0.005895733
32,181.970086,0.006047339866975119
33,182.14000000000001,0.006060756
34,185.95000000000002,0.00636177
35,191.16,0.006753813
36,193.82,0.007023254
37,197.88,0.007320928
38,202.02,0.007666014
39,204.83,0.007916963
40,208.929613,0.007973915665541636
41,210.09,0.007990036
42,215.97000000000003,0.008781203
43,219.99,0.009152549
44,223.04999999999998,0.00930152
45,227.19,0.00969572
46,229.83,0.01457289
47,234.1,0.02429557
48,239.88329199999998,0.03022711669041999
49,240.1,0.03044938
50,246.26,0.02874456
51,252.0,0.03030669
52,257.27,0.02486365
53,260.25,0.02914578
54,263.87,0.03058923
55,268.78,0.03030881
56,273.78,0.03002855
57,275.42287,0.02989561954626719
58,278.87,0.0296167
59,284.05,0.02955027
60,290.0,0.02796056
61,296.07,0.02802544
62,300.88,0.02701197
63,307.89,0.0271363
64,316.227766,0.027239947769016847
65,317.98,0.02726173
66,327.64,0.02670268
67,338.37,0.02591598
68,347.85,0.02503682
69,356.78000000000003,0.02457774
70,363.078055,0.024461690593114753
71,365.93,0.02440914
72,375.32000000000005,0.02368867
73,384.94,0.02216004
74,394.82000000000005,0.02236383
75,404.95000000000005,0.02205707
76,414.38000000000005,0.02140688
77,416.86938299999997,0.0211566226503065
78,422.08000000000004,0.0206328
79,429.93,0.02002368
80,440.96000000000004,0.0196135
81,451.23,0.01890392
82,459.62,0.01822022
83,470.32,0.01764247
84,478.630092,0.01733721543274721
85,480.16999999999996,0.01728065
86,490.22999999999996,0.01646418
87,500.49,0.01623903
88,506.29,0.0157599
89,512.15,0.01635146
90,520.47,0.01586937
91,530.15,0.01518931
92,540.0,0.01430751
93,549.5408739999999,0.013785631794490041
94,550.04,0.01375833
95,560.27,0.01385353
96,569.37,0.01372662
97,579.96,0.0131691
98,589.38,0.01289937
99,600.3399999999999,0.0121496
100,610.09,0.01065513
101,620.01,0.01184507
102,630.0799999999999,0.01133839
103,630.957344,0.01133172852578125
104,640.32,0.01126064
105,650.72,0.01085322
106,658.26,0.01043678
107,664.3499999999999,0.01048442
108,675.1500000000001,0.01029291
109,684.54,0.009650648
110,695.6600000000001,0.009717387
111,705.34,0.009048072
112,716.8,0.00923742
113,724.43596,0.009076449827374123
114,726.7700000000001,0.009027247
115,735.19,0.008842
116,745.41,0.008522211
117,755.7800000000001,0.008290125
118,764.53,0.007456726
119,775.1700000000001,0.007880677
120,784.15,0.007474157
121,795.06,0.007439707
122,804.26,0.007337753
123,815.45,0.007170383
124,824.8900000000001,0.007023645
125,831.763771,0.006568080248783878
126,834.44,0.006390711
127,844.11,0.006661275
128,855.8499999999999,0.00646459
129,865.76,0.006375867
130,875.7800000000001,0.00625988
131,885.9300000000001,0.00610312
132,894.12,0.005978143
133,904.48,0.005814833
134,914.95,0.006245492
135,925.54,0.009921202
136,934.1099999999999,0.01369463
137,944.9200000000001,0.01704323
138,954.992586,0.01891577433029771
139,955.87,0.01907889
140,964.71,0.02025597
141,975.88,0.01110613
142,984.91,0.01760177
143,994.0200000000001,0.01700414
144,1005.5400000000001,0.01970375
145,1014.84,0.01961354
146,1024.23,0.01275153
147,1036.0900000000001,0.01724079
148,1045.6799999999998,0.02221021
149,1055.3500000000001,0.02150618
150,1065.12,0.018774
151,1074.97,0.02016305
152,1084.92,0.01688698
153,1094.96,0.02030248
154,1096.4782,0.02017225051253702
155,1105.09,0.01943354
156,1115.31,0.01890431
157,1125.6299999999999,0.01708259
158,1136.05,0.0193891
159,1143.9199999999998,0.01838903
160,1154.51,0.01847355
161,1165.19,0.01826234
162,1175.97,0.01385345
163,1184.1200000000001,0.01740026
164,1195.08,0.01498148
165,1206.14,0.01286921
166,1214.5,0.009474541
167,1225.74,0.01443942
168,1234.23,0.01684821
169,1245.6499999999999,0.01728045
170,1254.2900000000002,0.01677091
171,1258.92541,0.016425164358603455
172,1265.89,0.01590569
173,1274.67,0.01748028
174,1286.46,0.01764245
175,1295.3799999999999,0.01529527
176,1304.36,0.01526001
177,1316.43,0.01704314
178,1325.55,0.01635142
179,1334.74,0.01515509
180,1343.99,0.01642705
181,1356.43,0.01597919
182,1365.8300000000002,0.01484418
183,1375.3000000000002,0.01487859
184,1384.83,0.01477602
185,1394.43,0.01220553
186,1404.1000000000001,0.01212134
187,1413.8300000000002,0.01375818
188,1423.6299999999999,0.01350672
189,1433.5,0.01369483
190,1443.43,0.01388538
191,1445.43977,0.01388538
192,1446.76,0.01388538
193,1453.44,0.01347566
194,1463.5200000000002,0.01275132
195,1473.66,0.01272204
196,1483.87,0.01275145
197,1494.1599999999999,0.01260544
198,1504.52,0.01203786
199,1511.46,0.01110611
200,1518.44,0.01147
201,1525.4499999999998,0.01131254
202,1536.02,0.01005882
203,1546.67,0.009762445
204,1553.81,0.009518298
205,1564.5800000000002,0.0100359
206,1575.4199999999998,0.01048452
207,1586.34,0.01067963
208,1593.67,0.01072905
209,1604.71,0.01043673
210,1615.8400000000001,0.01031684
211,1623.29,0.009989786
212,1634.55,0.01036465
213,1645.88,0.01036467
214,1653.47,0.009943972
215,1659.58691,0.010181217368497381
216,1664.93,0.01038845
217,1672.62,0.009539923
218,1676.48,0.01092808
219,1684.2099999999998,0.01100431
220,1695.8899999999999,0.01038838
221,1703.72,0.01017538
222,1715.5300000000002,0.01003594
223,1723.44,0.01003597
224,1735.39,0.01067955
225,1743.3999999999999,0.01041256
226,1755.49,0.01110602
227,1763.59,0.01015208
228,1775.81,0.01046046
229,1784.01,0.01065499
230,1796.3799999999999,0.01168289
231,1804.6699999999998,0.01131256
232,1813.0,0.01077854
233,1825.56,0.01087837
234,1833.99,0.01050871
235,1846.7,0.009387447
236,1855.23,0.01005884
237,1863.79,0.01090319
238,1876.71,0.01108027
239,1885.3700000000001,0.01063057
240,1894.08,0.01095346
241,1902.8200000000002,0.01108031
242,1905.46072,0.011075234772403336
243,1916.01,0.01105496
244,1924.85,0.01026944
245,1933.74,0.008944583
246,1947.1399999999999,0.01170993
247,1956.13,0.0114434
248,1965.1599999999999,0.01286917
249,1974.2299999999998,0.01246116
250,1983.3400000000001,0.0128103
251,1997.09,0.01275139
252,2006.31,0.01240388
253,2015.57,0.01243244
254,2024.87,0.01160243
255,2034.22,0.01292853
256,2043.61,0.01394945
257,2053.04,0.0131084
258,2067.27,0.01281037
259,2072.04,0.01453948
260,2076.81,0.02034969
261,2086.4,0.02331076
262,2096.03,0.02165477
263,2105.7000000000003,0.02068042
264,2115.42,0.02262312
265,2125.19,0.02082339
266,2135.0,0.01929986
267,2144.85,0.02363499
268,2154.75,0.023635
269,2164.7,0.02096778
270,2174.69,0.021162
271,2184.73,0.02538344
272,2187.7616199999998,0.025454216898273804
273,2194.81,0.02561877
274,2204.94,0.02474902
275,2215.12,0.01988637
276,2225.34,0.02231274
277,2235.62,0.02881065
278,2245.94,0.02732451
279,2256.3,0.02150587
280,2266.7200000000003,0.02034947
281,2277.18,0.02236424
282,2282.43,0.02887711
283,2292.96,0.0241823
284,2303.55,0.02886712
285,2314.1800000000003,0.02490671
286,2324.86,0.0196439
287,2335.5899999999997,0.01824457
288,2346.3700000000003,0.01315346
289,2357.2000000000003,0.02311782
290,2362.64,0.01435144
291,2373.54,0.01818899
292,2384.5,0.0116065
293,2395.5099999999998,0.0142108
294,2406.56,0.01420757
295,2417.67,0.01638405
296,2423.25,0.02681449
297,2434.43,0.02693232
298,2445.67,0.03192868
299,2456.95,0.03373524
300,2462.62,0.02931128
301,2473.9900000000002,0.02587823
302,2485.4100000000003,0.01717285
303,2496.88,0.02003269
304,2502.63,0.03073898
305,2511.88643,0.01782227251839107
306,2514.19,0.0146078
307,2519.98,0.01173658
308,2525.79,0.01289699
309,2537.45,0.02010868
310,2543.3,0.02139638
311,2555.04,0.03812762
312,2566.83,0.02838808
313,2572.7499999999995,0.03639821
314,2584.6200000000003,0.03228371
315,2596.55,0.02896547
316,2602.54,0.02505098
317,2614.5499999999997,0.02252823
318,2626.62,0.03108967
319,2632.68,0.05365114
320,2644.8300000000004,0.07268913
321,2657.04,0.1012386
322,2663.16,0.06372255
323,2675.45,0.07281267
324,2687.8,0.08435153
325,2693.9999999999995,0.06109718
326,2706.4300000000003,0.07601808
327,2712.6699999999996,0.05468601
328,2725.19,0.04352702
329,2737.77,0.05554466
330,2744.08,0.03087468
331,2756.75,0.04231261
332,2763.1,0.05577355
333,2775.86,0.05988677
334,2782.2599999999998,0.03558495
335,2795.1,0.01556546
336,2808.0,0.01901289
337,2814.4700000000003,0.05284181
338,2827.4700000000003,0.07778001
339,2833.98,0.0732541
340,2847.06,0.05305458
341,2853.6299999999997,0.03116359
342,2866.7999999999997,0.07353995
343,2873.4100000000003,0.09988106
344,2884.0315,0.09231834373529416
345,2886.67,0.09043968
346,2893.33,0.1109949
347,2906.68,0.1510708
348,2926.8300000000004,0.1312228
349,2947.12,0.1210126
350,2967.54,0.1269585
351,2988.11,0.1292653
352,3008.83,0.1298078
353,3029.6800000000003,0.1387099
354,3050.68,0.1451872
355,3071.83,0.158399
356,3093.12,0.1547272
357,3107.4,0.1796531
358,3128.94,0.1656729
359,3150.6299999999997,0.1659795
360,3172.47,0.1831735
361,3187.11,0.1580306
362,3209.2,0.1756088
363,3231.4500000000003,0.147689
364,3246.3599999999997,0.208076
365,3268.87,0.2437925
366,3291.5299999999997,0.2386845
367,3306.7200000000003,0.223712
368,3311.31121,0.21978131047405008
369,3321.98,0.2106474
370,3329.64,0.2363145
371,3337.3199999999997,0.2189886
372,3345.0099999999998,0.2235402
373,3352.7200000000003,0.2033685
374,3360.45,0.2313211
375,3368.2000000000003,0.2286379
376,3375.96,0.1799224
377,3383.7400000000002,0.1832389
378,3391.54,0.2322456
379,3399.36,0.2398133
380,3407.2000000000003,0.2305727
381,3415.05,0.2196555
382,3422.92,0.2586238
383,3430.82,0.2402142
384,3438.7200000000003,0.2452072
385,3446.65,0.1619806
386,3454.6,0.2395473
387,3462.56,0.1960288
388,3470.54,0.2255513
389,3478.54,0.1774939
390,3486.5600000000004,0.2163271
391,3494.6,0.1936569
392,3502.65,0.2482952
393,3510.73,0.2476806
394,3518.8199999999997,0.2166823
395,3526.93,0.1966752
396,3535.06,0.2452891
397,3543.21,0.2764472
398,3551.38,0.2694879
399,3559.57,0.2526195
400,3567.77,0.2314156
401,3575.9999999999995,0.1992139
402,3584.2400000000002,0.1531977
403,3592.5,0.1928322
404,3600.79,0.2799627
405,3609.0899999999997,0.2223453
406,3610.5,0.2305356
407,3613.23,0.2165273
408,3615.9599999999996,0.2213282
409,3618.7000000000003,0.2445813
410,3621.43,0.2239448
411,3624.17,0.2545335
412,3626.9,0.2491815
413,3629.6299999999997,0.2522119
414,3632.37,0.2605525
415,3635.1,0.2761483
416,3637.8300000000004,0.2714547
417,3640.57,0.2698386
418,3643.2999999999997,0.2486747
419,3646.03,0.2802216
420,3648.77,0.2885334
421,3651.4999999999995,0.2988055
422,3654.23,0.3027029
423,3656.97,0.3234451
424,3659.7000000000003,0.3288636
425,3662.44,0.3301096
426,3665.1699999999996,0.3270149
427,3667.9,0.3133789
428,3670.64,0.311918
429,3673.3700000000003,0.3076292
430,3676.1,0.2820124
431,3678.8399999999997,0.2777303
432,3681.57,0.266155
433,3684.2999999999997,0.2754375
434,3687.04,0.2917024
435,3689.77,0.3077236
436,3692.5,0.3160861
437,3695.2400000000002,0.3261684
438,3697.97,0.3073148
439,3700.71,0.294597
440,3703.44,0.2752118
441,3706.1699999999996,0.2877042
442,3708.9100000000003,0.2996838
443,3711.64,0.2947654
444,3714.3700000000003,0.3030052
445,3717.11,0.2767653
446,3719.8399999999997,0.2740181
447,3722.57,0.2703303
448,3725.31,0.2601193
449,3728.0400000000004,0.2529477
450,3730.77,0.2468229
451,3733.5099999999998,0.2273954
452,3736.2400000000002,0.2366165
453,3738.97,0.2546248
454,3741.7099999999996,0.2351482
455,3744.44,0.2322004
456,3747.18,0.2454356
457,3749.9100000000003,0.269426
458,3752.64,0.2750203
459,3755.3799999999997,0.302951
460,3758.11,0.3037898
461,3760.8399999999997,0.2875735
462,3763.5800000000004,0.2813818
463,3766.31,0.3055114
464,3769.04,0.3012717
465,3771.78,0.3281024
466,3774.5099999999998,0.3267987
467,3777.2400000000002,0.3410535
468,3779.98,0.3600619
469,3782.71,0.3289578
470,3785.4500000000003,0.3149111
471,3788.18,0.3137545
472,3790.9100000000003,0.2867352
473,3793.65,0.2679455
474,3796.3799999999997,0.2838766
475,3799.11,0.3018481
476,3801.85,0.292193
477,3801.8939600000003,0.2925403306974392
478,3804.5800000000004,0.3137629
479,3807.31,0.3172146
480,3810.0499999999997,0.2944339
481,3812.78,0.2629821
482,3815.5099999999998,0.2529155
483,3818.2500000000005,0.2296812
484,3820.98,0.2196105
485,3823.72,0.2043866
486,3826.4500000000003,0.2078748
487,3829.18,0.1933798
488,3831.9199999999996,0.1772441
489,3834.65,0.1978815
490,3837.38,0.2229432
491,3840.1200000000003,0.2455053
492,3842.85,0.2467283
493,3845.58,0.2736752
494,3848.32,0.2796687
495,3851.0499999999997,0.2499465
496,3853.78,0.255189
497,3856.52,0.2484495
498,3859.25,0.2677908
499,3861.9900000000002,0.2691598
500,3864.72,0.2743614
501,3867.4500000000003,0.2710458
502,3870.19,0.2734655
503,3872.92,0.2744801
504,3875.65,0.2792851
505,3878.39,0.2576741
506,3881.1200000000003,0.2682527
507,3883.85,0.2851284
508,3886.5899999999997,0.2925734
509,3889.32,0.3162818
510,3892.05,0.318147
511,3894.7900000000004,0.3376135
512,3897.52,0.3323598
513,3900.2599999999998,0.3326858
514,3902.9900000000002,0.3444463
515,3905.72,0.3562313
516,3908.4600000000005,0.3575713
517,3911.19,0.3608718
518,3913.92,0.3424516
519,3916.6600000000003,0.3275626
520,3919.39,0.305679
521,3922.12,0.2631746
522,3924.86,0.2301472
523,3927.59,0.1813826
524,3930.3199999999997,0.1697416
525,3933.06,0.1716179
526,3935.79,0.2070287
527,3938.53,0.2485432
528,3941.2599999999998,0.2873193
529,3943.99,0.3080796
530,3946.73,0.341698
531,3949.46,0.3509192
532,3952.19,0.3513819
533,3954.93,0.322758
534,3957.66,0.2817013
535,3960.39,0.2309127
536,3963.13,0.2060469
537,3965.86,0.1999506
538,3968.59,0.2230987
539,3971.33,0.2766511
540,3974.06,0.3408934
541,3976.7999999999997,0.3823666
542,3979.53,0.4073304
543,3982.26,0.4373974
544,3985.0,0.4424663
545,3987.73,0.4477828
546,3990.46,0.4697005
547,3993.2000000000003,0.4649967
548,3995.93,0.4744839
549,3998.66,0.4758341
550,4001.4,0.5020429
551,4004.13,0.4837661
552,4006.8599999999997,0.5029032
553,4009.6,0.5075631
554,4012.33,0.5151285
555,4015.07,0.5173758
556,4017.8,0.5141873
557,4020.5299999999997,0.5151287
558,4023.27,0.4981579
559,4026.0,0.4937836
560,4028.73,0.4786962
561,4031.47,0.4842556
562,4034.2,0.5054782
563,4036.9300000000003,0.5031484
564,4039.67,0.4883039
565,4042.4,0.4688822
566,4045.13,0.472236
567,4047.87,0.50053
568,4050.6,0.4905947
569,4053.34,0.4805752
570,4056.07,0.4785725
571,4058.8,0.469414
572,4061.54,0.4707619
573,4064.27,0.4763238
574,4067.0,0.4788597
575,4069.7400000000002,0.4731337
576,4072.4700000000003,0.4926798
577,4075.2,0.5190546
578,4077.94,0.5115293
579,4080.67,0.5259234
580,4083.3999999999996,0.5397859
581,4086.14,0.5406429
582,4088.87,0.5307076
583,4091.61,0.5090753
584,4094.34,0.4791041
585,4097.07,0.4661429
586,4099.8099999999995,0.4687583
587,4102.54,0.4854013
588,4105.2699999999995,0.498773
589,4108.01,0.5128376
590,4110.74,0.5131655
591,4113.47,0.5164784
592,4116.21,0.5082171
593,4118.94,0.5111212
594,4121.67,0.5163151
595,4124.41,0.4914526
596,4127.14,0.4842159
597,4129.88,0.4903888
598,4132.61,0.5055597
599,4135.34,0.4898589
600,4138.08,0.4895712
601,4140.8099999999995,0.478818
602,4143.54,0.4778375
603,4146.28,0.4801668
604,4149.01,0.4694954
605,4151.74,0.4798412
606,4154.48,0.4880995
607,4157.21,0.4924755
608,4159.94,0.5072784
609,4162.68,0.5004483
610,4165.41,0.4867102
611,4168.15,0.4771815
612,4170.88,0.4590273
613,4173.61,0.4640984
614,4176.349999999999,0.4756687
615,4179.08,0.4919436
616,4181.81,0.4949702
617,4184.55,0.489326
618,4187.28,0.4903491
619,4190.01,0.4959927
620,4192.75,0.4827429
621,4195.48,0.4777552
622,4198.21,0.4851571
623,4200.95,0.4887538
624,4203.68,0.5028616
625,4206.42,0.5235094
626,4209.15,0.5401932
627,4211.88,0.5266188
628,4214.62,0.5252677
629,4217.35,0.5156596
630,4220.08,0.4721538
631,4222.82,0.4661007
632,4225.55,0.4762012
633,4228.28,0.4989777
634,4231.0199999999995,0.5170084
635,4233.75,0.5265366
636,4236.4800000000005,0.5255561
637,4239.22,0.5508243
638,4241.95,0.5419113
639,4244.69,0.5267805
640,4247.42,0.5151688
641,4250.15,0.5061739
642,4252.889999999999,0.5161085
643,4255.62,0.5191352
644,4258.35,0.5406031
645,4261.09,0.5438319
646,4263.82,0.5222839
647,4266.55,0.5041297
648,4269.29,0.4963591
649,4272.02,0.5002854
650,4274.75,0.5231846
651,4277.49,0.518685
652,4280.22,0.5195446
653,4282.96,0.5091162
654,4285.69,0.4983631
655,4288.42,0.4966466
656,4291.16,0.4834377
657,4293.89,0.448028
658,4296.62,0.4152761
659,4299.36,0.3967642
660,4302.09,0.390844
661,4304.82,0.4025391
662,4307.5599999999995,0.4400951
663,4310.29,0.511571
664,4313.02,0.5624387
665,4315.76,0.5801014
666,4318.49,0.5668131
667,4321.23,0.55066
668,4323.96,0.5619465
669,4326.6900000000005,0.5833736
670,4329.43,0.5847212
671,4332.16,0.5677939
672,4334.89,0.5579813
673,4337.63,0.5417056
674,4340.36,0.5644412
675,4343.09,0.5902026
676,4345.83,0.5862754
677,4348.56,0.5808381
678,4351.29,0.5825155
679,4354.03,0.5867664
680,4356.76,0.603573
681,4359.5,0.6228302
682,4362.2300000000005,0.6201734
683,4364.96,0.6054132
684,4365.15832,0.6038948070715364
685,4367.7,0.584435
686,4370.43,0.5657493
687,4373.16,0.5629289
688,4375.9,0.5391296
689,4378.63,0.5217114
690,4381.360000000001,0.5242883
691,4384.1,0.5199525
692,4386.83,0.5420338
693,4389.56,0.5630928
694,4392.3,0.5844357
695,4395.03,0.5889754
696,4397.7699999999995,0.5767885
697,4400.5,0.5766258
698,4403.2300000000005,0.5748277
699,4405.97,0.5931445
700,4408.7,0.6075795
701,4411.43,0.6258173
702,4414.17,0.6335436
703,4416.900000000001,0.6451573
704,4419.63,0.6346089
705,4422.37,0.6360381
706,4425.1,0.6288016
707,4427.83,0.6289662
708,4430.57,0.6274106
709,4433.3,0.6356305
710,4436.04,0.6503897
711,4438.77,0.6545615
712,4441.5,0.6686286
713,4444.24,0.6725112
714,4446.97,0.6636392
715,4449.7,0.64111
716,4452.44,0.6260609
717,4455.17,0.6116278
718,4457.900000000001,0.6223419
719,4460.64,0.634198
720,4463.37,0.6540306
721,4466.1,0.6768072
722,4468.84,0.6919345
723,4471.570000000001,0.7053474
724,4474.31,0.6983532
725,4477.04,0.6993765
726,4479.77,0.7062063
727,4482.51,0.706327
728,4485.24,0.6927935
729,4487.97,0.708946
730,4490.71,0.6889082
731,4493.4400000000005,0.6894817
732,4496.17,0.699051
733,4498.91,0.7301659
734,4501.64,0.7459096
735,4504.37,0.7595272
736,4507.11,0.7544138
737,4509.84,0.7229299
738,4512.58,0.7082485
739,4515.31,0.7134017
740,4518.04,0.7015449
741,4520.78,0.6947552
742,4523.51,0.6649069
743,4526.240000000001,0.6575477
744,4528.9800000000005,0.6501857
745,4531.71,0.6608998
746,4534.4400000000005,0.6924269
747,4537.18,0.7001121
748,4539.91,0.6941433
749,4542.64,0.6951667
750,4545.38,0.6939381
751,4548.110000000001,0.6965561
752,4550.85,0.7030146
753,4553.58,0.721825
754,4556.31,0.7323347
755,4559.05,0.7510193
756,4561.78,0.7385491
757,4564.51,0.7386729
758,4567.25,0.7402246
759,4569.9800000000005,0.7411253
760,4572.71,0.7367513
761,4575.45,0.7146279
762,4578.18,0.7179001
763,4580.91,0.7210907
764,4583.650000000001,0.7157731
765,4586.38,0.7360146
766,4589.12,0.7192068
767,4591.85,0.718104
768,4594.58,0.7170828
769,4597.32,0.7331506
770,4600.05,0.7362594
771,4602.780000000001,0.7543746
772,4605.52,0.7560898
773,4608.25,0.7830782
774,4610.9800000000005,0.7771913
775,4613.72,0.7926862
776,4616.450000000001,0.7916242
777,4619.18,0.7924433
778,4621.92,0.7905602
779,4624.650000000001,0.769585
780,4627.38,0.7558882
781,4630.12,0.7570717
782,4632.85,0.745542
783,4635.59,0.7235414
784,4638.320000000001,0.7165914
785,4641.05,0.7247704
786,4643.79,0.711193
787,4646.52,0.7154057
788,4649.25,0.7226852
789,4651.99,0.7417785
