,lambda (Angstroms),Total Flux (erg/s/cm^2/Angstrom)
0,100.02000000000001,40.45507426815645
1,102.11,40.32864327711169
2,104.01,40.21370244693371
3,104.712855,40.17118508482935
4,105.95,39.77802219937066
5,107.91,39.1551422941484
6,109.92,38.51640719443015
7,114.05,37.20392259082252
8,118.05,35.93275376144443
9,120.22644299999999,35.24158085074129
10,121.08000000000001,35.014354954732674
11,125.05000000000001,33.95676028912801
12,127.08000000000001,33.415956387773484
13,127.96,33.181544897752815
14,130.94,32.38765306129641
15,131.85,32.145412261240935
16,133.98999999999998,31.575303650758826
17,137.10999999999999,30.74438442614004
18,138.038426,30.49706411875484
19,139.98,30.12740568509382
20,142.92,29.570489568232123
21,146.92000000000002,28.814279689665177
22,151.04,28.030403182471225
23,154.91,27.294314027000212
24,158.489319,26.613619587535272
25,158.88,26.55747591991631
26,161.84,26.132032594974163
27,165.98999999999998,25.53572209517353
28,169.86,24.979555336516064
29,173.01,24.52688108365534
30,177.04000000000002,23.94771827148749
31,179.92000000000002,23.53388438830054
32,181.970086,23.239294318121754
33,182.0,23.236017000656144
34,185.82000000000002,22.81755599908368
35,191.02,22.24778560406357
36,194.11999999999998,21.908286864724662
37,198.19,21.462336762237765
38,201.87,21.059404736377378
39,205.14999999999998,20.700035043980083
40,208.929613,20.285154470055055
41,209.93,20.202617157756922
42,215.81,19.71997800948466
43,219.82999999999998,19.389356007706684
44,222.89,19.13731893605479
45,227.03,18.796884776761047
46,230.19000000000003,18.55325845884602
47,233.93,18.27802503460482
48,239.88329199999998,17.81075253880547
49,239.93,17.807971288406712
50,246.08,17.410676496248783
51,251.80999999999997,17.05268483136018
52,257.09,16.696374467117277
53,260.06,16.524636502855646
54,264.29,16.261800506786045
55,269.2,15.949063480851832
56,274.21000000000004,15.629438476996345
57,275.42287,15.552004534102087
58,279.31,15.361363182379064
59,283.84,15.140377270532465
60,289.79,14.84447008609819
61,295.86,14.54849332651566
62,300.65999999999997,14.30994132058549
63,307.67,13.968996189008305
64,316.227766,13.552465001760176
65,317.75,13.497190841808871
66,328.15999999999997,13.115975906823678
67,338.13000000000005,12.749650376102979
68,347.59999999999997,12.401405846591953
69,357.34000000000003,12.044955205827703
70,363.078055,11.83594599400698
71,365.66,11.765549767063483
72,375.04,11.507043799969656
73,384.66,11.238205275252959
74,395.44000000000005,10.945806072025725
75,404.65000000000003,10.693768038248097
76,414.08,10.433835776649508
77,416.86938299999997,10.356526931434185
78,421.78000000000003,10.25213327743102
79,429.62,10.086203114286535
80,440.64,9.855326817927839
81,450.9,9.638814927180084
82,460.34,9.438939733802032
83,469.97999999999996,9.235692877894785
84,478.630092,9.05431099892195
85,479.82,9.035092349073519
86,489.87,8.87030040704939
87,500.13,8.705673509072518
88,505.91999999999996,8.61034415351832
89,511.78000000000003,8.520067405979873
90,520.09,8.384750158992754
91,529.76,8.2267196305974
92,539.61,8.064288409956834
93,549.5408739999999,7.902812395859583
94,549.64,7.90157780080478
95,559.86,7.777907591339234
96,570.27,7.650485982059749
97,579.54,7.534748061663897
98,590.31,7.401818398000108
99,599.9,7.280854743707095
100,609.65,7.154313947465502
101,619.56,7.039701159275331
102,629.62,6.914198891758365
103,630.957344,6.89784515750415
104,639.85,6.811660956200997
105,650.25,6.708947510037185
106,657.7800000000001,6.633799267670502
107,665.4,6.560543652885095
108,674.65,6.47010421096055
109,685.62,6.360481759478145
110,695.15,6.268867106695345
111,704.82,6.171408373483416
112,716.28,6.062035045499063
113,724.43596,5.9821388783755785
114,726.2399999999999,5.9689776516579975
115,734.65,5.907596277956208
116,744.87,5.832611749854867
117,755.23,5.75694091931378
118,765.74,5.6770471190158265
119,774.61,5.615693768726306
120,785.38,5.536096018183112
121,794.48,5.470723929599725
122,805.53,5.390789854177043
123,814.86,5.32291248729979
124,824.2900000000001,5.254493067251293
125,831.763771,5.1982650192227515
126,835.76,5.175468487431224
127,845.4399999999999,5.125416914832834
128,855.23,5.071851827773098
129,865.1300000000001,5.018246266252017
130,875.15,4.963921791682197
131,885.28,4.9087845526510305
132,895.53,4.853087310571124
133,905.9000000000001,4.7964667254424755
134,914.28,4.753176299205441
135,924.87,4.7301493551541025
136,935.58,4.713410758054024
137,944.2399999999999,4.721266141369928
138,954.992586,4.70418430974038
139,955.1700000000001,4.703923097840377
140,964.01,4.678538240964777
141,975.1700000000001,4.469471877940826
142,984.19,4.542351319726129
143,995.5899999999999,4.483198501583386
144,1004.8,4.4951856463996425
145,1014.1,4.436363610546351
146,1025.84,4.253067520985316
147,1035.34,4.2667307725330295
148,1044.92,4.334266119041144
149,1054.58,4.2750123605096615
150,1064.34,4.170591345678681
151,1074.19,4.153097250178151
152,1084.1299999999999,4.046837374008076
153,1094.16,4.05374811716845
154,1096.4782,4.038739985566299
155,1104.28,3.9956794535036497
156,1114.5,3.9417173806349544
157,1124.82,3.870740325252866
158,1135.22,3.875123943860063
159,1145.73,3.806420151702529
160,1156.33,3.770569405282942
161,1164.34,3.7398174759602165
162,1175.1200000000001,3.615774021016523
163,1185.99,3.634000711810777
164,1194.21,3.5293639892099273
165,1205.26,3.4367332714800747
166,1213.62,3.351221453360476
167,1224.84,3.3880685553578562
168,1236.18,3.4109400183391654
169,1244.75,3.3936543069414427
170,1256.2599999999998,3.3327721896499862
171,1258.92541,3.3117652069336545
172,1264.97,3.2716107011400415
173,1273.7399999999998,3.2966984744132404
174,1285.53,3.26985813312373
175,1294.44,3.1881368706224977
176,1306.42,3.147433866496262
177,1315.47,3.1670821682205985
178,1324.59,3.126202152057722
179,1333.77,3.0694553634200883
180,1346.1100000000001,3.068310724445317
181,1355.44,3.0300997546207946
182,1364.84,2.975053266909057
183,1374.3,2.9540036067225635
184,1383.8200000000002,2.9253202740613133
185,1393.4199999999998,2.8605158781003905
186,1406.3100000000002,2.8259750414403575
187,1416.0600000000002,2.805999864292544
188,1425.87,2.7780006146699763
189,1435.76,2.745971401747733
190,1442.39,2.73549519328722
191,1445.43977,2.728193219976501
192,1445.71,2.72779711819191
193,1455.73,2.698478835962289
194,1465.82,2.6598826291063133
195,1475.98,2.636554397623983
196,1486.21,2.6166359415152978
197,1496.52,2.595534500119351
198,1503.42,2.5692166440929647
199,1510.3600000000001,2.5330548454229476
200,1517.3300000000002,2.528912264770207
201,1524.34,2.508385741473836
202,1534.8999999999999,2.461652283555194
203,1545.54,2.4494070403492887
204,1556.2599999999998,2.417001511856122
205,1563.44,2.405212557324317
206,1574.2800000000002,2.3915441009002554
207,1585.1899999999998,2.3746694198498406
208,1596.18,2.3542118535121617
209,1603.55,2.3326214464231096
210,1614.66,2.3083432521545375
211,1625.8500000000001,2.2745580725987034
212,1633.3600000000001,2.2677778162569413
213,1644.68,2.244794248109306
214,1656.0800000000002,2.2068078946744074
215,1659.58691,2.2054893401517686
216,1663.72,2.206592905380667
217,1671.4,2.17552321835411
218,1675.26,2.1896810634162835
219,1686.8700000000001,2.177578406465981
220,1694.65,2.154485912316683
221,1706.3999999999999,2.1293252253945423
222,1714.28,2.1087270241225027
223,1726.1599999999999,2.089325437940798
224,1734.13,2.0864249602582903
225,1746.1499999999999,2.0639559441047477
226,1754.21,2.060757690011773
227,1766.37,2.028118543886391
228,1774.52,2.0189583133829494
229,1786.8200000000002,2.002431937285729
230,1795.07,1.9993428996595455
231,1803.35,1.984830969896539
232,1815.85,1.952985679553836
233,1824.24,1.943059511955814
234,1836.8799999999999,1.917238391641273
235,1845.3600000000001,1.8913203476327831
236,1853.8799999999999,1.8791962807751974
237,1866.73,1.8640527155028983
238,1875.3400000000001,1.8609218722348448
239,1884.0000000000002,1.8356472754054203
240,1897.0600000000002,1.8105755651753643
241,1905.46072,1.8048395766209078
242,1905.82,1.804738546367617
243,1914.61,1.7895490725994925
244,1923.4499999999998,1.7758154250329146
245,1936.78,1.7624521503652126
246,1945.72,1.761140655201728
247,1954.7,1.74205150099948
248,1968.25,1.739162001618583
249,1977.34,1.7313119850597372
250,1981.9,1.7195419546407784
251,1995.6399999999999,1.7002947748257582
252,2004.85,1.6928781811506242
253,2014.1000000000001,1.6786186284367273
254,2023.3999999999999,1.6714181019243775
255,2032.74,1.6564221163732646
256,2046.83,1.6462967199690697
257,2056.27,1.6282062868210496
258,2065.77,1.6180685651148856
259,2075.2999999999997,1.6177119991296496
260,2080.09,1.6181341292378046
261,2084.88,1.6233543593459596
262,2094.5,1.6029914605235072
263,2104.17,1.5916118879026013
264,2113.88,1.5860784562429324
265,2123.64,1.5723590507848104
266,2133.44,1.551585086287925
267,2143.29,1.5514514479925867
268,2153.1800000000003,1.5431652506584848
269,2163.12,1.5230912795259304
270,2173.11,1.5110286345949218
271,2183.14,1.5079267306251511
272,2187.7616199999998,1.5045566365971967
273,2193.21,1.502524783519525
274,2203.34,1.4904886871392435
275,2213.5099999999998,1.4678131826784873
276,2223.73,1.463233118117137
277,2233.99,1.475582245475312
278,2244.2999999999997,1.4607036127328932
279,2254.66,1.4358181198898807
280,2265.0699999999997,1.4260871669462745
281,2275.52,1.4239585059221933
282,2286.03,1.4341159327773993
283,2296.58,1.409975251552131
284,2307.1800000000003,1.4127708102262686
285,2312.5,1.3957669355231004
286,2323.17,1.3603627300564067
287,2333.8900000000003,1.3606374644891197
288,2344.67,1.3382260868011202
289,2355.4900000000002,1.3578724010326457
290,2366.36,1.3239452551635777
291,2377.2799999999997,1.3260678491939162
292,2382.7599999999998,1.3021091421688478
293,2393.76,1.3041122200382356
294,2404.81,1.2927442378070306
295,2415.91,1.2903427954752316
296,2427.06,1.3103414930428383
297,2432.6600000000003,1.303504561776345
298,2443.89,1.3112626431830026
299,2455.17,1.3062437644890663
300,2466.5,1.284468125694536
301,2472.19,1.269248426246974
302,2483.6,1.2386785712914943
303,2495.06,1.2340014562354205
304,2506.58,1.2574971290586343
305,2511.88643,1.2124907369974598
306,2512.36,1.2085641223448274
307,2518.15,1.20071659014002
308,2523.95,1.1970291055479856
309,2535.6,1.2103480744277775
310,2547.31,1.205293828984204
311,2553.18,1.2534420776815756
312,2564.96,1.2180027655274084
313,2576.8,1.237184739049875
314,2582.7400000000002,1.221624221036653
315,2594.66,1.2053573754612992
316,2606.64,1.185770715562579
317,2612.65,1.1750281308387633
318,2624.71,1.1926240518422222
319,2636.82,1.2544150109095427
320,2642.9,1.3082684594751335
321,2655.1000000000004,1.3942848470574054
322,2667.3599999999997,1.2671630203163113
323,2673.51,1.290767402171309
324,2685.8500000000004,1.3225401563323933
325,2692.04,1.2421691286384804
326,2704.46,1.2829104637017437
327,2716.9500000000003,1.2081716320544134
328,2723.2099999999996,1.1657400376499072
329,2735.7799999999997,1.197786586904756
330,2742.0899999999997,1.122138730564111
331,2754.74,1.1495949607211386
332,2767.46,1.1844403241675727
333,2773.84,1.1932098011163343
334,2786.6400000000003,1.1127129454649471
335,2793.07,1.0447764604775704
336,2805.96,1.0501701333411348
337,2812.4300000000003,1.1484687388048473
338,2825.41,1.213680440183363
339,2831.92,1.190295936098165
340,2844.9900000000002,1.1152336659916315
341,2858.12,1.0464032815617321
342,2864.7099999999996,1.1661407583787136
343,2877.94,1.2493527500765373
344,2884.0315,1.2216536680348262
345,2884.57,1.2192928503568292
346,2897.8900000000003,1.2873094531560314
347,2911.2599999999998,1.4164825493591346
348,2931.44,1.3420482271735414
349,2951.7599999999998,1.296099906518871
350,2972.22,1.3022790873951229
351,2992.8199999999997,1.3015661698022973
352,3006.64,1.2910777066405086
353,3027.48,1.3182229773864074
354,3048.46,1.3305280496632288
355,3069.5899999999997,1.3733316021517528
356,3090.87,1.3476479348519796
357,3112.3,1.4330427477639094
358,3126.66,1.3762160333642504
359,3148.34,1.3719137132956845
360,3170.1600000000003,1.425617694758041
361,3192.14,1.3289696351128808
362,3206.87,1.3797978319020885
363,3229.1,1.2788781392764326
364,3251.48,1.4850681268624795
365,3266.4900000000002,1.6040430267135322
366,3289.13,1.581722259999864
367,3311.31121,1.5130195539982705
368,3311.9300000000003,1.5111737282139588
369,3319.57,1.458442289147131
370,3327.2200000000003,1.478721472542258
371,3334.89,1.5612621008612937
372,3342.58,1.4798920741042383
373,3350.2799999999997,1.5323995698091373
374,3358.0,1.572802210437945
375,3365.75,1.315513918452616
376,3373.5,1.2835651264672872
377,3381.2799999999997,1.4626443018678215
378,3389.07,1.5240331997303098
379,3396.8900000000003,1.3967729649786618
380,3404.72,1.6135690526889683
381,3412.5699999999997,1.4666382853231834
382,3420.43,1.4970910404193531
383,3428.32,1.5061277629013858
384,3436.22,1.4910513078453733
385,3444.14,1.221315697713269
386,3452.08,1.5460501325050742
387,3460.04,1.4701506122207877
388,3468.02,1.4680431368604103
389,3476.0099999999998,1.4118250839619875
390,3484.02,1.4932905759874733
391,3492.0499999999997,1.422889112936868
392,3500.11,1.3920508172721255
393,3508.17,1.5759292216073835
394,3516.2599999999998,1.3894160933285047
395,3524.37,1.4477145099735345
396,3532.49,1.5509680490805189
397,3540.63,1.603521033111412
398,3548.7999999999997,1.6502903845281685
399,3556.98,1.5104989584068793
400,3565.18,1.601434477209499
401,3573.4,1.2783406409360274
402,3581.63,1.3621571271245103
403,3589.89,1.1699632806988565
404,3598.1600000000003,1.543964856735157
405,3606.46,1.466593100157321
406,3614.77,1.429191366041439
407,3623.11,1.2960164993114205
408,3631.46,1.7887185550433564
409,3639.83,1.5688535556992012
410,3648.22,1.5144286012789547
411,3656.63,1.743101491782617
412,3665.06,1.8454850272101884
413,3673.5099999999998,1.6837440075616685
414,3681.9800000000005,1.5973667328370569
415,3690.4700000000003,1.4792460030363548
416,3698.97,1.684461395697607
417,3707.5000000000005,1.4988009557447222
418,3716.05,1.7457853607157463
419,3724.6099999999997,1.2264577881487249
420,3733.2,1.575018582967567
421,3741.8,1.365284000248363
422,3750.4300000000003,1.2238220849150223
423,3759.0800000000004,1.7372506145055908
424,3767.74,1.4809219665581135
425,3776.4300000000003,1.6766685859964996
426,3785.13,1.8230061278968397
427,3793.86,1.5134922371830435
428,3801.8939600000003,1.348296991453425
429,3802.61,1.3336313733396299
430,3811.37,1.587004828257482
431,3820.1600000000003,1.3946751672675184
432,3828.96,1.2165154343082831
433,3837.79,1.138423485441232
434,3846.64,1.4739797926356375
435,3855.5,1.529655227860771
436,3864.39,1.317082947178089
437,3873.3,1.4507989225568632
438,3882.23,1.4021243539970936
439,3891.1800000000003,1.30028594149878
440,3892.52,1.9597856976163512
441,3894.2900000000004,2.1383306590552325
442,3896.06,1.7208836204941131
443,3897.84,1.8617706099637226
444,3899.61,2.0118585714026036
445,3901.3799999999997,1.7050175328414847
446,3903.16,2.300422522311094
447,3904.93,1.924318483749975
448,3906.7000000000003,1.292718745188856
449,3908.47,1.249123306627737
450,3910.25,1.1189800960973462
451,3912.02,1.9261453575362273
452,3913.79,1.7925293189751084
453,3915.5699999999997,1.2504102084447177
454,3917.34,1.5088613698835986
455,3919.11,1.0723637313224796
456,3920.88,1.1309462927613607
457,3922.66,0.8971701822309701
458,3924.43,0.7954122436698512
459,3926.2000000000003,1.383457505108732
460,3927.98,0.8834330945783414
461,3929.75,1.1211842560172225
462,3931.52,1.6578150174561035
463,3933.29,1.6475489788949846
464,3935.07,1.4474401683645937
465,3936.8399999999997,1.2224664298034749
466,3938.61,1.7112268912423558
467,3940.39,1.735072880711965
468,3942.1600000000003,1.5325064421508463
469,3943.93,1.8413398035897273
470,3945.7,1.6805907650286085
471,3947.48,1.5397752544982177
472,3949.2500000000005,2.0642447159370985
473,3951.02,1.9069126773759797
474,3952.8,2.003804666845589
475,3954.57,1.93642862828447
476,3956.3399999999997,1.647821589723351
477,3958.11,1.7386995511622323
478,3959.89,1.3819348406318412
479,3961.6600000000003,1.2441792020707223
480,3963.43,1.3761443635096033
481,3965.2,1.3165560249484844
482,3966.98,1.4293573144180938
483,3968.75,1.0729953758569748
484,3970.52,1.0436006372958557
485,3972.3,1.261937926765465
486,3974.07,1.819911288204346
487,3975.84,2.414682249643227
488,3977.6099999999997,2.156045211082108
489,3979.39,2.1565032005517173
490,3981.1600000000003,1.5745851619905986
491,3982.9300000000003,1.4812794234294797
492,3984.71,2.634117112899089
493,3986.48,2.32906107433797
494,3988.25,2.275446035776851
495,3990.0200000000004,2.535188997215732
496,3991.7999999999997,2.220178986685341
497,3993.57,2.259858948124222
498,3995.34,2.0642959095631035
499,3997.12,2.3175498990327124
500,3998.89,2.3957978604715935
501,4000.66,2.1673538219104747
502,4002.4300000000003,2.4145397833493556
503,4004.2100000000005,2.2033947728189647
504,4005.98,2.301248734257846
505,4007.75,2.268097695696727
506,4009.53,1.9495126851663362
507,4011.2999999999997,1.9710076466052175
508,4013.07,2.1163066080440984
509,4014.84,2.6123285694829796
510,4016.6200000000003,2.3668635589525886
511,4018.39,1.8215325203914698
512,4020.16,2.082254481830351
513,4021.94,2.32248447129996
514,4023.7099999999996,2.464647432738841
515,4025.48,2.459318394177722
516,4027.25,2.5725123556166034
517,4029.03,2.4547183450862127
518,4030.7999999999997,2.0077803065250936
519,4032.5699999999997,2.263565267963975
520,4034.35,2.1493012574335837
521,4036.1200000000003,1.8625152188724647
522,4037.89,2.410288180311346
523,4039.66,2.694622141750227
524,4041.44,2.2057731312198365
525,4043.21,1.897525092658717
526,4044.98,2.1925010540975984
527,4046.7599999999998,2.3469210435672077
528,4048.53,1.8554150050060887
529,4050.3,2.2413339664449694
530,4052.0699999999997,2.440914927883851
531,4053.85,2.11727891735346
532,4055.62,1.933058878792341
533,4057.3900000000003,2.0539918402312223
534,4059.1699999999996,2.458097829700831
535,4060.94,2.1903307911397123
536,4062.71,1.8745837525785933
537,4064.4799999999996,2.1823247140174744
538,4066.2599999999998,2.3488727034870838
539,4068.03,2.3258136649259646
540,4069.8,2.3026066263648457
541,4071.5800000000004,2.1551246158344552
542,4073.35,2.0908375772733363
543,4075.12,2.143393538712217
544,4076.8900000000003,2.0787135001510983
545,4078.6699999999996,2.0283644896207074
546,4080.44,2.1865404510595887
547,4082.21,2.1593644124984697
548,4083.9900000000002,2.060000401968079
549,4085.7599999999998,2.21274236340696
550,4087.5299999999997,2.713413324845841
551,4089.3,2.460462286284722
552,4091.0800000000004,2.357896275754331
553,4092.85,2.3874092371932125
554,4094.62,2.3315721986320934
555,4096.4,2.2601891881017027
556,4098.17,2.0920471495405835
557,4099.9400000000005,2.095308110979465
558,4101.71,2.289370072418346
559,4103.49,2.1655550618879547
560,4105.26,2.3978130233268358
561,4107.03,2.2449909847657175
562,4108.81,2.0624139742353265
563,4110.58,2.3769599356742073
564,4112.35,2.078578897113088
565,4114.12,2.2615788585519696
566,4115.900000000001,2.1152928480215785
567,4117.67,2.1138558094604596
568,4119.44,2.450173770899341
569,4121.22,2.04915076036895
570,4122.990000000001,2.084237721807831
571,4124.76,2.102490683246712
572,4126.53,1.7359576446855933
573,4128.31,1.9825536341552024
574,4130.08,2.2889575955940837
575,4131.85,2.2407105570329646
576,4133.62,2.0368015184718455
577,4135.400000000001,1.9051445079414548
578,4137.17,1.9157994693803362
579,4138.94,2.025023430819217
580,4140.72,2.533050420288826
581,4142.49,2.3902473817277072
582,4144.26,1.8709083431665885
583,4146.04,1.8090203326361975
584,4147.81,1.9012362940750784
585,4149.58,1.9920022555139596
586,4151.349999999999,1.962081216952841
587,4153.13,2.00378920642245
588,4154.900000000001,2.171019167861331
589,4156.67,2.247362129300212
590,4158.44,2.194830090739093
591,4160.22,2.1523230802087023
592,4161.99,2.2891650416475833
593,4163.76,2.3688050030864645
594,4165.54,2.224094992556074
595,4167.31,1.9628809539949548
596,4169.08,1.7667219154338358
