,lambda (Angstroms),Total Flux (erg/s/cm^2/Angstrom)
0,102.05000000000001,0.0024153310049330368
1,103.95,0.002825372462029201
2,104.712855,0.002990058839359947
3,105.88,0.0027804416175791617
4,108.10000000000001,0.00238185511077774
5,110.11,0.0020218816815791587
6,113.98,0.0013276851148983054
7,117.99000000000001,0.0006084153264822267
8,120.22644299999999,0.00022419050065013
9,121.01,0.00022400346900856114
10,124.98,0.00019775200158257713
11,127.01,0.0001833805689944795
12,127.89,0.00017820442432574756
13,130.87,0.00015722527215208699
14,132.07999999999998,0.00015538731573258067
15,133.92,0.00014265325506159561
16,137.04,0.0001307062730542731
17,138.038426,0.00012419005443224657
18,139.9,0.00012698833312015022
19,143.16,0.0002525498160722574
20,146.84,0.0005427992009997894
21,150.95000000000002,0.0005662917781878754
22,154.82,0.0005986239085328615
23,158.489319,0.0006311194176733263
24,159.16,0.0006369532002545304
25,162.12,0.0006621689278021468
26,165.89,0.000706537194644888
27,170.14999999999998,0.0007360681383451738
28,172.91,0.0007661182018693026
29,176.94000000000003,0.0007969525319425777
30,179.82000000000002,0.000820586993880799
31,181.9,0.0008380432997250701
32,181.970086,0.0008385754702820756
33,186.14,0.0008727276424141386
34,190.91,0.000915129064345422
35,194.01000000000002,0.0009487057509255012
36,198.07999999999998,0.0009791776274999924
37,202.22,0.0010176032786101629
38,205.04000000000002,0.0010454807670475254
39,208.929613,0.0010423187823460798
40,209.81,0.001042252228043162
41,216.19,0.001142341753737409
42,220.20999999999998,0.001184494144535351
43,222.76000000000002,0.0011973369894444936
44,226.89999999999998,0.0012441793023558073
45,230.05999999999997,0.0018844805846745878
46,233.79,0.0029719859970318827
47,239.79,0.003599369102700453
48,239.88329199999998,0.0035956380675273287
49,245.94000000000003,0.003343661495863154
50,252.25,0.0034939263679359517
51,256.94,0.002918295174595448
52,259.92,0.003325985356652015
53,264.14,0.0034537609097656766
54,269.05,0.003403285749999819
55,274.05,0.003338478149423589
56,275.42287,0.0033212329337466576
57,279.15,0.0032800182865423315
58,283.68,0.003246698934648639
59,290.29,0.00305848429093621
60,295.69,0.003055758321791411
61,301.18,0.0029716802198275325
62,308.2,0.0029502908599392938
63,316.227766,0.002930138504845462
64,318.29999999999995,0.0029221495173395178
65,327.96999999999997,0.002826164962937711
66,337.92999999999995,0.00271442250876584
67,348.2,0.002600670782425969
68,357.13,0.002526234006747775
69,363.078055,0.002496983947184811
70,366.3,0.0024844016737885534
71,374.83000000000004,0.0024054001561296086
72,385.33,0.0022426118940640843
73,395.21,0.0022520464855681436
74,405.35,0.002206440461059152
75,413.84,0.0021326341920175993
76,416.86938299999997,0.0021009441289680728
77,421.53000000000003,0.0020513625474885356
78,430.35999999999996,0.0019862646728722217
79,441.4,0.0019369392452658679
80,450.64,0.0018638125395518544
81,460.08,0.0017896960869609143
82,469.71,0.0017303152248368937
83,478.630092,0.0016952286717626431
84,479.54999999999995,0.0016910441857924832
85,489.59000000000003,0.0016010520804859093
86,499.84000000000003,0.0015731676612237198
87,505.63,0.0015302592907331756
88,511.48,0.0016725629733981698
89,519.8,0.0016294763442994949
90,529.46,0.0015697029023411775
91,540.55,0.0014718622272565257
92,549.5408739999999,0.0014951699753772538
93,550.6,0.0014981650394736798
94,559.54,0.0015409131987426225
95,569.94,0.001563848460084569
96,580.54,0.0014881469956830918
97,589.97,0.0015442714768806453
98,599.5600000000001,0.0014958997774834597
99,609.3,0.0014393450337787058
100,620.63,0.0016002946204137305
101,630.71,0.0015991632429451558
102,630.957344,0.001598734992441197
103,639.49,0.0015862380396146063
104,649.88,0.0016418124212791679
105,657.4000000000001,0.0016576822201355207
106,665.0200000000001,0.0016962873354660268
107,674.27,0.0016714411093252373
108,685.22,0.0016147142632450596
109,694.76,0.0018469744548793153
110,704.4200000000001,0.0017444740262825558
111,715.87,0.0019387047625731458
112,724.43596,0.0019549848346827967
113,725.8299999999999,0.001957542250586488
114,734.23,0.0019759132767098613
115,744.4399999999999,0.002118257037033628
116,754.8000000000001,0.0021815158692524554
117,765.3,0.0022020669019066725
118,774.16,0.0023608480151748974
119,784.93,0.0024534195772402227
120,795.85,0.0025098882112006083
121,805.0699999999999,0.002567576697016978
122,814.39,0.0026088898974300544
123,825.72,0.0027852332612369377
124,831.763771,0.00250039660248811
125,835.2800000000001,0.002333705930351365
126,844.95,0.002833760801836636
127,854.7399999999999,0.002870258875449956
128,864.63,0.0030208299508366503
129,874.65,0.003179623328528731
130,884.77,0.003392939707994185
131,895.02,0.003523948389765026
132,905.3799999999999,0.003482316173486578
133,915.87,0.005238847259513516
134,924.34,0.0351765071097183
135,935.0400000000001,0.07813894429946933
136,945.87,0.15090959679152574
137,954.62,0.21461853444669596
138,954.992586,0.2155006334455256
139,965.6800000000001,0.24080484273639377
140,974.61,0.03691017458309349
141,985.9,0.20030123556285157
142,995.02,0.21167376170416188
143,1004.23,0.3094838851429194
144,1015.86,0.2941975359130333
145,1025.26,0.12126195364640142
146,1034.74,0.1984684689775003
147,1044.32,0.3869234813057627
148,1053.98,0.3763873912317559
149,1066.18,0.29284402488570177
150,1076.05,0.3480456285057382
151,1086.01,0.2701752294232219
152,1096.06,0.3602665276381527
153,1096.4782,0.3595328009146098
154,1106.2,0.34247540139299204
155,1113.87,0.325551080540724
156,1124.17,0.29016511251225463
157,1134.57,0.36866173508545064
158,1145.07,0.33084234826031195
159,1155.67,0.35044745203683864
160,1163.68,0.36025899923023286
161,1174.44,0.24584218796942406
162,1185.31,0.3440447663704472
163,1196.28,0.2310098353731356
164,1204.57,0.16205945625119278
165,1215.72,0.10585410833687883
166,1224.1399999999999,0.22265711699710097
167,1235.47,0.34167485216578464
168,1244.03,0.37463234766833825
169,1255.55,0.35449206498018615
170,1258.92541,0.333484515033605
171,1264.25,0.30034638334260433
172,1275.9499999999998,0.38958206155680053
173,1284.7900000000002,0.4070151206519711
174,1293.7,0.3159414802150898
175,1305.6699999999998,0.3101805602342291
176,1314.72,0.38958572073324416
177,1323.83,0.3694979816333576
178,1336.0800000000002,0.3233045635242896
179,1345.34,0.38512582542714924
180,1354.67,0.370349887797957
181,1364.06,0.32780345056986326
182,1373.51,0.343251013742868
183,1386.22,0.34562769870888804
184,1395.8300000000002,0.29896316295148856
185,1405.5,0.3094716275951875
186,1415.2500000000002,0.3137782927736844
187,1425.06,0.32108205835327974
188,1434.94,0.3166784244008233
189,1441.5600000000002,0.33389526865535146
190,1445.43977,0.3366092082921146
191,1448.21,0.338547010134249
192,1454.9,0.3270448476693643
193,1464.9799999999998,0.29965850422451573
194,1475.14,0.29690356122851747
195,1485.3600000000001,0.3010326185691571
196,1495.66,0.30522557635864705
197,1506.03,0.2868225345408812
198,1512.9799999999998,0.2538740735347604
199,1516.46,0.2714137930597531
200,1523.46,0.2621981323341638
201,1534.0300000000002,0.22626709163852393
202,1544.6599999999999,0.24867045127952184
203,1555.3700000000001,0.2331479113693702
204,1566.15,0.23639087185196264
205,1573.38,0.25154831241681824
206,1584.2800000000002,0.2628050735726863
207,1595.26,0.2670720351774048
208,1606.32,0.26039479723097364
209,1613.74,0.26039153886184896
210,1624.92,0.24470410158869346
211,1636.18,0.25979736476438836
212,1643.74,0.2628022071807519
213,1655.1299999999999,0.2413437710858287
214,1659.58691,0.2496829583587722
215,1666.6000000000001,0.2628051834419116
216,1670.45,0.23368244118942905
217,1678.1599999999999,0.2634102570941977
218,1685.8999999999999,0.2739199742281677
219,1693.6799999999998,0.255637393001073
220,1705.42,0.24414167402856765
221,1713.3000000000002,0.23100819689881105
222,1725.17,0.22889888325284524
223,1733.1399999999999,0.24357330981069295
224,1745.15,0.23639730190100047
225,1753.2,0.25214113173671865
226,1765.36,0.2294210299730334
227,1773.51,0.23476476390608972
228,1785.8,0.23803106746894395
229,1794.0400000000002,0.25388150508960455
230,1806.48,0.250403714798466
231,1814.82,0.23048895651646473
232,1823.19,0.23423519946366492
233,1835.83,0.22420801736720256
234,1844.3000000000002,0.20448736441174087
235,1857.0900000000001,0.2054255884612857
236,1865.66,0.21166523960316208
237,1874.2700000000002,0.22784849238397373
238,1882.9199999999998,0.20924544680372062
239,1895.9699999999998,0.20075638150634456
240,1904.73,0.21166574043316339
241,1905.46072,0.21099108886606519
242,1913.52,0.20354944472119738
243,1926.78,0.19846164439238573
244,1935.6799999999998,0.20168167433760267
245,1944.61,0.21264560269836527
246,1953.5900000000001,0.19890572841837068
247,1967.1299999999999,0.21709231330131867
248,1976.2099999999998,0.22163703373980967
249,1985.33,0.20972095206569488
250,1994.4899999999998,0.20307626827897435
251,2003.6999999999998,0.20780008185149657
252,2012.95,0.20029139331141305
253,2026.9,0.20780045654015197
254,2036.26,0.19799626219040256
255,2045.66,0.20541866572804743
256,2055.1,0.1948271671530865
257,2064.58,0.19527546646551983
258,2074.11,0.20923846313719593
259,2078.89,0.20213371068080685
260,2083.69,0.20971685716811483
261,2093.2999999999997,0.1975357496145794
262,2102.9700000000003,0.19753413889213536
263,2112.67,0.19935842658523695
264,2127.32,0.2007424528433749
265,2137.14,0.18605473419865923
266,2147.0,0.19170811344133776
267,2156.91,0.19799089004325907
268,2166.87,0.1903837640044232
269,2176.87,0.18864513585298157
270,2186.92,0.1864798050607827
271,2187.7616199999998,0.18713819271714108
272,2197.01,0.19437395005163816
273,2207.15,0.18820777703810826
274,2217.3399999999997,0.1776807061300343
275,2222.45,0.17244462130763413
276,2232.71,0.18520115334719853
277,2243.02,0.1764536874922189
278,2253.37,0.16774132332160405
279,2263.77,0.17047126125644518
280,2274.2200000000003,0.17525060129674225
281,2284.7200000000003,0.1801580434424953
282,2295.26,0.16891608727261315
283,2305.86,0.1705487336292781
284,2316.5,0.1621866816703079
285,2327.19,0.12888593181679361
286,2332.56,0.14869365794276446
287,2343.32,0.14205951103688852
288,2354.1400000000003,0.15582006665755974
289,2365.0099999999998,0.14086482438368697
290,2375.92,0.14621058379417895
291,2386.8900000000003,0.13340034573121806
292,2392.39,0.14230667733137442
293,2403.44,0.13658984263714313
294,2414.53,0.14014230962727658
295,2425.67,0.150574778722866
296,2436.87,0.1448578503450026
297,2442.49,0.15311348699825325
298,2453.76,0.15107786156802822
299,2465.09,0.1490610386643503
300,2476.4700000000003,0.14274681786612836
301,2482.17,0.1440927578881086
302,2493.63,0.13515454045861622
303,2505.1400000000003,0.1531068251345798
304,2510.9199999999996,0.13277586852528958
305,2511.88643,0.13308915605690264
306,2516.7099999999996,0.1346525306094559
307,2522.51,0.13010893608489643
308,2534.15,0.13288194638388398
309,2545.85,0.13112155570503126
310,2557.6,0.14185176421131165
311,2563.5,0.1367534680570184
312,2575.33,0.1445823752595118
313,2587.2099999999996,0.14233248164713824
314,2593.18,0.13944098435203137
315,2605.15,0.13414998927289745
316,2617.1699999999996,0.1311531933788966
317,2623.21,0.13862979494297606
318,2635.31,0.14522229774518822
319,2647.48,0.15930189940658673
320,2653.58,0.1645488999928259
321,2665.83,0.14638430035043737
322,2671.98,0.15366880012180967
323,2684.31,0.1540959991756341
324,2696.7000000000003,0.1448687972516183
325,2702.9199999999996,0.14999859588217693
326,2715.39,0.14036719265437408
327,2727.9300000000003,0.1394705882857576
328,2734.21,0.14640408593847598
329,2746.83,0.12438848026607244
330,2753.1699999999996,0.12849447694095054
331,2765.8700000000003,0.13460676996476
332,2772.25,0.1409845659877446
333,2785.05,0.12952795738182024
334,2797.8999999999996,0.10317964796102902
335,2804.35,0.11032844284319995
336,2817.2999999999997,0.13735703179267494
337,2823.79,0.14755442602295235
338,2836.8199999999997,0.14228541366864034
339,2843.3599999999997,0.13780560708405087
340,2856.49,0.12926089310000505
341,2863.0699999999997,0.14607158586352206
342,2876.2900000000004,0.14714817041271583
343,2882.92,0.14549496236136597
344,2884.0315,0.14547262238737083
345,2896.23,0.1452276401783252
346,2909.59,0.1593197357223819
347,2929.76,0.1515539289951082
348,2950.07,0.14821482222114046
349,2970.52,0.1514260154004787
350,2991.11,0.15119070853312297
351,3011.84,0.1530471016190732
352,3032.72,0.1524608946549941
353,3046.72,0.15288678998559244
354,3067.84,0.15370838294146646
355,3089.1000000000004,0.15452997585064648
356,3110.52,0.15464656870646193
357,3132.08,0.15159606151558333
358,3146.53,0.15202385669609375
359,3168.35,0.1528326494184977
360,3190.31,0.14373504209420762
361,3212.42,0.14924973471988826
362,3227.25,0.14032182977365773
363,3249.62,0.15116972231262094
364,3272.14,0.1576976148015548
365,3287.25,0.15560690976193628
366,3310.0299999999997,0.15502010216415268
367,3311.31121,0.1550871724095418
368,3325.3100000000004,0.1558199124835743
369,3332.98,0.1598624635813128
370,3340.66,0.14820461461529344
371,3348.36,0.16367116552175842
372,3356.0800000000004,0.15706841630070772
373,3363.82,0.14002216695214134
374,3371.5699999999997,0.1413668175398171
375,3379.34,0.15719596799997723
376,3387.1299999999997,0.15651321833262166
377,3394.94,0.15089176853775044
378,3402.77,0.1651102186153635
379,3410.61,0.14788346862921878
380,3418.48,0.14963261845180048
381,3426.36,0.15351506821062438
382,3434.25,0.16265721790569043
383,3442.17,0.148726367409483
384,3450.11,0.15329061678575986
385,3458.06,0.1515739660982789
386,3466.0299999999997,0.14885381528328226
387,3474.02,0.15590426434076993
388,3482.0299999999997,0.14962141327074197
389,3490.06,0.15563726207319828
390,3498.1,0.14329661081189676
391,3506.17,0.15500755935932173
392,3514.25,0.1463789078429889
393,3522.3500000000004,0.15545595619914038
394,3530.47,0.14545050442777616
395,3538.6099999999997,0.15589285252889626
396,3546.77,0.1592100005025007
397,3554.9399999999996,0.1596159484123473
398,3563.1400000000003,0.1553170961309204
399,3571.35,0.14365824378573563
400,3579.58,0.14270949131303523
401,3587.8300000000004,0.13170123871281914
402,3596.11,0.1454502859213295
403,3604.3999999999996,0.15304473306608207
404,3612.7,0.14091738014707678
405,3621.03,0.14897042703679797
406,3628.1400000000003,0.15852778170497536
407,3630.89,0.16576966417157002
408,3633.63,0.15007934670192247
409,3636.37,0.13483692923227497
410,3639.1099999999997,0.13160511176262743
411,3641.86,0.14269779422922207
412,3644.6,0.14006327675957453
413,3647.34,0.143594159289927
414,3650.08,0.15261834182027947
415,3652.8300000000004,0.1377271242868741
416,3655.57,0.1594125068172266
417,3658.3100000000004,0.17375938934757906
418,3661.05,0.15442097187793152
419,3663.7999999999997,0.14791375434452617
420,3666.54,0.15029253687487862
421,3669.2799999999997,0.1633274194052311
422,3672.0199999999995,0.1590503019355836
423,3674.77,0.1594869844021782
424,3677.5099999999998,0.1516258669325307
425,3680.25,0.16139664946288315
426,3683.0,0.1535774319294778
427,3685.7400000000002,0.14656961445983024
428,3688.48,0.15177519699018271
429,3691.2200000000003,0.15951937952053521
430,3693.97,0.14566276198712985
431,3696.7100000000005,0.14790294451748232
432,3699.4500000000003,0.16489512704783477
433,3702.19,0.16107660957818723
434,3704.94,0.14766809204478187
435,3707.68,0.14016967457513435
436,3710.4199999999996,0.15684175710548684
437,3713.16,0.1704952396358393
438,3715.91,0.16670792210243393
439,3718.65,0.1737908046327864
440,3721.39,0.18515098716313885
441,3724.13,0.21614846969349136
442,3726.88,0.291997952160086
443,3729.6200000000003,0.43595503469043845
444,3732.36,0.556552617220791
445,3735.1099999999997,0.5645929996873855
446,3737.85,0.45534638221773804
447,3740.5899999999997,0.2803822647480905
448,3743.3300000000004,0.207241547278443
449,3746.08,0.1884568297450376
450,3748.8199999999997,0.1640518122753901
451,3751.56,0.15961469480574253
452,3754.2999999999997,0.152702977336095
453,3757.05,0.16016895980268964
454,3759.79,0.1653424423330421
455,3762.53,0.1716680248633946
456,3765.27,0.18711350739374707
457,3768.0200000000004,0.1868354898603417
458,3770.76,0.18816897239069416
459,3773.5,0.17100665492104664
460,3776.2400000000002,0.1716895374513991
461,3778.99,0.18232341991799372
462,3781.73,0.19247830244834624
463,3784.47,0.1977585849786987
464,3787.2099999999996,0.20341216750905117
465,3789.96,0.2102272499756458
466,3792.7,0.22361413250599826
467,3795.44,0.1999878150363507
468,3798.19,0.19069649750294534
469,3800.9300000000003,0.17693678003329785
470,3801.8939600000003,0.17023464849167605
471,3803.67,0.157886364923067
472,3806.41,0.16374255109342858
473,3809.16,0.185512437213317
474,3811.8999999999996,0.21394992338367858
475,3814.6400000000003,0.20431820955404015
476,3817.38,0.2272090957244017
477,3820.13,0.23901618184429016
478,3822.87,0.21172056801465172
479,3825.6099999999997,0.19544355418501327
480,3828.35,0.19789714035537484
481,3831.1,0.18551242647526328
482,3833.84,0.18079801264562484
483,3836.58,0.16123569881598643
484,3839.32,0.14103318498634798
485,3842.07,0.1543125711062364
486,3844.81,0.16528875727659795
487,3847.55,0.1773742434469595
488,3850.29,0.1843931296173211
489,3853.04,0.20005101573720954
490,3855.7799999999997,0.2189632019075711
491,3858.5199999999995,0.22339018807793265
492,3861.27,0.21539997419782111
493,3864.0099999999998,0.22711216036818266
494,3866.75,0.23106984653854423
495,3869.49,0.2500247327089058
496,3872.2400000000002,0.23385321882879423
497,3874.98,0.2356882049991558
498,3877.7200000000003,0.23204049116951736
499,3880.46,0.22779547733987893
500,3883.2100000000005,0.21841866345976738
501,3885.9500000000003,0.19933634963012895
502,3888.69,0.1885313358004905
503,3891.4300000000003,0.19629682197085208
504,3894.18,0.19423740809074047
505,3896.9199999999996,0.19004569426110204
506,3899.66,0.1918912804314636
507,3902.3999999999996,0.19542216660182518
508,3905.15,0.2015440527217136
509,3907.89,0.2116562388920752
510,3910.63,0.21957122506243676
511,3913.38,0.2160184111823252
512,3916.1200000000003,0.21705329735268675
513,3918.86,0.23211488352304832
514,3921.6,0.2295977696934099
515,3924.35,0.22807165581329833
516,3927.0899999999997,0.2210852419836599
517,3929.8300000000004,0.21942152815402147
518,3932.57,0.209576514324383
519,3935.3199999999997,0.18397590044427145
520,3938.06,0.18610948661463303
521,3940.7999999999997,0.1773416727849946
522,3943.54,0.18806185895535615
523,3946.29,0.20766644507524457
524,3949.03,0.21176263124560613
525,3951.77,0.2270055174159677
526,3954.5099999999998,0.21800320358632927
527,3957.26,0.2110583897062177
528,3960.0,0.20658937587657927
529,3962.7400000000002,0.20028566204694084
530,3965.48,0.1922218482173024
531,3968.23,0.18085053433719084
532,3970.97,0.1555068205075524
533,3973.7099999999996,0.146163106677914
534,3976.46,0.15989039279780243
535,3979.2,0.16412527896816398
536,3981.94,0.18219476513852556
537,3984.68,0.2055869513088871
538,3987.4300000000003,0.21173013742877556
539,3990.17,0.2205943235991371
540,3992.91,0.2388452097694987
541,3995.65,0.24027489593986026
542,3998.3999999999996,0.23886598205974865
543,4001.1400000000003,0.23877026823011022
544,4003.88,0.2495332544004718
545,4006.6200000000003,0.2539174405708334
546,4009.37,0.2508552266907218
547,4012.1099999999997,0.24053021286108336
548,4014.85,0.24341049903144493
549,4017.5899999999997,0.24217348520180648
550,4020.34,0.24403927132169492
551,4023.08,0.25104755749205654
552,4025.82,0.2501411436624181
553,4028.57,0.2494362297823065
554,4031.31,0.24254591595266808
555,4034.05,0.23898360212302963
556,4036.79,0.2486264882933912
557,4039.54,0.24706827441327964
558,4042.2799999999997,0.24777256058364122
559,4045.0199999999995,0.25469554675400274
560,4047.76,0.24922383292436434
561,4050.5099999999998,0.24123361904425275
562,4053.25,0.24334590521461433
563,4055.99,0.2530101913849759
564,4058.73,0.26183187755533743
565,4061.48,0.2575108636752259
566,4064.2200000000003,0.24306854984558746
567,4066.96,0.23741553601594903
