,lambda (Angstroms),Total Flux (erg/s/cm^2/Angstrom)
0,100.05999999999999,0.0038502995129490888
1,101.92,0.004628743017303989
2,104.05,0.005520009743049108
3,104.712855,0.005797449350878539
4,105.99000000000001,0.005352292258774755
5,107.96,0.004665888638428682
6,109.97,0.003966529341598417
7,114.09,0.0025316900017274303
8,118.1,0.0011355863846879543
9,120.22644299999999,0.00041701103501495546
10,121.13000000000001,0.000412362894866307
11,125.10000000000001,0.00035883653262831105
12,127.13000000000001,0.0003305228932219806
13,128.01,0.0003196376833808131
14,131.0,0.0002778761205113903
15,131.9,0.0002759261547647412
16,134.05,0.00024615632992552416
17,136.85,0.00022381456315817214
18,138.038426,0.00020810133916276494
19,140.04000000000002,0.00021281144909211894
20,142.97,0.0004295208222655607
21,146.98,0.0009375678643903053
22,151.1,0.000987650682982312
23,154.97,0.0010522108550578137
24,158.489319,0.001115615408896324
25,158.95,0.0011237741787021307
26,161.9,0.0011753266260721967
27,166.06,0.001260879968804222
28,169.92,0.0013279721473969189
29,173.08,0.001387407609664515
30,177.11999999999998,0.001458677086740809
31,179.99,0.0015118866236737208
32,181.970086,0.0015485692896852884
33,182.07999999999998,0.0015507328202635868
34,185.89000000000001,0.0016292589930637373
35,191.1,0.0017312128750292973
36,194.2,0.0018065628738955614
37,197.81,0.001881342659672082
38,201.95999999999998,0.0019723266904124034
39,204.76999999999998,0.002035620928094404
40,208.929613,0.002047523093695302
41,210.02,0.0020522025588330384
42,215.9,0.0022736719126857613
43,219.92000000000002,0.0023785016954218073
44,222.98,0.002415669828549245
45,227.12,0.0025321780674863663
46,229.75,0.0037858909825599484
47,234.01999999999998,0.006349472799048235
48,239.88329199999998,0.007660597540086562
49,240.01999999999998,0.007690740735150415
50,246.18,0.007241919741640918
51,251.92,0.007586821111325252
52,257.19,0.006407675363631251
53,260.16999999999996,0.007288347405732176
54,263.79,0.0075702167991567905
55,268.69,0.007511786895228782
56,273.69,0.0074196479524451
57,275.42287,0.007388570043018144
58,278.78,0.0073381520526209585
59,283.96000000000004,0.007295947025397051
60,289.90999999999997,0.006885739453585806
61,295.98,0.006942107576124587
62,300.79,0.006824609407988102
63,307.79,0.006819812911739578
64,316.227766,0.006819591357937693
65,317.87,0.006815264086597853
66,328.28999999999996,0.006651512378201619
67,338.26,0.006448307995983726
68,347.74,0.006236401057826693
69,356.66,0.006086939770024927
70,363.078055,0.005993487301921387
71,365.81,0.005959072667184644
72,375.18999999999994,0.005793911018621206
73,384.82000000000005,0.00547089357132207
74,394.69,0.005466976717236662
75,404.81000000000006,0.005353753064415554
76,414.24,0.005195892456104976
77,416.86938299999997,0.005143198668270024
78,421.95000000000005,0.005039631844279444
79,429.79,0.0049101129933507934
80,440.81,0.0047750205268668995
81,451.08000000000004,0.00459213670556113
82,460.53,0.004455818376316774
83,470.17,0.004324202176960627
84,478.630092,0.004230978198675651
85,480.02000000000004,0.004214003377959615
86,490.07,0.004024748783979
87,500.33,0.003929558983556998
88,506.11999999999995,0.0038310881488159265
89,511.98,0.0038784599119277264
90,520.3,0.0037792698281547193
91,529.98,0.003624551788380355
92,539.83,0.0034450086291058215
93,549.5408739999999,0.003329210497457554
94,549.87,0.0033254361413805503
95,560.09,0.0032936206060285396
96,570.5,0.003240594193796208
97,579.77,0.0031042810428458033
98,590.5500000000001,0.003047296080899162
99,600.15,0.0028996281964197785
100,609.9,0.0025644382512454043
101,619.8100000000001,0.0028002290413297075
102,629.88,0.002700217566672687
103,630.957344,0.0026949813652781245
104,640.11,0.002655233298828398
105,650.51,0.002582789058910645
106,658.0500000000001,0.0025007261349702737
107,665.67,0.0024974189784151505
108,674.93,0.0024456580532576126
109,684.32,0.0023278337501011024
110,695.43,0.0023414474457274254
111,705.11,0.0022197012993424394
112,716.5699999999999,0.0022473389772792226
113,724.43596,0.002207780179489803
114,726.53,0.0021969808622683508
115,734.95,0.0021603531476918087
116,745.17,0.002115732698407692
117,755.54,0.0020722226045646105
118,764.29,0.0019065086719583463
119,774.9200000000001,0.0020008465275463934
120,785.7,0.0019391257385754756
121,794.8,0.0019282139686649608
122,805.85,0.0019054538194879073
123,815.1899999999999,0.001874693618283049
124,824.6199999999999,0.0018603496303428123
125,831.763771,0.001742812751974925
126,834.1700000000001,0.0017019294746675167
127,845.78,0.0017827091090041674
128,855.5699999999999,0.0017452704259857186
129,865.48,0.0017304845221335402
130,875.5,0.0017195100825171097
131,885.64,0.0017047784220669492
132,895.89,0.0016864712258525367
133,904.18,0.0016441463032557094
134,914.6500000000001,0.0020278670355127924
135,925.2399999999999,0.005940033546936146
136,935.96,0.011219162152456292
137,944.62,0.019552970882288797
138,954.992586,0.02638966987114086
139,955.5600000000001,0.02676383546282297
140,964.4,0.029607300570319357
141,975.57,0.00624506296519884
142,984.59,0.024585284588458725
143,995.9899999999999,0.025856800586813795
144,1005.21,0.037160753560922015
145,1014.51,0.03565575187536957
146,1023.9,0.015830624947698876
147,1035.75,0.024979374735462693
148,1045.34,0.046543096158640336
149,1055.01,0.045380592922157306
150,1064.77,0.03557130444355603
151,1074.6200000000001,0.04206694072283651
152,1084.57,0.03282212117754115
153,1094.6,0.04364037697258512
154,1096.4782,0.043259106075303096
155,1104.73,0.04158298328316244
156,1114.95,0.03962238019066304
157,1125.27,0.03532051886829574
158,1135.68,0.044750491139047326
159,1146.19,0.04044428517993102
160,1154.13,0.042736107728419744
161,1164.81,0.04382888077852801
162,1175.59,0.03006485559876836
163,1183.74,0.041854939864534486
164,1194.69,0.02864538369399942
165,1205.75,0.020531687470609655
166,1214.1100000000001,0.0138691834536532
167,1225.3400000000001,0.027861606239488006
168,1233.8300000000002,0.04194346852370328
169,1245.25,0.045981016672789074
170,1253.8799999999999,0.04361146343518929
171,1258.92541,0.04079012032818879
172,1265.48,0.037126138655576735
173,1274.2600000000002,0.048032492503957316
174,1286.05,0.050178455382363575
175,1294.96,0.03923371091642632
176,1303.94,0.03842973735816409
177,1316.0,0.048255203737602545
178,1325.12,0.045873641994690344
179,1334.31,0.04023932115945316
180,1343.56,0.04803349110222312
181,1355.99,0.04619211227937239
182,1365.3899999999999,0.04089182416716025
183,1374.85,0.04291493683295527
184,1384.38,0.0431135904064253
185,1393.98,0.037213624887570344
186,1403.6399999999999,0.03852005014672255
187,1416.63,0.03923530858527194
188,1426.45,0.0401476759191099
189,1436.3400000000001,0.039689574160622874
190,1442.97,0.04184348013041367
191,1445.43977,0.042277083254519086
192,1446.29,0.04242635140835245
193,1456.3200000000002,0.04108167056374266
194,1466.4099999999999,0.03755849037210628
195,1476.5800000000002,0.03730017105110114
196,1483.3899999999999,0.03790566516358442
197,1493.68,0.03843247714852612
198,1504.0300000000002,0.03611983978644123
199,1510.97,0.03197720531370026
200,1517.95,0.034259601276274906
201,1524.9499999999998,0.03302249745650735
202,1535.52,0.028505642488658348
203,1546.17,0.03139505839144057
204,1553.3,0.029437985986448763
205,1564.07,0.02984769319517783
206,1574.9099999999999,0.03175815116570922
207,1585.83,0.033251360006871844
208,1596.82,0.03379133960983678
209,1604.19,0.03302339981673866
210,1615.3100000000002,0.03294766083447935
211,1626.51,0.030966112722851262
212,1634.02,0.03287198445335779
213,1645.3400000000001,0.03332911764767655
214,1656.75,0.030471021821455436
215,1659.58691,0.03153242464530132
216,1664.39,0.03332978442422702
217,1672.08,0.02943986559244201
218,1675.9299999999998,0.03340754157392806
219,1683.6699999999998,0.03481853671592858
220,1695.34,0.03242556419747201
221,1703.1599999999999,0.030970365697529378
222,1714.97,0.029309334305672296
223,1726.8600000000001,0.029041639271872064
224,1734.83,0.03090124269328604
225,1746.8500000000001,0.030061407991328195
226,1754.92,0.03205913936031323
227,1763.0199999999998,0.029111753113569595
228,1775.2399999999998,0.029857944306753884
229,1783.43,0.0302728252128242
230,1795.79,0.032433757532607986
231,1804.0800000000002,0.03191607638624937
232,1816.59,0.029384550627389747
233,1824.97,0.02986190663384509
234,1833.4,0.028520536614085972
235,1846.1,0.026019275955611376
236,1854.6299999999999,0.026139743883423324
237,1863.19,0.02699399419550659
238,1876.1,0.02905381022693123
239,1884.76,0.026748828486585562
240,1893.4599999999998,0.02572608992526832
241,1905.46072,0.02694565145656334
242,1906.59,0.02706020800184415
243,1915.3899999999999,0.02602273648518158
244,1924.23,0.025373830870716003
245,1933.1100000000001,0.025724221158447413
246,1946.51,0.027243108394438505
247,1955.49,0.025486378437662386
248,1969.05,0.02793742928244143
249,1978.1399999999999,0.02845480805670703
250,1982.7,0.0270522409071637
251,1996.4399999999998,0.02619441331182919
252,2005.6599999999999,0.026801428768235006
253,2014.91,0.025834351151288553
254,2024.2099999999998,0.02667716841208834
255,2033.5600000000002,0.025596760550634364
256,2042.94,0.026675099615828132
257,2057.1,0.025417458993562
258,2066.6,0.025359175765346728
259,2076.14,0.027229788439328446
260,2085.7200000000003,0.029781347015507154
261,2095.35,0.027924550469432093
262,2105.02,0.027795099825554025
263,2114.74,0.02850479405942219
264,2124.5,0.02824400419548734
265,2134.3,0.026180420233749484
266,2144.16,0.027983630125307107
267,2154.05,0.028699516943512474
268,2163.9900000000002,0.027158138639464077
269,2173.98,0.026908715213161908
270,2184.02,0.027915546664605984
271,2187.7616199999998,0.028229388907495895
272,2194.1,0.028762211064652113
273,2204.23,0.027916228469803583
274,2214.4,0.025290549142102742
275,2224.62,0.025406983898336503
276,2234.89,0.028765442738504874
277,2245.21,0.027347245662607853
278,2255.57,0.024718471853858517
279,2265.98,0.02460672212904379
280,2276.44,0.025705336488163668
281,2286.9500000000003,0.028375704931218156
282,2297.5,0.02571573664142033
283,2302.8,0.02724221953848872
284,2313.43,0.024978897782986263
285,2324.11,0.019727660111418417
286,2334.84,0.021637136523785176
287,2345.61,0.019569586203299624
288,2356.44,0.023853130783535594
289,2367.32,0.019771099447706175
290,2372.77,0.021332024596578392
291,2383.73,0.018302109795044343
292,2394.73,0.020026018260657984
293,2405.7799999999997,0.019316070810206233
294,2416.89,0.020326198260476006
295,2422.46,0.024486543210791276
296,2433.64,0.023943656378569506
297,2444.87,0.02650430363028234
298,2456.16,0.026886275782716698
299,2467.5,0.025054082019085672
300,2473.1800000000003,0.023393005954057078
301,2484.6,0.02072586872472142
302,2496.07,0.02092941557932037
303,2507.59,0.025982606517853928
304,2511.88643,0.0208097881269209
305,2513.37,0.019023430546312718
306,2519.16,0.018596507513965764
307,2524.9700000000003,0.01822082384938272
308,2536.62,0.02082439557186251
309,2542.47,0.020974050642807298
310,2554.21,0.028151369520224696
311,2566.0,0.024093896817051885
312,2577.84,0.02779526253328885
313,2583.7900000000004,0.026070484443053207
314,2595.71,0.02468683763034583
315,2607.6899999999996,0.022793528920930197
316,2613.7,0.02177700893398629
317,2625.77,0.025235487379508273
318,2637.89,0.03426879424444003
319,2643.97,0.04234882204466983
320,2656.17,0.05394181638065725
321,2662.3,0.037610012600296824
322,2674.58,0.0417310444073399
323,2686.9300000000003,0.04619753400155667
324,2693.12,0.03672123832448799
325,2705.5600000000004,0.04285769507364237
326,2718.04,0.03399949055832458
327,2724.31,0.02942664235231156
328,2736.8799999999997,0.034659714991931385
329,2743.1899999999996,0.023897135521446188
330,2755.8500000000004,0.028273655316003624
331,2762.21,0.033753794264928215
332,2774.96,0.03568771121442326
333,2787.77,0.02612684626721005
334,2794.1899999999996,0.01682038331942638
335,2807.0899999999997,0.018788565527150778
336,2813.56,0.03283574099877689
337,2826.5499999999997,0.0428925203614389
338,2833.06,0.040883824568592846
339,2846.14,0.03258201108619247
340,2852.7000000000003,0.0239564737127562
341,2865.87,0.041510867385293436
342,2872.48,0.052377108431266944
343,2884.0315,0.04867808373920756
344,2885.73,0.04813424216867728
345,2892.3900000000003,0.05668798786003891
346,2912.44,0.0737502048888378
347,2932.6200000000003,0.06519518183353414
348,2952.95,0.06090381868118906
349,2973.42,0.06368318543827202
350,2987.15,0.06445955655574875
351,3007.8500000000004,0.06496518316403489
352,3028.7,0.06871710967527961
353,3049.69,0.07103384609595237
354,3070.83,0.0768857024195837
355,3092.12,0.07555490864617366
356,3113.5499999999997,0.0862247847821916
357,3127.92,0.08034041548562502
358,3149.61,0.08060412145343789
359,3171.4399999999996,0.08785200733067877
360,3193.42,0.07642292311087824
361,3208.16,0.08423179357494287
362,3230.4,0.07160773918693723
363,3252.79,0.09823914470189021
364,3267.81,0.11364057498481088
365,3290.46,0.11142406033155873
366,3311.31121,0.10560508750944726
367,3313.27,0.10505842261756235
368,3320.9,0.10059852825695356
369,3328.56,0.10932373352533321
370,3336.23,0.11088163867004235
371,3343.92,0.1039977435674104
372,3351.63,0.10307964821743744
373,3359.36,0.11410115262012342
374,3367.1,0.1080087568991389
375,3374.86,0.0784691909308133
376,3382.64,0.09157987471514667
377,3390.44,0.11089046825213901
378,3398.26,0.10741127154179028
379,3406.09,0.11096717470777105
380,3413.9399999999996,0.10848077762641076
381,3421.81,0.11547428029770943
382,3429.7,0.10930698272166704
383,3437.6099999999997,0.11137668489828362
384,3445.53,0.07329602695122968
385,3453.4700000000003,0.11697298875683469
386,3461.44,0.09578274019142813
387,3469.4199999999996,0.10385259150235106
388,3477.4100000000003,0.09049225268960344
389,3485.43,0.10344869350584426
390,3493.4700000000003,0.09202645407474405
391,3501.52,0.10544539451997333
392,3509.59,0.11591979471786154
393,3517.6800000000003,0.0966844646684087
394,3525.79,0.09851578437161482
395,3533.9199999999996,0.1181987938274799
396,3542.0600000000004,0.12845489315967445
397,3550.2299999999996,0.12557659212085745
398,3558.4100000000003,0.11616789095836991
399,3566.62,0.12001278942487081
400,3574.84,0.08819969776770119
401,3583.08,0.08563124586319051
402,3591.34,0.0818098437113388
403,3599.62,0.12671958131214603
404,3607.92,0.10472467866561223
405,3616.2300000000005,0.1132889758954079
406,3624.5699999999997,0.11177537275419201
407,3632.92,0.1372336694893056
408,3641.3,0.1379170658534076
409,3649.69,0.11397636209383909
410,3658.11,0.14857165796325902
411,3666.54,0.1489575537090084
412,3674.9900000000002,0.14765874920741678
413,3683.46,0.12400494445848408
414,3691.95,0.11929133946221034
415,3700.46,0.14781533421859555
416,3709.0,0.10567152860396921
417,3717.55,0.16144772286567233
418,3726.12,0.09512732688003442
419,3734.7000000000003,0.11978741077072598
420,3743.32,0.13321410416673546
421,3751.94,0.07867735756274492
422,3760.5899999999997,0.12186969058774282
423,3769.2599999999998,0.11941588336539967
424,3777.95,0.14394547589571546
425,3786.66,0.16761406817869023
426,3795.3900000000003,0.12721556021432395
427,3801.8939600000003,0.1179441777132245
428,3804.14,0.11474245779026329
429,3812.91,0.1505975719299492
430,3821.7000000000003,0.11696348587383051
431,3830.5099999999998,0.08816384962190724
432,3839.34,0.07915698317417937
433,3848.19,0.1278001265306469
434,3857.06,0.13325653969130985
435,3865.9500000000003,0.1333074526561682
436,3874.86,0.10966416542522195
437,3883.8,0.11809067790056882
438,3892.75,0.10824339027801338
439,3901.7200000000003,0.14979740245965337
440,3910.72,0.15229511434758647
441,3919.73,0.16588582613761724
442,3928.77,0.13836453763394116
443,3937.82,0.05314894903236275
444,3946.8999999999996,0.12629326013707748
445,3956.0,0.16577157104598758
446,3965.12,0.12581178175909313
447,3976.5499999999997,0.14164656985676813
448,3979.29,0.09612974303153889
449,3982.0299999999997,0.12687241620630962
450,3984.7700000000004,0.13256688938108036
451,3987.51,0.2077698625558511
452,3990.25,0.15596323573062182
453,3992.9900000000002,0.18370080890539256
454,3995.73,0.18873998208016332
455,3998.4599999999996,0.18114605535283634
456,4001.2,0.1960926285276071
457,4003.94,0.18946860170237784
458,4006.6800000000003,0.27912007487714857
459,4009.42,0.16945384805191932
460,4012.1600000000003,0.23909062122669006
461,4014.9,0.18404339440146078
462,4017.6400000000003,0.13381986757623152
463,4020.38,0.16527054075100225
464,4023.12,0.21580641392577302
465,4025.8500000000004,0.24698558719844604
466,4028.59,0.17903286037321678
467,4031.3300000000004,0.25350923354798754
468,4034.07,0.2673708067227583
469,4036.81,0.25807717989752904
470,4039.55,0.26482945307229977
471,4042.29,0.2712248262470705
472,4045.03,0.19059549942184123
473,4047.77,0.19888957259661197
474,4050.5,0.183087145869285
475,4053.2400000000002,0.17192341904405575
476,4055.98,0.1971484922188265
477,4058.7200000000003,0.19936106539359721
478,4061.46,0.18067403856836797
479,4064.2,0.22725561174313869
480,4066.94,0.23679168491790945
481,4069.68,0.1943355580926802
482,4072.42,0.29407983126745096
483,4075.16,0.2796611044422217
484,4077.8900000000003,0.2096254777148947
485,4080.63,0.19566365088966545
486,4083.37,0.22678462406443617
487,4086.11,0.19933229723920692
488,4088.85,0.25740577041397766
489,4091.59,0.1839427435887484
490,4094.33,0.20913931676351913
491,4097.07,0.19246518993828987
492,4099.8099999999995,0.20284346311306062
493,4102.55,0.15631883628783136
494,4105.28,0.1990326095605044
495,4108.02,0.18688378273527514
496,4110.76,0.20477115591004588
497,4113.5,0.21667702908481662
498,4116.24,0.24996780225958734
499,4118.98,0.2123654754343581
500,4121.72,0.20859654860912882
501,4124.46,0.23009562178389958
502,4127.2,0.1853268949586703
503,4129.9400000000005,0.18174356813344106
504,4132.67,0.19232264140611408
505,4135.41,0.17961711458088483
506,4138.15,0.22766918775565556
507,4140.889999999999,0.22665536093042632
508,4143.63,0.19757563410519705
509,4146.37,0.2481972072799678
510,4149.11,0.23098058045473852
511,4151.85,0.22999535362950926
512,4154.59,0.23367842680428
513,4157.32,0.27235240007695305
514,4160.0599999999995,0.2416593732517238
515,4162.8,0.16682584642649453
516,4165.54,0.18225771960126527
517,4168.28,0.222729392776036
518,4171.0199999999995,0.24708356595080674
519,4173.76,0.2112942391255775
520,4176.5,0.26494221230034826
521,4179.24,0.270338185475119
522,4181.9800000000005,0.2502950586498897
523,4184.71,0.23242283192256274
524,4187.45,0.2826304050973335
525,4190.19,0.27941827827210425
526,4192.93,0.23277925144687497
527,4195.67,0.1947772246216457
528,4198.41,0.25643389779641645
529,4201.150000000001,0.2866411709711872
530,4203.89,0.2219862441459579
531,4206.63,0.14928001732072865
532,4209.37,0.1860968904954994
533,4212.099999999999,0.24070246376817245
534,4214.84,0.23503483694294316
535,4217.58,0.2251559101177139
536,4220.320000000001,0.24151578329248466
537,4223.06,0.2656130564672554
538,4225.8,0.25754712964202614
539,4228.54,0.19828840281679688
540,4231.28,0.17864497599156762
541,4234.02,0.21077944916633837
542,4236.76,0.2073674223411091
543,4239.49,0.20404199561378214
544,4242.2300000000005,0.21674726878855288
545,4244.97,0.25039504196332363
546,4247.71,0.23452031513809435
547,4250.45,0.2224571883128651
548,4253.19,0.23179336148763582
549,4255.93,0.17099303466240656
550,4258.67,0.2333492078371773
551,4261.41,0.25586178101194806
552,4264.15,0.23686075418671879
553,4266.88,0.22245742745939184
554,4269.62,0.22906700063416258
555,4272.36,0.24102997380893332
556,4275.1,0.21941634698370405
557,4277.84,0.21718922015847478
558,4280.58,0.23175029333324554
559,4283.32,0.20802396650801627
560,4286.0599999999995,0.211621239682787
561,4288.8,0.19928691285755776
562,4291.53,0.16768128613023078
563,4294.27,0.1981027593050015
564,4297.01,0.23500543247977226
565,4299.75,0.18184240565454302
566,4302.49,0.17660307882931375
567,4305.23,0.1827130520040845
568,4307.97,0.19661742517885525
569,4310.71,0.210336298353626
570,4313.45,0.23680327152839672
