,lambda (Angstroms),Total Flux (erg/s/cm^2/Angstrom)
0,100.1,0.000952456684429673
1,101.97,0.0011451707581582905
2,104.10000000000001,0.00136467281585554
3,104.712855,0.001427831755205706
4,106.04,0.0013137429693034497
5,108.01,0.0011443986562758406
6,110.02,0.0009716546675030016
7,113.88000000000001,0.0006398729999382434
8,117.88,0.0002960651108151805
9,120.22644299999999,9.516199987161517e-05
10,120.91,9.268719846180655e-05
11,124.87,7.731717580358188e-05
12,126.9,6.940563473131012e-05
13,128.07,6.487362824138017e-05
14,131.06,5.323386510044788e-05
15,131.96,5.0074712723578617e-05
16,134.10999999999999,4.171225126772442e-05
17,136.92,3.132419820216601e-05
18,138.038426,2.7011690552682788e-05
19,140.10999999999999,2.6974333702121447e-05
20,143.04000000000002,3.280292769969255e-05
21,147.04999999999998,4.6043909430156764e-05
22,151.17000000000002,4.774851552230452e-05
23,155.04,5.0039638065171486e-05
24,158.489319,5.246613596602257e-05
25,159.01999999999998,5.2799453365949566e-05
26,161.98000000000002,5.457969769232141e-05
27,166.13,5.752731044720086e-05
28,170.0,5.996972063066675e-05
29,173.16000000000003,6.220836822233398e-05
30,177.2,6.501638818130096e-05
31,180.07999999999998,6.717274320155466e-05
32,181.970086,6.852860907819637e-05
33,182.16,6.87190380706848e-05
34,185.97,7.295375383635936e-05
35,191.19,7.843391417673237e-05
36,193.83999999999997,8.218679320010182e-05
37,197.89999999999998,8.671604679816972e-05
38,202.05,9.170100281589924e-05
39,204.86,9.544155725200041e-05
40,208.929613,9.757822382459569e-05
41,210.10999999999999,9.861394665843018e-05
42,216.0,0.00011205946135915314
43,220.02,0.0001194328604587977
44,223.08,0.00012369368962419875
45,227.22,0.00013166299496562373
46,229.85999999999999,0.00019034037228479327
47,234.13,0.0002902064227214804
48,239.88329199999998,0.0003593203475566255
49,240.13,0.0003620942133141904
50,245.73000000000002,0.00034958843227151065
51,252.03,0.0003768280785984959
52,256.72,0.00032847925197525155
53,260.29,0.0003788378615605432
54,263.91,0.00041642979452938234
55,268.82,0.00043045951079374704
56,273.81,0.0004441694244717877
57,275.42287,0.00044361061110403645
58,278.90000000000003,0.0004449044514411027
59,284.09,0.00048575404474487726
60,290.03999999999996,0.0005054024278195321
61,296.10999999999996,0.0005269383355948524
62,300.92,0.0005218470340131869
63,307.93,0.0005886449186103854
64,316.227766,0.0006597806099798505
65,318.02,0.0006739931286490908
66,327.68,0.0007664762724807346
67,337.64000000000004,0.0008311274835121187
68,347.90000000000003,0.0009018648617432434
69,356.82,0.0012167355198155272
70,363.078055,0.0016456620163886064
71,365.97999999999996,0.001845965262351627
72,375.37,0.0020659499757151277
73,384.99,0.0019672144743899814
74,394.87,0.0030491991216776686
75,405.0,0.004115280796477697
76,414.43,0.0045531579942431726
77,416.86938299999997,0.004570192660856044
78,422.14000000000004,0.004606551169483551
79,429.99,0.004823134188591928
80,441.02000000000004,0.006191188905886883
81,451.29,0.006959672902860517
82,459.68,0.006787810644302464
83,470.39,0.007542985637251599
84,478.630092,0.008831196066851702
85,480.23999999999995,0.009082406669036541
86,490.29,0.008536062709935194
87,500.56000000000006,0.011059752041281384
88,506.35,0.010228665912605087
89,512.2199999999999,0.01626400643500062
90,520.5400000000001,0.016413428146470947
91,530.22,0.016336722926162388
92,540.07,0.01456210933938147
93,549.5408739999999,0.015074170792649924
94,550.12,0.015105547562031007
95,560.34,0.02046069251721487
96,569.45,0.023868237756131217
97,580.03,0.024535723159834277
98,589.46,0.026227901019656573
99,600.42,0.023539635785685454
100,610.1700000000001,0.023702136266413702
101,620.09,0.030950747514498236
102,630.1600000000001,0.030456200616132436
103,630.957344,0.03076994721617503
104,640.4,0.03448673857359154
105,649.3100000000001,0.03456634084081851
106,658.35,0.03293564262485126
107,664.44,0.03755241845059899
108,675.23,0.0405160183454788
109,684.63,0.036363216483742945
110,695.75,0.0429164905366682
111,705.43,0.03644936917266787
112,715.24,0.04683957732547332
113,724.43596,0.04836141942764928
114,725.19,0.04848618193405396
115,735.28,0.04972831220320386
116,745.5100000000001,0.04950096830364027
117,754.14,0.05030517776080218
118,764.63,0.0465203846907707
119,775.27,0.052676237868546215
120,784.25,0.04984597190392441
121,795.1600000000001,0.0542753463277525
122,804.3699999999999,0.05643970994310141
123,815.5600000000001,0.057756116029502536
124,825.0,0.05964933922482216
125,831.763771,0.052223482000552005
126,834.5500000000001,0.049164147950657405
127,844.22,0.06047812988176879
128,855.96,0.06047679384983989
129,865.87,0.06332263398813501
130,875.9,0.064497243230022
131,884.0000000000001,0.0655444077224731
132,894.24,0.06661046789564584
133,904.59,0.06614917808044449
134,915.07,0.06599537646080098
135,925.67,0.16345997394474931
136,934.23,0.27125659666763596
137,945.0500000000001,0.39570251417483604
138,954.992586,0.47749274098613065
139,955.99,0.4856977970390518
140,964.84,0.5374780700214203
141,976.0099999999999,0.18340120970651158
142,985.04,0.44911798010547077
143,994.1600000000001,0.4470557492127252
144,1005.6700000000001,0.581262384018043
145,1014.97,0.5799149505418879
146,1024.36,0.3494421157740282
147,1033.8400000000001,0.4790308797144637
148,1045.81,0.7216755079177352
149,1055.49,0.7020450689877157
150,1065.26,0.5852708287659916
151,1075.11,0.6582009873960855
152,1085.06,0.5589343445909518
153,1095.1,0.6797751004941135
154,1096.4782,0.6762280864196325
155,1105.23,0.653703687582763
156,1115.46,0.6358601280509415
157,1125.78,0.5680450644763182
158,1136.2,0.6829094964096927
159,1144.07,0.6373203428891222
160,1154.66,0.6536939671860931
161,1165.34,0.6566771874402619
162,1176.1299999999999,0.46063180275322835
163,1184.28,0.6285868366550519
164,1195.24,0.5015993443316147
165,1206.3,0.41054184751617534
166,1214.66,0.31071827198479435
167,1225.9,0.4845709670837511
168,1234.3899999999999,0.6285963857127673
169,1245.82,0.66582747227692
170,1254.45,0.6432308846171332
171,1258.92541,0.6234994065425146
172,1266.06,0.5920443063775743
173,1274.84,0.6971568344308315
174,1283.67,0.7167362626438453
175,1295.55,0.6030539006020109
176,1304.5300000000002,0.5988778292942945
177,1313.57,0.7020487581782859
178,1325.73,0.6719479970310885
179,1334.92,0.6185036263943497
180,1344.17,0.6891912559493187
181,1353.49,0.6688593857279471
182,1366.01,0.6142745257309972
183,1375.48,0.6256554559888953
184,1385.0100000000002,0.6256607864385012
185,1394.6100000000001,0.5121043171117665
186,1404.28,0.5121010480086909
187,1414.01,0.5825687790973233
188,1423.8200000000002,0.5799003104415661
189,1433.69,0.587981641977517
190,1443.62,0.6044654737051757
191,1445.43977,0.6067457660898511
192,1446.9499999999998,0.6086381835694759
193,1453.6299999999999,0.5906914014828398
194,1463.71,0.5537771285137844
195,1473.85,0.5550810557056273
196,1484.0700000000002,0.5602262831120015
197,1494.3600000000001,0.5615298107060908
198,1504.71,0.5337707384610784
199,1511.6599999999999,0.4879268570984856
200,1518.64,0.510919775816342
201,1525.65,0.49929489461464766
202,1536.22,0.43586972295959636
203,1543.31,0.43387194197243334
204,1554.0100000000002,0.4210737706659955
205,1564.78,0.44705239954727244
206,1575.63,0.4735406286430808
207,1586.55,0.487928757926604
208,1593.8700000000001,0.4935800775562184
209,1604.9199999999998,0.48123650718835503
210,1616.05,0.4768179370350229
211,1623.51,0.45957565704006714
212,1634.76,0.482344087208532
213,1646.0900000000001,0.4845719175915282
214,1653.6899999999998,0.46169663797200217
215,1659.58691,0.47461737019901257
216,1665.1499999999999,0.4868067627303089
217,1672.84,0.44295181332761213
218,1676.7,0.49585358892001663
219,1684.43,0.5027565403006609
220,1696.1100000000001,0.47682146903622685
221,1703.9399999999998,0.4616979223752235
222,1715.75,0.43889595365664763
223,1723.6699999999998,0.43387150875816155
224,1735.62,0.4564113427812791
225,1743.6299999999999,0.4470554996453102
226,1755.72,0.4638269364101212
227,1763.8200000000002,0.4358711950366695
228,1776.0500000000002,0.43687793454317386
229,1784.24,0.4429604949322394
230,1796.61,0.45957973718043726
231,1804.9,0.4574657995278552
232,1813.23,0.4259533626586141
233,1825.8,0.4318766088235168
234,1834.23,0.4191426739126282
235,1846.94,0.3893724228192244
236,1855.4699999999998,0.39027228986668816
237,1864.04,0.398437557697493
238,1876.96,0.4181775107166293
239,1885.6200000000001,0.3875808803099513
240,1894.32,0.3727092506866143
241,1903.07,0.39206892204245347
242,1905.46072,0.3893415542840732
243,1916.26,0.3770210962508382
244,1925.1,0.3659055730993507
245,1933.9899999999998,0.3778906486856941
246,1942.9199999999998,0.39026752326230224
247,1956.38,0.36338338348639476
248,1965.4099999999999,0.39027085553866486
249,1974.4900000000002,0.39935542632876586
250,1983.6000000000001,0.3796323963615655
251,1992.76,0.36928236513219603
252,2006.57,0.3778855165211052
253,2015.8300000000002,0.3684389827673977
254,2025.14,0.3796320477515211
255,2034.4799999999998,0.3592239119783431
256,2043.8700000000001,0.367587074942996
257,2053.31,0.33756913664547994
258,2062.79,0.3454281973382286
259,2072.31,0.37442185702124203
260,2077.08,0.3559260366103149
261,2086.67,0.36589929452629166
262,2096.3,0.34782695143253317
263,2105.98,0.3502376070766056
264,2115.7000000000003,0.3526644617109429
265,2125.4700000000003,0.35510211508311107
266,2135.2799999999997,0.336791167445544
267,2145.13,0.3383429187982417
268,2155.03,0.34782556888877036
269,2164.98,0.33756691771713
270,2174.97,0.33524236553575437
271,2185.01,0.3283694120922097
272,2187.7616199999998,0.3313019586869233
273,2195.1,0.33912319032688654
274,2205.23,0.33140199420690103
275,2215.41,0.31795359909323345
276,2225.6400000000003,0.3099993049858838
277,2235.9100000000003,0.3216339116835885
278,2246.23,0.31143261938761113
279,2256.6,0.30085442809795176
280,2267.01,0.30504863761334666
281,2277.48,0.3085760483363231
282,2282.73,0.31143335399970673
283,2293.26,0.2947101659302647
284,2303.85,0.29623967906840426
285,2314.48,0.2870028930115981
286,2325.17,0.24273270816237347
287,2335.9,0.2718770241182032
288,2346.68,0.26583854108035093
289,2357.5099999999998,0.2772449590488165
290,2362.9500000000003,0.2618146685362083
291,2373.85,0.26499948791351907
292,2384.81,0.2503195084984113
293,2395.8199999999997,0.2610569300896215
294,2406.88,0.2529257526871496
295,2412.4300000000003,0.2553382643884409
296,2423.56,0.2638603883948141
297,2434.75,0.25505141360876893
298,2445.9900000000002,0.26356273982904166
299,2457.28,0.2594970670556323
300,2462.94,0.257198680970823
301,2474.31,0.2503357098075224
302,2485.73,0.25280443965053967
303,2497.2,0.22806257049987494
304,2502.96,0.25595948642770155
305,2511.88643,0.2403361723160955
306,2514.5099999999998,0.23574424564811752
307,2520.31,0.24242280046941925
308,2526.12,0.23588475521282667
309,2537.78,0.23657296438806427
310,2543.63,0.23232261881989444
311,2555.3700000000003,0.24119102737197756
312,2567.1699999999996,0.23692963545669485
313,2573.08,0.2447700894211592
314,2584.96,0.242118596882722
315,2596.89,0.23894130395481328
316,2602.88,0.23250075729612316
317,2614.8900000000003,0.22945536374505998
318,2626.96,0.23494626972663096
319,2633.02,0.2377431225226807
320,2645.17,0.24853232788109722
321,2657.3799999999997,0.2498326327721479
322,2663.51,0.23431158502293747
323,2675.7999999999997,0.23991628929083372
324,2681.9700000000003,0.23889304123004604
325,2694.35,0.2298714447968935
326,2706.79,0.2326787478963751
327,2713.03,0.2248502992903273
328,2725.5499999999997,0.22448250176665444
329,2738.1299999999997,0.22985390377561576
330,2744.44,0.2106698546243078
331,2757.1099999999997,0.21226815593222034
332,2763.4700000000003,0.21628480639144085
333,2776.22,0.22197750707619893
334,2782.62,0.21401885722384217
335,2795.46,0.1861008572075515
336,2801.9100000000003,0.19448680696572324
337,2814.84,0.2173533062483838
338,2827.8399999999997,0.22205230498578418
339,2834.35,0.2145884542765901
340,2847.44,0.2112968523129417
341,2854.0,0.20608270121427608
342,2867.17,0.21643729862747324
343,2873.78,0.21452304713933604
344,2884.0315,0.2138730360915633
345,2887.0499999999997,0.21368166680480036
346,2893.7000000000003,0.2113081657447075
347,2907.0600000000004,0.2203995636149571
348,2927.21,0.21412176040279612
349,2947.5,0.2099471571683174
350,2967.93,0.21016505391152093
351,2988.5099999999998,0.20893795063081264
352,3009.2200000000003,0.20819614732938066
353,3030.08,0.20698254400403684
354,3051.08,0.2053013406563753
355,3072.23,0.20410933728480185
356,3093.5299999999997,0.20292133388931655
357,3107.81,0.20120273161290667
358,3129.3500000000004,0.1977499281791624
359,3151.04,0.19705632472150622
360,3172.88,0.19546282123993822
361,3187.53,0.18810071890454574
362,3209.6200000000003,0.1904861153831246
363,3231.87,0.18465311183619745
364,3246.79,0.18909260945776363
365,3269.2900000000004,0.19106040587098339
366,3291.96,0.18908700225710304
367,3307.1499999999996,0.1879264998356278
368,3311.31121,0.1884389792984088
369,3322.4199999999996,0.189807065319885
370,3330.07,0.1911962420076417
371,3337.75,0.18864861860397789
372,3345.45,0.184847595139367
373,3353.16,0.18196387164428257
374,3360.8900000000003,0.18287374808825116
375,3368.64,0.18379012447127266
376,3376.4,0.17397820082382068
377,3384.18,0.17809847711542162
378,3391.99,0.186131553315602
379,3399.81,0.18966632948530887
380,3407.6400000000003,0.17871600562454223
381,3415.5,0.18169228167235502
382,3423.37,0.1885826576896943
383,3431.2599999999998,0.1882250336460865
384,3439.1699999999996,0.18657180954153169
385,3447.1000000000004,0.17499148537602985
386,3455.05,0.17708416114958095
387,3463.01,0.17074713689265852
388,3471.0,0.17804301254431554
389,3479.0,0.16970548816549905
390,3487.02,0.1741291637257355
391,3495.06,0.1754086392250249
392,3503.1099999999997,0.17669361469384082
393,3511.19,0.17393979007123614
394,3519.28,0.17481266541815796
395,3527.3900000000003,0.17050844070413274
396,3535.53,0.17656821589868693
397,3543.6800000000003,0.18075339106276764
398,3551.85,0.18082926616590128
399,3560.03,0.1775994412385614
400,3568.24,0.17124501621980098
401,3576.47,0.1647397911400935
402,3584.71,0.1606848660299125
403,3592.97,0.16038224085878447
404,3601.26,0.17390681559623586
405,3609.56,0.16846409030321374
406,3617.88,0.16930986494924458
407,3626.22,0.17695353953432838
408,3634.58,0.17062171405846513
409,3636.1,0.15619120942649
410,3638.8399999999997,0.17282310107674537
411,3641.58,0.19274019272700071
412,3644.3199999999997,0.20668318437725605
413,3647.06,0.1723352760275114
414,3649.8,0.14382576767776675
415,3652.55,0.1570252592975486
416,3655.29,0.14347805094780391
417,3658.0299999999997,0.16930944259805927
418,3660.77,0.18033043424831463
419,3663.5099999999998,0.20820012589856998
420,3666.25,0.19579671754882533
421,3668.99,0.19938010919908067
422,3671.7300000000005,0.19973790084933601
423,3674.4700000000003,0.18437459249959137
424,3677.21,0.17405838414984673
425,3679.9500000000003,0.18241217580010208
426,3682.69,0.1774248674503574
427,3685.4300000000003,0.17988605910061276
428,3688.17,0.1722044507508681
429,3690.91,0.16004494240112346
430,3693.65,0.16272303405137878
431,3696.39,0.14793972570163413
432,3699.13,0.1670978173518895
433,3701.87,0.17241040900214485
434,3704.6099999999997,0.1669731006524002
435,3707.35,0.17595039230265552
436,3710.0899999999997,0.1642517839529109
437,3712.83,0.14950647560316624
438,3715.57,0.1791814672534216
439,3718.3100000000004,0.18175105890367696
440,3721.05,0.23114785055393228
441,3723.79,0.41027094220418764
442,3726.53,0.737823033854443
443,3729.27,1.0385840255046983
444,3732.01,1.0753390171549537
445,3734.75,0.760103908805209
446,3737.49,0.40844430045546437
447,3740.23,0.23333269210571972
448,3742.97,0.22192678375597508
449,3745.71,0.19961907540623045
450,3748.45,0.18058566705648577
451,3751.1899999999996,0.1692014587067411
452,3753.93,0.15029265035699646
453,3756.6699999999996,0.18039054200725183
454,3759.4100000000003,0.19362883365750716
455,3762.15,0.17829262530776252
456,3764.8900000000003,0.18012491695801786
457,3767.63,0.18334510860827322
458,3770.37,0.18838130025852856
459,3773.12,0.17027399187831038
460,3775.8599999999997,0.18958918352856574
461,3778.6,0.2015588751788211
462,3781.34,0.20829736682907646
463,3784.0800000000004,0.21304075847933177
464,3786.82,0.22059235012958714
465,3789.56,0.2131329417798425
466,3792.3,0.20721853343009783
467,3795.04,0.18586502508035316
468,3797.78,0.17997781673060853
469,3800.52,0.18094270838086388
470,3801.8939600000003,0.18931533562458377
471,3803.2599999999998,0.19763970089848917
472,3806.0,0.20159699428851324
473,3808.74,0.20694218767853734
474,3811.48,0.2019656810685614
475,3814.22,0.2018735744585855
476,3816.9599999999996,0.19551466784860957
477,3819.7,0.19887576123863365
478,3822.4399999999996,0.2084819546286577
479,3825.1800000000003,0.19416484801868178
480,3827.92,0.18350164140870587
481,3830.6600000000003,0.19312403479872997
482,3833.4,0.17533212818875404
483,3836.1400000000003,0.17912152157877811
484,3838.88,0.15838591496880217
485,3841.62,0.19016960835882624
486,3844.36,0.20657380174885032
487,3847.1,0.20615099513887442
488,3849.84,0.2056901885288985
489,3852.58,0.22308648191892255
490,3855.3199999999997,0.21188657530894664
491,3858.06,0.21478136869897071
492,3860.7999999999997,0.2210536620889948
493,3863.54,0.23000925547901888
494,3866.28,0.24217964886904295
495,3869.0200000000004,0.284843542259067
496,3871.76,0.2986998356490911
497,3874.5,0.2825287290391152
498,3877.2400000000002,0.23186882242913925
499,3879.98,0.20629221581916335
500,3882.7200000000003,0.2191293092091874
501,3885.46,0.21366490259921148
502,3888.2,0.21439129598923556
503,3890.94,0.24822428937925964
504,3893.69,0.22270078274515973
505,3896.4300000000003,0.2193234761351838
506,3899.17,0.21360426952520786
507,3901.9100000000003,0.20617746291523195
508,3904.65,0.21002635630525604
509,3907.39,0.22631664969528012
510,3910.13,0.2308433430853042
511,3912.87,0.22321583647532825
512,3915.61,0.20990172986535233
513,3918.35,0.2128508232553764
514,3921.0899999999997,0.2126719166454005
515,3923.83,0.21401641003542457
516,3926.5699999999997,0.21619030342544865
517,3929.31,0.20229609681547273
518,3932.05,0.19600229020549678
519,3934.7900000000004,0.16316148359552085
520,3937.53,0.17392227698554497
521,3940.27,0.18729607037556903
522,3943.01,0.20811836376559312
523,3945.75,0.20540785715561719
524,3948.4900000000002,0.22111275054564125
525,3951.23,0.19781304393566532
526,3953.97,0.20116863732568943
527,3956.71,0.2006645307157135
528,3959.45,0.19960202410573757
529,3962.19,0.19496161749576163
530,3964.93,0.19328651088578572
531,3967.6699999999996,0.19856120427580978
532,3970.41,0.20791799766583388
533,3973.1499999999996,0.20012799105585796
534,3975.8900000000003,0.20766868444588205
535,3978.63,0.1760854778359061
536,3981.3700000000003,0.1810728712259302
537,3984.11,0.19625186461595429
538,3986.85,0.19704885800597835
539,3989.59,0.21920475139600243
540,3992.33,0.2084060447860265
541,3995.07,0.21866813817605057
542,3997.81,0.22010473156607463
543,4000.5499999999997,0.21838082495609873
544,4003.29,0.2321613183461228
545,4006.0299999999997,0.24079161173614688
546,4008.77,0.24764390512617096
547,4011.52,0.24745839849207105
548,4014.26,0.2273516918820951
549,4017.0,0.2307832852721192
550,4019.74,0.22608327866214326
551,4022.48,0.21343047205216734
552,4025.22,0.2365621654421914
553,4027.96,0.23482205883221552
554,4030.7,0.22589355222223959
555,4033.4399999999996,0.23007324561226367
556,4036.18,0.22493413900228773
557,4038.9199999999996,0.2315207323923118
558,4041.6600000000003,0.22199052578233586
559,4044.4,0.23084851917235996
560,4047.1400000000003,0.22498301256238404
561,4049.88,0.21994680595240812
562,4052.62,0.2258502993424322
563,4055.36,0.21682969273245625
564,4058.1,0.21757238612248034
565,4060.84,0.22190927951250444
566,4063.58,0.2189060729025285
567,4066.3199999999997,0.2274062662925526
568,4069.06,0.23263225968257664
569,4071.7999999999997,0.22278755307260073
570,4074.54,0.2186133464626248
