,lambda (Angstroms),Total Flux (erg/s/cm^2/Angstrom)
0,100.1,0.014830236764161156
1,101.96000000000001,0.017814737940061293
2,104.10000000000001,0.02124851554292627
3,104.712855,0.022231886342901932
4,106.03,0.020468490101799804
5,108.0,0.017831059020906412
6,110.01,0.01514011359515477
7,113.88000000000001,0.009959016247344899
8,117.88,0.0046039053622207666
9,120.22644299999999,0.001463401860788375
10,120.9,0.0014219476212630564
11,124.86,0.0011772541363518252
12,126.89,0.0010518272612508655
13,128.07,0.0009789422466207514
14,131.05,0.0007948954147582576
15,131.96,0.0007391657417129999
16,134.1,0.0006070692708922845
17,136.91,0.0004344905283239608
18,138.038426,0.0003649527858750741
19,140.1,0.0003611130756126642
20,143.03,0.00036580677586906386
21,147.04,0.0003829537377489828
22,151.16,0.0003815369912016676
23,155.04,0.00038236507940468147
24,158.489319,0.00038406242057874903
25,159.01999999999998,0.00038370067068306925
26,161.97,0.00038253858508835274
27,166.13,0.0003826090978768205
28,170.0,0.0003836008379949383
29,173.16000000000003,0.0003851041367477165
30,177.19,0.0003881529035115447
31,180.07,0.00039205616313433016
32,181.970086,0.00039484579667943315
33,182.14999999999998,0.0003959093735461017
34,185.97,0.00042048786207543707
35,191.18,0.00045396232077644135
36,193.83999999999997,0.0004764738478675492
37,197.89999999999998,0.0005058384629013453
38,202.04,0.000539335420103295
39,204.85,0.0005646989137596908
40,208.929613,0.0005883715643293648
41,210.10999999999999,0.0006016984963023485
42,215.99,0.0007052580492840595
43,220.01,0.0007707194926491066
44,223.07,0.00081444389879265
45,227.22,0.0008858326659481092
46,229.85,0.0011873973241695206
47,234.11999999999998,0.0018047770209776676
48,239.88329199999998,0.0022384212812494404
49,240.13,0.0022540283805886218
50,245.72,0.002240357418416016
51,252.01999999999998,0.0024080682052340097
52,256.71,0.002143971702087405
53,260.28,0.002438575214617601
54,263.9,0.0025884051460907977
55,268.81,0.0026463780862933926
56,273.8,0.002695966096804787
57,275.42287,0.0027123822234312468
58,278.89,0.0027862486354444838
59,284.08,0.002897822687735944
60,290.03000000000003,0.0029085017611722047
61,296.1,0.0030884551537365907
62,300.91,0.0031475516954556516
63,307.92,0.003329605087857027
64,316.227766,0.0035463287530548707
65,318.01000000000005,0.00357498215725959
66,327.66999999999996,0.003671654261431718
67,337.63,0.003742166772565714
68,347.89,0.003799718690661577
69,356.81,0.003882320457661099
70,363.078055,0.003975749439064232
71,365.96999999999997,0.004040645955375511
72,375.34999999999997,0.004184719014259744
73,384.97999999999996,0.004190164794329591
74,394.86,0.0045802482955850515
75,404.99,0.004911502518026127
76,414.42,0.005131477721147483
77,416.86938299999997,0.005174062061763754
78,422.12,0.005258410860327869
79,429.97,0.005418330148115354
80,441.0,0.005963033218726304
81,451.27,0.006357860202876301
82,459.66,0.006509609604728148
83,470.37,0.00698464553367133
84,478.630092,0.0076824033235687065
85,480.22,0.007809426446587313
86,490.28000000000003,0.007833095591343764
87,500.54,0.009233137076950245
88,506.34,0.009118581961601082
89,512.2,0.012614070948506927
90,520.52,0.013191463127868128
91,530.1999999999999,0.013764581625009525
92,540.06,0.013287672428915948
93,549.5408739999999,0.014401791378573713
94,550.1,0.014468475469061931
95,560.33,0.01884303409754095
96,569.43,0.022258368351613197
97,580.02,0.023704092533000567
98,589.44,0.02647919616743579
99,600.4,0.02552663744486786
100,610.16,0.02664238354593875
101,620.07,0.03515337279405479
102,630.14,0.03645093673235232
103,630.957344,0.03689993796767547
104,640.38,0.0420949067295477
105,649.29,0.04427258354898395
106,658.33,0.04418059855994957
107,664.42,0.050907820763133264
108,675.2099999999999,0.05630784066007121
109,684.6099999999999,0.05331205604757971
110,695.7299999999999,0.06476042212301529
111,705.4100000000001,0.05830436669227936
112,715.22,0.0758567894530728
113,724.43596,0.08068902048307364
114,725.17,0.08107354113608094
115,735.26,0.08566107538312202
116,745.49,0.08886889043240154
117,755.86,0.09346697628391949
118,764.61,0.09011214142382132
119,775.25,0.10434122239394195
120,784.22,0.1029282402230756
121,795.13,0.11438001631179892
122,804.34,0.12224448980191274
123,815.53,0.12828144749511292
124,824.97,0.1364842701603327
125,831.763771,0.12229474070778448
126,834.53,0.11651146520308953
127,844.1899999999999,0.14585920643863165
128,855.9300000000001,0.14957370665656794
129,865.8499999999999,0.16021888026490935
130,875.87,0.16773481247817357
131,886.01,0.17519817501734514
132,894.21,0.18216188062101443
133,904.5699999999999,0.18510043209101612
134,915.04,0.1969327280264329
135,925.64,0.5965946401482494
136,934.2,1.0953048367296407
137,945.02,1.7925705377822874
138,954.992586,2.3026387142307594
139,955.96,2.3521202208318384
140,964.81,2.6757642429689414
141,975.98,0.7338530466154314
142,985.0100000000001,2.335905728524814
143,994.12,2.39032869255521
144,1005.64,3.261560117981134
145,1014.94,3.2094760395489366
146,1024.33,1.6923379410028794
147,1036.19,2.5319332904431096
148,1045.78,4.221045147199585
149,1055.46,4.153573983842202
150,1065.22,3.4311158026058317
151,1075.0800000000002,3.9757985990207283
152,1085.03,3.3145693753217644
153,1095.07,4.18231813150894
154,1096.4782,4.1638833249875615
155,1105.2,4.049701716113955
156,1115.43,3.9575015604857975
157,1125.75,3.5761763419049
158,1136.1599999999999,4.389533060371262
159,1144.04,4.087130548509103
160,1154.62,4.269967148064733
161,1165.31,4.3693266706781255
162,1176.0900000000001,3.100442130338777
163,1184.24,4.250290429618397
164,1195.2,3.239127763373568
165,1206.26,2.572961027181249
166,1214.6200000000001,1.846945179571142
167,1225.86,3.1872823174733425
168,1234.3600000000001,4.38943437193675
169,1245.78,4.73596538393347
170,1254.41,4.596311347465141
171,1258.92541,4.424078550568593
172,1266.02,4.153472542027714
173,1274.7900000000002,5.06304397836321
174,1283.63,5.253000418181428
175,1295.51,4.379347009249352
176,1304.49,4.359182456033018
177,1313.53,5.216891905801876
178,1325.6899999999998,5.028057510800692
179,1334.87,4.596291967534997
180,1344.13,5.252984428249556
181,1353.4399999999998,5.121657891451775
182,1365.97,4.6925145148592735
183,1375.44,4.8462729860220035
184,1384.97,4.879855460169925
185,1394.57,4.115393937800571
186,1404.24,4.191886418913938
187,1413.97,4.606934903012498
188,1423.77,4.649506390593783
189,1433.6399999999999,4.692531881657788
190,1443.58,4.891127376204519
191,1445.43977,4.916387389854134
192,1446.9099999999999,4.936356530126912
193,1453.59,4.812872809065968
194,1463.6599999999999,4.522841229562417
195,1473.8100000000002,4.533254653399454
196,1484.02,4.606936079741931
197,1494.3100000000002,4.649518509424996
198,1504.6699999999998,4.440256942031075
199,1511.61,4.049567231827039
200,1518.59,4.269835523293297
201,1525.6,4.182288816012275
202,1536.17,3.6763412573873966
203,1543.26,3.779364553446962
204,1553.96,3.642653000250538
205,1564.73,3.8319074499771277
206,1575.58,4.077706903044305
207,1586.5000000000002,4.2306843590344965
208,1593.82,4.309369664698251
209,1604.87,4.2112471261168976
210,1616.0,4.2015645908761305
211,1623.4599999999998,4.058919902385914
212,1634.71,4.279675372156029
213,1646.04,4.319276845266731
214,1653.64,4.096450162622542
215,1659.58691,4.243261248813579
216,1665.1,4.3793640921447885
217,1672.7900000000002,3.9756704371800042
218,1676.64,4.450559611222341
219,1684.38,4.55420197150486
220,1696.0600000000002,4.329240533274861
221,1703.89,4.191910921002525
222,1715.7,4.003254522415514
223,1723.62,3.9665369375883235
224,1735.56,4.201642578644301
225,1743.5700000000002,4.115436021262256
226,1755.66,4.319333708060142
227,1763.76,4.049617178123243
228,1775.99,4.087070907613579
229,1784.19,4.1630764081712845
230,1796.5500000000002,4.349297177304607
231,1804.8500000000001,4.33927270835692
232,1813.18,4.049642248557615
233,1825.7499999999998,4.124885081729611
234,1834.17,4.003333649375452
235,1846.8899999999999,3.727523528289357
236,1855.41,3.7447691264298033
237,1863.98,3.8408027398175526
238,1876.8999999999999,4.058991679720671
239,1885.56,3.779435320553566
240,1894.2600000000002,3.642742973584303
241,1903.01,3.8407926418623433
242,1905.46072,3.816564148041302
243,1916.2,3.710385167815747
244,1925.0400000000002,3.6176416929985677
245,1933.93,3.7361571985274447
246,1942.86,3.8762966883331678
247,1956.32,3.625966397491625
248,1965.35,3.912169847989461
249,1974.42,4.012569282764142
250,1983.54,3.8231436978848805
251,1997.29,3.7275022930504664
252,2006.51,3.823121668863318
253,2015.77,3.7360990289530145
254,2025.07,3.8673823733195563
255,2034.42,3.6763316980321554
256,2043.8100000000002,3.779390007021599
257,2053.2400000000002,3.5109583002878884
258,2062.7200000000003,3.592654573900235
259,2072.24,3.876276831789426
260,2077.02,3.7018389528724445
261,2086.61,3.823067183246115
262,2096.2400000000002,3.642612397896631
263,2105.91,3.6763205968239925
264,2115.63,3.710337776097411
265,2125.4,3.7446949357168853
266,2135.21,3.559687079613205
267,2145.06,3.592636207786371
268,2154.97,3.7018133123748043
269,2164.91,3.600966405170872
270,2174.91,3.584361474382207
271,2184.94,3.527046531801177
272,2187.7616199999998,3.561704368289514
273,2195.03,3.650986700583844
274,2205.16,3.576113875314089
275,2215.34,3.4309510657142765
276,2225.57,3.360581271784407
277,2235.84,3.5108984903904896
278,2246.1600000000003,3.399521724666515
279,2256.5299999999997,3.284117974612482
280,2266.94,3.3358082370944024
281,2277.41,3.3872635183802533
282,2282.66,3.440908163724161
283,2293.19,3.2533434638139425
284,2303.78,3.2807437827076544
285,2314.41,3.16679311413732
286,2325.09,2.662384461236927
287,2335.83,2.991614827140465
288,2346.61,2.9211042055799563
289,2357.44,3.0703565996893896
290,2362.87,2.8907183014450886
291,2373.78,2.9352567206264295
292,2384.74,2.762328155477712
293,2395.7400000000002,2.8900456028649475
294,2406.8,2.8024550690561143
295,2412.35,2.840219808419674
296,2423.4900000000002,2.957852299682748
297,2434.67,2.861543803481775
298,2445.91,2.9663803260847326
299,2457.2,2.929835864357632
300,2462.86,2.9017356381950643
301,2474.23,2.813638201539871
302,2485.65,2.83065178055462
303,2497.13,2.5912103783732987
304,2502.88,2.9060531804166265
305,2511.88643,2.704852356821343
306,2514.4300000000003,2.6480286945025706
307,2520.23,2.714668990999678
308,2526.04,2.6395132862838495
309,2537.7,2.6676628720004483
310,2543.55,2.6238061624328757
311,2555.29,2.7639247384459864
312,2567.09,2.6985073071814814
313,2572.9999999999995,2.798518590336293
314,2584.88,2.7639231493682987
315,2596.81,2.7234057023356253
316,2602.8,2.6479359757869485
317,2614.8100000000004,2.6091405190507864
318,2626.8799999999997,2.692085055037009
319,2632.9399999999996,2.7661503199977795
320,2645.09,2.9340338462805136
321,2657.3,2.9925843652856314
322,2663.43,2.75320462175585
323,2675.72,2.8340721310574795
324,2688.07,2.844421633081493
325,2694.2700000000004,2.7087738810611595
326,2706.7000000000003,2.7691973733816853
327,2712.9399999999996,2.6432796165096075
328,2725.46,2.616440097913709
329,2738.04,2.7056885720401938
330,2744.36,2.432511805464628
331,2757.02,2.4752812698876245
332,2763.3799999999997,2.549184498460315
333,2776.13,2.623962951966888
334,2782.5299999999997,2.493097175687834
335,2795.38,2.129588617065046
336,2801.8199999999997,2.2339638359342486
337,2814.7499999999995,2.5681572676079725
338,2827.75,2.667908690791145
339,2834.26,2.5759669011697945
340,2847.3500000000004,2.503132313436543
341,2853.91,2.400269517750513
342,2867.0800000000004,2.604991920313772
343,2873.69,2.627681118563062
344,2884.0315,2.606714752449435
345,2886.96,2.6007778569358573
346,2893.6099999999997,2.611414840428556
347,2906.97,2.788702807265016
348,2927.1200000000003,2.677336757246653
349,2947.41,2.6181317068807677
350,2967.84,2.6380176561673605
351,2988.4100000000003,2.6275736051064307
352,3009.1299999999997,2.629216553673156
353,3029.98,2.6247575019171823
354,3050.9900000000002,2.62025944976404
355,3072.13,2.621826397288199
356,3093.43,2.61124534441519
357,3107.71,2.626301308967933
358,3129.25,2.5679132554991715
359,3150.94,2.5574532016580656
360,3172.78,2.5705501474446133
361,3187.43,2.4406721110789054
362,3209.52,2.5044670562448785
363,3231.77,2.3818820010136834
364,3246.69,2.5431979639777538
365,3269.19,2.6216529081259834
366,3291.85,2.5926898518770454
367,3307.05,2.5538878141460715
368,3311.31121,2.554626673926264
369,3322.31,2.556533281653542
370,3329.97,2.614398918170985
371,3337.6499999999996,2.559162553739387
372,3345.34,2.5224461888332685
373,3353.05,2.45779782297811
374,3360.7799999999997,2.5366384561739106
375,3368.53,2.523368088420671
376,3376.2999999999997,2.3157767197183903
377,3384.08,2.384630350541589
378,3391.88,2.5476199804157473
379,3399.7,2.611227609340865
380,3407.54,2.457901237316942
381,3415.39,2.478994864818499
382,3423.26,2.6302014913710154
383,3431.16,2.6043261164999705
384,3439.06,2.5787687416289256
385,3446.99,2.3287733653343206
386,3454.94,2.499388988090674
387,3462.9,2.3256706103725073
388,3470.89,2.42801023123078
389,3478.89,2.264449851614532
390,3486.91,2.3695604710492435
391,3494.95,2.3408240895349146
392,3503.0,2.4778437075460653
393,3511.08,2.430945324133655
394,3519.1699999999996,2.434907940246725
395,3527.2799999999997,2.286586555410753
396,3535.42,2.448405169151221
397,3543.56,2.562046782891689
398,3551.73,2.548479395208596
399,3559.9199999999996,2.4830140065764623
400,3568.13,2.321000616995288
401,3576.35,2.2561802269395934
402,3584.6,2.1235898354603377
403,3592.86,2.176583443506562
404,3601.14,2.4686400506037454
405,3606.42,2.271180800057022
406,3609.1299999999997,2.519155671462018
407,3611.83,2.2575535433415346
408,3614.53,2.2839934152210506
409,3617.23,1.844865287100567
410,3619.9399999999996,2.201460158505563
411,3622.64,2.5693870303850797
412,3625.34,2.461920902264596
413,3628.0499999999997,2.707882773669592
414,3630.75,2.7119666455491083
415,3633.45,2.6865685174286247
416,3636.15,2.1939943893081413
417,3638.8599999999997,2.3531772607131374
418,3641.56,2.3750191325926533
419,3644.26,2.53875500447217
420,3646.96,2.2942798763516863
421,3649.67,2.168525747756682
422,3652.37,2.4696146196361988
423,3655.07,2.0887054915157153
424,3657.77,2.6722043633952315
425,3660.48,2.5559882348002274
426,3663.18,2.665128106679744
427,3665.88,2.27714997855926
428,3668.5800000000004,2.5712858504387763
429,3671.29,2.4401867218437725
430,3673.99,2.5886925937232887
431,3676.69,2.5365134656028054
432,3679.3900000000003,2.3033593374823216
433,3682.1,2.0212862088873176
434,3684.7999999999997,2.2559400807668344
435,3687.5,2.4296759526463507
436,3690.2000000000003,2.3100828245258667
437,3692.91,2.542482695930863
438,3695.6099999999997,2.543520567810379
439,3698.3100000000004,2.4924324396898956
440,3701.01,2.584561311569412
441,3703.72,2.409324182974408
442,3706.42,2.7094370548539244
443,3709.1200000000003,2.589729926733441
444,3711.82,2.595767798612957
445,3714.5299999999997,2.9117276700179535
446,3717.2300000000005,3.896138541897469
447,3719.9300000000003,5.365830413776986
448,3722.63,8.051829285656503
449,3725.3399999999997,10.571284157061498
450,3728.0400000000004,11.258064028941014
451,3730.7400000000002,9.43340290082053
452,3733.44,6.454728772700047
453,3736.1499999999996,4.115093644105044
454,3738.8500000000004,3.2466675159845595
455,3741.55,2.927079387864076
456,3744.25,2.6673172597435926
457,3746.9599999999996,2.6178251311485887
458,3749.6600000000003,2.589266003028105
459,3752.36,2.5536948749076216
460,3755.06,2.879209746787138
461,3757.7700000000004,3.671941618192134
462,3760.4700000000003,4.16211049007165
463,3763.17,4.545499361951166
464,3765.8799999999997,4.445311233356162
465,3768.5800000000004,3.834409105235679
466,3771.28,3.0512099771151955
467,3773.98,2.7971378489947116
468,3776.6899999999996,3.0089047203997077
469,3779.3900000000003,3.214306592279224
470,3782.09,3.1336794641587407
471,3784.79,3.249199336038257
472,3787.4999999999995,3.123902207443253
473,3790.2000000000003,2.919427079322769
474,3792.9,2.8463289512022856
475,3795.6,2.637772823081802
476,3798.31,2.6041996944867982
477,3801.01,2.8127045663663144
478,3801.8939600000003,2.836450963946548
479,3803.71,2.885236456201374
480,3806.41,3.0211573547763186
481,3809.12,3.150682252975615
482,3811.82,3.26694915155056
483,3814.52,3.3968360501255046
484,3817.2200000000003,3.142648948700449
485,3819.9300000000003,3.103097846899746
486,3822.63,2.954138745474691
487,3825.33,2.9694296440496353
488,3828.03,2.7164485426245806
489,3830.7400000000002,2.622417440823877
490,3833.44,2.4303553393988215
491,3836.1400000000003,2.4570822379737667
492,3838.84,2.5088661365487113
493,3841.55,2.7089670347480075
494,3844.25,2.8559789333229526
495,3846.9500000000003,3.0413818318978976
496,3849.65,3.393219730472842
497,3852.36,3.4078606286721387
498,3855.06,3.4533245272470836
499,3857.76,3.614302425822028
500,3860.46,3.6501693243969733
501,3863.17,3.6018222225962697
502,3865.8700000000003,3.791593121171214
503,3868.57,3.7901040197461593
504,3871.27,3.709248918321104
505,3873.98,3.5853288165204003
506,3876.6800000000003,3.4405087150953455
507,3879.38,3.1857466136702906
508,3882.08,3.113740512245235
509,3884.79,3.1349924104445313
510,3887.4900000000002,3.1293073090194765
511,3890.19,2.993566207594421
512,3892.89,3.041443106169366
513,3895.6000000000004,3.0687870043686627
514,3898.3,3.340452902943607
515,3901.0,3.337008801518552
516,3903.7,3.5147107000934965
517,3906.4100000000003,3.659234598292793
518,3909.11,3.817914496867738
519,3911.81,3.8636663954426833
520,3914.5200000000004,3.8678462936419793
521,3917.2200000000003,3.760957192216924
522,3919.92,3.651884090791869
523,3922.62,3.646484989366814
524,3925.3300000000004,3.5622208875661103
525,3928.03,3.2689547861410553
526,3930.73,3.0401706847159997
527,3933.43,2.933624583290945
528,3936.1400000000003,2.9850484814902414
529,3938.84,3.140049380065186
530,3941.54,3.3764282786401307
531,3944.24,3.6124061772150755
532,3946.9500000000003,3.547221075414372
533,3949.65,3.624982973989317
534,3952.35,3.8508448725642617
535,3955.05,3.7914257711392065
536,3957.76,3.448141669338503
537,3960.46,3.3661945679134475
538,3963.16,3.1914894664883926
539,3965.86,3.0029903650633374
540,3968.57,2.8417182632626337
541,3971.27,2.744999161837579
542,3973.97,2.8371850604125237
543,3976.67,3.112126958987468
544,3979.38,3.264295857186765
545,3982.08,3.71773875576171
546,3984.78,3.9307856543366544
547,3987.48,4.0734895529115995
548,3990.19,4.073187451110895
549,3992.89,4.1218693496858405
550,3995.59,4.173252248260785
551,3998.29,4.21486614683573
552,4001.0,4.180311045035026
553,4003.7,4.330830943609971
554,4006.4,4.135552842184916
555,4009.1,4.156993740759861
556,4011.81,4.259792638959158
557,4014.51,4.314854537534102
558,4017.21,4.252216436109047
559,4019.91,4.315669334683991
560,4022.62,4.379445232883288
561,4025.32,4.202672131458233
562,4028.02,4.356008030033178
563,4030.72,4.261647928608123
564,4033.4300000000003,4.28933182680742
565,4036.13,4.3574977253823635
566,4038.83,4.280204623957308
567,4041.5299999999997,4.165901522532254
568,4044.2400000000002,4.22255142073155
569,4046.94,4.133305319306495
570,4049.64,4.51606321788144
571,4052.3399999999997,4.407622116456385
572,4055.05,4.407376014655681
573,4057.75,4.422782913230626
574,4060.45,4.481867811805571
575,4063.1600000000003,4.353750710004867
576,4065.86,4.630589608579812
577,4068.56,4.573297507154757
578,4071.2599999999998,4.563361405729702
579,4073.9700000000003,4.3501303039289985
580,4076.67,4.395307202503943
581,4079.37,4.127041101078888
582,4082.0699999999997,4.236239999653833
583,4084.78,4.128122897853129
584,4087.48,4.174736796428074
585,4090.18,3.9353786950030187
586,4092.8799999999997,3.849292593577964
587,4095.59,3.7018104917772603
588,4098.29,3.7072743903522047
589,4100.99,3.5809592889271498
590,4103.69,3.6371691875020944
591,4106.4,3.711523085701391
592,4109.1,3.5758399842763358
593,4111.8,3.6127408828512806
594,4114.5,3.9589457814262254
595,4117.21,3.887151679625522
596,4119.91,4.066749578200467
597,4122.61,3.9634814767754114
