,lambda (Angstroms),Total Flux (erg/s/cm^2/Angstrom)
0,102.07000000000001,21.28894178630736
1,103.97,21.228262745085534
2,104.712855,21.204538677641942
3,105.9,21.00538689154662
4,108.12,20.63296653555317
5,109.88,20.337714369630483
6,114.0,19.646555883446222
7,118.01,18.973850667609884
8,120.22644299999999,18.602027239159362
9,121.02999999999999,18.489009787401173
10,125.0,17.930643081466723
11,127.03,17.64513063470631
12,127.91,17.521361712511816
13,130.89,17.10223508800051
14,132.1,16.93205292350237
15,133.94,16.673263361964892
16,137.06,16.23444649360118
17,138.038426,16.09683432840314
18,139.93,15.906671042090503
19,142.86,15.612116429319713
20,146.85999999999999,15.209999271749744
21,150.98,14.795810507621443
22,154.85,14.406755357527578
23,158.489319,14.040891182141404
24,158.82,14.015758430015596
25,162.15,13.762668277456433
26,165.92,13.476138229251134
27,170.17999999999998,13.152366094904455
28,172.94,12.942599247975059
29,176.97,12.636308795862494
30,179.85000000000002,12.417421760580513
31,181.93,12.259336744492417
32,181.970086,12.256290112328426
33,186.17000000000002,12.012769815072751
34,190.94,11.73619622821652
35,194.04999999999998,11.55587316111252
36,198.10999999999999,11.320466896733569
37,201.79,11.107095670152598
38,205.07000000000002,10.916915862301078
39,208.929613,10.693126607219837
40,209.85,10.653005493407287
41,216.22,10.375338430425645
42,220.23999999999998,10.200106470418708
43,222.79,10.088951189484455
44,226.94,9.908053526773811
45,230.09,9.770828143860912
46,233.83,9.607975127377342
47,239.83,9.346545580890867
48,239.88329199999998,9.344222388132275
49,245.98,9.13941081152585
50,251.70999999999998,8.946986223800009
51,256.97999999999996,8.76987456161132
52,259.96,8.669861647014109
53,264.18,8.528147806025443
54,269.09,8.36322977153105
55,274.1,8.194948124593793
56,275.42287,8.150514128304412
57,279.19,8.053408141311207
58,283.72999999999996,7.936382529552838
59,289.67,7.78323115021788
60,295.74,7.626777067180809
61,301.23,7.485249313745469
62,308.25,7.304301492331426
63,316.227766,7.098666382093495
64,318.35,7.057811588870586
65,328.02,6.871639531363847
66,337.99,6.679682908376649
67,348.26000000000005,6.481943410208993
68,357.19,6.310007455227383
69,363.078055,6.196644788877536
70,366.36,6.149326768430248
71,374.89000000000004,6.026329807516871
72,385.39,5.874892763310486
73,395.28000000000003,5.732320070707519
74,405.42,5.586113656742495
75,413.90999999999997,5.463686535967047
76,416.86938299999997,5.421008068798418
77,421.6,5.3689086560028825
78,430.43,5.271670081164358
79,441.46999999999997,5.150101362154469
80,450.72,5.048229814744917
81,460.16,4.944265913243708
82,469.79,4.838212188650843
83,478.630092,4.740866773386981
84,479.63,4.732398638259436
85,489.66999999999996,4.647342770113788
86,499.93,4.560456307441043
87,505.71,4.511488959410977
88,511.57,4.46193162728015
89,519.88,4.391548508688482
90,529.5500000000001,4.309635961383857
91,539.39,4.2262602799901146
92,549.42,4.141337967732061
93,549.5408739999999,4.140314679043584
94,559.64,4.07510308266396
95,570.04,4.007940934454398
96,580.64,3.9394255663754203
97,590.0699999999999,3.878547908682519
98,599.66,3.816568934894086
99,609.4,3.7535800529535908
100,619.31,3.6897082029740953
101,629.3700000000001,3.624724980842536
102,630.957344,3.6144699576276493
103,639.6,3.5702076892365517
104,649.99,3.5170408924186995
105,657.51,3.4785463359412936
106,665.13,3.43955668189105
107,674.38,3.3921750424035495
108,685.34,3.3360050204205214
109,694.8699999999999,3.2873884957290764
110,704.5400000000001,3.237793244435655
111,715.99,3.179316134345722
112,724.43596,3.136083317868614
113,725.95,3.1303318046677964
114,734.35,3.0984317747436543
115,744.5699999999999,3.0597078170359473
116,754.9300000000001,3.020395818729504
117,765.43,2.980488661824326
118,774.29,2.946987198932908
119,785.0600000000001,2.906137981873025
120,794.15,2.8716584849979707
121,805.1999999999999,2.829729926740616
122,814.53,2.794320267839157
123,825.86,2.751436645384331
124,831.763771,2.728721033697251
125,835.4200000000001,2.7181635201676695
126,845.09,2.6912207438037528
127,854.88,2.6634641842615867
128,864.78,2.635514404556025
129,874.79,2.6072639836870684
130,884.92,2.578733494639863
131,895.17,2.549778635414408
132,905.53,2.5203195840255574
133,916.02,2.4925031054436038
134,924.5,2.5015617628473255
135,935.2,2.5178703069534354
136,946.0300000000001,2.5668267938664426
137,954.78,2.616137055869103
138,954.992586,2.6159191949986598
139,965.84,2.6054685199003016
140,974.78,2.3592649139088664
141,986.06,2.4907076249398075
142,995.1899999999999,2.490889331270702
143,1004.4,2.5936986964741564
144,1016.03,2.556491617572547
145,1025.43,2.3330598850983306
146,1034.92,2.3862314063557446
147,1044.49,2.6050327864857183
148,1054.1599999999999,2.569393515206392
149,1063.91,2.4282371027996255
150,1076.23,2.474734969173845
151,1086.1899999999998,2.341064848807548
152,1096.24,2.448097782172881
153,1096.4782,2.446875775205401
154,1103.84,2.4128185571861795
155,1114.05,2.3665271806602304
156,1124.36,2.295238449124233
157,1134.76,2.398154528079192
158,1145.26,2.3237295520241026
159,1155.86,2.3364039209589644
160,1163.8700000000001,2.334205954654082
161,1174.64,2.138341110071861
162,1185.51,2.2700428104795924
163,1193.73,2.0762156686536084
164,1204.77,1.951037755544257
165,1215.92,1.8693271219238523
166,1224.35,2.0228735045767663
167,1235.68,2.1920825919382745
168,1244.24,2.230044623078125
169,1255.76,2.1698929659205413
170,1258.92541,2.1309591557405287
171,1264.46,2.0665025841591973
172,1276.16,2.2104094825110376
173,1285.01,2.233083887674609
174,1293.91,2.0552393471046413
175,1305.89,2.026686729348662
176,1314.94,2.164970351578077
177,1324.05,2.121260298927245
178,1336.3,2.0160385942101544
179,1345.5700000000002,2.1287294752119967
180,1354.8899999999999,2.091307710480301
181,1364.29,1.9980691125749415
182,1373.74,2.018398068936043
183,1386.4499999999998,2.0046253234703926
184,1396.0600000000002,1.9081767134841687
185,1405.74,1.9131506994709904
186,1415.48,1.907356310577565
187,1425.3,1.9146163885104772
188,1435.18,1.892045091563142
189,1441.8,1.9189344964425594
190,1445.43977,1.920712238968191
191,1448.46,1.9236676026862152
192,1455.14,1.895140307825076
193,1465.2299999999998,1.8300460185812297
194,1475.38,1.8197726605212647
195,1485.61,1.8234288773731433
196,1495.91,1.824767097272883
197,1506.2800000000002,1.7785764202204857
198,1513.23,1.7024184656868158
199,1516.72,1.739012246215951
200,1523.72,1.7115396510021823
201,1534.2800000000002,1.627582539365411
202,1544.9199999999998,1.6697900026404833
203,1555.63,1.6291646689634167
204,1566.41,1.624165438334213
205,1573.64,1.6493509959919916
206,1584.5500000000002,1.666900999594532
207,1595.53,1.6664430062449354
208,1606.59,1.644300887807181
209,1614.01,1.639475410880586
210,1625.19,1.5943492548105955
211,1636.46,1.6188532455164277
212,1644.01,1.6200733028215772
213,1655.4099999999999,1.561215027759154
214,1659.58691,1.5750085275942598
215,1666.88,1.6015679933465394
216,1670.73,1.5288813841604292
217,1678.4399999999998,1.597394631738375
218,1686.1799999999998,1.6208921771668185
219,1693.97,1.5763654523460917
220,1705.71,1.5429422778409139
221,1713.5800000000002,1.5069481806215148
222,1725.46,1.4953158294186608
223,1733.43,1.5268535917009212
224,1745.44,1.5044060978502243
225,1753.5,1.537842153683978
226,1765.65,1.4768647831356043
227,1773.8000000000002,1.4853717325208518
228,1786.1,1.4862906512249674
229,1794.3400000000001,1.5219933941617083
230,1806.78,1.5070000361681473
231,1815.1200000000001,1.4525857386065475
232,1823.5000000000002,1.4589790048456115
233,1836.14,1.4255041658553695
234,1844.6100000000001,1.3749715256459272
235,1853.13,1.3702945151873145
236,1865.97,1.3772120952003912
237,1874.59,1.4148588442434384
238,1883.24,1.364611491136983
239,1896.29,1.3360564561035448
240,1905.04,1.357247462498749
241,1905.46072,1.356024431186858
242,1913.84,1.3334421754384378
243,1927.1,1.317263838740525
244,1936.0,1.3237909957079892
245,1944.94,1.3441203958528352
246,1953.91,1.3069523533807175
247,1967.46,1.3484054047188232
248,1976.54,1.357472705984506
249,1985.6599999999999,1.3227340504275702
250,1994.83,1.302742723842362
251,2004.03,1.31205515464019
252,2013.2900000000002,1.2875981002040908
253,2027.2399999999998,1.3031318833160155
254,2036.6000000000001,1.2718391868233707
255,2046.0,1.2887927335081084
256,2055.44,1.2565125233702277
257,2064.9300000000003,1.253160242204074
258,2074.46,1.2873805042153028
259,2079.24,1.2637557139124351
260,2084.04,1.2829905951982585
261,2093.66,1.2474879293585963
262,2103.3199999999997,1.2430166066963162
263,2113.0299999999997,1.2441071130057628
264,2122.7799999999997,1.2441541624925916
265,2132.58,1.1998778409511477
266,2147.36,1.2085445449937453
267,2157.27,1.2218168671901015
268,2167.23,1.198095018358185
269,2177.23,1.1889729127036506
270,2187.28,1.1776939360208432
271,2187.7616199999998,1.17852239644197
272,2197.38,1.1968763333825427
273,2207.52,1.178384670458345
274,2212.61,1.1486056718109912
275,2222.82,1.1313119737384012
276,2233.08,1.1628555077026745
277,2243.3900000000003,1.1364950737038104
278,2253.75,1.1092124717418095
279,2264.15,1.115049035409299
280,2274.6,1.125243231113651
281,2285.1,1.1369941588548664
282,2295.65,1.1036828186329446
283,2306.24,1.1026744440405132
284,2316.89,1.075825367892317
285,2327.58,0.9773672573736112
286,2332.95,1.0337292181326898
287,2343.72,1.014895238872965
288,2354.5299999999997,1.0490422252427303
289,2365.4,1.004859810056731
290,2376.32,1.0144076269075948
291,2387.29,0.9783257757953217
292,2392.79,1.001990299850244
293,2403.8399999999997,0.9825368799969514
294,2414.9300000000003,0.9891807257731489
295,2426.08,1.0150226699935825
296,2437.28,0.9953605462508783
297,2442.9,1.0179018671942717
298,2454.17,1.0089018083031762
299,2465.5,0.9989649478563158
300,2476.88,0.9783571194463185
301,2482.59,0.9806047380560652
302,2494.0499999999997,0.9511151409050487
303,2505.56,0.998577375790895
304,2511.34,0.9411211592522495
305,2511.88643,0.9417022766917604
306,2517.13,0.9478044988681811
307,2522.93,0.9311917999297961
308,2534.5800000000004,0.937775247751833
309,2546.27,0.9286306721329158
310,2552.14,0.9614927571728606
311,2563.92,0.9422037038117961
312,2575.76,0.9648356652892998
313,2587.65,0.9541005724656106
314,2593.61,0.944312879763408
315,2605.5899999999997,0.9260263091975718
316,2617.61,0.9158035151907807
317,2623.65,0.9357669756066694
318,2635.7599999999998,0.9552884038577313
319,2647.92,0.9956627778075999
320,2654.03,1.0153416222018183
321,2666.2799999999997,0.95138801840954
322,2672.4199999999996,0.9732715702230428
323,2684.7599999999998,0.9728462886886169
324,2697.1499999999996,0.941671252852998
325,2703.37,0.9574992577845919
326,2715.8500000000004,0.9241307442068256
327,2722.1099999999997,0.9177264256974653
328,2734.67,0.9377658652377902
329,2747.29,0.8672209196166837
330,2753.63,0.8787466542254145
331,2766.3399999999997,0.8942933308621607
332,2772.7200000000003,0.911717542029937
333,2785.5099999999998,0.8748012717847744
334,2791.9300000000003,0.7946449595115964
335,2804.82,0.8135826806640478
336,2817.77,0.8914626166550677
337,2824.26,0.9232122883602195
338,2837.2999999999997,0.9038251466090921
339,2843.84,0.885911464013051
340,2856.97,0.8553190445197761
341,2863.55,0.9130764384827806
342,2876.77,0.9184606412473585
343,2883.3999999999996,0.9084800809091702
344,2884.0315,0.9084445121827738
345,2896.71,0.9088219852708206
346,2910.08,0.9564539404660761
347,2930.25,0.9282817695078343
348,2950.56,0.9136747200699613
349,2971.02,0.9224031222610555
350,2991.61,0.9194408158639209
351,3012.35,0.9241311610957534
352,3033.23,0.920008527847955
353,3047.23,0.9194733798848718
354,3068.3500000000004,0.9208961692434204
355,3089.6200000000003,0.9212601102309362
356,3111.04,0.9215930028474191
357,3132.6,0.9083056169842709
358,3147.06,0.9066140540166864
359,3168.88,0.9079640509770809
360,3190.8399999999997,0.8716634694578449
361,3212.96,0.8902920696761731
362,3227.79,0.8549119207267073
363,3250.1600000000003,0.8954789736599806
364,3272.6899999999996,0.9182778083308192
365,3287.8,0.9092796024220913
366,3310.59,0.9012106199164722
367,3311.31121,0.9011845762823237
368,3318.2200000000003,0.9013522120897829
369,3325.8700000000003,0.8979422151538703
370,3333.54,0.9162832859383867
371,3341.22,0.8864352905831174
372,3348.92,0.9330640629482772
373,3356.6400000000003,0.908250703033866
374,3364.38,0.8333097108398839
375,3372.1400000000003,0.8396980863663306
376,3379.91,0.9038903957529919
377,3387.7000000000003,0.9028271728600821
378,3395.5099999999998,0.8802466176876014
379,3403.34,0.9244917302355495
380,3411.18,0.8711324766437123
381,3419.05,0.8817603246325185
382,3426.9300000000003,0.891480506481539
383,3434.83,0.9240912560509889
384,3442.75,0.8668585733408674
385,3450.68,0.8834670244909606
386,3458.64,0.8823787772216973
387,3466.61,0.8694284638126484
388,3474.6,0.8935935181240284
389,3482.6099999999997,0.8731901401558377
390,3490.64,0.8926603299080756
391,3498.69,0.8466779873807427
392,3506.75,0.8954206787136243
393,3514.84,0.8582587716271493
394,3522.94,0.8945046984008889
395,3531.06,0.8537132928950575
396,3539.2000000000003,0.8960607551096549
397,3547.36,0.9128715850446815
398,3555.54,0.9002056827001369
399,3563.73,0.888999214215807
400,3571.95,0.8435799473121204
401,3580.18,0.8435974142686484
402,3588.44,0.7850511828058198
403,3596.71,0.8541765852032057
404,3605.0,0.8821985553210205
405,3613.31,0.8310946931592644
406,3621.64,0.8299913987179374
407,3629.9900000000002,0.9380332719970392
408,3633.22,0.8059124088463205
409,3635.9599999999996,0.7586997865450917
410,3638.71,0.7796911981040773
411,3641.45,0.9282362758028485
412,3644.19,0.9903693535016196
413,3646.94,1.0082075650606053
414,3649.6800000000003,0.8419174427593764
415,3652.42,0.8778862204581475
416,3655.16,0.8843415981569188
417,3657.91,0.9586852097159044
418,3660.6499999999996,1.0120312874146755
419,3663.3900000000003,0.9457474651134467
420,3666.14,1.0812057766724323
421,3668.88,0.9657465543712034
422,3671.62,0.7982736320699747
423,3674.3700000000003,0.9071350436289602
424,3677.11,0.9622541213277315
425,3679.85,0.8791054990265026
426,3682.6,0.9327226105854882
427,3685.3399999999997,0.9876840882842594
428,3688.0800000000004,0.8864492659830305
429,3690.82,0.8847087436818016
430,3693.5699999999997,0.9481373552407872
431,3696.31,0.9976218329395584
432,3699.0499999999997,0.9473360106383296
433,3701.8,0.8895981221973153
434,3704.54,0.9021612998960864
435,3707.28,0.8911214775948575
436,3710.03,0.8329897891538431
437,3712.7700000000004,0.9509576668526143
438,3715.51,0.9183640445513855
439,3718.2599999999998,1.1248672561103712
440,3721.0,1.4184573338091424
441,3723.74,1.6382466115079135
442,3726.48,1.5620338892066845
443,3729.23,1.2924593007656702
444,3731.97,1.1993815784644415
445,3734.71,1.0053903561632125
446,3737.46,0.9534446677221982
447,3740.2000000000003,0.8900373454209694
448,3742.94,0.8674128231197406
449,3745.69,0.8942749346787262
450,3748.43,0.8887517123774973
451,3751.1699999999996,0.9645183900762686
452,3753.92,0.9795985016352541
453,3756.66,0.8841560793340253
454,3759.4,0.9217799570327964
455,3762.14,1.0137812347315676
456,3764.8900000000003,0.9227863462905532
457,3767.63,0.9057178239893243
458,3770.37,0.9687178016880955
459,3773.12,1.0280481132470811
460,3775.8599999999997,1.0833644909458524
461,3778.6,1.0631438686446235
462,3781.35,1.0245163802036092
463,3784.09,0.9783286579023802
464,3786.83,0.9668162356011514
465,3789.5800000000004,0.995057047160137
466,3792.32,0.9547405248589083
467,3795.06,0.9450405025576794
468,3797.8,0.9690702802564505
469,3800.5499999999997,1.0131119918154363
470,3801.8939600000003,1.0049526231380743
471,3803.2899999999995,0.9965364325152195
472,3806.03,1.1141091216483143
473,3808.7799999999997,1.0812331698658366
474,3811.52,1.0904848589989315
475,3814.2599999999998,1.0608845481320262
476,3817.01,1.0257627963495484
477,3819.75,0.9430460854826432
478,3822.4900000000002,0.9487118746157381
479,3825.23,0.9392071637488331
480,3827.9800000000005,0.9314319119663552
481,3830.7200000000003,0.9617251010994501
482,3833.46,0.9403597902325449
483,3836.21,0.8968060384500671
484,3838.95,0.9251683275831621
485,3841.6899999999996,1.059251116716257
486,3844.44,1.1455319649337792
487,3847.18,1.151198154066874
488,3849.92,1.1217160431999689
489,3852.67,1.146960391417491
490,3855.4100000000003,1.155621180550586
491,3858.15,1.1115597696836808
492,3860.8900000000003,1.1107636588167757
493,3863.64,1.162132707034298
494,3866.3799999999997,1.2172111961673928
495,3869.12,1.1281111853004875
496,3871.87,1.0949197335180099
497,3874.61,1.0863610226511047
498,3877.35,1.0636169117841996
499,3880.1000000000004,1.0209295600017216
500,3882.84,0.9667017491348167
501,3885.58,0.9088881382679115
502,3888.33,0.9269223864854337
503,3891.0699999999997,0.9159203756185286
504,3893.81,0.9617385647516234
505,3896.5499999999997,1.0432174538847183
506,3899.3,1.1265038021022404
507,3902.04,1.1766566912353353
508,3904.7799999999997,1.1048942803684303
509,3907.53,1.0899469285859524
510,3910.27,1.1113351177190474
511,3913.01,1.1539225068521421
512,3915.7599999999998,1.1054819550696644
513,3918.4999999999995,1.1144579442027593
514,3921.24,1.0899013333358543
515,3923.99,0.9645843815533763
516,3926.73,0.9685952706864711
517,3929.47,0.9499882598195659
518,3932.21,1.0038056489526608
519,3934.96,1.012658497170183
520,3937.7000000000003,1.063520586303278
521,3940.44,1.035732675436373
522,3943.1899999999996,1.068621723653895
523,3945.9300000000003,1.09284681278699
524,3948.67,1.0895288019200846
525,3951.42,1.070522950137607
526,3954.16,1.0617278392707017
527,3956.8999999999996,1.0361465284037967
528,3959.65,0.9594540766213189
529,3962.39,0.8697627657544138
530,3965.13,0.8301140548875086
531,3967.87,0.8888171440206035
532,3970.6200000000003,0.9783298922381256
533,3973.36,0.9672096813712205
534,3976.1000000000004,0.9581778705043154
535,3978.85,1.0582111187218377
536,3981.5899999999997,1.0979219078549325
537,3984.33,1.1506359969880273
538,3987.08,1.1155928452055497
539,3989.82,1.1535699343386443
540,3992.56,1.2174748234717394
541,3995.3100000000004,1.1613503716892615
542,3998.05,1.1406553608223564
543,4000.79,1.1477793499554512
544,4003.53,1.2389123390885461
545,4006.2799999999997,1.2095823873060683
546,4009.02,1.238181576439163
547,4011.7599999999998,1.250388665572258
548,4014.51,1.2374506137897803
549,4017.25,1.256868602922875
550,4019.99,1.20725139205597
551,4022.7400000000002,1.225087740273492
552,4025.48,1.222676129406587
553,4028.2200000000003,1.2132901185396818
554,4030.97,1.2103211667572042
555,4033.7099999999996,1.2289118558902992
556,4036.45,1.124720145023394
557,4039.1899999999996,1.2181386341564888
558,4041.94,1.187508282374011
559,4044.68,1.196050971507106
560,4047.42,1.1536050606402006
561,4050.17,1.1872030088577228
562,4052.9100000000003,1.2688395979908176
563,4055.65,1.2546068871239124
564,4058.3999999999996,1.2849730353414348
565,4061.14,1.2507236244745297
566,4063.88,1.2028402136076244
567,4066.63,1.2195337618251467
568,4069.37,1.1144753509582417
569,4072.1099999999997,1.1254608400913364
570,4074.85,1.0667411292244313
571,4077.6,1.1700444774419536
572,4080.34,1.1965945665750484
573,4083.08,1.1536363557081433
574,4085.83,1.0999947039256655
575,4088.57,1.0939577930587603
576,4091.3100000000004,1.1227143821918553
577,4094.06,1.0873954304093774
578,4096.8,1.0702467195424723
579,4099.54,1.0302830086755672
580,4102.29,1.0473712568930895
581,4105.03,1.0963419460261843
582,4107.77,1.0782472351592791
583,4110.5199999999995,1.2048774833768015
584,4113.26,1.176577872509896
585,4116.0,1.144100961642991
586,4118.74,1.1763250507760858
587,4121.49,1.1626778989936082
588,4124.23,1.251722588126703
589,4126.97,1.2251168772597978
590,4129.72,1.23893392547732
591,4132.46,1.286132014610415
592,4135.2,1.1881660037435098
593,4137.95,1.219478451961032
594,4140.6900000000005,1.1667877410941268
595,4143.43,1.1862057302272215
596,4146.18,1.1921814784447438
597,4148.92,1.2249574675778387
598,4151.66,1.1879886567109337
599,4154.4,1.2384176458440286
600,4157.15,1.2556627940615508
