,lambda (Angstroms),Total Flux (erg/s/cm^2/Angstrom)
0,100.00999999999999,0.000127055877340751
1,102.11,0.0001562083093977543
2,104.0,0.00018244467403205706
3,104.712855,0.0001923407596873591
4,105.94,0.00017813108606153983
5,107.91,0.0001553206020073295
6,109.91000000000001,0.00013217324894726807
7,114.03999999999999,8.435681882179183e-05
8,118.05,3.7930412309718964e-05
9,120.22644299999999,1.2821417979066234e-05
10,121.07,1.2407113693043529e-05
11,125.03999999999999,1.0336372103160486e-05
12,127.07,9.279274439316008e-06
13,127.95,8.82543431410263e-06
14,130.93,7.2780531400846284e-06
15,132.14,6.676288442916257e-06
16,133.98,5.729151781106482e-06
17,137.1,4.160071837168169e-06
18,138.038426,3.684087428712726e-06
19,139.97,3.7029211704621023e-06
20,142.91,4.0390123477327155e-06
21,146.91,4.517411466468242e-06
22,151.03,4.720678408765835e-06
23,154.9,4.978690968642458e-06
24,158.489319,5.247374471814484e-06
25,158.86999999999998,5.272005606170828e-06
26,161.82999999999998,5.4990976546796065e-06
27,165.98000000000002,5.843678442284818e-06
28,169.84,6.227797444732077e-06
29,173.0,6.555132483004962e-06
30,177.03,7.035840876751712e-06
31,179.91,7.432923329354847e-06
32,181.970086,7.725772966484013e-06
33,181.99,7.729369277367448e-06
34,185.79999999999998,8.489888087990007e-06
35,191.01,9.523970036374138e-06
36,194.11,1.0211622698560471e-05
37,198.17999999999998,1.1171191577624467e-05
38,201.85999999999999,1.2209931854026308e-05
39,205.14000000000001,1.302987494821056e-05
40,208.929613,1.3911468181201808e-05
41,209.92000000000002,1.4188880654564459e-05
42,215.79999999999998,1.665888501751706e-05
43,219.81,1.8236299200415013e-05
44,222.87,1.9356475858686266e-05
45,227.01,2.108099780811208e-05
46,230.17,3.0508447363712457e-05
47,233.91,4.9798197723821765e-05
48,239.88329199999998,6.391672429511063e-05
49,239.91,6.397708348193107e-05
50,246.06,6.5223650811179e-05
51,251.8,7.08842716518104e-05
52,257.07,6.20728448103692e-05
53,260.05,7.319145075202105e-05
54,264.27,7.818100802509849e-05
55,269.18,8.077153402292083e-05
56,274.19,8.309496867650328e-05
57,275.42287,8.362970342279279e-05
58,279.28999999999996,8.568131244566485e-05
59,283.82,8.88363112605351e-05
60,289.77,8.85317514919872e-05
61,295.83000000000004,9.348468950923085e-05
62,301.33,9.314869879880843e-05
63,308.35,9.836194749205109e-05
64,316.227766,0.0001042321706678888
65,317.72,0.00010521491820016969
66,328.13,0.00010885721973446179
67,338.1,0.00011167582917700667
68,348.38,0.00011407058986600983
69,357.31,0.00011659247254624311
70,363.078055,0.0001187683019992336
71,365.64,0.0001199017097125052
72,375.02,0.00012207491258595245
73,384.64,0.00012098417267577787
74,395.41,0.00012627909026074875
75,404.62,0.00012882233593926142
76,414.04999999999995,0.00012994706739945412
77,416.86938299999997,0.00013024444691439867
78,421.74,0.00013070251764309336
79,429.59,0.00013083278792498066
80,440.6,0.00013278052917384427
81,450.87,0.0001332548848165172
82,460.31,0.0001331166120090033
83,469.95000000000005,0.00013358096774370313
84,478.630092,0.00013424836826497982
85,479.79,0.00013429159719515764
86,489.83,0.00013318163152874267
87,500.09,0.00013413792099712738
88,505.88,0.00014072398113571875
89,511.73999999999995,0.00018142546790811002
90,520.0500000000001,0.00018164678686349763
91,529.72,0.00018184073756128321
92,539.5699999999999,0.00017637814246026853
93,549.5408739999999,0.00019226618749748658
94,549.6,0.00019236129797072673
95,559.8199999999999,0.00020811803209613936
96,570.23,0.00021816697624932386
97,579.49,0.00021273573339231026
98,590.27,0.00022917217075747154
99,599.86,0.00022806291373816696
100,609.61,0.00023912388621593342
101,619.51,0.00026601366134720395
102,629.58,0.0002745506928191125
103,630.957344,0.0002752199178755405
104,639.81,0.00027967331315723704
105,650.1999999999999,0.0002961610694809259
106,657.73,0.00030305402319770914
107,665.35,0.0003172524644091152
108,674.6,0.00032465507913424725
109,685.57,0.00031962635486772813
110,695.1,0.0003682187306872426
111,704.77,0.0003535125870539482
112,716.22,0.0004063543960920846
113,724.43596,0.0004157230747957628
114,726.19,0.00041771575536698314
115,734.6,0.000429353140774275
116,744.82,0.0004608700814238021
117,755.1800000000001,0.0004802529075616789
118,765.68,0.0004959182191879053
119,774.55,0.0005299203854854891
120,785.32,0.0005611100119821042
121,794.42,0.0005807375687248338
122,805.4699999999999,0.0006010409661981483
123,814.8,0.0006178313133860238
124,824.23,0.0006602375216370064
125,831.763771,0.0006160821055292975
126,835.7,0.0005929416451096309
127,845.37,0.0006941620671138775
128,855.16,0.0007166282213456845
129,865.07,0.000757006307805052
130,875.08,0.0007977918711207199
131,885.22,0.0008466401443495783
132,895.47,0.000884192272120367
133,905.8299999999999,0.0008984248544330863
134,914.22,0.001311791332676688
135,924.8000000000001,0.007813531924073268
136,935.51,0.01681694492538304
137,944.17,0.03301441900113865
138,954.992586,0.045343321146896834
139,955.1,0.045465686417697874
140,963.9399999999999,0.05555211932744963
141,975.1,0.012935057751977857
142,984.12,0.05883926031373813
143,995.52,0.05830337827427772
144,1004.73,0.07255727046871366
145,1014.03,0.06481736248915386
146,1025.77,0.025745889792376197
147,1035.26,0.05031380144549205
148,1044.84,0.08643145292461217
149,1054.51,0.08662926422973653
150,1064.26,0.07459248538019803
151,1074.1100000000001,0.08485328633733091
152,1084.05,0.07288982712046807
153,1094.0800000000002,0.08703117772960949
154,1096.4782,0.08637657587205678
155,1104.2,0.08426883636986383
156,1114.42,0.08330493453032821
157,1124.73,0.07703267214621742
158,1135.14,0.0886474091570231
159,1145.64,0.08197219562325361
160,1156.24,0.08524892148440061
161,1164.26,0.0878330529567024
162,1175.03,0.06818437778920743
163,1185.9,0.08369038201662893
164,1194.1200000000001,0.06363431227876366
165,1205.17,0.049054415417034834
166,1216.32,0.02492883795022248
167,1224.75,0.05478647694168184
168,1236.09,0.0786425883252108
169,1244.6599999999999,0.08683077646955323
170,1256.17,0.0856391168244402
171,1258.92541,0.08286002083202318
172,1264.8799999999999,0.07685428271471605
173,1273.65,0.09176133648925348
174,1285.4299999999998,0.09477012155927071
175,1294.34,0.082924835394063
176,1306.32,0.08159661055015861
177,1315.37,0.09390362444520581
178,1324.49,0.09092082837038042
179,1333.67,0.08485224232137856
180,1346.01,0.09346904763241527
181,1355.34,0.09155278164797222
182,1364.74,0.08544002569365657
183,1374.1999999999998,0.08763450976516446
184,1383.72,0.08885072386249586
185,1396.53,0.08047822937581679
186,1406.21,0.08292423354201091
187,1415.95,0.08446682773402854
188,1425.77,0.08465814196047752
189,1435.65,0.08426839621275004
190,1442.28,0.0874312390662487
191,1445.43977,0.08800721319986297
192,1445.6,0.08803642048406712
193,1455.62,0.08643041410352709
194,1465.71,0.08235261774827271
195,1475.87,0.08159763141830395
196,1486.1,0.08178471511362087
197,1496.4099999999999,0.08235179883783567
198,1503.31,0.07955826133027816
199,1513.73,0.07390560509422754
200,1517.22,0.07703177635489772
201,1524.23,0.07545220888707481
202,1534.79,0.06881471270159549
203,1545.43,0.07305992654501406
204,1556.14,0.06945197041371827
205,1563.32,0.07009466300730335
206,1574.16,0.07356280692296664
207,1585.0700000000002,0.07545287086391556
208,1596.06,0.07703150483376237
209,1603.43,0.07441884749597992
210,1614.54,0.07424808150917356
211,1625.73,0.07156157555126506
212,1633.24,0.07424800826405394
213,1644.56,0.07459015235310451
214,1655.96,0.07009442647105298
215,1659.58691,0.07255681483531434
216,1663.6000000000001,0.07528139836750082
217,1671.28,0.06945182862694108
218,1675.1299999999999,0.0751043287830407
219,1686.74,0.0768550594096164
220,1694.53,0.07339667995923094
221,1706.28,0.07122927095511937
222,1714.15,0.06929187171576973
223,1726.03,0.06865524305459139
224,1734.0,0.07172708407903657
225,1746.02,0.06993426578717094
226,1754.0800000000002,0.07305959704903141
227,1766.24,0.0678678891264785
228,1774.39,0.07009476062575429
229,1786.69,0.0704161930725141
230,1794.9399999999998,0.07322567483558468
231,1803.22,0.07255677667779373
232,1815.72,0.0694524996521431
233,1824.1,0.06976845175814693
234,1836.75,0.0678677351281885
235,1845.22,0.06348479747160765
236,1853.74,0.0639231399469242
237,1866.59,0.06526680384455537
238,1875.21,0.0681840665836667
239,1883.86,0.06436774940191649
240,1896.92,0.062328533853516714
241,1905.46072,0.06460848988787514
242,1905.6799999999998,0.06466702563786404
243,1914.47,0.06319574574883802
244,1923.31,0.062039585689794764
245,1936.64,0.062473150363205804
246,1945.5800000000002,0.06556629996412813
247,1954.56,0.062472489429036694
248,1968.1100000000001,0.06617111335437198
249,1977.19,0.06709241247924612
250,1981.75,0.0643678969736763
251,1995.49,0.0629059402529462
252,2004.7,0.06348397893577558
253,2013.9499999999998,0.06247291748259118
254,2023.25,0.06363375585938957
255,2037.27,0.06218371818656307
256,2046.6799999999998,0.0634837061893236
257,2056.12,0.061048804090073794
258,2065.61,0.06147158182080678
259,2075.15,0.06451714938152256
260,2079.9300000000003,0.063339533127877
261,2084.73,0.06451704680622455
262,2094.35,0.06175499409491279
263,2104.02,0.062183101213583815
264,2113.73,0.06247205819624106
265,2123.48,0.06290607504288453
266,2133.29,0.059522541685507364
267,2143.13,0.061048488226119864
268,2153.0299999999997,0.062038004562711704
269,2162.96,0.06020785079729321
270,2172.95,0.05965639682785407
271,2182.98,0.05979541272240116
272,2187.7616199999998,0.060725841784994745
273,2193.05,0.06175491080041033
274,2203.1800000000003,0.0602079082635397
275,2213.34,0.05763372580800115
276,2223.56,0.05671297351512673
277,2233.82,0.060074321330695075
278,2244.14,0.057900549308927574
279,2254.4900000000002,0.055803227368492136
280,2264.9,0.05606490559072083
281,2275.35,0.0573713139213923
282,2285.86,0.05870399241472791
283,2296.4100000000003,0.055925861016506276
284,2307.0099999999998,0.0565043097538381
285,2317.66,0.05489838862672337
286,2323.0,0.04702465310383204
287,2333.72,0.05173793216649215
288,2344.49,0.049123051364705704
289,2355.31,0.053181700698472716
290,2366.19,0.049003970194903865
291,2377.11,0.05066408979977778
292,2382.59,0.04660567465643612
293,2393.5899999999997,0.04896657447819556
294,2404.63,0.04768314440839776
295,2415.73,0.04828624450126409
296,2426.8799999999997,0.051318884729683885
297,2432.48,0.049659499911670506
298,2443.71,0.051814300356975825
299,2454.99,0.0512744709378346
300,2466.3199999999997,0.05050620165424681
301,2477.7,0.04872884250621248
302,2483.41,0.0486975779864167
303,2494.8799999999997,0.04676724908237859
304,2506.39,0.05133058028678323
305,2511.88643,0.046294933387327035
306,2512.17,0.046035134890447166
307,2517.96,0.045899068815260166
308,2523.77,0.044516392719088055
309,2535.42,0.04538758049526619
310,2547.12,0.04522285821898157
311,2552.99,0.04853693205985416
312,2564.77,0.04693394969962913
313,2576.6099999999997,0.049191987276448794
314,2582.55,0.04859612104387353
315,2594.47,0.04775374853675279
316,2606.4500000000003,0.046069055966676736
317,2612.4599999999996,0.04519699966065361
318,2624.52,0.047370257006637155
319,2636.6299999999997,0.04964790430015795
320,2642.7099999999996,0.054149307920686965
321,2654.91,0.056231175119774796
322,2667.1600000000003,0.05097598226639987
323,2673.31,0.05285137581348103
324,2685.65,0.05363565286567315
325,2698.04,0.04998203986540251
326,2704.26,0.051819993339035815
327,2716.75,0.048291270233839674
328,2723.01,0.04748431366550277
329,2735.5800000000004,0.04976371047636622
330,2741.8799999999997,0.04331082386605912
331,2754.54,0.0449734005824896
332,2767.25,0.047239757246457334
333,2773.63,0.048976000552209825
334,2786.44,0.04501212711125205
335,2792.8599999999997,0.03605847037503433
336,2805.75,0.03831356685013615
337,2812.2200000000003,0.04786460006145568
338,2825.2,0.05085674644212454
339,2838.2400000000002,0.04928097275983809
340,2844.78,0.04691905589770976
341,2857.9100000000003,0.04351855212099035
342,2864.5,0.04958291520639927
343,2877.72,0.05100941133524691
344,2884.0315,0.050306622989981814
345,2884.36,0.05027004470581941
346,2897.67,0.05088884442001056
347,2911.05,0.05571208413269858
348,2931.22,0.05307453369958329
349,2951.5400000000004,0.051859863263247014
350,2972.0,0.05245258282390448
351,2992.6000000000004,0.0524438323815557
352,3013.3500000000004,0.052675411935985926
353,3027.2599999999998,0.05307362163729313
354,3048.24,0.05342918118678451
355,3069.3700000000003,0.05366215073305491
356,3090.64,0.053523630276319054
357,3112.07,0.05425079981614748
358,3126.43,0.052923659507791716
359,3148.1,0.052661989042466564
360,3169.9300000000003,0.0536189785737057
361,3191.8999999999996,0.05071771810193857
362,3206.6299999999997,0.052525217785637714
363,3228.86,0.04967980730828754
364,3251.2400000000002,0.05432056682771639
365,3266.25,0.057168046505403025
366,3288.89,0.05648293601924883
367,3311.31121,0.05556664689603762
368,3311.6800000000003,0.05555157538640975
369,3319.32,0.05398871225029925
370,3326.9700000000003,0.05468432911008388
371,3334.64,0.05747313596165881
372,3342.33,0.05370499280502402
373,3350.0299999999997,0.05592642964428438
374,3357.76,0.055358826471230166
375,3365.5,0.048280333294071096
376,3373.25,0.04812227011280717
377,3381.0299999999997,0.05259201691922867
378,3388.82,0.055016313721545314
379,3396.6400000000003,0.0517681305115474
380,3404.47,0.05605456729744461
381,3412.31,0.05226394407923698
382,3420.18,0.054422190848714774
383,3428.0699999999997,0.05512314760998285
384,3435.97,0.05519281436714607
385,3443.89,0.049826911116099576
386,3451.8300000000004,0.05610794785684337
387,3459.78,0.054272404593482315
388,3467.7599999999998,0.053720851317806684
389,3475.7500000000005,0.0545398780380262
390,3483.77,0.054357634745931145
391,3491.7999999999997,0.055310471449731224
392,3499.85,0.0502758881453216
393,3507.92,0.05544947483270226
394,3516.0000000000005,0.05157777151597806
395,3524.1099999999997,0.05272405818693929
396,3532.23,0.05514992485379567
397,3540.37,0.05650419151244233
398,3548.54,0.05869850815877442
399,3556.72,0.056129324801001655
400,3564.91,0.05684696143912404
401,3573.13,0.04878300806493184
402,3581.37,0.050792954682529944
403,3589.62,0.04460057129602318
404,3597.9,0.05295069789720185
405,3606.19,0.05216819449427566
406,3614.51,0.051633761079034904
407,3619.71,0.03933238894450943
408,3622.45,0.0388079178197787
409,3625.1899999999996,0.04986811669504797
410,3627.94,0.05864513556621238
411,3630.68,0.04808724444148165
412,3633.4300000000003,0.039697963312646065
413,3636.17,0.04822636218791533
414,3638.9100000000003,0.0471623610631846
415,3641.66,0.05506959993434901
416,3644.3999999999996,0.051346448809618285
417,3647.15,0.0584309676807827
418,3649.89,0.05357627655605197
419,3652.63,0.05072665543132124
420,3655.3799999999997,0.05746220430248565
421,3658.1200000000003,0.07311334317775492
422,3660.87,0.05907326204891933
423,3663.61,0.052154080924188606
424,3666.35,0.07074221979945787
425,3669.1000000000004,0.060507818670622285
426,3671.84,0.050673597545891555
427,3674.5899999999997,0.05197143641705596
428,3677.33,0.06396030529232524
429,3680.0699999999997,0.061899694167594506
430,3682.82,0.06480059303875892
431,3685.56,0.060036911914028185
432,3688.3100000000004,0.0517134407851926
433,3691.05,0.06224211966046188
434,3693.79,0.06985366853573113
435,3696.54,0.061856657406895554
436,3699.2799999999997,0.05508573628216482
437,3702.03,0.06351589515332924
438,3704.77,0.0620226540285985
439,3707.5099999999998,0.06392831290386777
440,3710.26,0.05797066177503219
441,3713.0,0.05012922065030146
442,3715.7400000000002,0.05950711952557072
443,3718.49,0.06831730839673515
444,3721.23,0.06550197727200441
445,3723.98,0.06908800614316883
446,3726.7200000000003,0.061032475018438094
447,3729.46,0.06386949389370736
448,3732.21,0.05101661276487177
449,3734.9500000000003,0.057853081640141045
450,3737.7,0.04204560051130546
451,3740.44,0.05833474938657473
452,3743.18,0.059014658261843995
453,3745.9300000000003,0.05754249713300841
454,3748.67,0.06270254600827768
455,3751.4199999999996,0.06233836487944209
456,3754.1600000000003,0.06313603375471136
457,3756.9,0.05552474262998063
458,3759.65,0.06923258150114504
459,3762.39,0.06534673037641431
460,3765.1400000000003,0.06862230924757873
461,3767.88,0.062167198122848
462,3770.62,0.06878851699811726
463,3773.37,0.07117555586928168
464,3776.1099999999997,0.06989107474455095
465,3778.86,0.07800539361571537
466,3781.6,0.07600904249098463
467,3784.34,0.0744676413662539
468,3787.09,0.08161313023741831
469,3789.83,0.07800562911268759
470,3792.58,0.070736557983852
471,3795.3199999999997,0.06902921685912126
472,3798.06,0.06359646573439054
473,3800.81,0.06499329460555495
474,3801.8939600000003,0.06743485076367127
475,3803.55,0.07116498362246461
476,3806.3,0.07068838272883537
477,3809.0400000000004,0.07636765183845569
478,3811.78,0.07826798094807598
479,3814.5299999999997,0.07963264005444674
480,3817.27,0.08149551916406704
481,3820.02,0.07844428827043781
482,3822.76,0.07092403738005812
483,3825.5,0.07097236648967842
484,3828.2500000000005,0.06404051559604917
485,3830.9900000000002,0.06522892470566947
486,3833.74,0.05854333381204023
487,3836.48,0.06211364292166054
488,3839.22,0.058912902031280856
489,3841.9700000000003,0.06590857113765161
490,3844.71,0.07596627024727191
491,3847.4599999999996,0.07458504935364267
492,3850.2,0.07523286846326298
493,3852.94,0.07759888757288329
494,3855.69,0.07999125667925404
495,3858.43,0.07969702578887435
496,3861.1800000000003,0.0823409648952451
497,3863.92,0.08273722400486541
498,3866.6600000000003,0.08738882311448572
499,3869.41,0.08639831222085648
500,3872.1499999999996,0.08136168133047678
501,3874.9,0.07916686043684754
502,3877.64,0.07979328954646785
503,3880.38,0.07797890865608814
504,3883.13,0.0760410177624589
505,3885.8700000000003,0.0692219468720792
506,3888.62,0.06391730597844997
507,3891.3599999999997,0.06723069508807028
508,3894.1,0.07392160419769057
509,3896.85,0.07723463330406134
510,3899.59,0.07817685241368164
511,3902.34,0.0811312415200524
512,3905.0800000000004,0.08225010062967271
513,3907.82,0.08196123973929301
514,3910.5699999999997,0.08579344884566377
515,3913.31,0.08574543795528407
516,3916.06,0.08557389706165483
517,3918.8,0.08629666617127514
518,3921.54,0.08593286528089544
519,3924.2899999999995,0.0797557043872662
520,3927.03,0.0717001734968865
521,3929.7799999999997,0.06382094260325727
522,3932.52,0.058345351712877566
523,3935.2599999999998,0.05734989082249788
524,3938.01,0.05993501992886863
525,3940.75,0.06701128903848894
526,3943.5,0.0717160181448597
527,3946.24,0.07776995725448001
528,3948.9800000000005,0.08193444636410031
529,3951.73,0.07930072547047107
530,3954.47,0.08041421458009136
531,3957.2200000000003,0.08059596368646213
532,3959.96,0.07403918279608245
533,3962.7000000000003,0.06918986190570274
534,3965.45,0.06065225101207349
535,3968.1899999999996,0.054518290121693805
536,3970.94,0.05184288922806455
537,3973.68,0.05388661833768486
538,3976.42,0.06126262744730518
539,3979.17,0.07160902655367593
540,3981.9100000000003,0.08043026566329624
541,3984.66,0.08989340476966699
542,3987.3999999999996,0.0947484038792873
543,3990.14,0.0972482729889076
544,3992.89,0.09571177209527837
545,3995.63,0.09645062120489867
546,3998.38,0.09581338031126943
547,4001.1200000000003,0.10087712942088974
548,4003.86,0.09912700853051004
549,4006.6099999999997,0.10081812763688079
550,4009.35,0.1002991267465011
551,4012.1,0.10401352585287185
552,4014.84,0.10487012496249216
553,4017.58,0.10429762407211247
554,4020.33,0.10601012317848323
555,4023.07,0.10538412228810352
556,4025.82,0.10309822139447429
557,4028.56,0.1048915205040946
558,4031.2999999999997,0.1053253196137149
559,4034.05,0.10363361872008565
560,4036.79,0.10235451782970596
561,4039.54,0.10669521693607673
562,4042.2799999999997,0.10417431604569703
563,4045.0199999999995,0.10316821515531734
564,4047.77,0.1031358142616881
565,4050.5099999999998,0.1050790133713084
566,4053.26,0.10671121247767916
567,4056.0,0.09961922158729947
568,4058.7400000000002,0.10001021069691976
