,lambda (Angstroms),Total Flux (erg/s/cm^2/Angstrom)
0,102.03,0.03509685195475277
1,103.92999999999999,0.041066815098896
2,104.712855,0.043527264274937146
3,106.1,0.03990435580981052
4,108.07000000000001,0.034765081817285395
5,110.08,0.029539734733338492
6,113.95,0.019457124628276486
7,117.96,0.009012658483238118
8,120.22644299999999,0.0035334680929507544
9,120.97999999999999,0.0035929336911338042
10,124.94999999999999,0.0032950257542524314
11,126.97999999999999,0.0031189278966027613
12,127.86,0.0030709524854048735
13,131.14000000000001,0.0027777243163945677
14,132.05,0.0028878923457240266
15,133.88,0.0027422182178920606
16,137.0,0.002749015032735917
17,138.038426,0.0026781894866737726
18,139.87,0.002767270489133088
19,143.13,0.006378224427053969
20,147.14,0.01442915814517137
21,150.91,0.015228541493625885
22,155.14,0.016253487133934267
23,158.489319,0.017212288644781002
24,159.12,0.01739138486870907
25,162.08,0.018202580367453435
26,165.85,0.01956991216821907
27,170.10999999999999,0.020618953460330897
28,172.87,0.02154943345240335
29,176.9,0.022614276411842476
30,180.19,0.023423162996595505
31,181.85,0.024057282701972417
32,181.970086,0.024087986560686836
33,186.09,0.0251771671356966
34,190.85999999999999,0.026649815774664933
35,193.96,0.027765792332485023
36,198.03,0.028861330458397214
37,202.17,0.030139016635615013
38,204.99,0.031115420988212645
39,208.929613,0.031124835291412217
40,209.76000000000002,0.031135728901029634
41,216.13,0.034402885696634404
42,220.15,0.035802128902023916
43,223.21,0.03633411178970847
44,226.84,0.037886025803530336
45,230.0,0.057129293099309156
46,233.73000000000002,0.0947720015212253
47,239.73000000000002,0.11917383600688129
48,239.88329199999998,0.11897269175546078
49,245.88,0.11096355708186637
50,252.19,0.11768519449422919
51,256.88,0.09707413222227698
52,259.85,0.11338234831018786
53,264.07,0.11919159884587267
54,268.97999999999996,0.11832494887672869
55,273.97999999999996,0.11692264666782443
56,275.42287,0.11652980119089013
57,279.08,0.1156140917553355
58,284.26,0.11514670552975285
59,290.21999999999997,0.10905223025861914
60,296.28999999999996,0.10912819755798464
61,301.11,0.10598284473804093
62,308.12,0.10655163036712696
63,316.227766,0.10703118511006449
64,318.22,0.10711003256302742
65,327.89,0.10509062221328284
66,337.85,0.10170731238045387
67,348.11,0.0984222303237445
68,357.04,0.09656785279290488
69,363.078055,0.09622728897715198
70,366.2,0.09609719365668613
71,374.73,0.09354894681926433
72,385.23,0.08741982141563845
73,395.10999999999996,0.08889162231203618
74,405.25,0.08774547217939174
75,413.74,0.08543236703874567
76,416.86938299999997,0.08434826082973586
77,422.4,0.08241801351242588
78,430.25,0.08004793813181692
79,441.29,0.07864868232265478
80,450.53000000000003,0.07587662246063863
81,459.96000000000004,0.07304312874864595
82,469.59000000000003,0.07096062993141485
83,478.630092,0.06994119573232822
84,480.53,0.06970993396982891
85,489.46999999999997,0.06627934863515854
86,499.71000000000004,0.06578068928090522
87,505.5,0.06355469599368582
88,512.53,0.0661655834877873
89,519.66,0.06435223298038242
90,530.55,0.061582401616337636
91,540.41,0.05761675266780856
92,549.5408739999999,0.05559097591607823
93,550.4599999999999,0.05539020798007587
94,559.4,0.05613569631816306
95,569.8000000000001,0.05611781064882376
96,580.39,0.05385506082783309
97,589.82,0.052870758985345635
98,599.41,0.04948888259409912
99,610.55,0.04259943338674915
100,620.47,0.04867607136368706
101,630.55,0.046500384791865905
102,630.957344,0.046499704781945574
103,639.33,0.04651823162321791
104,649.71,0.04478392578660302
105,658.75,0.04291835345876115
106,664.85,0.0435180086800183
107,675.65,0.04286027890781784
108,685.05,0.039982348920902626
109,694.58,0.040640418668210936
110,704.24,0.03749623814974274
111,715.6899999999999,0.038983287048659845
112,724.43596,0.038241045825171856
113,725.64,0.03813770619958676
114,735.74,0.03738671375695982
115,744.2600000000001,0.03615941775585274
116,754.61,0.03513426233197266
117,765.1099999999999,0.031360267119340694
118,775.75,0.03362315943720697
119,784.73,0.03180875675059411
120,795.65,0.03189237412945686
121,804.86,0.03155165310009111
122,814.1800000000001,0.03093659155897397
123,825.51,0.030473078848581574
124,831.763771,0.028426684575272566
125,835.0699999999999,0.02733146915300432
126,844.7399999999999,0.02892605680041708
127,854.52,0.028138540356952423
128,864.4100000000001,0.027800499822610354
129,874.4200000000001,0.027344107552765652
130,884.5500000000001,0.026773883547418314
131,894.7900000000001,0.02627281545119356
132,905.15,0.025495635619466175
133,915.6300000000001,0.027168714052236153
134,924.1099999999999,0.048968141410050035
135,934.81,0.07401627166106518
136,945.63,0.10349504017657771
137,954.38,0.12597525112951063
138,954.992586,0.12646996852529568
139,965.4300000000001,0.13492339705577044
140,974.37,0.0520820807444798
141,985.65,0.11208026197587145
142,994.77,0.1133656770140179
143,1003.97,0.1478680570963586
144,1015.6,0.14516507539610018
145,1025.0,0.08044449808892658
146,1034.48,0.11361002582594722
147,1044.05,0.17761114423768642
148,1056.14,0.17199276154154503
149,1065.91,0.1405599925637699
150,1075.78,0.15945217989123758
151,1085.73,0.12795093226289955
152,1095.78,0.16350834093980438
153,1096.4782,0.1629545574369743
154,1105.9199999999998,0.15545692357083363
155,1116.15,0.1491522333625087
156,1123.89,0.13328964839550625
157,1134.29,0.16233522570082595
158,1144.78,0.14945347992513403
159,1155.3700000000001,0.15467529739276245
160,1166.06,0.15572837810371126
161,1174.15,0.10989261448833017
162,1185.01,0.1487214627129236
163,1195.98,0.11163856050516952
164,1204.27,0.08696120337642917
165,1215.4099999999999,0.06311941868231971
166,1223.8300000000002,0.10907237376989586
167,1235.16,0.14729607923809512
168,1243.72,0.15705417286631979
169,1255.23,0.14999133217249574
170,1258.92541,0.14294915591305615
171,1263.93,0.1334194652696337
172,1275.6200000000001,0.16216700240424595
173,1284.46,0.1670930623075798
174,1296.35,0.13495891889701864
175,1305.3400000000001,0.13342359339147236
176,1314.3799999999999,0.16068597274963278
177,1323.49,0.15313245891698246
178,1335.74,0.13652655052510912
179,1345.0,0.15777005128357874
180,1354.32,0.15243185787849628
181,1363.7099999999998,0.13684267128260316
182,1376.3300000000002,0.14131099888215892
183,1385.87,0.14098612687738574
184,1395.48,0.11896676168180181
185,1405.15,0.12117250232266585
186,1414.89,0.1292125497727192
187,1424.7,0.13040560403196183
188,1434.57,0.13010836412765245
189,1441.19,0.1352875080824115
190,1445.43977,0.13608516811744514
191,1447.85,0.13653751824912702
192,1454.53,0.13221276361221757
193,1464.6100000000001,0.12201478655532426
194,1474.76,0.12145731521331365
195,1484.99,0.12285815040259754
196,1495.28,0.1234256904903523
197,1505.64,0.11654643629298975
198,1512.5900000000001,0.10439970369919924
199,1516.08,0.1105591886269217
200,1526.59,0.10731214667573633
201,1533.64,0.09330906224606393
202,1544.27,0.0979103100918203
203,1554.97,0.09331184365245936
204,1565.75,0.09613346374439292
205,1576.6,0.10157152955120917
206,1583.88,0.10536602389900845
207,1594.86,0.10658232031917825
208,1605.91,0.10392862245423073
209,1613.3300000000002,0.1036902282317954
210,1624.5100000000002,0.09836731098020143
211,1635.77,0.10369206025990199
212,1643.3200000000002,0.1044091766508202
213,1654.71,0.09724781654387431
214,1659.58691,0.10029400444118645
215,1666.1799999999998,0.1044155355684777
216,1673.8700000000001,0.09354271042538546
217,1677.73,0.10490122179699328
218,1685.47,0.1080807364644141
219,1693.25,0.10136527498024538
220,1704.99,0.09750012448871057
221,1716.81,0.09207958169399665
222,1724.7299999999998,0.09103597367926447
223,1736.6899999999998,0.09640756435398709
224,1744.7099999999998,0.09379945596028103
225,1756.8,0.0991066741423376
226,1764.91,0.09126889940755503
227,1773.06,0.09232311852118291
228,1785.35,0.0936078559452917
229,1793.59,0.09912776871784307
230,1806.0200000000002,0.09800755961138842
231,1814.3500000000001,0.09005410604286328
232,1826.9299999999998,0.09172382636794779
233,1835.3600000000001,0.08802797242044877
234,1843.84,0.0807041082834628
235,1856.62,0.08071204785059952
236,1865.1899999999998,0.08296301737253706
237,1873.8,0.08885998074288504
238,1886.7800000000002,0.08184550955207398
239,1895.49,0.07891235254344807
240,1904.24,0.0829865193832326
241,1905.46072,0.08252272226060384
242,1913.03,0.07963654003339196
243,1926.29,0.07729628943618044
244,1935.18,0.07871616727862311
245,1944.1200000000001,0.08295677669498278
246,1953.0900000000001,0.07762958305569263
247,1966.63,0.08485867727241632
248,1975.71,0.08602449909574358
249,1984.83,0.08235885017820445
250,1993.99,0.08012267051979892
251,2003.19,0.08196887012052696
252,2017.08,0.07955600535466967
253,2026.39,0.08139095041801513
254,2035.74,0.07845869474049419
255,2045.14,0.08174880063689026
256,2054.58,0.07719730579241993
257,2064.06,0.07736722020708318
258,2073.5899999999997,0.08323791619566345
259,2078.37,0.09080118266212868
260,2083.16,0.09996991144337733
261,2092.77,0.09353671595022478
262,2107.28,0.09309688470093828
263,2117.01,0.09701065698518654
264,2126.78,0.09415488852856842
265,2136.6,0.0884986116458673
266,2146.46,0.09720991402229975
267,2156.37,0.09877474797264921
268,2166.3199999999997,0.09220203118213229
269,2176.3199999999997,0.09156238596553236
270,2186.36,0.09966310000806602
271,2187.7616199999998,0.09982166304447128
272,2196.4500000000003,0.10081656652089944
273,2206.59,0.09831096966972211
274,2216.7799999999997,0.08627462345537328
275,2227.01,0.09032778175048725
276,2237.29,0.10630379068242975
277,2242.45,0.10154585240313242
278,2252.8,0.08793149422663483
279,2263.2,0.08558660668696576
280,2273.6400000000003,0.09026023365675952
281,2284.14,0.10650419739074747
282,2294.68,0.09350300563419824
283,2305.27,0.10347104451447751
284,2315.91,0.09252364403158532
285,2326.6,0.07464434418552163
286,2337.34,0.07764256497628647
287,2342.73,0.06647569762640028
288,2353.54,0.08832531130872502
289,2364.4100000000003,0.06870578175524399
290,2375.3199999999997,0.07636471671122576
291,2386.28,0.06205592230403605
292,2397.3,0.06912606466104056
293,2402.83,0.06758179309427423
294,2413.92,0.07224875834283866
295,2425.06,0.09555744422823159
296,2436.25,0.09516878075045304
297,2447.5,0.10849179403686872
298,2453.14,0.1128274498711251
299,2464.46,0.0999777560491007
300,2475.84,0.0919033889912705
301,2487.27,0.07101600257026883
302,2493.0,0.07624821355081654
303,2504.5099999999998,0.1029404261487405
304,2510.2799999999997,0.06563156163875102
305,2511.88643,0.06450936838912842
306,2516.07,0.06158332384367835
307,2527.68,0.06203014058808149
308,2533.5099999999998,0.07975797803165344
309,2545.2000000000003,0.08163484580444176
310,2556.9500000000003,0.129392959348519
311,2562.85,0.10198166019192802
312,2574.67,0.12509875713584231
313,2586.56,0.11366633747959366
314,2592.52,0.10517082409429157
315,2604.49,0.09469774546642812
316,2616.51,0.08845038498130545
317,2622.54,0.1099655049958404
318,2634.65,0.17644453316765107
319,2646.81,0.22828034948220252
320,2652.91,0.3215625028965745
321,2665.15,0.20179770023951116
322,2677.46,0.22801158098228486
323,2683.63,0.2654056177964939
324,2696.0099999999998,0.19383188193910467
325,2702.23,0.2400420068960545
326,2714.7,0.1761395496955986
327,2727.23,0.1378564782664316
328,2733.52,0.1742457866232185
329,2746.1400000000003,0.10892849385098485
330,2752.4700000000003,0.14053319272196435
331,2765.17,0.17930588097811592
332,2777.94,0.18955265263410456
333,2784.34,0.12259973490492108
334,2797.19,0.06920152758929493
335,2803.64,0.07939325800285223
336,2816.5800000000004,0.16884738934415944
337,2823.0699999999997,0.2383333502719093
338,2836.1,0.22257126027014987
339,2842.6400000000003,0.15883860934064054
340,2855.7599999999998,0.10068559799581442
341,2862.3500000000004,0.21972393520904585
342,2875.56,0.3095926025211531
343,2882.19,0.2818212302485771
344,2884.0315,0.2920427800494787
345,2895.49,0.35564773793498716
346,2908.8599999999997,0.4876118730473067
347,2929.02,0.421175175206197
348,2949.32,0.38532947668563505
349,2969.77,0.4028456774370887
350,2990.35,0.40874817755762255
351,3011.08,0.40531067695017187
352,3031.95,0.4416502756632691
353,3052.97,0.4596105736483818
354,3067.06,0.5135332052663761
355,3088.32,0.49878920208671373
356,3109.73,0.5959141981790669
357,3131.28,0.545209393591968
358,3152.99,0.5519558882283522
359,3167.54,0.6138879176138609
360,3189.5,0.5230013110369377
361,3211.6099999999997,0.5805052037320302
362,3226.4300000000003,0.48318373180716667
363,3248.7899999999995,0.7036034232889518
364,3271.31,0.8310681139942201
365,3286.42,0.81635464066192
366,3309.19,0.7555467301538809
367,3311.31121,0.7501944961141358
368,3324.47,0.7169910990516902
369,3332.1299999999997,0.7305095883947659
370,3339.81,0.6350266758823402
371,3347.51,0.8276237615144136
372,3355.23,0.8053099452909859
373,3362.9700000000003,0.49232132721205696
374,3370.72,0.6445662082053776
375,3378.4900000000002,0.7661933873431971
376,3386.27,0.740405765553266
377,3394.08,0.7254372409800832
378,3401.9100000000003,0.9029487145513994
379,3409.7499999999995,0.7548057871949649
380,3417.6099999999997,0.6382732579830295
381,3425.49,0.7999465269155929
382,3433.3799999999997,0.9228931949204057
383,3441.2999999999997,0.7216677601419669
384,3449.23,0.6737232244357775
385,3457.1800000000003,0.7971851868740869
386,3465.15,0.6850538474568953
387,3473.1400000000003,0.8546493061842027
388,3481.15,0.7395217630560088
389,3489.1699999999996,0.8148040190000644
390,3497.22,0.7247880721608684
391,3505.28,0.9231539243939217
392,3513.3599999999997,0.7842209747714741
393,3521.46,0.9343821232935252
394,3529.57,0.6306057708878259
395,3537.71,0.8826472156988748
396,3545.87,0.8951870586544227
397,3554.04,0.93331250068222
398,3562.23,0.8282945408545163
399,3570.4399999999996,0.6491997791713113
400,3578.6800000000003,0.7593862147048548
401,3586.92,0.5305308502383982
402,3595.1899999999996,0.81227218298869
403,3603.48,1.0087471138834807
404,3611.7899999999995,0.6668323429227702
405,3620.11,0.8731194710343092
406,3628.46,1.0645317963625966
407,3636.82,0.7697659207631333
408,3645.21,1.0102552423804183
409,3653.61,0.888354763069953
410,3662.03,1.2435146819039864
411,3670.4700000000003,1.1035798988825187
412,3678.94,1.1453161130777996
413,3687.42,1.0187823263453297
414,3695.9199999999996,1.1646315377573586
415,3704.44,1.1976077473138866
416,3712.98,0.8251258550149133
417,3721.54,0.868247860860439
418,3730.1099999999997,0.9721922657782142
419,3738.72,0.49326216698498715
420,3747.33,0.70161056819176
421,3755.9700000000003,0.9060708666152814
422,3764.63,0.8655897631833015
423,3773.3100000000004,0.8799169578958206
424,3782.01,1.1079635507528385
425,3790.7200000000003,0.8926937426821059
426,3799.46,0.7566221318281217
427,3800.75,1.2233788121483002
428,3801.8939600000003,1.2005914195664682
429,3802.4799999999996,1.188917662976069
430,3804.21,1.0786065359174857
431,3805.94,1.0020354088589023
432,3807.67,1.115406281800319
433,3809.4,1.0639031547417357
434,3811.1299999999997,0.9555514276831523
435,3812.87,1.0849058998901264
436,3814.6000000000004,0.998136672831543
437,3816.33,1.0191866457729595
438,3818.06,0.9730372187143763
439,3819.79,0.6499583916557928
440,3821.52,0.6421318645972095
441,3823.2500000000005,0.8105409375386262
442,3824.98,0.8705091104800429
443,3826.71,0.7512642834214596
444,3828.44,0.7005210563628761
445,3830.17,0.8122890293042928
446,3831.8999999999996,0.5708452022457094
447,3833.63,0.6463775751871261
448,3835.3599999999997,0.6958830481285427
449,3837.09,0.5559323210699594
450,3838.82,0.626788894011376
451,3840.56,0.74655966621835
452,3842.29,0.9288045391597667
453,3844.0200000000004,0.9929927121011833
454,3845.75,0.7785233850426
455,3847.4799999999996,0.9930442579840166
456,3849.21,1.1488572309254332
457,3850.94,0.7897780038668499
458,3852.67,0.8215732768082665
459,3854.4,0.7954561497496833
460,3856.1299999999997,0.7750609226910999
461,3857.86,0.7857518956325166
462,3859.59,0.8086250685739332
463,3861.3199999999997,0.6949197415153499
464,3863.05,0.8325381144567665
465,3864.7799999999997,1.017089087398183
466,3866.51,1.0594299603395998
467,3868.2499999999995,0.9419563325465738
468,3869.98,0.7671000054879905
469,3871.71,0.7329858784294071
470,3873.44,0.7411018513708237
471,3875.17,0.8309357243122404
472,3876.8999999999996,0.7731551972536571
473,3878.63,0.7629193701950737
474,3880.36,0.8858711431364904
475,3882.09,0.915035716077907
476,3883.82,0.9026899890193237
477,3885.5499999999997,0.8168146619607404
478,3887.28,0.868681434902157
479,3889.0099999999998,0.8712708078435736
480,3890.74,1.0528521807849902
481,3892.4700000000003,1.091747053726407
482,3894.2,1.1255819266678235
483,3895.9300000000003,0.9856581996092403
484,3897.6699999999996,1.0312426718162142
485,3899.4,1.113230544757631
486,3901.1299999999997,0.9934173176990475
487,3902.86,0.9784097906404642
488,3904.59,0.9810688635818808
489,3906.3199999999997,1.2173940365232974
490,3908.05,1.231808909464714
491,3909.7799999999997,1.164837782406131
492,3911.51,1.0568976553475473
493,3913.2400000000002,1.0864275282889642
494,3914.97,1.1655554012303808
495,3916.7000000000003,1.2037152741717974
496,3918.43,1.0742511471132141
497,3920.16,1.0365590200546306
498,3921.89,0.9932614929960474
499,3923.62,0.9925992659374641
500,3925.36,0.8675273381444379
501,3927.0899999999997,0.6976595110858547
502,3928.82,0.6361836840272713
503,3930.5499999999997,0.46796645696868794
504,3932.28,0.5129812299101046
505,3934.01,0.42829250285152126
506,3935.74,0.4702723757929379
507,3937.4700000000003,0.4719925487343546
508,3939.2,0.4493801216757712
509,3940.9300000000003,0.6657106946171879
510,3942.66,0.6582095675586046
511,3944.39,0.7362265405000212
512,3946.1200000000003,0.8775999134414378
513,3947.85,0.8860765863828545
514,3949.58,1.1147948593242711
515,3951.31,1.1590427322656878
516,3953.05,1.0340216044726618
517,3954.7799999999997,1.1070414774140784
518,3956.5099999999998,1.1427133503554951
519,3958.2400000000002,1.1264082232969117
520,3959.97,0.9738505962383284
521,3961.7000000000003,0.8782197691797451
522,3963.43,0.6750602421211617
523,3965.16,0.6725738150625783
524,3966.8900000000003,0.702685288003995
525,3968.62,0.5702108609454116
526,3970.3500000000004,0.5642438338868282
527,3972.08,0.661736006828245
528,3973.81,0.8034348797696615
529,3975.54,0.9862882527110782
530,3977.27,1.003613825652495
531,3978.9999999999995,1.1367766985939116
532,3980.74,1.2761645708008855
533,3982.4700000000003,1.3086514437423022
534,3984.2,1.3373023166837188
535,3985.93,1.4631251896251354
536,3987.6600000000003,1.4956830625665523
537,3989.39,1.5100129355079688
538,3991.1200000000003,1.3806798084493856
539,3992.85,1.3783316813908022
540,3994.58,1.4081605543322187
541,3996.31,1.4409864272736355
542,3998.04,1.471200300215052
543,3999.7700000000004,1.4094651731564687
544,4001.5,1.5403610460978854
545,4003.23,1.680381919039302
546,4004.96,1.5743627919807188
547,4006.69,1.5897276649221352
548,4008.43,1.6398685371291093
549,4010.16,1.593886410070526
550,4011.8900000000003,1.5195182830119425
551,4013.62,1.6485971559533592
552,4015.35,1.7619090288947759
553,4017.08,1.6258029018361926
554,4018.81,1.6274997747776092
555,4020.5400000000004,1.6303606477190258
556,4022.27,1.6975725206604426
557,4024.0,1.7208823936018591
558,4025.73,1.6448202665432756
559,4027.46,1.5829561394846925
560,4029.19,1.5850360124261091
561,4030.92,1.5507838853675258
562,4032.6499999999996,1.4766677583089425
563,4034.38,1.559118631250359
564,4036.11,1.6605855041917759
565,4037.85,1.7013403763987496
566,4039.58,1.7465402493401665
567,4041.3100000000004,1.719452122281583
568,4043.04,1.6297059952229997
569,4044.7699999999995,1.5705768681644163
570,4046.5,1.5070117411058328
571,4048.23,1.6118646140472497
572,4049.96,1.6179894869886662
573,4051.69,1.6776383599300828
574,4053.4199999999996,1.6939232328714997
575,4055.15,1.6363491058129163
576,4056.88,1.523817978754333
577,4058.61,1.5152248516957496
578,4060.34,1.543353724637166
579,4062.0699999999997,1.506496597578583
580,4063.8,1.4947774705199994
