,lambda (Angstroms),Total Flux (erg/s/cm^2/Angstrom)
0,100.1,2.1999501997573967
1,101.97,2.193796979756169
2,104.10000000000001,2.1867882253541566
3,104.712855,2.184771631658476
4,106.04,2.161832567229045
5,108.01,2.127782070504072
6,110.02,2.093040231922401
7,113.88000000000001,2.0263220297928517
8,117.88,1.9571840038084083
9,120.22644299999999,1.9166276728249054
10,120.91,1.9067223110890705
11,124.87,1.8493372816812819
12,126.9,1.8199201760614683
13,128.07,1.8029655174184627
14,131.06,1.7596368873620032
15,131.96,1.7465951692584603
16,134.10999999999999,1.7154391381914413
17,136.92,1.674719471635291
18,138.038426,1.658512199868178
19,140.10999999999999,1.6370548413584745
20,143.04000000000002,1.6067117898362604
21,147.04999999999998,1.5651895327749858
22,151.17000000000002,1.5225163615862691
23,155.04,1.482433271804465
24,158.489319,1.4467077225980762
25,159.01999999999998,1.4425524454046388
26,161.98000000000002,1.419375315697265
27,166.13,1.3868808051007104
28,170.0,1.35657838889161
29,173.16000000000003,1.3318355750231976
30,177.2,1.3002023032442143
31,180.07999999999998,1.2776520066732562
32,181.970086,1.2628526418651567
33,182.16,1.2617182252003616
34,185.97,1.2389602990047102
35,191.19,1.2077798264202746
36,193.83999999999997,1.1919516301089428
37,197.89999999999998,1.167700418338826
38,202.05,1.1429119734307018
39,204.86,1.1261278735229119
40,208.929613,1.1018168380232918
41,210.10999999999999,1.0965156350953622
42,216.0,1.0700714987720739
43,220.02,1.0520212356705427
44,223.08,1.038280131402213
45,227.22,1.0196914302815316
46,229.85999999999999,1.0078913613002278
47,234.13,0.9888106035054671
48,239.88329199999998,0.9630362210079177
49,240.13,0.9621851722222009
50,245.73000000000002,0.9427918322231521
51,252.03,0.9210156333742222
52,256.72,0.9047358358900187
53,260.29,0.8924309126856252
54,263.91,0.8799401796419544
55,268.82,0.8629613707849313
56,273.81,0.8457053730650645
57,275.42287,0.8401228917364835
58,278.90000000000003,0.8308865084169301
59,284.09,0.8171391060726219
60,290.03999999999996,0.8013514136023645
61,296.10999999999996,0.7852468051437993
62,300.92,0.7724630063624651
63,307.93,0.7539063656954894
64,316.227766,0.73193286012918
65,318.02,0.7283917418394326
66,327.68,0.7093212721493676
67,337.64000000000004,0.6896278477676856
68,347.90000000000003,0.6693453867943868
69,356.82,0.6519652740903104
70,363.078055,0.6399798307321287
71,365.97999999999996,0.6358677609593414
72,375.37,0.6221339379175386
73,384.99,0.6077396081026138
74,394.87,0.594139631022421
75,405.0,0.5801522438410085
76,414.43,0.5665768721430106
77,416.86938299999997,0.5629689141127949
78,422.14000000000004,0.5570242337508896
79,429.99,0.5483327221135882
80,441.02000000000004,0.5371840527467813
81,451.29,0.5262982523970888
82,459.68,0.5166055093528903
83,470.39,0.5052070927827632
84,478.630092,0.4971445363953538
85,480.23999999999995,0.4959911146761871
86,490.29,0.48667622317922454
87,500.56000000000006,0.48023941666839814
88,506.35,0.4743566001671631
89,512.2199999999999,0.4752704109336139
90,520.5400000000001,0.4681606967729443
91,530.22,0.4596382661629347
92,540.07,0.44926960349675754
93,549.5408739999999,0.4415184003834497
94,550.12,0.4411642802339959
95,560.34,0.43971645224289313
96,569.45,0.43705989928800604
97,580.03,0.43068477669056304
98,589.46,0.42609984741892903
99,600.42,0.4161160260703492
100,610.1700000000001,0.4097884104819683
101,620.09,0.41043374466281574
102,630.1600000000001,0.403236072757688
103,630.957344,0.4030190649877811
104,640.4,0.40175195861260654
105,649.3100000000001,0.3971288025883753
106,658.35,0.3907267312012765
107,664.44,0.39212916381771107
108,675.23,0.3893977286997028
109,684.63,0.3802835432308168
110,695.75,0.38096760603783697
111,705.43,0.3693913151720056
112,715.24,0.37460373894330656
113,724.43596,0.3712718911310136
114,725.19,0.3711012401237515
115,735.28,0.36839036743165626
116,745.5100000000001,0.3641551721650422
117,754.14,0.36157836917864156
118,764.63,0.35368386341649294
119,775.27,0.35567123775307424
120,784.25,0.3493228383303769
121,795.1600000000001,0.3494779548446722
122,804.3699999999999,0.3480340769066943
123,815.5600000000001,0.3449665282719523
124,825.0,0.3431614018186936
125,831.763771,0.3330856727616995
126,834.5500000000001,0.32921075541178635
127,844.22,0.3376941406793861
128,855.96,0.3342562788119219
129,865.87,0.33420126962907937
130,875.9,0.33243990322101585
131,884.0000000000001,0.3311160405185916
132,894.24,0.3291846539663911
133,904.59,0.3256937182910713
134,915.07,0.3224722172884286
135,925.67,0.4168339890605649
136,934.23,0.5221249336614597
137,945.0500000000001,0.6434036271873572
138,954.992586,0.7222834661229252
139,955.99,0.7302027920713501
140,964.84,0.7794477974268441
141,976.0099999999999,0.42217105695462576
142,985.04,0.6853009949614179
143,994.1600000000001,0.6806261492938591
144,1005.6700000000001,0.8115355038296485
145,1014.97,0.8075238908133879
146,1024.36,0.5743610941227765
147,1033.8400000000001,0.7012341137578141
148,1045.81,0.9404496850691433
149,1055.49,0.9180462076500677
150,1065.26,0.7984731465566414
151,1075.11,0.8685815666415697
152,1085.06,0.7664645381994414
153,1095.1,0.8844291260829623
154,1096.4782,0.8804872977888928
155,1105.23,0.8559104677163574
156,1115.46,0.8356678163930347
157,1125.78,0.7654325546475126
158,1136.2,0.8778533368773247
159,1144.07,0.8304185477361173
160,1154.66,0.8443086547239973
161,1165.34,0.844787251289678
162,1176.1299999999999,0.6462114462282261
163,1184.28,0.8122551802179543
164,1195.24,0.6826973999145705
165,1206.3,0.5890461635865206
166,1214.66,0.4872620399244504
167,1225.9,0.6584787827520019
168,1234.3899999999999,0.8005131662578661
169,1245.82,0.8350637426385523
170,1254.45,0.8104432877098842
171,1258.92541,0.7896622573972791
172,1266.06,0.7570141304241098
173,1274.84,0.8606584906672684
174,1283.67,0.8787613902056614
175,1295.55,0.763092486753352
176,1304.5300000000002,0.757414804177448
177,1313.57,0.8590740887558255
178,1325.73,0.8269399653568286
179,1334.92,0.7719588678209093
180,1344.17,0.841099737439271
181,1353.49,0.819209402070961
182,1366.01,0.7625309815976518
183,1375.48,0.7723283641150449
184,1385.0100000000002,0.7707401137867192
185,1394.6100000000001,0.6555783584717219
186,1404.28,0.6539580981700525
187,1414.01,0.7227988050226645
188,1423.8200000000002,0.7184899347476513
189,1433.69,0.7249208316269196
190,1443.62,0.7397441956604691
191,1445.43977,0.7417201910365132
192,1446.9499999999998,0.7434363343278714
193,1453.6299999999999,0.724709862010197
194,1463.71,0.6866190504889162
195,1473.85,0.6867394359228658
196,1484.0700000000002,0.6906917839637894
197,1494.3600000000001,0.6907942617858152
198,1504.71,0.6618271365630713
199,1511.6599999999999,0.6151720505439343
200,1518.64,0.6373502630024124
201,1525.65,0.6249071739385058
202,1536.22,0.5602482708849404
203,1543.31,0.5574229444280078
204,1554.0100000000002,0.5433758681107751
205,1564.78,0.5680974215746446
206,1575.63,0.5933192376454881
207,1586.55,0.6064327834974339
208,1593.8700000000001,0.6112297120355513
209,1604.9199999999998,0.5975963846238298
210,1616.05,0.591878719819082
211,1623.51,0.573765707919404
212,1634.76,0.5952210370251173
213,1646.0900000000001,0.5961264287378045
214,1653.6899999999998,0.5723640764003309
215,1659.58691,0.5845965207350791
216,1665.1499999999999,0.596331038091564
217,1672.84,0.5518473032307315
218,1676.7,0.6044334595944749
219,1684.43,0.6107043548514014
220,1696.1100000000001,0.5838142492370291
221,1703.9399999999998,0.5680504697883532
222,1715.75,0.5442828370566976
223,1723.6699999999998,0.5386108003729794
224,1735.62,0.5601735230534803
225,1743.6299999999999,0.5501627291347199
226,1755.72,0.5659456072273773
227,1763.8200000000002,0.5373275560735746
228,1776.0500000000002,0.5373342895783885
229,1784.24,0.5427471811895435
230,1796.61,0.558354970106514
231,1804.9,0.5555631870120665
232,1813.23,0.5233696340353781
233,1825.8,0.5282650735411434
234,1834.23,0.5148418458588525
235,1846.94,0.48403234077677443
236,1855.4699999999998,0.4842347383888809
237,1864.04,0.4916992661187465
238,1876.96,0.5103827941549031
239,1885.6200000000001,0.47907806464972635
240,1894.32,0.46349506526230866
241,1903.07,0.4821392785220897
242,1905.46072,0.47921642962320554
243,1916.26,0.46624930660782327
244,1925.1,0.4546044409036672
245,1933.9899999999998,0.4660571799183791
246,1942.9199999999998,0.4778993227081852
247,1956.38,0.4502091930274227
248,1965.4099999999999,0.47655594525496464
249,1974.4900000000002,0.48509680220137447
250,1983.6000000000001,0.46482826197910504
251,1992.76,0.4539297264757035
252,2006.57,0.46170592982701625
253,2015.8300000000002,0.45170490376135053
254,2025.14,0.46234048241455267
255,2034.4799999999998,0.4413730638990756
256,2043.8700000000001,0.4491739501024663
257,2053.31,0.41859074102472504
258,2062.79,0.425882135722078
259,2072.31,0.45430573419452536
260,2077.08,0.4355242843745226
261,2086.67,0.44492328945338494
262,2096.3,0.42627429830734165
263,2105.98,0.4281053118801662
264,2115.7000000000003,0.4299501292280851
265,2125.4700000000003,0.4318027512948719
266,2135.2799999999997,0.41290437713675304
267,2145.13,0.41386630675372843
268,2155.03,0.42275614108957177
269,2164.98,0.41190168014428297
270,2174.97,0.40897892297408855
271,2185.01,0.4015047705227619
272,2187.7616199999998,0.404272549068293
273,2195.1,0.41179621533757627
274,2205.23,0.4036642559149288
275,2215.41,0.38980307003906006
276,2225.6400000000003,0.38143395770996985
277,2235.9100000000003,0.39265212421830264
278,2246.23,0.382032364273414
279,2256.6,0.37103367787530406
280,2267.01,0.374805770314617
281,2277.48,0.37790863101006433
282,2282.73,0.38055305342182155
283,2293.26,0.36340288237340324
284,2303.85,0.3645029795811193
285,2314.48,0.3548351556262583
286,2325.17,0.3101314999275316
287,2335.9,0.3388407230662278
288,2346.68,0.33236511975170274
289,2357.5099999999998,0.3433323899839562
290,2362.9500000000003,0.3276815118734723
291,2373.85,0.330424345071216
292,2384.81,0.3152999465250939
293,2395.8199999999997,0.32559092152575053
294,2406.88,0.3170112700731858
295,2412.4300000000003,0.3191987337656149
296,2423.56,0.32726954527854024
297,2434.75,0.3180068250476
298,2445.9900000000002,0.3260623783634384
299,2457.28,0.3215389052260554
300,2462.94,0.3190110107213975
301,2474.31,0.31168699525886034
302,2485.73,0.3136926533431018
303,2497.2,0.28848568497412197
304,2502.96,0.3161490375630213
305,2511.88643,0.3001637639383076
306,2514.5099999999998,0.2954926322112168
307,2520.31,0.30199608618029994
308,2526.12,0.2952826381734678
309,2537.78,0.29561883425614194
310,2543.63,0.29119187834564825
311,2555.3700000000003,0.2997058586209994
312,2567.1699999999996,0.29508822704085835
313,2573.08,0.3027502592748724
314,2584.96,0.29974011188740834
315,2596.89,0.29620265462036743
316,2602.88,0.2895812710470585
317,2614.8900000000003,0.2861732979726946
318,2626.96,0.2912998130428384
319,2633.02,0.2939137156381219
320,2645.17,0.3043361149009427
321,2657.3799999999997,0.30526780230827133
322,2663.51,0.28956169107214713
323,2675.7999999999997,0.2947953626721528
324,2681.9700000000003,0.29358584353236716
325,2694.35,0.2841904973491344
326,2706.79,0.28662223931040937
327,2713.03,0.2786054063392161
328,2725.5499999999997,0.27785963249316814
329,2738.1299999999997,0.2828512467916279
330,2744.44,0.263476699989027
331,2757.1099999999997,0.2646924965042484
332,2763.4700000000003,0.2685171398220707
333,2776.22,0.2738249205299691
334,2782.62,0.2656730559441298
335,2795.46,0.2373674188687899
336,2801.9100000000003,0.24555864440337377
337,2814.84,0.2680347895447955
338,2827.8399999999997,0.27234132085480955
339,2834.35,0.2646809345339012
340,2847.44,0.2609941480606769
341,2854.0,0.25558195186019167
342,2867.17,0.2655389495796444
343,2873.78,0.2634251434995823
344,2884.0315,0.26246564169551334
345,2887.0499999999997,0.2622098980832211
346,2893.7000000000003,0.2596945751696349
347,2907.0600000000004,0.26850104973722716
348,2927.21,0.26179351564568404
349,2947.5,0.25718619580859176
350,2967.93,0.25696839022595025
351,2988.5099999999998,0.2553023856302204
352,3009.2200000000003,0.25411890855648056
353,3030.08,0.2524604324696523
354,3051.08,0.25033137063727484
355,3072.23,0.248688309791809
356,3093.5299999999997,0.24704604993325477
357,3107.81,0.24502290388723807
358,3129.3500000000004,0.24111072560774238
359,3151.04,0.23995454831515828
360,3172.88,0.23789527200948574
361,3187.53,0.23022073506451768
362,3209.6200000000003,0.23213502707036443
363,3231.87,0.22582750679558358
364,3246.79,0.22994881162705638
365,3269.2900000000004,0.23143675966379484
366,3291.96,0.22897988215236648
367,3307.1499999999996,0.22749542876028012
368,3311.31121,0.227919163784719
369,3322.4199999999996,0.22911947308057826
370,3330.07,0.23039311135677354
371,3337.75,0.22772949644973825
372,3345.45,0.2238121794205492
373,3353.16,0.22081201133028328
374,3360.8900000000003,0.2216051411178636
375,3368.64,0.22240446878329023
376,3376.4,0.21247534538763996
377,3384.18,0.21647811986983598
378,3391.99,0.22439324116880136
379,3399.81,0.22780991140668988
380,3407.6400000000003,0.21674133058350153
381,3415.5,0.21959889657708262
382,3423.37,0.22637041150958678
383,3431.2599999999998,0.22589362431993723
384,3439.1699999999996,0.22412093500813393
385,3447.1000000000004,0.2124208435741769
386,3455.05,0.21439345001806615
387,3463.01,0.20793620540087848
388,3471.0,0.21511140760046024
389,3479.0,0.20665305873896514
390,3487.02,0.2109556077553163
391,3495.06,0.2121136546495137
392,3503.1099999999997,0.21327705048263423
393,3511.19,0.21040119313252417
394,3519.28,0.21115188472133725
395,3527.3900000000003,0.20672517418799657
396,3535.53,0.2126620104714253
397,3543.6800000000003,0.21672409569377715
398,3551.85,0.21667657879397526
399,3560.03,0.2133232108330965
400,3568.24,0.20684478968898717
401,3576.47,0.20021526642272405
402,3584.71,0.19603589209538408
403,3592.97,0.19560851564589038
404,3601.26,0.20900788601316606
405,3609.56,0.2034398053193649
406,3617.88,0.20415992250340995
407,3626.22,0.2116776375653013
408,3634.58,0.20521955050503893
409,3636.1,0.19076608922135485
410,3638.8399999999997,0.2073565984862928
411,3641.58,0.2272323077512307
412,3644.3199999999997,0.2411339170161686
413,3647.06,0.20674462628110654
414,3649.8,0.17819373554604448
415,3652.55,0.19135169374990552
416,3655.29,0.17776310301484344
417,3658.0299999999997,0.20355311227978137
418,3660.77,0.2145327215447193
419,3663.5099999999998,0.24236103080965724
420,3666.25,0.22991624007459513
421,3668.99,0.23345824933953307
422,3671.7300000000005,0.233774658604471
423,3674.4700000000003,0.21836996786940893
424,3677.21,0.20801237713434684
425,3679.9500000000003,0.21632478639928476
426,3682.69,0.2112960956642227
427,3685.4300000000003,0.2137159049291606
428,3688.17,0.20599291419409851
429,3690.91,0.19379202345903646
430,3693.65,0.19642873272397438
431,3696.39,0.18160404198891228
432,3699.13,0.20072075125385022
433,3701.87,0.20599196051878815
434,3704.6099999999997,0.20051326978372608
435,3707.35,0.209449179048664
436,3710.0899999999997,0.19770918831360193
437,3712.83,0.18292249757853984
438,3715.57,0.21255610684347775
439,3718.3100000000004,0.2150843161084157
440,3721.05,0.2644397253733536
441,3723.79,0.4435214346382915
442,3726.53,0.7710321439032295
443,3729.27,1.0717517531681675
444,3732.01,1.1084653624331053
445,3734.75,0.7931888716980432
446,3737.49,0.44148788096298114
447,3740.23,0.26633489022791906
448,3742.97,0.254887599492857
449,3745.71,0.23253850875779494
450,3748.45,0.21346371802273284
451,3751.1899999999996,0.2020381272876708
452,3753.93,0.1830879365526087
453,3756.6699999999996,0.21314444581754663
454,3759.4100000000003,0.22634135508248454
455,3762.15,0.21096376434742248
456,3764.8900000000003,0.2127546736123604
457,3767.63,0.2159334828772983
458,3770.37,0.22092829214223625
459,3773.12,0.2027794503460973
460,3775.8599999999997,0.22205325961103523
461,3778.6,0.23398156887597316
462,3781.34,0.24067867814091107
463,3784.0800000000004,0.24538068740584898
464,3786.82,0.2528908966707869
465,3789.56,0.24539010593572486
466,3792.3,0.23943431520066275
467,3795.04,0.21803942446560068
468,3797.78,0.21211083373053863
469,3800.52,0.21303434299547652
470,3801.8939600000003,0.2213862192384188
471,3803.2599999999998,0.22969593718385986
472,3806.0,0.23362385099496075
473,3808.74,0.23893966480606166
474,3811.48,0.23393377861716252
475,3814.22,0.23381229242826346
476,3816.9599999999996,0.22742400623936435
477,3819.7,0.23075572005046524
478,3822.4399999999996,0.2403325338615661
479,3825.1800000000003,0.225986047672667
480,3827.92,0.2152934614837679
481,3830.6600000000003,0.2248864752948688
482,3833.4,0.2070651891059697
483,3836.1400000000003,0.21082520291707058
484,3838.88,0.19006021672817144
485,3841.62,0.22181453053927233
486,3844.36,0.23818934435037323
487,3847.1,0.23773715816147412
488,3849.84,0.23724697197257505
489,3852.58,0.2546138857836759
490,3855.3199999999997,0.24338459959477682
491,3858.06,0.2462500134058777
492,3860.7999999999997,0.2524929272169786
493,3863.54,0.26141914102807945
494,3866.28,0.27356015483918034
495,3869.0200000000004,0.31619466865028123
496,3871.76,0.33002158246138213
497,3874.5,0.313821096272483
498,3877.2400000000002,0.26313181008358394
499,3879.98,0.23752582389468482
500,3882.7200000000003,0.2503335377057857
501,3885.46,0.24483975151688658
502,3888.2,0.24553676532798752
503,3890.94,0.2793403791390884
504,3893.69,0.2537873857013247
505,3896.4300000000003,0.2503806995124256
506,3899.17,0.24463211332352647
507,3901.9100000000003,0.23717592713462737
508,3904.65,0.24099544094572825
509,3907.39,0.2572563547568291
510,3910.13,0.26175366856793003
511,3912.87,0.25409678237903094
512,3915.61,0.2407532961901318
513,3918.35,0.2436730100012327
514,3921.0899999999997,0.24346472381233358
515,3923.83,0.24477983762343447
516,3926.5699999999997,0.24692435143453537
517,3929.31,0.23300076524563626
518,3932.05,0.22667757905673713
519,3934.7900000000004,0.19380739286783805
520,3937.53,0.20453880667893895
521,3940.27,0.21788322049003983
522,3943.01,0.23867613430114074
523,3945.75,0.23593624811224162
524,3948.4900000000002,0.2516117619233425
525,3951.23,0.22828267573444339
526,3953.97,0.2316088895455443
527,3956.71,0.23107540335664517
528,3959.45,0.22998351716774607
529,3962.19,0.22531373097884694
530,3964.93,0.22360924478994784
531,3967.6699999999996,0.22885455860104875
532,3970.41,0.2381819724121496
533,3973.1499999999996,0.23036258622325054
534,3975.8900000000003,0.23787390003435144
535,3978.63,0.20626131384545232
536,3981.3700000000003,0.2112193276565532
537,3984.11,0.2263689414676541
538,3986.85,0.22713655527875498
539,3989.59,0.24926306908985588
540,3992.33,0.23843498290095677
541,3995.07,0.24866769671205766
542,3997.81,0.25007491052315856
543,4000.5499999999997,0.24832162433425942
544,4003.29,0.2620727381453603
545,4006.0299999999997,0.2706736519564612
546,4008.77,0.2774965657675621
547,4011.52,0.2772815723297984
548,4014.26,0.25714548614089927
549,4017.0,0.26054769995200017
550,4019.74,0.25581831376310105
551,4022.48,0.24313612757420197
552,4025.22,0.26623844138530284
553,4027.96,0.2644689551964038
554,4030.7,0.25551106900750464
555,4033.4399999999996,0.25966138281860557
556,4036.18,0.2544928966297064
557,4038.9199999999996,0.26105011044080734
558,4041.6600000000003,0.2514905242519082
559,4044.4,0.2603191380630091
560,4047.1400000000003,0.25442425187411
561,4049.88,0.24935866568521087
562,4052.62,0.2552327794963118
563,4055.36,0.24618279330741266
564,4058.1,0.24689610711851356
565,4060.84,0.25120362092961446
566,4063.58,0.24817103474071533
567,4066.3199999999997,0.25664184855181627
568,4069.06,0.2618384623629171
569,4071.7999999999997,0.251964376174018
570,4074.54,0.24776078998511888
571,4077.2799999999997,0.2547897037962198
572,4080.02,0.2559584176073207
573,4082.7599999999998,0.26177293141842156
574,4085.5000000000005,0.24595734522952245
575,4088.2400000000002,0.24486545904062335
576,4090.98,0.23834717285172421
577,4093.7200000000003,0.2426437866628251
578,4096.46,0.23143070047392603
579,4099.2,0.2439566142850269
580,4101.94,0.2793268280961278
581,4104.68,0.28268564190722867
