,lambda (Angstroms),Total Flux (erg/s/cm^2/Angstrom)
0,102.00000000000001,0.00025973941694498916
1,103.89,0.0003037894239305149
2,104.712855,0.0003229721207881912
3,106.07000000000001,0.0002966524506490022
4,108.03999999999999,0.0002584764754969884
5,110.05,0.00021964380192361345
6,113.91,0.0001448920137623066
7,117.92,6.722935212089706e-05
8,120.22644299999999,2.454285996886356e-05
9,120.94000000000001,2.4556193022080775e-05
10,124.89999999999999,2.171522437494873e-05
11,126.92999999999999,2.0169547755333048e-05
12,128.10999999999999,1.933157216856138e-05
13,131.09,1.7051078924002387e-05
14,132.0,1.709269333589881e-05
15,134.15,1.5449588605763973e-05
16,136.96,1.4344687767773794e-05
17,138.038426,1.3559372989092293e-05
18,140.15,1.3852621829238448e-05
19,143.07999999999998,2.5908372673163647e-05
20,147.09,5.0985777541470825e-05
21,150.86,5.3154531071026456e-05
22,155.09,5.588297216652257e-05
23,158.489319,5.857960341715097e-05
24,159.07000000000002,5.9030360315906515e-05
25,162.02,6.119308549630285e-05
26,166.18,6.491036351340414e-05
27,170.04999999999998,6.77361061398902e-05
28,172.81,7.014670847815932e-05
29,176.83999999999997,7.29126471822262e-05
30,180.13000000000002,7.501944902748178e-05
31,181.79000000000002,7.677672333238277e-05
32,181.970086,7.689222327472741e-05
33,186.03,7.975783263588754e-05
34,190.8,8.380054079434639e-05
35,193.9,8.666869724952929e-05
36,197.96,8.964893151018818e-05
37,202.10999999999999,9.314341837761044e-05
38,204.92,9.548175309988913e-05
39,208.929613,9.554657293225326e-05
40,210.17000000000002,9.56653857208628e-05
41,216.06,0.00010461482928178201
42,220.07999999999998,0.00010851310118583892
43,223.14000000000001,0.00011000356935161358
44,226.76999999999998,0.00011428196786199332
45,229.92,0.00017005321450323194
46,234.2,0.0002756473686697403
47,239.88329199999998,0.00032924895673221274
48,240.2,0.00033218091233979264
49,245.8,0.0003107087124072172
50,252.1,0.0003223820499830698
51,256.79,0.00026874620128953787
52,259.76,0.0003061540032895827
53,263.99,0.000317079272804798
54,268.89,0.0003124274353637945
55,273.89,0.0003071109461382807
56,275.42287,0.00030553737352147453
57,278.98,0.0003024632782047101
58,284.17,0.00029946244935033425
59,290.12,0.00028346993033616537
60,296.2,0.00028462120905782144
61,301.01,0.00027680722528334207
62,308.02,0.00027801676473051455
63,316.227766,0.0002792106993645839
64,318.11,0.0002792111379916847
65,327.78000000000003,0.00027550727826236674
66,337.74,0.00026937551188139396
67,348.0,0.0002645503248262954
68,356.93,0.00027433770275982075
69,363.078055,0.00029418871034663104
70,366.08000000000004,0.0003042096574007953
71,374.61,0.0003116064315632232
72,385.10999999999996,0.00029763441195073716
73,394.97999999999996,0.00036370560151500016
74,405.12,0.0004286674300035136
75,413.6,0.00045718770806885817
76,416.86938299999997,0.00045891716033780335
77,422.26,0.00046166537756777755
78,430.11,0.0004778653855697371
79,441.14,0.000574638626876949
80,451.42,0.0006324847037253751
81,459.81,0.0006255768381376606
82,470.52,0.0006869799786091237
83,478.630092,0.0007879453653969728
84,480.37000000000006,0.0008094904721829467
85,490.43,0.0007766005204699976
86,499.55,0.0009818523057958332
87,506.5,0.0009271129979026925
88,512.37,0.0014248084049051765
89,519.49,0.0014543119881858726
90,530.37,0.0014671828233114308
91,540.23,0.0013383791113939678
92,549.5408739999999,0.0014022416007169777
93,550.27,0.0014072611544706432
94,560.51,0.0018872055080060939
95,569.61,0.002201049849526856
96,580.2,0.0022779999085054126
97,589.63,0.0024686022008725316
98,600.59,0.0022569627198909437
99,610.35,0.00228818796310442
100,620.27,0.002986941243091888
101,630.3499999999999,0.0029798045598533472
102,630.957344,0.003003625514028121
103,640.59,0.0033817104264582823
104,649.4999999999999,0.0034287637929413754
105,658.54,0.0032975333095527286
106,664.63,0.003759298034792014
107,675.4300000000001,0.0040744386608321265
108,684.82,0.003699660966250335
109,694.35,0.0043860265871912855
110,705.63,0.0037861211521665146
111,715.4499999999999,0.004853233569547432
112,724.43596,0.005028166790815248
113,725.4,0.005046927264398735
114,735.49,0.005212189215645727
115,745.73,0.005236183578457341
116,754.36,0.005358165790475332
117,764.86,0.00500098959999896
118,775.4999999999999,0.005675393726982903
119,784.48,0.005432875232651682
120,795.39,0.005915406900451947
121,804.6,0.006179777570519815
122,815.79,0.00633814887324071
123,825.24,0.006590953801811975
124,831.763771,0.005825927140831746
125,834.79,0.005470958109682884
126,844.4599999999999,0.006728706727917438
127,854.24,0.006759548089482479
128,864.13,0.007110110194378005
129,874.1400000000001,0.007275352837452244
130,884.26,0.0074273552238569695
131,894.5,0.007582460148440408
132,904.86,0.007564791611202557
133,915.33,0.007705221817295192
134,925.93,0.020920340356414765
135,934.5,0.03635025454134446
136,945.32,0.05590910256712501
137,954.07,0.07054568305932277
138,954.992586,0.07121885050638327
139,965.12,0.0786085212931152
140,974.0500000000001,0.02363339233666241
141,985.3199999999999,0.0661420157925165
142,994.44,0.06644706621996894
143,1005.96,0.08819955886517207
144,1015.2700000000001,0.08678826867652978
145,1024.66,0.04836085822847919
146,1034.14,0.06878180748859425
147,1046.12,0.10900764864219956
148,1055.8,0.10603661725379385
149,1065.56,0.08718955560597981
150,1075.42,0.09919034363390539
151,1085.37,0.0828840013699966
152,1095.42,0.10220268878182744
153,1096.4782,0.10176949504112592
154,1105.55,0.09805572328295427
155,1115.78,0.09494461946110704
156,1126.1100000000001,0.08481319462438348
157,1133.91,0.10267480546403075
158,1144.4,0.09516179900350512
159,1154.99,0.09805483152810313
160,1165.68,0.09873237303782484
161,1173.76,0.06925861103581842
162,1184.62,0.0945053908202504
163,1195.58,0.07302427958980605
164,1203.87,0.05854227545655937
165,1215.01,0.04290247239933766
166,1226.25,0.07022145832723961
167,1234.75,0.09364052206275267
168,1246.18,0.09964466606238964
169,1254.8100000000002,0.09604284847856348
170,1258.92541,0.09290627991818874
171,1266.43,0.08718672212961714
172,1275.2,0.10386184846045997
173,1284.04,0.10701795484183403
174,1295.92,0.08901458341770778
175,1304.9099999999999,0.08819795990736308
176,1313.95,0.10410177643311212
177,1326.1100000000001,0.09941483521111084
178,1335.3000000000002,0.09087924184514111
179,1344.56,0.10220009852970263
180,1353.88,0.09895859525757665
181,1366.41,0.09025189430266907
182,1375.8799999999999,0.09235286113882432
183,1385.41,0.09214162801829205
184,1395.02,0.0762890249555098
185,1404.69,0.07681770193604003
186,1414.42,0.08559801895988274
187,1424.23,0.08520314604147546
188,1434.1000000000001,0.08599234316638066
189,1440.72,0.08880881794519245
190,1445.43977,0.0892457230089075
191,1447.3700000000001,0.0894244025217293
192,1454.05,0.08658754656888873
193,1464.1299999999999,0.08099631267597958
194,1474.28,0.08080921882548081
195,1484.5,0.0815557850173924
196,1494.79,0.08174463125171431
197,1505.15,0.0777073375284466
198,1512.1000000000001,0.07054422173918881
199,1515.58,0.07404024384758923
200,1526.09,0.07235351021520084
201,1536.67,0.0631632466252228
202,1543.7600000000002,0.06374824092078572
203,1554.46,0.061441467403511155
204,1565.24,0.06463403393470556
205,1576.08,0.06846545050225168
206,1583.3600000000001,0.07054485491292842
207,1594.33,0.07136201155923663
208,1605.3899999999999,0.06941714826007245
209,1616.51,0.06878028499726
210,1623.9799999999998,0.06629249952305055
211,1635.23,0.06941734633900018
212,1646.57,0.06973605320947741
213,1654.17,0.06614006781403003
214,1659.58691,0.06791625981381931
215,1665.6299999999999,0.06989779783357143
216,1673.3200000000002,0.06345438185796208
217,1677.18,0.0708693389365249
218,1684.92,0.07202153318214047
219,1696.6000000000001,0.06815021486027868
220,1704.43,0.06583705950409907
221,1716.25,0.06258500180166703
222,1724.1699999999998,0.061725776843692265
223,1736.12,0.064933179716445
224,1744.13,0.06345528515667505
225,1756.22,0.06598839864885751
226,1764.3300000000002,0.06172585453153737
227,1776.5600000000002,0.06201098864314957
228,1784.76,0.06287364492403429
229,1792.9999999999998,0.06523230138189891
230,1805.43,0.06478328637841073
231,1813.76,0.060321873234480204
232,1826.33,0.061160018850421764
233,1834.76,0.05908475614894104
234,1843.2299999999998,0.054888413624440247
235,1856.01,0.054888350169526416
236,1864.5700000000002,0.05590770804323045
237,1873.18,0.0589483361381594
238,1886.16,0.05451081356814519
239,1894.87,0.052297212105523946
240,1903.6200000000001,0.055013660819882626
241,1905.46072,0.05471911050234045
242,1916.81,0.05290289423662104
243,1925.6599999999999,0.051343463763059226
244,1934.55,0.05302548306136832
245,1943.48,0.054635682131548326
246,1956.95,0.05087132530907629
247,1965.98,0.05463591380893355
248,1975.06,0.055907372023629456
249,1984.17,0.05302506006722854
250,1993.3300000000002,0.05157960782566626
251,2007.15,0.05265831900706465
252,2016.4099999999999,0.05134307619517963
253,2025.72,0.05290244309813325
254,2035.07,0.05005857977295779
255,2044.4599999999998,0.051224506219653215
256,2053.9,0.04714904238118728
257,2063.38,0.04824795831459226
258,2072.91,0.05193691396283587
259,2077.6800000000003,0.04948531675844153
260,2087.2799999999997,0.050870252007459225
261,2096.91,0.04835895708538011
262,2106.59,0.04869380187813962
263,2116.31,0.04903149644277004
264,2126.08,0.04925657072223909
265,2135.89,0.04671671477357904
266,2145.75,0.04693179853975764
267,2155.66,0.04813614202077486
268,2165.61,0.046716225273662995
269,2175.6,0.046394328298422036
270,2185.65,0.045443380980987436
271,2187.7616199999998,0.04575518063488296
272,2195.73,0.046931865171281804
273,2205.87,0.04575821127928627
274,2216.05,0.04390116756917636
275,2226.2799999999997,0.04280348408642346
276,2236.56,0.044408440831027594
277,2246.88,0.04300039775751734
278,2257.25,0.041445124911364116
279,2262.45,0.042021148556494616
280,2272.9,0.04250853607411262
281,2283.39,0.04290222377361625
282,2293.9300000000003,0.040595731700476916
283,2304.52,0.04079124985469459
284,2315.15,0.03932325819079789
285,2325.84,0.03316946679972962
286,2336.57,0.03722364559054696
287,2347.36,0.03629983465419274
288,2352.77,0.037926369254222735
289,2363.63,0.03572963863616834
290,2374.54,0.03615031824547097
291,2385.5,0.03413489808213063
292,2396.51,0.03550320814614731
293,2407.57,0.03438437843752102
294,2413.12,0.03470518367415068
295,2424.26,0.03593236432929562
296,2435.4500000000003,0.03471945521179759
297,2446.69,0.03586423632165658
298,2452.33,0.03529412196752889
299,2463.65,0.034896273441159115
300,2475.02,0.03387434514214637
301,2486.4500000000003,0.03419520711596205
302,2492.18,0.030975153171077
303,2503.68,0.03468145546319252
304,2511.88643,0.032674686991551787
305,2515.2400000000002,0.03185459687715852
306,2526.85,0.031714936445148126
307,2532.68,0.03186437618514635
308,2544.3700000000003,0.03128993561234691
309,2556.1099999999997,0.032619894951554304
310,2567.91,0.03195708418516992
311,2573.83,0.03300763376678047
312,2585.71,0.03263702285960703
313,2597.64,0.03212102186444045
314,2603.63,0.03125006132286058
315,2615.65,0.030756860169306316
316,2627.7200000000003,0.0315522489277589
317,2633.78,0.03206824826298862
318,2645.94,0.03366331686305352
319,2652.04,0.03397806612788871
320,2664.28,0.03157214458716458
321,2676.58,0.03238866294084865
322,2682.75,0.03231761208249342
323,2695.13,0.03101186029538845
324,2707.57,0.031449428402691694
325,2713.81,0.030176487421146054
326,2726.3399999999997,0.030043875370061618
327,2732.62,0.030817874318121455
328,2745.24,0.028048172108649343
329,2757.9100000000003,0.028314679811184077
330,2764.26,0.028910698636053497
331,2777.02,0.02972599618020055
332,2783.4300000000003,0.02845711489947819
333,2796.27,0.024619932302836194
334,2802.7200000000003,0.02572463095171931
335,2815.66,0.02900165817909101
336,2822.15,0.0297499867575796
337,2835.17,0.028679603844162255
338,2848.26,0.02809794080755449
339,2854.83,0.027209839245254032
340,2868.0,0.028894836067857227
341,2874.61,0.028832064435162244
342,2884.0315,0.02869537575589329
343,2887.88,0.02863954771600465
344,2894.54,0.028445647476138126
345,2907.9,0.02986267699496444
346,2928.06,0.028792036268881986
347,2948.3500000000004,0.028211945538117456
348,2968.79,0.028286124801950526
349,2989.37,0.02803652406074136
350,3010.09,0.02798240331448995
351,3030.9599999999996,0.02773583256283614
352,3051.97,0.027554641806140097
353,3073.12,0.027437941044401813
354,3087.3,0.02725554053369501
355,3108.71,0.027141329762592564
356,3130.25,0.02659411898680804
357,3151.95,0.026420198205260956
358,3166.5,0.026306037681228234
359,3188.45,0.025131586890677158
360,3210.5499999999997,0.025549206094723675
361,3232.8,0.024578585293367795
362,3247.7299999999996,0.025506414755648996
363,3270.24,0.025931143944928958
364,3292.91,0.02564471312844636
365,3308.11,0.025358042581003243
366,3311.31121,0.025396293466140696
367,3323.38,0.025540494156502534
368,3331.04,0.02554341888269153
369,3338.72,0.024736683595110782
370,3346.4100000000003,0.025373928300645165
371,3354.13,0.02446013298552493
372,3361.8599999999997,0.024632517663519832
373,3369.61,0.02429760232774499
374,3377.3799999999997,0.023638966978200403
375,3385.16,0.024304711621770947
376,3392.9700000000003,0.02510287624468688
377,3400.7900000000004,0.025869820860717943
378,3408.63,0.024146365462979266
379,3416.49,0.024317470051470842
380,3424.36,0.02529111463307755
381,3432.25,0.025824289200914514
382,3440.17,0.02489337374809687
383,3448.1,0.02355905828839435
384,3456.05,0.023561972814922092
385,3464.01,0.022765187334564965
386,3472.0,0.024172011833553223
387,3479.9999999999995,0.02261404632565661
388,3488.02,0.023683180803990258
389,3496.07,0.023523435261669293
390,3504.12,0.023798589719348326
391,3512.2,0.02336815415637275
392,3520.3,0.023971018579627426
393,3528.4100000000003,0.022528502995997235
394,3536.55,0.023812737391712434
395,3544.7000000000003,0.024258951780542763
396,3552.8700000000003,0.024430036155603345
397,3561.06,0.024042350516894188
398,3569.27,0.022441474864415292
399,3577.5,0.02203524919816665
400,3585.7499999999995,0.02114283351814827
401,3594.01,0.021838607831245017
402,3602.2999999999997,0.023674492123687153
403,3610.6,0.02240586640924442
404,3618.92,0.02308869068103194
405,3623.13,0.022048057782501348
406,3625.87,0.02509710589604676
407,3628.6099999999997,0.02544778400959217
408,3631.35,0.02190839212313758
409,3634.0899999999997,0.02287914023668299
410,3636.84,0.02348483834334353
411,3639.58,0.022766426456888943
412,3642.32,0.022268954570434353
413,3645.06,0.023852632683979764
414,3647.7999999999997,0.02340791079752517
415,3650.54,0.02087774891107058
416,3653.2799999999997,0.021197057024615995
417,3656.02,0.022623945138161405
418,3658.7599999999998,0.023604673251706815
419,3661.4999999999995,0.024779251365252223
420,3664.25,0.022505539471912764
421,3666.99,0.023184067585458174
422,3669.73,0.024050745699003583
423,3672.47,0.023288143812548994
424,3675.21,0.023499121926094404
425,3677.95,0.023149900039639813
426,3680.6899999999996,0.022816358153185223
427,3683.43,0.024826256266730636
428,3686.1699999999996,0.023636014380276044
429,3688.92,0.022337312486936583
430,3691.66,0.022549710600481995
431,3694.4,0.023737118714027405
432,3697.14,0.023062896827572815
433,3699.8799999999997,0.023281004941118226
434,3702.62,0.022505563054663634
435,3705.3599999999997,0.020314661168209045
436,3708.1,0.021923999281754456
437,3710.84,0.023101437395299868
438,3713.5800000000004,0.02535081550884528
439,3716.33,0.02641977361550582
440,3719.0699999999997,0.03260338172905123
441,3721.81,0.05647251984259664
442,3724.5499999999997,0.09468169795614205
443,3727.29,0.12182799606968746
444,3730.0299999999997,0.10939249418323287
445,3732.7700000000004,0.07299076229677827
446,3735.51,0.04226803041032369
447,3738.25,0.0288873385238691
448,3740.9900000000002,0.026350046637414512
449,3743.74,0.02348048474407505
450,3746.48,0.02354179285762046
451,3749.22,0.02079212097116587
452,3751.9599999999996,0.02442844908471128
453,3754.7000000000003,0.02293600719825669
454,3757.44,0.0229944653118021
455,3760.1800000000003,0.023419263425347513
456,3762.92,0.024619501538892922
457,3765.6600000000003,0.024300209652438332
458,3768.4,0.02382554776598374
459,3771.1499999999996,0.023662935872644283
460,3773.89,0.025970743986189693
461,3776.63,0.026570862099735103
462,3779.3700000000003,0.027913650213280516
463,3782.11,0.027436138326825926
464,3784.8500000000004,0.026694916440371336
465,3787.59,0.026550964553916746
466,3790.33,0.024823322667462157
467,3793.07,0.026220280781007566
468,3795.81,0.025792658894552976
469,3798.5600000000004,0.024183197001213515
470,3801.3,0.027470295114758927
471,3801.8939600000003,0.027480186090788644
472,3804.0400000000004,0.02751592353616339
473,3806.78,0.026830292042774078
474,3809.52,0.025977890549384767
475,3812.26,0.026186019055995456
476,3815.0,0.027381987562606146
477,3817.7400000000002,0.026861706069216833
478,3820.48,0.02585249457582752
479,3823.23,0.02631850307698788
480,3825.9700000000003,0.02411762158359857
481,3828.71,0.02351752009020926
482,3831.4500000000003,0.02360447859681995
483,3834.19,0.022609527103430636
484,3836.93,0.022337275610041327
485,3839.67,0.024417024116652013
486,3842.41,0.024749162623262703
487,3845.15,0.02799636112987339
488,3847.89,0.02642409963648408
489,3850.6400000000003,0.02760851813764444
490,3853.38,0.028446686644255127
491,3856.12,0.027909305150865815
492,3858.86,0.028279943657476506
493,3861.6,0.029943452164087194
494,3864.34,0.030147310670697883
495,3867.08,0.03134041917730857
496,3869.8199999999997,0.031390327683919264
497,3872.56,0.030445266190529948
498,3875.2999999999997,0.027883744697140635
499,3878.05,0.027996223198301
500,3880.79,0.02683022170491169
501,3883.53,0.026461040211522374
502,3886.27,0.030599128718133063
503,3889.0099999999998,0.02923499722474375
504,3891.75,0.02914520573135444
505,3894.49,0.02799915423796513
506,3897.23,0.024687842744575816
507,3899.97,0.028646341251186504
508,3902.7099999999996,0.027955009757797192
509,3905.46,0.029785148258957558
510,3908.2,0.027709706765568245
511,3910.94,0.029002605272178933
512,3913.68,0.029482993778789622
513,3916.42,0.028275652285400313
514,3919.16,0.027959220792011
515,3921.8999999999996,0.02793926929862169
516,3924.64,0.025285097805232373
517,3927.3799999999997,0.025059886311843062
518,3930.12,0.02222751481845375
519,3932.87,0.022290133319614113
520,3935.61,0.0236671318262248
521,3938.35,0.024744780332835493
522,3941.0899999999997,0.02584380883944618
523,3943.83,0.027272127346056867
524,3946.5699999999997,0.027220815852667557
525,3949.31,0.027554384359278244
526,3952.0499999999997,0.025986402865888932
527,3954.7900000000004,0.026853091372499624
528,3957.54,0.026366889873659982
529,3960.2799999999997,0.02465493838027067
530,3963.02,0.02350033688688136
531,3965.7599999999998,0.02326800539349205
532,3968.5,0.027507303900102736
533,3971.24,0.027012682406713426
534,3973.9799999999996,0.025533080913324114
535,3976.7200000000003,0.025196679419934802
536,3979.46,0.02659220792654549
537,3982.2000000000003,0.02789650643315618
538,3984.95,0.02901536493431654
539,3987.69,0.028592013440927228
540,3990.43,0.030526361947537918
541,3993.1699999999996,0.029775160454148606
542,3995.91,0.030188558960759296
543,3998.65,0.02931619746736998
544,4001.3900000000003,0.030755915973980672
545,4004.13,0.03173379448059136
546,4006.8700000000003,0.030781602987202047
547,4009.61,0.030392461493812736
548,4012.3599999999997,0.031887619994973096
549,4015.1,0.031201998501583787
550,4017.8399999999997,0.030800037008194475
551,4020.5800000000004,0.031316055514805166
552,4023.32,0.030845674021415852
553,4026.0600000000004,0.03038954252802654
554,4028.8,0.02874887103463723
555,4031.54,0.029577069541247916
556,4034.28,0.030676108047858607
557,4037.02,0.0318492665544693
558,4039.7699999999995,0.030731575055629658
559,4042.51,0.030100113562240346
560,4045.2500000000005,0.030114382068851035
561,4047.9900000000002,0.02979795057546172
562,4050.73,0.03039807908207241
563,4053.4700000000003,0.0320501875886831
