,lambda (Angstroms),Total Flux (erg/s/cm^2/Angstrom)
0,100.02000000000001,0.031188297436083964
1,102.11,0.03830444062983578
2,104.01,0.044770096123246575
3,104.712855,0.047163868485498875
4,105.95,0.043670125538230214
5,107.91,0.038140263619193766
6,109.92,0.03250393279865125
7,114.05,0.020864063294252985
8,118.05,0.00959328147377039
9,120.22644299999999,0.003944442350743162
10,121.08000000000001,0.0040358684585817765
11,125.05000000000001,0.0037224023547022802
12,127.08000000000001,0.003543396462794124
13,127.96,0.0034914670367452703
14,130.94,0.003226324412170736
15,131.85,0.003334615426142942
16,133.98999999999998,0.003145845480978681
17,137.10999999999999,0.003137790243169101
18,138.038426,0.003073743545046842
19,139.98,0.0031853912168705173
20,142.92,0.0061882056544941815
21,146.92000000000002,0.011772791440376717
22,151.04,0.012544582529835728
23,154.91,0.013491571320177084
24,158.489319,0.01447348194344913
25,158.88,0.014579686457065897
26,161.84,0.015314295718105862
27,165.98999999999998,0.01651677799287473
28,169.86,0.01754887249970739
29,173.01,0.018408569888989784
30,177.04000000000002,0.019481255977500275
31,179.92000000000002,0.020306984447701324
32,181.970086,0.020886311707721827
33,182.0,0.02089504634341884
34,185.82000000000002,0.02206094277832387
35,191.02,0.023510408920079405
36,194.11999999999998,0.024546586812279825
37,198.19,0.025685875657846177
38,201.87,0.027001751542780866
39,205.14999999999998,0.027939971570657435
40,208.929613,0.028249784781319343
41,209.93,0.028343405451995065
42,215.81,0.03138618413057954
43,219.82999999999998,0.03281203037001994
44,222.89,0.033527798253773076
45,227.03,0.03505336303767439
46,230.19000000000003,0.052439781375144955
47,233.93,0.08612649434417656
48,239.88329199999998,0.11058976899739284
49,239.93,0.11078051712051143
50,246.08,0.10480607499994883
51,251.80999999999997,0.1114104435607905
52,257.09,0.09106291642313676
53,260.06,0.10830404803320652
54,264.29,0.11462009759906346
55,269.2,0.11430305844264681
56,274.21000000000004,0.11346097388589581
57,275.42287,0.11320113065827234
58,279.31,0.11246041638692125
59,283.84,0.11278171259770273
60,289.79,0.10755397362510884
61,295.86,0.10811910210180717
62,300.65999999999997,0.10406480007349614
63,307.67,0.10558402356965024
64,316.227766,0.1071312691401479
65,317.75,0.10737423931665795
66,328.15999999999997,0.10582059466561843
67,338.13000000000005,0.10310919119099173
68,347.59999999999997,0.10024337632592505
69,357.34000000000003,0.09901857301169595
70,363.078055,0.09928096208514922
71,365.66,0.099440205709807
72,375.04,0.09725662887963268
73,384.66,0.0912988498277908
74,395.44000000000005,0.09347911003788899
75,404.65000000000003,0.09311796478139586
76,414.08,0.09087441748837416
77,416.86938299999997,0.08978959337334952
78,421.78000000000003,0.08786606426885744
79,429.62,0.08553362809138998
80,440.64,0.08461229999500075
81,450.9,0.08219641418112111
82,460.34,0.07930623898784395
83,469.97999999999996,0.07721781266759056
84,478.630092,0.07633789661000712
85,479.82,0.07620532048356209
86,489.87,0.0726149511070231
87,500.13,0.07255801684798924
88,505.91999999999996,0.07010001508777423
89,511.78000000000003,0.07381741836672762
90,520.09,0.07179221801657447
91,529.76,0.06886807842740708
92,539.61,0.0644304389389584
93,549.5408739999999,0.06224522151484641
94,549.64,0.06222377725885301
95,559.86,0.06363075403934973
96,570.27,0.06361164073063844
97,579.54,0.061324357957175085
98,590.31,0.06020304026891183
99,599.9,0.056606334713624494
100,609.65,0.049390642767425164
101,619.56,0.056061114430313856
102,629.62,0.05367787760172255
103,630.957344,0.053691190760721444
104,639.85,0.053817089470324174
105,650.25,0.052043681933066924
106,657.7800000000001,0.049979909841187393
107,665.4,0.05068228489562006
108,674.65,0.0500212427110403
109,685.62,0.046871120433760294
110,695.15,0.047752483815485136
111,704.82,0.04414857498036229
112,716.28,0.04600340494411535
113,724.43596,0.045267133728000654
114,726.2399999999999,0.045102399664720516
115,734.65,0.044307544677972974
116,744.87,0.042948964408703064
117,755.23,0.041912656327525354
118,765.74,0.0377339941621607
119,774.61,0.04028105065057322
120,785.38,0.038271505405951214
121,794.48,0.03845676763194376
122,805.53,0.03812804676350614
123,814.86,0.03746497472707872
124,824.2900000000001,0.036980259967860016
125,831.763771,0.03459403911689716
126,835.76,0.03330068020927432
127,845.4399999999999,0.035335890804792686
128,855.23,0.03444948220253284
129,865.1300000000001,0.034114494402494804
130,875.15,0.03370629747760782
131,885.28,0.033077231354942636
132,895.53,0.032533866107428505
133,905.9000000000001,0.03171286173506543
134,914.28,0.0335140928497807
135,924.87,0.06747052008186122
136,935.58,0.10836099818909281
137,944.2399999999999,0.16281468134582722
138,954.992586,0.2035910744844455
139,955.1700000000001,0.20426431808462153
140,964.01,0.2254405365557586
141,975.1700000000001,0.07515489761208094
142,984.19,0.19554349093896514
143,995.5899999999999,0.196435498469617
144,1004.8,0.2569325419220121
145,1014.1,0.24709444280228068
146,1025.84,0.12563398950489937
147,1035.34,0.18933459578044257
148,1044.92,0.30732866421409566
149,1054.58,0.2989549948058585
150,1064.34,0.24594077809525872
151,1074.19,0.2803275188125325
152,1084.1299999999999,0.22642251695767981
153,1094.16,0.28616217253070075
154,1096.4782,0.2833642089001349
155,1104.28,0.2739399255715838
156,1114.5,0.2640397950831695
157,1124.82,0.23755581654692332
158,1135.22,0.2867774195724117
159,1145.73,0.263385859745285
160,1156.33,0.2732353666751096
161,1164.34,0.277017308043779
162,1175.1200000000001,0.1994501484875064
163,1185.99,0.26454115568818504
164,1194.21,0.1953436861564076
165,1205.26,0.15035332687098896
166,1213.62,0.10088435007224689
167,1224.84,0.18610473910551414
168,1236.18,0.25786685048138314
169,1244.75,0.2775293627821942
170,1256.2599999999998,0.26627082247674916
171,1258.92541,0.2567553409189143
172,1264.97,0.23518581292333826
173,1273.7399999999998,0.2872382364521839
174,1285.53,0.2966479780035054
175,1294.44,0.2423218162751148
176,1306.42,0.23845307783447287
177,1315.47,0.285926930848846
178,1324.59,0.27308769123460114
179,1333.77,0.24456615793868353
180,1346.1100000000001,0.2813626574080056
181,1355.44,0.2718381399079064
182,1364.84,0.245693329779189
183,1374.3,0.253729825968799
184,1383.8200000000002,0.2543171284767363
185,1393.4199999999998,0.21902933940911004
186,1406.3100000000002,0.22412069679643273
187,1416.0600000000002,0.23412332352462484
188,1425.87,0.23628635657114427
189,1435.76,0.23466539804210015
190,1442.39,0.24457409621727078
191,1445.43977,0.2466490877195696
192,1445.71,0.24683294125810068
193,1455.73,0.23901912684361667
194,1465.82,0.22207761861585784
195,1475.98,0.22055431657482416
196,1486.21,0.22259102072051565
197,1496.52,0.22361643193675015
198,1503.42,0.21210704177108752
199,1510.3600000000001,0.1908395551406964
200,1517.3300000000002,0.20165567116175892
201,1524.34,0.19617369071809296
202,1534.8999999999999,0.1721036240297745
203,1545.54,0.18269346441199905
204,1556.2599999999998,0.17329471186476667
205,1563.44,0.17691514644600467
206,1574.2800000000002,0.18651100450458685
207,1585.1899999999998,0.1930508687498942
208,1596.18,0.19617954006574456
209,1603.55,0.1904062914395223
210,1614.66,0.18997187336118723
211,1625.8500000000001,0.18020216235339523
212,1633.3600000000001,0.18953952610062327
213,1644.68,0.1908504265824637
214,1656.0800000000002,0.17733023413484716
215,1659.58691,0.18353805019360334
216,1663.72,0.19085661172545634
217,1671.4,0.17133546867125257
218,1675.26,0.19129766005286372
219,1686.8700000000001,0.19665315356076662
220,1694.65,0.18525957505012794
221,1706.3999999999999,0.1777675589190219
222,1714.28,0.16901864495194827
223,1726.1599999999999,0.16748121272747682
224,1734.13,0.17656535684961172
225,1746.1499999999999,0.17217101498613135
226,1754.21,0.1810927171974748
227,1766.37,0.16673876569498552
228,1774.52,0.16983382599553754
229,1786.8200000000002,0.17180316485403932
230,1795.07,0.18111978969815637
231,1803.35,0.17905863390534293
232,1815.85,0.16600980185097483
233,1824.24,0.16869981705608297
234,1836.8799999999999,0.16188567536270596
235,1845.3600000000001,0.1487191486570226
236,1853.8799999999999,0.14940674776876534
237,1866.73,0.15358594161687494
238,1875.3400000000001,0.16340209881782616
239,1884.0000000000002,0.15114968829055994
240,1897.0600000000002,0.14571651768015617
241,1905.46072,0.15261283177145782
242,1905.82,0.15290724089281105
243,1914.61,0.14739242784368312
244,1923.4499999999998,0.14338847319586842
245,1936.78,0.14469678298598496
246,1945.72,0.1532250451407968
247,1954.7,0.14401967401665924
248,1968.25,0.15604390077255414
249,1977.34,0.1581987381313058
250,1981.9,0.15144764433107558
251,1995.6399999999999,0.1473233130119609
252,2004.85,0.15004365053386437
253,2014.1000000000001,0.14596505477681843
254,2023.3999999999999,0.14900051742108578
255,2032.74,0.14428454678640373
256,2046.83,0.14966722427648194
257,2056.27,0.1419668704444264
258,2065.77,0.1422852666939468
259,2075.2999999999997,0.15241783798425518
260,2080.09,0.15811205283006602
261,2084.88,0.16860436767587683
262,2094.5,0.15882966408854907
263,2104.17,0.15809331890253459
264,2113.88,0.16324714043757071
265,2123.64,0.16027002037392013
266,2133.44,0.1502823670313201
267,2143.29,0.16099007209003338
268,2153.1800000000003,0.16358924386979726
269,2163.12,0.15445567405087438
270,2173.11,0.1533884626332648
271,2183.14,0.16132601793670584
272,2187.7616199999998,0.1630426822104725
273,2193.21,0.16507458692473473
274,2203.34,0.16059410642151886
275,2213.5099999999998,0.1455040524513604
276,2223.73,0.1485467316475237
277,2233.99,0.16854843737674433
278,2244.2999999999997,0.16135967627228673
279,2254.66,0.14420134833415085
280,2265.0699999999997,0.14223485356233673
281,2275.52,0.14790048532358
282,2286.03,0.16589695688440934
283,2296.58,0.1496251549782961
284,2307.1800000000003,0.16032688623850455
285,2312.5,0.1472910151351375
286,2323.17,0.11984519282819642
287,2333.8900000000003,0.12811560368757707
288,2344.67,0.11374465434654381
289,2355.4900000000002,0.14146123153856793
290,2366.36,0.1156416418969138
291,2377.2799999999997,0.1259090854215814
292,2382.7599999999998,0.10603772045044389
293,2393.76,0.11624531704122629
294,2404.81,0.11311914679833039
295,2415.91,0.11899680972175626
296,2427.06,0.14731190581150386
297,2432.6600000000003,0.1446518204395385
298,2443.89,0.16078596959540092
299,2455.17,0.16418045191758504
300,2466.5,0.1508554674060909
301,2472.19,0.13987974173350468
302,2483.6,0.11782021028812532
303,2495.06,0.1216907120090677
304,2506.58,0.15377875352959613
305,2511.88643,0.11273024367558214
306,2512.36,0.10906645184772848
307,2518.15,0.10443226541116886
308,2523.95,0.1039636764073613
309,2535.6,0.12374818556350647
310,2547.31,0.12519277931616396
311,2553.18,0.1765987723416208
312,2564.96,0.1476971481235427
313,2576.8,0.17345010850197692
314,2582.7400000000002,0.16118618355669814
315,2594.66,0.15153472339714882
316,2606.64,0.13859674783411183
317,2612.65,0.13118960491809745
318,2624.71,0.1554786088170769
319,2636.82,0.22399039987981664
320,2642.9,0.28121813899306664
321,2655.1000000000004,0.3740053069505749
322,2667.3599999999997,0.2536875595045955
323,2673.51,0.28070508064710986
324,2685.8500000000004,0.3193263126631469
325,2692.04,0.24239062353666951
326,2704.46,0.290024835014723
327,2716.9500000000003,0.22221772852204086
328,2723.2099999999996,0.18326032142482787
329,2735.7799999999997,0.2222829943941622
330,2742.0899999999997,0.15013707446070948
331,2754.74,0.1846138268920602
332,2767.46,0.22651856135267537
333,2773.84,0.23882882344848708
334,2786.6400000000003,0.16543573737111866
335,2793.07,0.10106778663069062
336,2805.96,0.11361517744809072
337,2812.4300000000003,0.2155045164386709
338,2825.41,0.2879198841508395
339,2831.92,0.2681483128724279
340,2844.9900000000002,0.20033965747936505
341,2858.12,0.13879618668281446
342,2864.7099999999996,0.26219099486641934
343,2877.94,0.35274539839738933
344,2884.0315,0.32842698919631375
345,2884.57,0.32627733172906254
346,2897.8900000000003,0.3995170617467046
347,2911.2599999999998,0.5339328915016502
348,2931.44,0.4674116854773273
349,2951.7599999999998,0.429431378717454
350,2972.22,0.44363347122203045
351,2992.8199999999997,0.45099836299105656
352,3006.64,0.44592909038173334
353,3027.48,0.4812462808898161
354,3048.46,0.5017781706623485
355,3069.5899999999997,0.5528673596467913
356,3090.87,0.5355281478431445
357,3112.3,0.6293262352514081
358,3126.66,0.5781304598049621
359,3148.34,0.5823294458997431
360,3170.1600000000003,0.6445896312589737
361,3192.14,0.5565605157775754
362,3206.87,0.6131647383871751
363,3229.1,0.5209620215922941
364,3251.48,0.7359278040093234
365,3266.4900000000002,0.8607885251478226
366,3289.13,0.8473455061988299
367,3311.31121,0.7873406441678771
368,3311.9300000000003,0.7856666275121658
369,3319.57,0.7350564601893979
370,3327.2200000000003,0.7574596918622808
371,3334.89,0.8421299215264654
372,3342.58,0.7628950491819516
373,3350.2799999999997,0.8175404758330888
374,3358.0,0.8600866004755274
375,3365.75,0.6049501221049187
376,3373.5,0.5751531437343099
377,3381.2799999999997,0.7563924623506536
378,3389.07,0.8199442799626481
379,3396.8900000000003,0.6948552945615951
380,3404.72,0.9138254081561931
381,3412.5699999999997,0.7690742197420926
382,3420.43,0.8017093303236429
383,3428.32,0.8129367378921456
384,3436.22,0.8000537444562993
385,3444.14,0.5325171490117546
386,3452.08,0.8594561515585115
387,3460.04,0.7857667520965701
388,3468.02,0.7858749506259304
389,3476.0099999999998,0.7318753481509415
390,3484.02,0.8155648436672542
391,3492.0499999999997,0.7473929371748685
392,3500.11,0.7187925276694355
393,3508.17,0.9049088181640024
394,3516.2599999999998,0.7206419056455217
395,3524.37,0.7811920911183428
396,3532.49,0.8867001755868146
397,3540.63,0.941513258046588
398,3548.7999999999997,0.9905510374933141
399,3556.98,0.8530308159356907
400,3565.18,0.9462430923693693
401,3573.4,0.6254315667943494
402,3581.63,0.7115331402149804
403,3589.89,0.5216327106225638
404,3598.1600000000003,0.897930480025798
405,3606.46,0.8228632464159847
406,3614.77,0.7877688118018222
407,3623.11,0.6569095741746124
408,3631.46,1.151930035543053
409,3639.83,0.9343889949027957
410,3648.22,0.8822935522538399
411,3656.63,1.1133015075961858
412,3665.06,1.2180256609298332
413,3673.5099999999998,1.0586308122547825
414,3681.9800000000005,0.9746052615710331
415,3690.4700000000003,0.8588418088785856
416,3698.97,1.066417255181789
417,3707.5000000000005,0.8831251984719446
418,3716.05,1.132483539753402
419,3724.6099999999997,0.6155326800305103
420,3733.2,0.966478517294571
421,3741.8,0.7591317535542826
422,3750.4300000000003,0.6200659868009466
423,3759.0800000000004,1.1358962180389125
424,3767.74,0.8819720482725288
425,3776.4300000000003,1.080131475493098
426,3785.13,1.2288846017093176
427,3793.86,0.92179462491249
428,3801.8939600000003,0.7588300352484351
429,3802.61,0.7443055610913978
430,3811.37,0.999405764600387
431,3820.1600000000003,0.8088087657241331
432,3828.96,0.632383666052798
433,3837.79,0.5560322639962199
434,3846.64,0.8933330603494796
435,3855.5,0.9507549559076581
436,3864.39,0.7399350490805935
437,3873.3,0.8754073406633669
438,3882.23,0.828493030655978
439,3891.1800000000003,0.7284188190584271
440,3892.52,1.3881827125175648
441,3894.2900000000004,1.5670765717882167
442,3896.06,1.1499784310588685
443,3897.84,1.2912162895344395
444,3899.61,1.4416531488050914
445,3901.3799999999997,1.1351610080757433
446,3903.16,1.7309168665513142
447,3904.93,1.3551617258219661
448,3906.7000000000003,0.723910885092618
449,3908.47,0.68066434436327
450,3910.25,0.5508720028388409
451,3912.02,1.3583861621094928
452,3913.79,1.2251190213801446
453,3915.5699999999997,0.6833507798557156
454,3917.34,0.9421508391263675
455,3919.11,0.5060020983970195
456,3920.88,0.5649335576676714
457,3922.66,0.3315083161432423
458,3924.43,0.23009927541389422
459,3926.2000000000003,0.818493434684546
460,3927.98,0.31881989316011705
461,3929.75,0.556919952430769
462,3931.52,1.0938996117014208
463,3933.29,1.0839824709720727
464,3935.07,0.8842245294476436
465,3936.8399999999997,0.6595996887182956
466,3938.61,1.1487090479889475
467,3940.39,1.1729059064645184
468,3942.1600000000003,0.9706883657351704
469,3943.93,1.2798706250058223
470,3945.7,1.1194704842764742
471,3947.48,0.9790058427520452
472,3949.2500000000005,1.503824202022697
473,3951.02,1.346841061293349
474,3952.8,1.44408391976892
475,3954.57,1.3770567790395718
476,3956.3399999999997,1.0887986383102237
477,3958.11,1.1800254975808757
478,3959.89,0.8236116560564466
479,3961.6600000000003,0.6862049153270985
480,3963.43,0.8185189745977505
481,3965.2,0.7592795338684024
482,3966.98,0.8724316923439732
483,3968.75,0.5164186516146251
484,3970.52,0.4873728108852771
485,3972.3,0.706060969360848
486,3974.07,1.2643832286314998
487,3975.84,1.859503087902152
488,3977.6099999999997,1.6012149471728037
489,3979.39,1.6020238056483747
490,3981.1600000000003,1.0204546649190267
491,3982.9300000000003,0.9274978241896785
492,3984.71,2.0806863826652493
493,3986.48,1.7759792419359013
494,3988.25,1.7227131012065533
495,3990.0200000000004,1.9828049604772051
496,3991.7999999999997,1.668145818952776
497,3993.57,1.7081746782234282
498,3995.34,1.51296053749408
499,3997.12,1.7665653959696508
500,3998.89,1.8451622552403026
501,4000.66,1.6170671145109548
502,4002.4300000000003,1.8646019737816066
503,4004.2100000000005,1.6538078322571774
504,4005.98,1.7520106915278295
505,4007.75,1.7192085507984813
506,4009.53,1.4009744092740524
507,4011.2999999999997,1.4228182685447042
508,4013.07,1.5684661278153562
509,4014.84,2.064836987086008
510,4016.6200000000003,1.819722845561579
511,4018.39,1.2747407048322308
512,4020.16,1.5358115641028829
513,4021.94,1.7763924225784538
514,4023.7099999999996,1.9189042818491056
515,4025.48,1.9139241411197576
516,4027.25,2.0274670003904096
517,4029.03,1.9100238588659804
518,4030.7999999999997,1.4634347181366323
519,4032.5699999999997,1.7195685774072842
520,4034.35,1.6056554358828552
521,4036.1200000000003,1.319218295153507
522,4037.89,1.867340154424159
523,4039.66,2.152023013694811
524,4041.44,1.663524872170382
525,4043.21,1.3556257314410336
526,4044.98,1.6509505907116857
527,4046.7599999999998,1.8057214491872566
528,4048.53,1.3145643084579084
529,4050.3,1.7008321677285605
530,4052.0699999999997,1.9007620269992123
531,4053.85,1.5774768854747834
532,4055.62,1.393605744745435
533,4057.3900000000003,1.5148876040160872
534,4059.1699999999996,1.9193444624916578
535,4060.94,1.65192632176231
536,4062.71,1.3365281810329617
537,4064.4799999999996,1.6446180403036137
538,4066.2599999999998,1.8115168987791848
539,4068.03,1.7888067580498366
540,4069.8,1.7659486173204886
541,4071.5800000000004,1.6188174757960594
542,4073.35,1.5548793350667114
543,4075.12,1.6077841943373632
544,4076.8900000000003,1.5434530536080153
545,4078.6699999999996,1.493454912083586
546,4080.44,1.651979771354238
547,4082.21,1.62515263062489
548,4083.9900000000002,1.5261394891004607
549,4085.7599999999998,1.6792303483711128
550,4087.5299999999997,2.1802502076417647
551,4089.3,1.9276480669124167
552,4091.0800000000004,1.8254329253879875
553,4092.85,1.8552947846586394
554,4094.62,1.7998066439292915
555,4096.4,1.7287745024048622
556,4098.17,1.5609813616755142
557,4099.9400000000005,1.564591220946166
558,4101.71,1.759002080216818
559,4103.49,1.6355379386923887
560,4105.26,1.8681447979630408
561,4107.03,1.7156716572336927
562,4108.81,1.5334455157092637
563,4110.58,1.8483403749799157
564,4112.35,1.5503082342505674
565,4114.12,1.7336570935212194
566,4115.900000000001,1.5877219519967902
567,4117.67,1.5866338112674423
568,4119.44,1.9233006705380942
569,4121.22,1.522628529013665
570,4122.990000000001,1.558064388284317
571,4124.76,1.5766662475549689
572,4126.53,1.210482106825621
573,4128.31,1.4574289653011916
574,4130.08,1.7641818245718437
575,4131.85,1.7162836838424955
576,4133.62,1.5127235431131476
577,4135.400000000001,1.3814174015887186
578,4137.17,1.3924212608593705
579,4138.94,1.5019941201300224
