,lambda (Angstroms),Total Flux (erg/s/cm^2/Angstrom)
0,100.00999999999999,0.021167254668738977
1,102.10000000000001,0.026000847270547772
2,104.0,0.030395022363131026
3,104.712855,0.032043659039803184
4,105.93,0.029694945371002226
5,107.89999999999999,0.02589345423607599
6,109.91000000000001,0.022014775464348265
7,114.03,0.014064448827793818
8,118.04,0.0063263881946964825
9,120.22644299999999,0.0021072289767894484
10,121.07,0.0020319079053723378
11,125.03999999999999,0.0016774272258087367
12,127.07,0.001496168845406645
13,127.95,0.0014175937859746924
14,130.93,0.0011515100616098796
15,132.14,0.0010434693625255302
16,133.98,0.0008791760646103601
17,137.1,0.0006005917951320301
18,138.038426,0.0005167998996023023
19,139.97,0.0005107087048081819
20,142.9,0.0005014692239052685
21,146.9,0.000488855905395196
22,151.02,0.00047586395327193956
23,154.89,0.0004636605804416501
24,158.489319,0.0004523109636351241
25,158.86999999999998,0.0004504665465277975
26,161.82,0.0004361738572125568
27,165.97,0.0004160674796734555
28,169.84,0.0003973181507026551
29,173.0,0.00038200887619468883
30,177.03,0.0003624853047235737
31,179.89999999999998,0.00034858200216199053
32,181.970086,0.0003385538797361635
33,181.98,0.0003385693475235427
34,185.79999999999998,0.0003445303403732405
35,191.0,0.0003526457092096877
36,194.1,0.00035748489069064654
37,198.17000000000002,0.000363839437256712
38,201.85000000000002,0.00036958760514804387
39,205.13,0.0003747109206111874
40,208.929613,0.00038064708704293164
41,209.91,0.0003899331924795114
42,215.79000000000002,0.0004456388499430482
43,219.79999999999998,0.00048363049043095315
44,222.86,0.0005126219281528959
45,227.00000000000003,0.0005518512201414066
46,230.16,0.0005818913959176606
47,233.9,0.0006175300117889238
48,239.88329199999998,0.000674439990094798
49,239.9,0.0006743103810669119
50,246.06,0.0006263656588513107
51,251.79,0.0005818848634611492
52,257.06,0.0005407236366377371
53,260.04,0.0005177529576009688
54,264.26,0.0004850432657233981
55,269.18,0.0004468619775485995
56,274.18,0.0004080682989969752
57,275.42287,0.0003984254818610539
58,279.28000000000003,0.0004307061423846517
59,283.81,0.00046868185816105224
60,289.76,0.0005184327879556623
61,295.83000000000004,0.0005693526197377274
62,301.32,0.0006152564624137622
63,308.34,0.0006742166821798402
64,316.227766,0.000740573650046263
65,317.71,0.0007316584875258183
66,328.12,0.0006689348098558616
67,338.09,0.0006089194062891502
68,348.37,0.0005470551027860613
69,357.29999999999995,0.0004934932775542928
70,363.078055,0.00045897719188683764
71,365.61999999999995,0.0004713988435343389
72,375.0,0.0005169922929817743
73,384.62,0.0005635339603425767
74,395.4,0.0006164308446179873
75,404.60999999999996,0.0006616560605434538
76,414.03000000000003,0.0007076293606431171
77,416.86938299999997,0.0007214803587946042
78,421.73,0.0007359352521270499
79,429.57,0.0007592890927132703
80,440.59000000000003,0.0007924693367260449
81,450.85,0.0008231128328758694
82,460.29,0.0008511817831735636
83,469.93,0.0008801873334351919
84,478.630092,0.0009065737312578073
85,479.77,0.0009025060274962329
86,489.82,0.0008659837399391288
87,500.08,0.0008297053247017271
88,505.87,0.0008118435629449475
89,511.72,0.0008140160689937973
90,520.04,0.0007862595547077173
91,529.7099999999999,0.000754354561048295
92,539.5500000000001,0.000718073241171488
93,549.5408739999999,0.0006999051878848103
94,549.59,0.0006999399517614081
95,559.8000000000001,0.0007048587025342366
96,570.21,0.0007069327484054554
97,579.48,0.0006964227182158491
98,590.25,0.0007088520012641707
99,599.84,0.0007048114152319888
100,609.59,0.0007201139012785196
101,619.49,0.000742605948648843
102,629.56,0.0007526958788527983
103,630.957344,0.000752788652971515
104,639.79,0.0007786538081197801
105,650.1800000000001,0.0008333671690177386
106,657.7099999999999,0.000868229242315296
107,665.3299999999999,0.0009080788889988805
108,674.58,0.0009430121870071687
109,685.5400000000001,0.0009665606793499621
110,695.08,0.0010855536582687801
111,704.75,0.0010908095320785256
112,716.2,0.0012209181128563526
113,724.43596,0.0012664342406589631
114,726.16,0.0012747412017700258
115,734.5699999999999,0.0013212353828651255
116,744.7900000000001,0.0014236212193445448
117,755.15,0.0014981477330360108
118,765.66,0.0015725209723118129
119,774.52,0.0016793414301599203
120,785.3000000000001,0.0017887807754875269
121,794.39,0.0018678274458982826
122,805.44,0.0019526843972776935
123,814.77,0.0020325624286233867
124,824.1999999999999,0.00219025894369197
125,831.763771,0.0020754337667652153
126,835.6700000000001,0.002004520987888137
127,845.35,0.002312647257361495
128,855.1400000000001,0.0023813033480788687
129,865.04,0.002516191260040258
130,875.05,0.002660687993245663
131,885.19,0.002839763787921267
132,895.4399999999999,0.0029734824038408873
133,905.81,0.003021994461117615
134,914.19,0.004357056115888973
135,924.77,0.026234828195540637
136,935.48,0.057955051336662504
137,944.14,0.11373647235460045
138,954.992586,0.1610821693572225
139,955.0699999999999,0.16142002997031396
140,963.9100000000001,0.1934864824117924
141,975.0699999999999,0.036920357530219855
142,984.0899999999999,0.18935328198973742
143,995.49,0.19492510979888378
144,1004.7,0.2675716430552204
145,1013.99,0.2525716505417967
146,1025.74,0.10547656560824138
147,1035.23,0.1901530086704167
148,1044.8,0.35189702596283173
149,1054.47,0.35338121104304615
150,1064.23,0.29456466713228024
151,1074.08,0.3482312942305339
152,1084.01,0.2895909955590272
153,1094.04,0.37017046467531994
154,1096.4782,0.3680976906594816
155,1104.17,0.3615534245311479
156,1114.3799999999999,0.35720643097700905
157,1124.7,0.3293701265226787
158,1135.1,0.40391754141366365
159,1145.61,0.37326974540445707
160,1156.21,0.3978133586587302
161,1164.22,0.41558678310842145
162,1174.99,0.30652482497148953
163,1185.86,0.40735666601620163
164,1194.08,0.2951913787473455
165,1205.1299999999999,0.22227563831901703
166,1216.28,0.12941379707233264
167,1224.72,0.28006518800309343
168,1236.05,0.4203905652833684
169,1244.6200000000001,0.46938622515026657
170,1256.13,0.45929042095750083
171,1258.92541,0.44143744953229225
172,1264.8400000000001,0.4036701268148514
173,1273.6100000000001,0.511506455724162
174,1285.3899999999999,0.5362330004849006
175,1294.3,0.44903073943381255
176,1306.28,0.44540449853683883
177,1315.3300000000002,0.540203947525352
178,1324.45,0.5252897015336658
179,1333.63,0.4789084598446659
180,1345.97,0.5541602447638098
181,1355.3000000000002,0.5438109138315256
182,1364.69,0.4991934872019277
183,1374.15,0.5224428655921304
184,1383.6799999999998,0.5330953490021337
185,1396.48,0.4755352669085392
186,1406.1599999999999,0.49649806107525823
187,1415.9099999999999,0.508921660261778
188,1425.72,0.520432463750984
189,1435.61,0.5212855729771049
190,1442.2299999999998,0.548536447706824
191,1445.43977,0.5565781638236857
192,1445.56,0.5568793851202899
193,1455.58,0.5463273881907613
194,1465.67,0.5130320954743
195,1475.83,0.5126392069709057
196,1486.06,0.5217457226805786
197,1496.36,0.5310022426033186
198,1506.73,0.5101977667391259
199,1513.68,0.4643550850365088
200,1517.1699999999998,0.4935865950880004
201,1524.18,0.4824421169965837
202,1534.74,0.43159645256785895
203,1545.38,0.47057179295406815
204,1556.09,0.4468977375533445
205,1563.27,0.45524646969366234
206,1574.11,0.4850339221172063
207,1585.02,0.5050038787538175
208,1596.01,0.5185674402053624
209,1603.38,0.5067726837811483
210,1614.49,0.5096914524550942
211,1625.6799999999998,0.48619042594397394
212,1633.1799999999998,0.5149516773440274
213,1644.5000000000002,0.5226650586571747
214,1655.8999999999999,0.48717644478525607
215,1659.58691,0.508602529668106
216,1663.55,0.5316351085930199
217,1671.23,0.48149938419885824
218,1675.08,0.5346039763970976
219,1686.69,0.5539004793637361
220,1694.4699999999998,0.5252695989227755
221,1706.22,0.5078920634238955
222,1714.1000000000001,0.48942982693613596
223,1725.98,0.48758244857641725
224,1733.9399999999998,0.5163317472512184
225,1745.96,0.5049679304259812
226,1754.02,0.5359509730539835
227,1766.18,0.4948203177632276
228,1774.3300000000002,0.5108515999491108
229,1786.6299999999999,0.5182834061928364
230,1794.88,0.5475050323319206
231,1803.16,0.5447839716569651
232,1815.66,0.5122440658070928
233,1824.0400000000002,0.5203379490853384
234,1836.69,0.5029202091652675
235,1845.16,0.46701103200139393
236,1853.68,0.47108977681412095
237,1866.5300000000002,0.4833473248004521
238,1875.1499999999999,0.5152227135663802
239,1883.8,0.48170351551826845
240,1896.86,0.4644235558063218
241,1905.46072,0.487805683602182
242,1905.6200000000001,0.4882385458561328
243,1914.41,0.474638565779217
244,1923.25,0.46673995737421853
245,1936.58,0.47546610510740533
246,1945.52,0.49864354004624184
247,1954.5000000000002,0.4715127523226122
248,1968.0500000000002,0.5075388754122357
249,1977.13,0.518938131032441
250,1986.26,0.4940657583245636
251,1995.42,0.4824322686198368
252,2004.63,0.4921069505870274
253,2013.89,0.4804845042261354
254,2023.18,0.4969204408683939
255,2037.21,0.4766430920084247
256,2046.6100000000001,0.4917781663289015
257,2056.06,0.4724536123212957
258,2065.5499999999997,0.4763495356512239
259,2075.08,0.504042936318686
260,2079.86,0.48501122815399234
261,2084.6600000000003,0.49889980865806555
262,2094.28,0.4748603583349791
263,2103.95,0.47872587968381003
264,2113.66,0.4815068783701749
265,2123.42,0.4887681487284572
266,2133.2200000000003,0.45773279642427345
267,2143.06,0.46783422145762366
268,2152.96,0.48145691249727474
269,2162.89,0.46776688654007637
270,2172.88,0.46288622658917883
271,2182.9100000000003,0.45805674397581525
272,2187.7616199999998,0.46708812601292266
273,2192.98,0.4768075524564091
274,2203.11,0.4642707283330695
275,2213.27,0.44484121776119084
276,2223.49,0.4321318342922342
277,2233.75,0.4591914688918921
278,2244.06,0.43992902607731843
279,2254.42,0.42536260584851304
280,2264.83,0.431807708205476
281,2275.28,0.44200092863105356
282,2285.78,0.4542803716423994
283,2296.33,0.4337634372395136
284,2306.9300000000003,0.43767952542239613
285,2317.58,0.42470203619104696
286,2322.93,0.3512467528682565
287,2333.65,0.404090095256983
288,2344.42,0.3912195602314778
289,2355.2400000000002,0.4220093477917409
290,2366.1099999999997,0.3938028579377723
291,2377.03,0.407573190669572
292,2382.5099999999998,0.3816803660697792
293,2393.51,0.4051446349388082
294,2404.56,0.3931558263936055
295,2415.66,0.4013344404341712
296,2426.81,0.42406507706050517
297,2432.4,0.4101387021494026
298,2443.63,0.4323770749129659
299,2454.91,0.42739897026229745
300,2466.2400000000002,0.4263770881973974
301,2477.62,0.4147415287182656
302,2483.33,0.426824108013007
303,2494.8,0.4076016891882582
304,2506.31,0.446867788432124
305,2511.88643,0.410318545345743
306,2512.09,0.40898417180196817
307,2517.88,0.417045159560936
308,2523.69,0.4015051438233891
309,2535.33,0.4061291088517804
310,2547.04,0.40424356164236996
311,2552.91,0.4296422354152787
312,2564.69,0.4227685759680665
313,2576.53,0.4447120060313099
314,2582.4700000000003,0.4431742675664168
315,2594.39,0.4401199836436011
316,2606.3599999999997,0.4281426909794984
317,2612.37,0.4237288402768036
318,2624.43,0.44267253187838423
319,2636.54,0.454022314738678
320,2642.62,0.48928275179818137
321,2654.82,0.49838411892415857
322,2667.07,0.46410067730884874
323,2673.2200000000003,0.4820654021305504
324,2685.56,0.48543884478092403
325,2697.9599999999996,0.4657716769417533
326,2704.18,0.47828168952565314
327,2716.6600000000003,0.4589119077004232
328,2722.9199999999996,0.4584096132912935
329,2735.49,0.480035715731747
330,2748.12,0.4289034076826562
331,2754.45,0.4384037010357247
332,2767.17,0.45489447725231724
333,2773.54,0.4747025636123562
334,2786.3500000000004,0.4544547240946322
335,2792.77,0.37592230171338414
336,2805.66,0.40190864820960104
337,2812.13,0.478184517087066
338,2825.11,0.49619214784896626
339,2838.1499999999996,0.48276086812132224
340,2844.69,0.4723613247609854
341,2857.8199999999997,0.4595861292990248
342,2864.41,0.495310077197401
343,2877.63,0.49769026600112376
344,2884.0315,0.49940413091146707
345,2884.26,0.4994653460366136
346,2897.5800000000004,0.49841459837967617
347,2910.95,0.5353835505438462
348,2931.13,0.5215801783428705
349,2951.45,0.5163968056409959
350,2971.91,0.5267990324382226
351,2992.5099999999998,0.5300514587345505
352,3013.25,0.5382757845299798
353,3027.16,0.5409193347621118
354,3048.14,0.5442949596988576
355,3069.27,0.5489621840989259
356,3090.54,0.5549532079980957
357,3111.97,0.5584480313248097
358,3133.5400000000004,0.5542759541506249
359,3148.0000000000005,0.5583269024149405
360,3169.8199999999997,0.5644652243462936
361,3191.8,0.5437599457051912
362,3206.53,0.5618009930034878
363,3228.7599999999998,0.5462249134679233
364,3251.1400000000003,0.5756296333956815
365,3273.67,0.5955723527867626
366,3288.78,0.5944842987254769
367,3311.31121,0.5955800452512199
368,3311.58,0.5955930997284242
369,3319.21,0.5909639778770596
370,3326.8599999999997,0.6027827546578014
371,3334.53,0.6191041300706498
372,3342.2200000000003,0.5893661041156047
373,3349.93,0.6165734767926662
374,3357.6499999999996,0.6061810487857808
375,3365.39,0.563944119411002
376,3373.1499999999996,0.5582764886683297
377,3380.92,0.5908153572417106
378,3388.7200000000003,0.6138427237632513
379,3396.5299999999997,0.5924914896008454
380,3404.36,0.6127647540705459
381,3412.2000000000003,0.5928170178562996
382,3420.07,0.6131008795902131
383,3427.96,0.6153889399562332
384,3435.86,0.6234109996383065
385,3443.78,0.5840021579524862
386,3451.72,0.6295341148987725
387,3459.67,0.6034708711611122
388,3467.65,0.6029507253716115
389,3475.64,0.6108140788981642
390,3483.6499999999996,0.6102970310568233
391,3491.69,0.6168282811636422
392,3499.7400000000002,0.5829480305865145
393,3507.7999999999997,0.6163428793254397
394,3515.89,0.591607626012525
395,3523.9900000000002,0.6169235720156634
396,3532.1200000000003,0.6286819159669617
397,3540.26,0.6391976592343132
398,3548.42,0.6574151011337711
399,3556.6,0.6368689416653357
400,3564.8,0.6430722808290066
401,3568.81,0.5875398065663628
402,3571.5099999999998,0.6862355219007423
403,3574.21,0.5633034372351218
404,3576.91,0.4540944525695013
405,3579.6099999999997,0.7916234679038807
406,3582.3100000000004,0.5400651832382602
407,3585.01,0.43894199857263977
408,3587.71,0.49995171390701926
409,3590.41,0.5979796292413987
410,3593.11,0.6082194445757783
411,3595.81,0.44757995991015764
412,3598.5099999999998,0.4151072752445371
413,3601.21,0.6070268905789166
414,3603.9100000000003,0.6334457059132962
415,3606.61,0.5017456212476755
416,3609.31,0.5771892365820551
417,3612.0099999999998,0.6238225519164345
418,3614.71,0.5481273672508141
419,3617.41,0.7124288825851935
420,3620.11,0.739342997919573
421,3622.8100000000004,0.7491091132539525
422,3625.51,0.720887528588332
423,3628.21,0.7113223439227114
424,3630.91,0.768497459257091
425,3633.6099999999997,0.6878614745914704
426,3636.31,0.61943338992585
427,3639.0099999999998,0.6427213052602293
428,3641.71,0.5534898205946089
429,3644.4100000000003,0.6869058359289884
430,3647.11,0.6727876512633678
431,3649.81,0.5273933665977473
432,3652.5099999999998,0.5208585819321269
433,3655.21,0.5505231972665062
434,3657.91,0.7422849126008858
435,3660.61,0.6971233279352652
436,3663.3100000000004,0.6267634432696447
437,3666.01,0.6505684586040242
438,3668.71,0.7095028739384037
439,3671.41,0.6614185892727832
440,3674.1099999999997,0.6353513046071627
441,3676.81,0.5946132199415421
442,3679.5099999999998,0.6226908352759216
443,3682.21,0.617584950610301
444,3684.9100000000003,0.6033950659446806
445,3687.61,0.5656370812790601
446,3690.31,0.6165431966134396
447,3693.0099999999998,0.623745511947819
448,3695.71,0.6085790272821986
449,3698.41,0.7682057426165779
450,3701.11,0.7085600579509576
451,3703.81,0.800591873285337
452,3706.51,0.6228182886197164
453,3709.21,0.5330626039540959
454,3711.91,0.6645613192884754
455,3714.6099999999997,0.6758567346228549
456,3717.31,0.6995037499572344
457,3720.01,0.8345570652916139
458,3722.71,0.9625225806259934
459,3725.4100000000003,0.9577111959603728
460,3728.11,1.1847033112947523
461,3730.81,1.077921126629132
462,3733.5099999999998,0.8879829419635114
463,3736.21,0.7672698572978908
464,3738.91,0.6908133726322703
465,3741.61,0.7038466879666497
466,3744.31,0.7297844033010292
467,3747.01,0.6665840186354086
468,3749.71,0.6413569339697882
469,3752.41,0.5675215493041676
470,3755.1099999999997,0.6639623646385472
471,3757.81,0.8464750799729266
472,3760.51,0.9342988953073061
473,3763.21,0.8402991106416856
474,3765.9100000000003,0.7238228259760651
475,3768.61,0.6784241413104445
476,3771.31,0.6838456566448241
477,3774.0099999999998,0.9015525719792035
478,3776.7099999999996,0.809778987313583
479,3779.4100000000003,0.9687666026479624
480,3782.11,0.967473817982342
481,3784.81,1.0250654333167215
482,3787.51,0.951387948651101
483,3790.21,0.9056447639854804
484,3792.91,0.79010187931986
485,3795.6099999999997,0.8733296946542394
486,3798.31,0.6641607099886189
487,3801.01,0.6918937253229983
488,3801.8939600000003,0.7291007853567013
489,3803.71,0.8055403665374821
490,3806.41,0.9138301203491426
491,3809.11,0.9775973741608032
492,3811.81,0.9129681279724637
493,3814.5099999999998,0.9462878817841243
494,3817.2099999999996,0.9680463355957849
495,3819.9100000000003,1.0716682894074454
496,3822.61,1.0020841432191059
497,3825.31,1.0274329970307665
498,3828.01,0.828231250842427
499,3830.71,0.7011700046540876
500,3833.41,0.7047245584657481
501,3836.1099999999997,0.6905705122774087
502,3838.81,0.6934427660890693
503,3841.51,0.8183206199007298
504,3844.21,0.9327861737123903
505,3846.91,0.9854229275240509
506,3849.61,1.0858136813357113
507,3852.31,1.105345535147372
508,3855.0099999999998,1.1581983889590326
509,3857.7099999999996,1.046676242770693
510,3860.4100000000003,1.0504110965823537
511,3863.11,1.0889009503940144
512,3865.81,1.1925948042056749
513,3868.51,1.1398856580173353
514,3871.21,1.0845195118289959
515,3873.91,1.1082893656406565
516,3876.6099999999997,0.996695619452317
517,3879.3100000000004,0.9919560732639775
518,3882.01,0.8848149270756381
519,3884.71,0.7458619808872987
520,3887.41,0.7462209346989591
521,3890.11,0.6920542885106197
522,3892.81,0.7283398423222802
523,3895.5099999999998,0.8541512961339408
524,3898.2099999999996,0.9429087499456014
525,3900.9100000000003,1.003659903757262
526,3903.61,1.0621857575689226
527,3906.31,1.0655606113805831
528,3909.0099999999998,1.1030454651922437
529,3911.71,1.1692543190039042
530,3914.41,1.1472081728155648
531,3917.1099999999997,1.0832250266272254
532,3919.8100000000004,1.1894318804388857
533,3922.51,1.1609237342505463
534,3925.21,1.128536588062207
535,3927.91,0.9612907418738675
536,3930.61,0.8685115956855279
537,3933.31,0.8231274494971885
538,3936.0099999999998,0.8163053033088491
539,3938.7100000000005,0.9339303571205096
540,3941.4100000000003,1.0352547109321701
541,3944.11,1.0756835647438308
542,3946.81,1.1250174185554913
543,3949.5099999999998,1.1107262723671518
544,3952.21,1.1418201261788126
545,3954.91,1.1344239799904732
546,3957.6099999999997,1.0446608338021337
547,3960.3100000000004,0.9368016876137941
548,3963.01,0.8374161414254546
549,3965.71,0.6800581952371152
550,3968.41,0.5945319490487758
551,3971.11,0.6338695028604362
552,3973.81,0.6720364566720968
553,3976.5099999999998,0.7827679104837574
554,3979.21,0.9971933642954179
555,3981.9100000000003,1.0194545181070784
556,3984.61,1.059452371918739
557,3987.31,1.1100782257303996
558,3990.0099999999998,1.1293240795420603
559,3992.71,1.1826789333537209
560,3995.41,1.2243287871653814
561,3998.11,1.1430386409770419
562,4000.8100000000004,1.1951014947887024
563,4003.51,1.2324423486003628
564,4006.21,1.2975742024120234
565,4008.91,1.353012056223684
566,4011.6099999999997,1.2412749100353444
567,4014.31,1.227486763847005
568,4017.0099999999998,1.3158856176586657
569,4019.71,1.2740204714703263
570,4022.4100000000003,1.2499633252819868
571,4025.11,1.2678441790936474
572,4027.81,1.261596032905308
573,4030.5099999999998,1.1823178867169686
574,4033.21,1.2425667405286291
575,4035.91,1.2564255943402896
576,4038.61,1.2862984481519502
