,lambda (Angstroms),Total Flux (erg/s/cm^2/Angstrom)
0,101.98,18.060195857933664
1,104.11999999999999,18.00222515451344
2,104.712855,17.986165239724503
3,106.05,17.79589596029105
4,108.03,17.514151523987604
5,110.03,17.2295612057885
6,113.9,16.678878935416314
7,117.9,16.109698321679065
8,120.22644299999999,15.778657439667219
9,120.92999999999999,15.6947236171912
10,124.89,15.222297826572364
11,126.92,14.980119956096269
12,128.09,14.840539636908183
13,131.08,14.483834361353734
14,131.99,14.375272326107554
15,134.13,14.119971625687077
16,136.94,13.784741137875256
17,138.038426,13.653699676338197
18,140.13,13.475344636226838
19,143.06,13.225505576510585
20,147.07,12.883592042780208
21,150.84,12.562119139275408
22,155.07,12.201422283630748
23,158.489319,11.909854936581581
24,159.04999999999998,11.873710384880297
25,162.0,11.683537704065637
26,166.16,11.41536440739015
27,170.03,11.165885841121968
28,173.19,10.96217823932857
29,176.82,10.728174436056088
30,180.10999999999999,10.516086684902522
31,181.970086,10.396178841757429
32,182.19,10.385363806878715
33,186.01,10.197503288431243
34,191.22,9.941285192290843
35,193.88,9.810476878092866
36,197.94,9.610816173669635
37,202.08,9.407224389287817
38,204.89000000000001,9.26903976170499
39,208.929613,9.070374282242062
40,210.14999999999998,9.02525316913867
41,216.04000000000002,8.807521211789464
42,220.05,8.659278878915385
43,223.11,8.546150974071827
44,226.74,8.411964501029956
45,229.89,8.295758733749823
46,234.17000000000002,8.138070100766019
47,239.88329199999998,7.927168068043363
48,240.18,7.918732013685081
49,245.77,7.759436406092401
50,252.07,7.580095671000475
51,256.76,7.446232677420929
52,259.73,7.361875438177591
53,263.95,7.241769083027125
54,268.86,7.101923192799924
55,273.86,6.9595047421714105
56,275.42287,6.914988529409756
57,278.95,6.837894652928262
58,284.14,6.724455060688843
59,290.09,6.5942977173238075
60,296.16,6.461662399675777
61,300.96999999999997,6.35651410099917
62,307.98,6.203312173801034
63,316.227766,6.0230625577253445
64,318.07,5.99299812995796
65,327.73999999999995,5.835145156902941
66,337.7,5.672526751629104
67,347.96,5.504997142853042
68,356.89,5.359185075770175
69,363.078055,5.258148881207091
70,366.03999999999996,5.221935562520265
71,375.43,5.107103967972948
72,385.06,4.989256126878095
73,394.94,4.868511969171227
74,405.07,4.744643236852343
75,413.55,4.6409158671727635
76,416.86938299999997,4.6003104866743545
77,422.21000000000004,4.550418845782129
78,430.06,4.477084058698837
79,441.09000000000003,4.3740654669308485
80,451.36999999999995,4.278017826126233
81,459.76000000000005,4.199631979549312
82,470.46999999999997,4.099574845592362
83,478.630092,4.023350465522968
84,480.32,4.0112098683880655
85,490.38,3.9388825462773416
86,499.49,3.8734482171015276
87,506.44,3.8234846175777175
88,512.3,3.7814736261792254
89,519.4300000000001,3.730236566267748
90,530.3100000000001,3.6520317976132084
91,540.1700000000001,3.581122271488782
92,549.5408739999999,3.5137941392228393
93,550.21,3.5101265962429835
94,560.4399999999999,3.4540947697697444
95,569.55,3.4042012138194786
96,580.13,3.3461517785578083
97,589.5600000000001,3.2945041871724072
98,600.52,3.2343661447690146
99,610.28,3.180628892497379
100,620.1999999999999,3.1265699560081774
101,630.27,3.071355587752505
102,630.957344,3.0675882023331913
103,640.51,3.0260799384114807
104,649.42,2.987376229112366
105,658.46,2.9480881551063067
106,664.55,2.921662525373242
107,675.35,2.874721393950072
108,684.7399999999999,2.8338353998099284
109,694.27,2.7926020052161498
110,705.5500000000001,2.743476113951951
111,715.37,2.700965387704218
112,724.43596,2.6615776520955143
113,725.3199999999999,2.6587266719106815
114,735.41,2.626200621992761
115,745.6400000000001,2.593285827735048
116,754.27,2.56549001593211
117,764.77,2.531509415447653
118,775.4,2.497455531076247
119,784.3799999999999,2.468532635423826
120,795.3000000000001,2.4333687529199914
121,804.4999999999999,2.40375278830504
122,815.7,2.36766425812162
123,825.14,2.337355397638452
124,831.763771,2.315685292286941
125,834.7,2.3084704329996373
126,844.36,2.285662667280702
127,854.14,2.2621035698137058
128,864.03,2.23839662524432
129,874.03,2.2144384685725447
130,884.15,2.190233674152708
131,894.3900000000001,2.16567179298481
132,904.75,2.1406320850688507
133,915.2299999999999,2.1172709084048305
134,925.8199999999999,2.1209248266384204
135,934.39,2.1408063482977084
136,945.2099999999999,2.183939659680848
137,953.9599999999999,2.2298246197180447
138,954.992586,2.228414210797921
139,965.0,2.2152661745726077
140,973.93,2.0040479495415306
141,985.2099999999999,2.1094167026601705
142,994.32,2.1146172186363055
143,1005.84,2.2060666630978947
144,1015.15,2.182684980193155
145,1024.54,1.9885431177360655
146,1034.02,2.029096290782582
147,1045.99,2.224599012762202
148,1055.6699999999998,2.1949945869278435
149,1065.44,2.06265619659709
150,1075.3,2.1146362417699436
151,1085.25,1.9921058224464032
152,1095.29,2.0948774386264692
153,1096.4782,2.0901214190717345
154,1105.42,2.0581523733837797
155,1115.6499999999999,2.0146721301399007
156,1125.97,1.951488395019975
157,1133.78,2.0555146222208847
158,1144.27,1.9886052135573173
159,1154.8600000000001,2.003654602809254
160,1165.54,1.9962460001851456
161,1176.33,1.8173686852680921
162,1184.48,1.9474607653817166
163,1195.44,1.761749476921021
164,1203.73,1.6541716141163523
165,1214.87,1.593447741903565
166,1226.11,1.725951167606282
167,1234.61,1.8915904904241732
168,1246.03,1.920353832374798
169,1254.6699999999998,1.869599812274396
170,1258.92541,1.8309618799592768
171,1266.28,1.768261852570982
172,1275.0500000000002,1.910978435326419
173,1283.89,1.9336774565987191
174,1295.77,1.7570173363176014
175,1304.75,1.7366302346236249
176,1313.8,1.8721337714465114
177,1325.9499999999998,1.825505171159005
178,1335.1399999999999,1.728876185015615
179,1344.4,1.8421435373890866
180,1353.72,1.8092292942055836
181,1366.24,1.7148003546500625
182,1375.71,1.737125822574121
183,1385.25,1.7301245290150415
184,1394.85,1.6424083398989868
185,1404.52,1.6486297892997943
186,1414.26,1.6407829772174638
187,1424.06,1.6502250695781582
188,1433.9299999999998,1.6308042004557146
189,1440.55,1.6564725573361017
190,1445.43977,1.6589630746270336
191,1447.1999999999998,1.6605913699537331
192,1453.8799999999999,1.634249005584529
193,1463.96,1.5733974563567483
194,1474.1000000000001,1.5647645544549926
195,1484.3200000000002,1.5706906823212707
196,1494.6100000000001,1.573550148734578
197,1504.97,1.5295854536949145
198,1511.9199999999998,1.458703752292824
199,1515.4,1.4940034972022802
200,1525.91,1.4646449704776798
201,1536.49,1.3869999823001085
202,1543.58,1.4330451579920762
203,1554.2800000000002,1.396787864466555
204,1565.05,1.3909527094880634
205,1575.9,1.4097271842776047
206,1586.82,1.4284986976141758
207,1594.15,1.430934662610244
208,1605.2,1.4129282618198693
209,1616.32,1.405391499576524
210,1623.78,1.3676382504456466
211,1635.0400000000002,1.3905804652963596
212,1646.3700000000001,1.3882737186941023
213,1653.9699999999998,1.338626446657284
214,1659.58691,1.3560954924232564
215,1665.44,1.3759841466486686
216,1673.12,1.305816030309231
217,1676.9800000000002,1.3704119124615444
218,1684.72,1.3946084170882047
219,1696.4,1.3507975651553092
220,1704.23,1.3233503012311167
221,1716.04,1.2864736613914343
222,1723.96,1.2792154289163888
223,1735.9099999999999,1.3051329713309352
224,1743.9299999999998,1.2884515404660535
225,1756.02,1.3172124651348287
226,1764.1200000000001,1.2638677955580775
227,1776.35,1.268664402481082
228,1784.55,1.2723977345144948
229,1796.9199999999998,1.304172123691728
230,1805.2099999999998,1.2940955871742879
231,1813.54,1.242616431300913
232,1826.12,1.24650129385949
233,1834.54,1.2194469694352623
234,1843.01,1.1730618958161165
235,1855.79,1.1653606615950205
236,1864.35,1.1752415194250219
237,1872.9599999999998,1.2118583280601052
238,1885.94,1.162589997059336
239,1894.6499999999999,1.140106007304583
240,1903.39,1.1603895280328789
241,1905.46072,1.1560362333821306
242,1916.59,1.13464019570878
243,1925.4299999999998,1.1238870378892507
244,1934.32,1.1305315213716474
245,1943.25,1.1471607778955846
246,1956.72,1.1120962246343788
247,1965.75,1.1530585637621675
248,1974.82,1.1609987759314968
249,1983.9399999999998,1.1300408294027517
250,1993.1,1.1119207559155473
251,2006.91,1.1197010235074365
252,2016.1699999999998,1.0957967326240838
253,2025.48,1.1135259830426565
254,2034.83,1.08471710650277
255,2044.22,1.1013038030044238
256,2053.66,1.0744849408080037
257,2063.14,1.069810051653124
258,2072.66,1.099315035539785
259,2077.44,1.0809781640038856
260,2087.03,1.0983753257132425
261,2096.66,1.0656662604641403
262,2106.3399999999997,1.0618563365169635
263,2116.06,1.0629221856113271
264,2125.83,1.0630369760076168
265,2135.64,1.022037239445447
266,2145.5,1.034866644185203
267,2155.4,1.0474700219664994
268,2165.35,1.0260179410497219
269,2175.35,1.0172897014348699
270,2185.3900000000003,1.0085848348615583
271,2187.7616199999998,1.0121549714905438
272,2195.47,1.0249884652574628
273,2205.61,1.0080669919227438
274,2215.79,0.9779750723421288
275,2226.02,0.9631633699541433
276,2236.29,0.9949791213202615
277,2246.61,0.9712746898790091
278,2256.98,0.9433121756303864
279,2267.4,0.9481084785743934
280,2272.63,0.9602706569234487
281,2283.12,0.9747865039371372
282,2293.66,0.9430674681434551
283,2304.24,0.9436721861038768
284,2314.88,0.9152271846954537
285,2325.56,0.8234913370411346
286,2336.3,0.8725456700179708
287,2347.08,0.853579556748911
288,2352.4900000000002,0.8897818769914327
289,2363.35,0.84643747123058
290,2374.2599999999998,0.8569197826623571
291,2385.2200000000003,0.8224034112867633
292,2396.23,0.8426462571037996
293,2407.29,0.8247374201134652
294,2412.84,0.8346429284953498
295,2423.98,0.862054699013223
296,2435.1600000000003,0.8450516232851996
297,2446.4,0.8660436281883319
298,2457.7,0.8588105137226197
299,2463.36,0.8488859199282893
300,2474.73,0.8295594495322586
301,2486.16,0.8247665597673833
302,2497.63,0.8047470237566117
303,2503.39,0.8506711643475406
304,2511.88643,0.8052365023459784
305,2514.94,0.7891672542175676
306,2520.7400000000002,0.7938411618192243
307,2526.55,0.7793050833995046
308,2532.38,0.7907180329370319
309,2544.07,0.7834411739479572
310,2555.81,0.8229553848520004
311,2567.6,0.7984959656491613
312,2573.5200000000004,0.8245208409943003
313,2585.4,0.8118590475990732
314,2597.34,0.7994532380755872
315,2603.32,0.7823575972924677
316,2615.3399999999997,0.7720380995979703
317,2627.41,0.7936257717965902
318,2633.47,0.8288155428424592
319,2645.6200000000003,0.8778278268700674
320,2657.84,0.9148007087480408
321,2663.96,0.8299233636656511
322,2676.2599999999998,0.8552295573726127
323,2682.4300000000003,0.8638898821833405
324,2694.8100000000004,0.8223948877192906
325,2707.25,0.8467433771269819
326,2713.4900000000002,0.8020985997880745
327,2726.0099999999998,0.7857106010247543
328,2732.2999999999997,0.8130621935789648
329,2744.91,0.7332087206232565
330,2757.58,0.7489540315392893
331,2763.9399999999996,0.7730797219438647
332,2776.7,0.7891060586675094
333,2783.1,0.7435636049865788
334,2795.94,0.6611264535392118
335,2802.3900000000003,0.6806738697513991
336,2815.32,0.7687796441116441
337,2821.81,0.8153794162383257
338,2834.84,0.7982543303848062
339,2847.92,0.7673029144244043
340,2854.4900000000002,0.724385498380074
341,2867.6600000000003,0.8093066082272842
342,2874.27,0.8374498480974483
343,2884.0315,0.8210752809909583
344,2887.54,0.8154461210557422
345,2894.2000000000003,0.8306969060059952
346,2907.56,0.9011998529932899
347,2927.71,0.8622599604628997
348,2948.0099999999998,0.8442563320079655
349,2968.44,0.8593148790850934
350,2989.02,0.8583686902376775
351,3009.73,0.8640650769223235
352,3030.6,0.8665042719541227
353,3051.6,0.8678524425179841
354,3072.7599999999998,0.8773683214289985
355,3086.94,0.8791329986954534
356,3108.34,0.8939523401271978
357,3129.8900000000003,0.8749307456343981
358,3151.58,0.8692031709453579
359,3173.42,0.8815331603317735
360,3188.07,0.831678718367991
361,3210.17,0.8641222588185308
362,3232.4199999999996,0.8060929633445266
363,3247.34,0.8871538167165651
364,3269.8500000000004,0.931308372306685
365,3292.52,0.9155378362439581
366,3307.7200000000003,0.9042441292235148
367,3311.31121,0.9025418012223932
368,3322.98,0.8976080648423669
369,3330.65,0.9345714139451711
370,3338.32,0.8795065630479751
371,3346.02,0.9264341813128503
372,3353.7299999999996,0.8770262559650823
373,3361.46,0.8874431433920282
374,3369.21,0.8914576435936882
375,3376.98,0.8669208565700621
376,3384.76,0.851927925933793
377,3392.5699999999997,0.9230002644595949
378,3400.39,0.9562376593727537
379,3408.23,0.8971122670606264
380,3416.0800000000004,0.8799330311358561
381,3423.9599999999996,0.9449761643731569
382,3431.8500000000004,0.9422181539978145
383,3439.76,0.9351154563971862
384,3447.69,0.8249688715712719
385,3455.64,0.8907513995200714
386,3463.6,0.829628383856228
387,3471.59,0.9044841373544554
388,3479.59,0.8187338472400398
389,3487.6099999999997,0.8644870699003384
390,3495.65,0.8529558053353508
391,3503.71,0.9259693535450771
392,3511.79,0.9062220145295175
393,3519.88,0.9062903319013147
394,3528.0,0.8291038184351829
395,3536.13,0.9092269613564081
396,3544.28,0.9426411170523472
397,3552.45,0.9548039855230004
398,3560.64,0.9325147667683675
399,3568.85,0.8513898607884487
400,3577.0800000000004,0.8398769675832436
401,3585.32,0.7734241307653956
402,3593.5899999999997,0.8473894631096186
403,3598.85,1.0743018228593904
404,3601.54,0.8626940910584182
405,3604.23,1.022675159257446
406,3606.92,0.9163462274564738
407,3609.6099999999997,0.8050925956555015
408,3612.3,1.0069424638545292
409,3614.9900000000002,0.838699732053557
410,3617.68,0.8877402002525849
411,3620.37,0.8804312684516127
412,3623.06,0.9222151366506404
413,3625.76,0.7593374612370252
414,3628.45,1.0814989294360529
415,3631.14,1.3121140976350807
416,3633.83,1.0497436658341086
417,3636.5199999999995,0.7288005340331363
418,3639.21,0.943850602232164
419,3641.9,1.0723544704311918
420,3644.5899999999997,0.9825992386302197
421,3647.2799999999997,1.0999851068292474
422,3649.9700000000003,1.0737596750282752
423,3652.66,1.183270943227303
424,3655.35,1.2795166114263308
425,3658.04,0.9242966796253584
426,3660.73,1.0298272478243862
427,3663.43,1.096021672410771
428,3666.12,1.0677135406097988
429,3668.81,1.2502557088088266
430,3671.4999999999995,1.0345048770078544
431,3674.19,1.215083945206882
432,3676.88,1.07250511340591
433,3679.5699999999997,1.0678645816049377
434,3682.2599999999998,0.9605703498039655
435,3684.9500000000003,0.7592994180029933
436,3687.64,0.890829486202021
437,3690.33,0.9439480544010488
438,3693.02,0.9671079226000766
439,3695.71,0.9552110907991043
440,3698.4,1.2222613589981322
441,3701.09,1.00012072719716
442,3703.79,0.9811574517835446
443,3706.4799999999996,0.8612702199825725
444,3709.17,0.9962600881816002
445,3711.86,1.144352856380628
446,3714.5499999999997,1.0286198245796558
447,3717.24,0.8392480927786836
448,3719.9300000000003,0.9939359609777112
449,3722.62,1.2984505291767392
450,3725.31,1.5692099973757667
451,3728.0,1.6436104655747945
452,3730.69,1.6548819337738223
453,3733.38,1.4600654019728503
454,3736.07,1.1194343701718779
455,3738.7599999999998,0.8015166383709058
456,3741.4500000000003,0.8986083065699335
457,3744.15,1.2159926311563183
458,3746.84,1.2667681993553461
459,3749.5299999999997,1.125512967554374
460,3752.22,1.1203627357534016
461,3754.9100000000003,1.1562352039524295
462,3757.6,0.9968111721514572
463,3760.29,0.9689586403504851
464,3762.98,1.0652801085495127
465,3765.67,1.1195593767485406
466,3768.36,1.0763911449475683
467,3771.05,0.9853452131465961
468,3773.74,1.229031381345624
469,3776.4300000000003,1.3505066495446516
470,3779.1200000000003,1.1106967177436793
471,3781.81,1.1738488859427072
472,3784.5099999999998,1.110434810529092
473,3787.2,1.2124940787281198
474,3789.8900000000003,1.0771176469271475
475,3792.58,1.0768593151261752
476,3795.27,1.084410683325203
477,3797.96,1.212545551524231
478,3800.6499999999996,0.9900260197232587
479,3801.8939600000003,1.0056617035838082
480,3803.34,1.0238895443744735
481,3806.03,1.1155897367612024
482,3808.72,1.1361891291479314
483,3811.41,1.1965421215346603
484,3814.1000000000004,1.2161003139213893
485,3816.79,0.9674280063081182
486,3819.48,1.066645198694847
487,3822.1699999999996,0.9762709910815761
488,3824.8700000000003,0.9691196005403746
489,3827.56,0.8923476929271035
490,3830.25,0.8973927853138324
491,3832.94,0.6524849777005615
492,3835.6299999999997,0.6043265700872904
493,3838.32,0.7264299624740191
494,3841.01,0.9857777548607483
495,3843.7,1.050349947247477
496,3846.39,1.234670839634206
497,3849.08,1.039017832020935
498,3851.77,1.1519343244076639
499,3854.46,1.169377516794393
500,3857.1499999999996,1.138107509181122
501,3859.84,1.0750565015678508
502,3862.53,1.0360745939545797
503,3865.23,1.3006668034133784
504,3867.92,1.252183195800107
505,3870.6099999999997,1.254538488186836
506,3873.3,1.056900880573565
507,3875.9900000000002,0.9530879729602939
508,3878.68,0.857756965347023
509,3881.37,0.9853922577337517
510,3884.06,0.9456836501204806
511,3886.75,0.9591133425072096
512,3889.44,1.0936583348939386
513,3892.1299999999997,0.9918843272806674
514,3894.82,1.0829986196673964
515,3897.51,1.1526583120541254
516,3900.2,1.0802249044408543
517,3902.9,1.1557904138996529
518,3905.5899999999997,1.3805583062863818
519,3908.28,1.2182379986731107
520,3910.97,1.1146962910598397
521,3913.66,1.2710427834465685
522,3916.35,1.2971632758332976
523,3919.04,1.2442001682200265
524,3921.73,1.2763622606067553
525,3924.42,1.1642949529934843
526,3927.1099999999997,1.2497363453802133
527,3929.8,0.9953915377669422
528,3932.4900000000002,0.837192330153671
529,3935.18,0.7117180225404001
530,3937.87,0.798005514927129
531,3940.5600000000004,1.039630207313858
532,3943.26,1.2652063167726564
533,3945.95,1.0512342091593854
534,3948.64,1.1457435015461144
535,3951.33,1.1562228939328434
536,3954.02,1.0655126863195723
537,3956.71,1.1230779787063012
538,3959.4,1.12840517109303
539,3962.0899999999997,1.017660963479759
540,3964.7799999999997,0.852086155866488
541,3967.4700000000003,0.6757838482532168
542,3970.16,0.8679251406399459
543,3972.85,0.9752880330266747
544,3975.54,1.2641722254134038
545,3978.23,1.1374939178001324
546,3980.92,0.9549544101868616
547,3983.62,1.19225661964566
548,3986.31,1.4378613120323889
549,3988.9999999999995,1.529604804419118
550,3991.69,1.472313296805847
551,3994.38,1.7043057891925757
552,3997.0699999999997,1.5178292815793046
553,3999.7599999999998,1.4835337739660337
554,4002.4500000000003,1.5687692663527626
555,4005.14,1.4678737587394917
556,4007.83,1.4010382511262205
557,4010.52,1.3736837435129494
558,4013.21,1.4829992358996784
559,4015.9,1.5792987282864073
560,4018.59,1.568974220673136
561,4021.2799999999997,1.548453713059865
562,4023.9799999999996,1.5781463225186638
563,4026.67,1.5869118149053925
564,4029.36,1.5603173072921215
565,4032.0499999999997,1.5496667996788505
566,4034.74,1.5418372920655794
567,4037.4300000000003,1.4736997844523083
568,4040.12,1.5464612768390373
569,4042.81,1.4542437692257661
570,4045.5,1.4822082616124952
571,4048.19,1.4324007539992243
572,4050.88,1.506464246385953
573,4053.57,1.499502738772682
574,4056.2599999999998,1.433859231159411
575,4058.9500000000003,1.4486987235461397
576,4061.6400000000003,1.4337102159328687
577,4064.34,1.3329168253916674
578,4067.0299999999997,1.3923373177783964
579,4069.72,1.371599810165125
580,4072.4100000000003,1.4952323025518541
581,4075.1,1.4444487949385831
582,4077.79,1.364163287325312
583,4080.48,1.4451687797120407
584,4083.17,1.5348512720987697
585,4085.86,1.4137807644854987
586,4088.55,1.3515002568722276
587,4091.24,1.4392307492589564
588,4093.9300000000003,1.2882662416456856
589,4096.62,1.2356714340324144
590,4099.3099999999995,1.1729458264191435
591,4102.01,1.351392835877942
592,4104.7,1.368618328264671
593,4107.39,1.2321246206513998
594,4110.08,1.2703173130381287
595,4112.77,1.4235518054248577
596,4115.46,1.3772152978115866
597,4118.15,1.4723217901983157
598,4120.84,1.6211192825850445
599,4123.530000000001,1.5824847749717734
