,lambda (Angstroms),Total Flux (erg/s/cm^2/Angstrom)
0,101.98,0.005384232485220946
1,104.11999999999999,0.006420183169867172
2,104.712855,0.006707184651328458
3,106.05,0.006167162506670529
4,108.02000000000001,0.005371578040377573
5,110.03,0.004559938837359387
6,113.9,0.00299715699896765
7,117.9,0.0013819385123438922
8,120.22644299999999,0.00044484730061231987
9,120.92999999999999,0.00043246958017626765
10,124.89,0.00035994106772033467
11,126.92,0.00032272462910024784
12,128.09,0.0003013598406246313
13,131.07,0.00024685931205425775
14,131.98,0.00023144582801766717
15,134.13,0.0001922352576564914
16,136.94,0.00014312517471932684
17,138.038426,0.000123306744721419
18,140.13,0.00012327804416867669
19,143.06,0.00014913937350954893
20,147.07,0.00021090439100337075
21,150.84,0.0002231099100187593
22,155.07,0.0002379367069511449
23,158.489319,0.00025303985569528903
24,159.04000000000002,0.0002552772205819071
25,162.0,0.0002678078444110808
26,166.16,0.0002888239914142437
27,170.03,0.00030851564115035924
28,173.19,0.0003253643355085311
29,176.80999999999997,0.0003491567220833988
30,180.10000000000002,0.00036737957728541953
31,181.970086,0.00037916061087660285
32,182.19,0.00038084080398692436
33,185.99999999999997,0.000413573106810245
34,191.20999999999998,0.0004569454030594577
35,193.87,0.0004871058005686527
36,197.93,0.0005240508915037398
37,202.08,0.0005663512541590628
38,204.89000000000001,0.0005986296045353177
39,208.929613,0.0006217270731787615
40,210.14000000000001,0.0006306515748002593
41,216.03,0.0007338350036672798
42,220.05,0.0007923150310094568
43,223.11,0.0008259475607773825
44,227.26,0.0008926296315410726
45,229.89,0.0013213518561455318
46,234.16,0.002210566451606003
47,239.88329199999998,0.0027930433564501422
48,240.17,0.0028211862105725926
49,245.76000000000002,0.002763138046306775
50,252.07,0.0030067424190228192
51,256.76,0.002603605583529673
52,259.73,0.0030344687985798557
53,263.95,0.0032367452792235497
54,268.86,0.0032942312744748616
55,273.85,0.0033533606627241586
56,275.42287,0.003367121364224588
57,278.95,0.003409885653873596
58,284.13,0.0034884634695075975
59,290.08,0.003421670406384491
60,296.15,0.0035568225050135243
61,300.96999999999997,0.0035571488353911083
62,307.98,0.0036898023677452304
63,316.227766,0.0038478872883069976
64,318.07,0.0038776343451630947
65,327.72999999999996,0.003952201323537859
66,337.69,0.003983545288818671
67,347.95,0.0039972942410055326
68,356.88,0.004030905217908911
69,363.078055,0.00407240651402072
70,366.03,0.004098882474691927
71,375.42,0.004117425860038569
72,385.04999999999995,0.004008905386224742
73,394.93,0.004164805017452093
74,405.06,0.0042215707537206215
75,413.54,0.004211231396717376
76,416.86938299999997,0.004196673995808805
77,422.2,0.004171241720311419
78,430.05,0.004148301768978925
79,441.08000000000004,0.0041733129507372175
80,451.36,0.004124415752049569
81,459.75,0.004084170634638153
82,470.46,0.004054587507406176
83,478.630092,0.004052118007814321
84,480.30999999999995,0.004049289109900702
85,490.36,0.003953543331978298
86,499.48,0.003963792542460654
87,506.43,0.0038890557258874497
88,512.29,0.0040242343150789645
89,519.4200000000001,0.003974341403975806
90,530.3,0.0038788570234986174
91,540.16,0.003736012178691165
92,549.5408739999999,0.0036673767530712607
93,550.2,0.003662902739259538
94,560.4300000000001,0.003717619778056499
95,569.53,0.003732043111688205
96,580.12,0.0036389573043431236
97,589.55,0.003620415445677957
98,600.51,0.0034831902409091097
99,610.27,0.003107682189947071
100,620.18,0.003478202869759181
101,630.26,0.0033838831777819934
102,630.957344,0.0033842188758817808
103,640.5,0.0033945289619650206
104,649.41,0.003330271089382342
105,658.4399999999999,0.003245759484508987
106,664.54,0.003284077259732967
107,675.3299999999999,0.0032660449145963675
108,684.73,0.003120951551826762
109,694.25,0.0031799384567664816
110,705.5400000000001,0.0030197650604187327
111,715.35,0.0031108036956559856
112,724.43596,0.0030766777256146967
113,725.3,0.0030733043994142155
114,735.39,0.0030484206795429697
115,745.62,0.002990807353053094
116,754.2600000000001,0.002946967916017656
117,764.75,0.0027026024629503245
118,775.39,0.0028747863599344614
119,784.3700000000001,0.0027840544496823515
120,795.28,0.002792236176759131
121,804.4900000000001,0.0027819902699192716
122,815.6800000000001,0.0027480737837587916
123,825.12,0.0027321168803311835
124,831.763771,0.002587491559789393
125,834.68,0.002522194891183312
126,844.3399999999999,0.002646565290740941
127,854.12,0.002602488502715434
128,864.0100000000001,0.0025870147927387205
129,874.02,0.0025659138951788715
130,884.1400000000001,0.0025394200756678155
131,894.37,0.002513138334205553
132,904.73,0.0024652351395282263
133,915.21,0.0028252687572677656
134,925.8,0.005959352453056097
135,934.3700000000001,0.009941025806493869
136,945.19,0.015681510392747858
137,953.94,0.020397397964810927
138,954.992586,0.020618108348746493
139,964.98,0.022715895598364594
140,973.9100000000001,0.006795004519390667
141,985.1899999999999,0.019706222998581498
142,994.3000000000001,0.020255468783637213
143,1005.82,0.027599882081534233
144,1015.12,0.026727105056399015
145,1024.52,0.012964251289058041
146,1034.0,0.020067082127952465
147,1045.97,0.034477915085923586
148,1055.65,0.0337716724404065
149,1065.42,0.027469423726904228
150,1075.27,0.03188835961963735
151,1085.22,0.025583318770164728
152,1095.26,0.033231721852706925
153,1096.4782,0.03307006843552722
154,1105.4,0.03188487705132027
155,1115.6299999999999,0.030732028328645057
156,1125.95,0.027778780614274752
157,1133.75,0.03430964466736697
158,1144.24,0.03144022107979482
159,1154.83,0.03306670639033925
160,1165.52,0.033832160599000245
161,1176.3,0.024029455815966147
162,1184.46,0.032682743902278
163,1195.4199999999998,0.02358804113585372
164,1203.7,0.017828303899905452
165,1214.84,0.012048763150090996
166,1226.08,0.022993951298393104
167,1234.58,0.03304972763830129
168,1246.0,0.03598041780321322
169,1254.6399999999999,0.03452080460048459
170,1258.92541,0.032904142009372785
171,1266.2499999999998,0.030142610237660947
172,1275.03,0.0378436320222284
173,1283.86,0.03944324455727744
174,1295.74,0.031779832871703564
175,1304.73,0.0314163078082937
176,1313.77,0.038458623495365434
177,1325.9299999999998,0.03681485601248846
178,1335.12,0.032894023951004964
179,1344.3700000000001,0.03845881279009938
180,1353.6899999999998,0.037326762679868015
181,1366.22,0.033582160750554826
182,1375.69,0.03499992289176824
183,1385.22,0.03524253593355956
184,1394.82,0.030493380026025117
185,1404.49,0.0314182351691649
186,1414.23,0.032669651362978905
187,1424.03,0.03327574845737082
188,1433.8999999999999,0.03312378660243697
189,1440.5200000000002,0.034760965966199674
190,1445.43977,0.03511786739906837
191,1447.17,0.03524338160658724
192,1453.85,0.03420616575741921
193,1463.93,0.031708942739512934
194,1474.0700000000002,0.03156387047745247
195,1484.29,0.03207583922318639
196,1494.5800000000002,0.0325211888507404
197,1504.9399999999998,0.03077589936011452
198,1511.8899999999999,0.02762684691225256
199,1515.3700000000001,0.02939416075130873
200,1525.87,0.028529683024323037
201,1536.45,0.024914666305131734
202,1543.54,0.02687611562090996
203,1554.24,0.025493110413410257
204,1565.02,0.026085206213704942
205,1575.8600000000001,0.027691632769845424
206,1586.79,0.0288602004597546
207,1594.11,0.029463112672941716
208,1605.1599999999999,0.028794511874542482
209,1616.29,0.028794362083937645
210,1623.75,0.02731241606076495
211,1635.0,0.028927177781851707
212,1646.34,0.029261420636707156
213,1653.94,0.027188166377174652
214,1659.58691,0.0283095187109005
215,1665.3999999999999,0.02946433229866314
216,1673.0900000000001,0.02638898975307265
217,1676.95,0.029736774860227487
218,1684.69,0.030780016914470607
219,1696.3600000000001,0.028930880515635624
220,1704.1899999999998,0.027887550849579248
221,1716.01,0.026575928250245098
222,1723.9299999999998,0.026393866863889223
223,1735.8799999999999,0.028083526224122465
224,1743.8899999999999,0.02738330311746709
225,1755.98,0.02913653535723445
226,1764.0800000000002,0.026764270530279573
227,1776.3100000000002,0.027386255649581043
228,1784.51,0.027894790022293395
229,1796.8799999999999,0.02974816802112898
230,1805.17,0.029409350673541827
231,1813.5100000000002,0.027264067925788293
232,1826.08,0.027771104323958323
233,1834.51,0.026770439855905288
234,1842.9699999999998,0.02447943814775242
235,1855.75,0.02482015386522362
236,1864.3100000000002,0.025690071356737978
237,1872.9199999999998,0.027521413448085945
238,1885.9,0.025515177564891595
239,1894.61,0.02482365885590679
240,1903.3500000000001,0.026049752906822148
241,1905.46072,0.025927472518032114
242,1916.54,0.025283283252565663
243,1925.3899999999999,0.02453938377766913
244,1934.28,0.02465066955938323
245,1943.21,0.02658872059770797
246,1956.68,0.025105043261340023
247,1965.71,0.027580652441191355
248,1974.78,0.027897686877653323
249,1983.9,0.02701412538487859
250,1993.0500000000002,0.026400190334561834
251,2006.8700000000001,0.02688778149353696
252,2016.1299999999999,0.026276433398899457
253,2025.44,0.026640169375025252
254,2034.79,0.02627412060776168
255,2044.1799999999998,0.027571397097108746
256,2053.6099999999997,0.02615185884306645
257,2063.09,0.026210764659787448
258,2072.62,0.028273484547271747
259,2077.39,0.032006398898090226
260,2086.98,0.03532922167049048
261,2096.62,0.03312645851365403
262,2106.29,0.032822471799275554
263,2116.02,0.03444329796981303
264,2125.7799999999997,0.03319878058280849
265,2135.6,0.031129236080719908
266,2145.4500000000003,0.0348380980210893
267,2155.36,0.03548297284637465
268,2165.3,0.032815424114117975
269,2175.3,0.032889008266777264
270,2185.34,0.03613889767604718
271,2187.7616199999998,0.03627923727031059
272,2195.43,0.03672527552907056
273,2205.56,0.035726343287357895
274,2215.74,0.03105447577298129
275,2225.97,0.032740402985940754
276,2236.24,0.03890106398076908
277,2246.56,0.03706904970293346
278,2256.93,0.031853430152433915
279,2267.35,0.031130865329270438
280,2272.58,0.03304700980862313
281,2283.07,0.03899519160373015
282,2293.61,0.03428554812617323
283,2304.19,0.03827028843048517
284,2314.83,0.03410403440760039
285,2325.51,0.027345544166584464
286,2336.25,0.02790635959837182
287,2347.0299999999997,0.02359236881202803
288,2352.44,0.032308450309790564
289,2363.3,0.024462037087184484
290,2374.21,0.02768092859191447
291,2385.17,0.021895194823980522
292,2396.18,0.024605305783382648
293,2407.24,0.024038601470120834
294,2412.79,0.026103936204424357
295,2423.92,0.03525334850943304
296,2435.11,0.03499842648724501
297,2446.35,0.03987980919239304
298,2457.6400000000003,0.04135790662487714
299,2463.31,0.03711707270478723
300,2474.68,0.03400228770100904
301,2486.1,0.026586557424566917
302,2497.58,0.028535542820928076
303,2503.34,0.03872157741004308
304,2511.88643,0.027795519409005185
305,2514.8900000000003,0.023955255540133974
306,2520.69,0.02220463330612563
307,2526.5,0.02255885070619658
308,2532.32,0.02889583774034683
309,2544.0099999999998,0.029758429979043804
310,2555.75,0.04539068038813726
311,2567.55,0.036390848601706494
312,2573.47,0.044026261976649696
313,2585.3500000000004,0.04014267726285329
314,2597.28,0.03710991071945337
315,2603.2699999999995,0.03330493153295165
316,2615.2799999999997,0.031145862062186096
317,2627.36,0.03872242002997561
318,2633.41,0.059501098647949675
319,2645.5699999999997,0.07730087368837354
320,2657.78,0.10372556689919392
321,2663.91,0.06822663258980236
322,2676.2000000000003,0.07703650287325708
323,2682.37,0.08760549710018269
324,2694.75,0.06629504409035107
325,2707.19,0.08020114888499524
326,2713.43,0.06028789055047593
327,2725.96,0.049905882051833765
328,2732.2400000000002,0.061364262253631625
329,2744.85,0.03793808082762383
330,2757.52,0.04826933720609181
331,2763.88,0.060871164480524036
332,2776.6400000000003,0.06473972756570569
333,2783.04,0.0424961733764551
334,2795.88,0.023756863534271106
335,2802.33,0.027258287515417
336,2815.2599999999998,0.058292594379946674
337,2821.75,0.08190984689740975
338,2834.78,0.07783004010273238
339,2847.8599999999997,0.0588948614784515
340,2854.43,0.03804368106854894
341,2867.6000000000004,0.07917994915098173
342,2874.21,0.10409214727739634
343,2884.0315,0.09695641262876871
344,2887.48,0.09445105530591603
345,2894.14,0.11403628031847536
346,2907.49,0.15197197032112805
347,2927.65,0.13319545522401033
348,2947.94,0.12392964002954014
349,2968.38,0.1302694247227402
350,2988.9500000000003,0.13228110931858783
351,3009.67,0.13340439380210573
352,3030.53,0.14217467818078253
353,3051.54,0.14806926244712956
354,3072.69,0.16074094660863553
355,3086.87,0.15772783598973028
356,3108.27,0.18177181996402
357,3129.8199999999997,0.16911790382597996
358,3151.51,0.16898788758309885
359,3173.36,0.18555977122039932
360,3188.01,0.16116716024952754
361,3210.1000000000004,0.17860214370710042
362,3232.35,0.15085692704485493
363,3247.27,0.21050191587178962
364,3269.7799999999997,0.2454047990148392
365,3292.4500000000003,0.2407199820380704
366,3307.64,0.22608937066281157
367,3311.31121,0.22325650167715977
368,3322.91,0.21430620187209715
369,3330.5699999999997,0.23491109221603046
370,3338.25,0.2022107822736555
371,3345.95,0.23423117204497226
372,3353.66,0.21064016167313493
373,3361.3900000000003,0.21057825101498928
374,3369.14,0.2134437400705354
375,3376.9100000000003,0.20519582883977322
376,3384.69,0.19546001746585692
377,3392.4900000000002,0.23653850580563238
378,3400.3100000000004,0.25630719385909956
379,3408.1499999999996,0.2299540816262584
380,3416.0099999999998,0.20918456910710906
381,3423.88,0.2656859564448055
382,3431.7799999999997,0.2542417433530396
383,3439.69,0.24895593011811962
384,3447.6200000000003,0.1807324165968913
385,3455.56,0.23007640293250886
386,3463.53,0.193090188838664
387,3471.5099999999998,0.24022107460166503
388,3479.52,0.18514725993520365
389,3487.54,0.21645464512558815
390,3495.58,0.20428903002966436
391,3503.64,0.26246081464743226
392,3511.71,0.2517334991220461
393,3519.81,0.24763938316719752
394,3527.92,0.1878119670691948
395,3536.05,0.24465265068488382
396,3544.21,0.2706464338711104
397,3552.38,0.2768645169141829
398,3560.57,0.2583067996709471
399,3568.77,0.2023197822845572
400,3577.0,0.21374546446870485
401,3585.25,0.16360954636654426
402,3593.5099999999998,0.21959782812122952
403,3601.8,0.2893694094464524
404,3610.1,0.22769569062852113
405,3618.42,0.2680337715242816
406,3626.4,0.3750011572872826
407,3629.1400000000003,0.25427461806304985
408,3631.88,0.17884987883881712
409,3634.62,0.2558683396145844
410,3637.36,0.32953410039035164
411,3640.1099999999997,0.3412714610229648
412,3642.8500000000004,0.37113302179873203
413,3645.59,0.3095377825744994
414,3648.3300000000004,0.1779346433502666
415,3651.07,0.2019440041260339
416,3653.81,0.41987496490180115
417,3656.55,0.3596382256775684
418,3659.29,0.5220437864533357
419,3662.03,0.47330224722910297
420,3664.77,0.4006905080048702
421,3667.5099999999998,0.2623553687806375
422,3670.25,0.31342242955640476
423,3672.99,0.352419390332172
424,3675.73,0.3488489511079393
425,3678.47,0.45804561188370657
426,3681.2200000000003,0.3877132725163197
427,3683.96,0.351398933292087
428,3686.7,0.3176882940678542
429,3689.44,0.1733968548436215
430,3692.18,0.12335771561938877
431,3694.92,0.297615376395156
432,3697.66,0.2192560371709233
433,3700.3999999999996,0.20161259794669056
434,3703.14,0.3222868587224578
435,3705.8799999999997,0.3359767194982251
436,3708.6200000000003,0.2268064802739924
437,3711.36,0.16234584104975963
438,3714.1000000000004,0.27375430182552696
439,3716.84,0.31585156260129416
440,3719.58,0.3278171233770614
441,3722.32,0.35622458415282876
442,3725.0699999999997,0.36383394478544184
443,3727.81,0.43395500556120914
444,3730.55,0.4411918663369764
445,3733.2900000000004,0.22117992711274367
446,3736.03,0.10407638788851092
447,3738.77,0.19784114866427818
448,3741.51,0.18008450944004548
449,3744.25,0.27230787021581276
450,3746.9900000000002,0.24938703099158
451,3749.73,0.14346509176734726
452,3752.47,0.2019952525431145
453,3755.21,0.1349395133188818
454,3757.95,0.22975817409464908
455,3760.69,0.24249883487041632
456,3763.43,0.1181406956461836
457,3766.1699999999996,0.13757815642195087
458,3768.92,0.183863217054564
459,3771.66,0.37299487783033125
460,3774.4,0.30593063860609854
461,3777.14,0.2100062993818658
462,3779.88,0.29928616015763304
463,3782.62,0.29418292093340037
464,3785.3599999999997,0.3467912817091676
465,3788.1,0.34467514248493486
466,3790.8399999999997,0.42453260326070213
467,3793.58,0.3362715640364694
468,3796.32,0.2538888248122367
469,3799.0600000000004,0.40192548558800395
470,3801.8,0.35753804636377123
471,3801.8939600000003,0.35040280149021574
472,3804.54,0.1494647150321118
473,3807.28,0.19269398398071508
474,3810.02,0.3219725529293183
475,3812.77,0.3882254217645953
476,3815.5099999999998,0.30518969071319857
477,3818.2500000000005,0.3463811596618018
478,3820.9900000000002,0.41651092861040506
479,3823.73,0.4286507975590083
480,3826.4700000000003,0.3567619665076115
481,3829.21,0.16698573545621478
482,3831.9500000000003,0.22467980440481802
483,3834.69,0.22570747335342128
484,3837.43,0.07833368230202452
485,3840.17,0.14315921125062778
486,3842.91,0.26267538019923103
487,3845.65,0.3494561491478343
488,3848.39,0.1816162180964375
489,3851.1299999999997,0.22673528704504076
490,3853.88,0.31777295588031773
491,3856.62,0.34117282482892103
492,3859.36,0.23114949377752422
493,3862.1,0.16147266272612748
494,3864.84,0.3179474316747307
495,3867.58,0.45072650062333397
496,3870.3199999999997,0.25714456957193726
497,3873.06,0.19108173852054047
498,3875.7999999999997,0.16117660746914372
499,3878.54,0.24045917641774697
500,3881.2799999999997,0.20612144536635021
501,3884.0200000000004,0.3081421143149535
502,3886.76,0.29031578326355667
503,3889.5,0.29993015221215996
504,3892.2400000000002,0.2221889211607632
505,3894.98,0.28331429010936643
506,3897.73,0.14870535894464343
507,3900.47,0.29541782789324667
508,3903.2099999999996,0.36442419684184996
509,3905.9500000000003,0.37287156579045316
510,3908.69,0.2958447347390564
511,3911.4300000000003,0.23970960368765967
512,3914.17,0.3500903726362629
513,3916.9100000000003,0.37010264158486617
514,3919.65,0.3917260105334694
515,3922.39,0.30831567948207267
516,3925.13,0.3192275484306759
517,3927.87,0.35708371737927913
518,3930.61,0.3367318863278824
519,3933.35,0.41241795527648567
520,3936.0899999999997,0.3456496242250889
521,3938.83,0.36526129317369216
522,3941.58,0.14297466200896913
523,3944.32,0.24606613095757238
524,3947.06,0.25010699990617563
525,3949.8,0.19353646885477888
526,3952.54,0.3680989378033821
527,3955.2799999999997,0.21224240675198536
528,3958.02,0.2698755757005886
529,3960.7599999999998,0.31770294464919185
530,3963.5,0.36478131359779514
531,3966.24,0.3676203825463984
532,3968.9799999999996,0.4150297514950016
533,3971.7200000000003,0.33468482044360487
534,3974.46,0.1502552893922081
535,3977.2000000000003,0.14798235834081136
536,3979.94,0.1342489272894146
537,3982.69,0.1544781961246916
538,3985.43,0.3078787650732948
539,3988.1699999999996,0.30562333402189806
540,3990.91,0.38880720297050136
541,3993.65,0.42613207191910457
542,3996.3900000000003,0.3907841408677078
543,3999.13,0.5081841098163111
544,4001.8700000000003,0.5743689787649143
545,4004.61,0.3974900477135176
546,4007.35,0.43582511666212076
547,4010.09,0.34505608561072404
548,4012.83,0.43227225455932733
549,4015.57,0.5655566235079306
550,4018.31,0.5374455924565338
551,4021.0499999999997,0.4737688614051371
552,4023.79,0.6532261303537403
553,4026.54,0.5147227991890173
554,4029.28,0.44836406813762053
555,4032.02,0.5295189370862238
556,4034.76,0.584313006034827
557,4037.5,0.4772244749834303
558,4040.24,0.6088018439320335
559,4042.98,0.5196614128806368
560,4045.72,0.51971378182924
561,4048.46,0.48730075077784324
562,4051.2,0.5653816197264464
563,4053.9399999999996,0.43402208867504977
564,4056.68,0.473663557623653
565,4059.42,0.5228146265722562
566,4062.1600000000003,0.4981695955208595
567,4064.9,0.49368486446946275
568,4067.6400000000003,0.5134098334180659
569,4070.39,0.5439831022533429
