,lambda (Angstroms),Total Flux (erg/s/cm^2/Angstrom)
0,102.00000000000001,0.028015020498362474
1,103.9,0.032792084384902706
2,104.712855,0.03483580031694711
3,106.07000000000001,0.03198873327744533
4,108.05,0.02783501888998887
5,110.05,0.02363934783852193
6,113.91999999999999,0.01552072438973646
7,117.92,0.007129382456042452
8,120.22644299999999,0.0022908464810298622
9,120.95,0.0022206113724882546
10,124.91,0.0018362157754604298
11,126.94,0.0016391646778643526
12,128.12,0.0015246227904360705
13,131.1,0.0012353563348578697
14,132.01,0.001147025228876077
15,133.85,0.0009684186479288246
16,136.96,0.0006665383747837937
17,138.038426,0.0005618576329468258
18,140.15,0.0005546229469504441
19,143.09,0.0005446142617783648
20,147.10000000000002,0.0005310833946115153
21,150.87,0.0005182494824444274
22,155.1,0.0005038666835861299
23,158.489319,0.0004923766335026402
24,159.07999999999998,0.0004892878037135493
25,162.02999999999997,0.00047388054184707517
26,166.19,0.0004521920787438437
27,170.06,0.00043205418151223197
28,172.82,0.0004177404114168189
29,176.85,0.00039684667890431353
30,180.14,0.0003798041098159408
31,181.8,0.0003712763690266705
32,181.970086,0.0003703994642203935
33,186.04,0.0003777534029514174
34,190.81,0.0003865364263644085
35,193.91,0.00039230326529528307
36,197.97,0.00039988959135958994
37,202.12,0.000407764704186406
38,204.93,0.000413208410326973
39,208.929613,0.0004207048478898429
40,210.19,0.0004339049621439726
41,216.07999999999998,0.0004966532657985341
42,220.09,0.0005393614686380576
43,223.15,0.0005718427060816839
44,226.78,0.0006109774373628484
45,229.94,0.0006520984996902533
46,234.21,0.0007136076642276011
47,239.88329199999998,0.0007866014204990321
48,240.22000000000003,0.0007846123843707303
49,245.80999999999997,0.0007406151023829424
50,252.11999999999998,0.0006981345735738288
51,256.81,0.0006531250776126967
52,259.78000000000003,0.0006414814607247302
53,264.0,0.0006149968160219636
54,268.91,0.0005806721343654265
55,273.90999999999997,0.0005454963131062246
56,275.42287,0.000534978097550135
57,279.0,0.0005728255337069132
58,284.19,0.000627903848949905
59,290.14000000000004,0.0006859102118970734
60,296.21000000000004,0.0007532207613238479
61,301.03000000000003,0.0008041358849213855
62,308.04,0.0008819501617717462
63,316.227766,0.0009741243606948997
64,318.13,0.0009657033526019098
65,327.79999999999995,0.0009219040059374665
66,337.76,0.0008749875009966329
67,348.02,0.0008257410254250514
68,356.95,0.0007845691929831194
69,363.078055,0.0007582282647703264
70,366.09999999999997,0.0007809177156932448
71,374.63000000000005,0.0008420739455105768
72,385.13,0.000906691428990293
73,395.01,0.000988567059540731
74,405.14,0.0010656720420787811
75,413.62,0.0011264510014985904
76,416.86938299999997,0.0011475516290180155
77,422.28000000000003,0.0011714855509532
78,430.14,0.0012094365051886064
79,441.17,0.0012683823959286232
80,451.45,0.0013152266979057196
81,459.84,0.0013536211002002562
82,469.47,0.0014004727319161551
83,478.630092,0.001446499614840091
84,480.4,0.0014426910756132959
85,490.46,0.0014074118706933303
86,499.58000000000004,0.0013960391463523673
87,506.53,0.0013677346782416558
88,512.4,0.001392790281434479
89,519.52,0.001377126681729692
90,530.4,0.0013436794597088942
91,540.26,0.0013021662272525462
92,549.5408739999999,0.0012928247816544414
93,550.31,0.001294162829910725
94,560.54,0.0013237179871920758
95,569.65,0.0013544119969509324
96,580.24,0.0013420189052216563
97,589.67,0.0013786699714155113
98,600.63,0.0013694106793142018
99,610.39,0.0013390354505816487
100,620.3100000000001,0.001452765600066595
101,630.38,0.0014701979791304463
102,630.957344,0.0014709827982903143
103,640.63,0.001514226362139264
104,649.54,0.0015877372449109813
105,658.58,0.0016410737342775726
106,664.67,0.00169796572014511
107,675.4699999999999,0.0017372227295653735
108,684.8700000000001,0.0017439850525793072
109,694.39,0.0019565067201423544
110,705.6800000000001,0.0019475569698048337
111,715.49,0.0021339816366949065
112,724.43596,0.0022038486839293606
113,725.4499999999999,0.0022109875149276498
114,735.54,0.00228036392911619
115,745.7700000000001,0.0024430886245719644
116,754.41,0.002560331411349862
117,764.9,0.002621431343444786
118,775.54,0.0028437077197546044
119,784.52,0.002985044046752929
120,795.44,0.003115406985597216
121,804.65,0.0032449510603917106
122,815.84,0.0033650503988228073
123,825.2900000000001,0.0036263423843611326
124,831.763771,0.00331441143286268
125,834.84,0.003156245043521301
126,844.51,0.0037908364824460585
127,854.2900000000001,0.003873936208680197
128,864.18,0.004118616222223719
129,874.1899999999999,0.004377542367377475
130,884.31,0.004723980799840612
131,894.5500000000001,0.004967879363913985
132,904.91,0.004915453059597592
133,915.39,0.007720131886891435
134,925.99,0.05522701584579551
135,934.56,0.12199871841162645
136,945.38,0.2422316459451493
137,954.13,0.3679972597083956
138,954.992586,0.3685973617346384
139,965.1700000000001,0.3756967845573856
140,974.0999999999999,0.05104683735821919
141,985.38,0.26246910721190375
142,994.5,0.3280312134765849
143,1006.02,0.5696375792846032
144,1015.3299999999999,0.5828840190131319
145,1024.72,0.26306153072643845
146,1034.2,0.36543521092262016
147,1046.18,0.8345500156431114
148,1055.86,0.8307030258012379
149,1065.63,0.5950539044422395
150,1075.49,0.7664224515661163
151,1085.44,0.5515598671728681
152,1095.48,0.8441940512624951
153,1096.4782,0.8415599697065063
154,1105.62,0.8174294819956924
155,1115.8500000000001,0.7628854695866186
156,1126.1699999999998,0.6721821585346497
157,1133.98,0.9624924985234213
158,1144.47,0.861803601145984
159,1155.06,0.9624685941653299
160,1165.75,0.996249577581459
161,1173.83,0.6272931216415454
162,1184.69,0.9848291187322061
163,1195.65,0.5827604062196501
164,1203.94,0.36868222011298124
165,1215.0800000000002,0.319676810314635
166,1226.32,0.6861487909130719
167,1234.82,1.159612174639648
168,1246.25,1.2980506469919733
169,1254.8899999999999,1.208647177274046
170,1258.92541,1.110073551370735
171,1263.59,0.9961363179865559
172,1275.28,1.423247029339564
173,1284.12,1.535572718506424
174,1296.0,1.0847136446718424
175,1304.99,1.0698073455327104
176,1314.03,1.500618050291581
177,1326.1899999999998,1.4265289982858138
178,1335.3799999999999,1.186594714738692
179,1344.64,1.578580436648774
180,1353.9599999999998,1.528527163236459
181,1366.49,1.3100521400759109
182,1375.96,1.426537878357604
183,1385.5,1.4497056220965003
184,1395.1,1.254003370513
185,1404.77,1.3130761243867033
186,1414.51,1.33135288371761
187,1424.31,1.4167246477261202
188,1434.1899999999998,1.4004934179714343
189,1440.81,1.5145099340669788
190,1445.43977,1.5490546450582239
191,1447.46,1.5641284271899025
192,1454.1399999999999,1.50408486426946
193,1464.22,1.3529585238146606
194,1474.3700000000001,1.3686211879400365
195,1484.5900000000001,1.429833856645587
196,1494.88,1.4800355299313128
197,1505.24,1.3781182077972134
198,1512.1899999999998,1.1811536625431602
199,1515.67,1.310066890243289
200,1526.18,1.2482495779238505
201,1536.76,1.043087270184587
202,1543.85,1.2254777340908838
203,1554.5500000000002,1.1516304342033488
204,1565.3300000000002,1.1649541395502994
205,1576.18,1.2627088494774252
206,1583.45,1.368652325161315
207,1594.43,1.4037450435944798
208,1605.48,1.38767776660782
209,1616.61,1.4134714948556455
210,1624.07,1.313090982971439
211,1635.3300000000002,1.436421719725304
212,1646.67,1.4698704617136547
213,1654.27,1.334414958989798
214,1659.58691,1.4115434425973212
215,1665.73,1.500659242238923
216,1673.4199999999998,1.2743949167582727
217,1677.28,1.5110527611854105
218,1685.0200000000002,1.6265814595963033
219,1696.6999999999998,1.511071040660803
220,1704.53,1.4397717820764737
221,1716.3500000000001,1.3375324300372944
222,1724.27,1.3406112144577431
223,1736.22,1.466549924536576
224,1744.24,1.433174756740111
225,1756.3300000000002,1.5750315337152656
226,1764.4299999999998,1.4070324041452695
227,1776.6599999999999,1.456469248016745
228,1784.8700000000001,1.5007081710081442
229,1793.1,1.6530641035561606
230,1805.53,1.645470042993809
231,1813.87,1.4835340281032205
232,1826.44,1.5356880344371902
233,1834.8700000000001,1.4598570625513794
234,1843.34,1.3222691097788035
235,1856.12,1.3192532164572544
236,1864.69,1.381411311467765
237,1873.29,1.5534734208132015
238,1886.28,1.407065627836134
239,1894.98,1.353089784964657
240,1903.7299999999998,1.453187965984723
241,1905.46072,1.4446138620670654
242,1916.93,1.3877817287105445
243,1925.77,1.3750622838955238
244,1934.66,1.4266598082840383
245,1943.5900000000001,1.5007433080353805
246,1957.07,1.3973780053084037
247,1966.1000000000001,1.582326443466816
248,1975.17,1.6379268569880563
249,1984.29,1.5356782397128315
250,1993.45,1.4869715978004345
251,2007.27,1.5498620856574952
252,2016.53,1.4733163821521684
253,2025.84,1.5786546478503765
254,2035.19,1.4767178889114123
255,2044.59,1.5677740991759834
256,2054.02,1.4903432909626755
257,2063.5,1.4903384519529022
258,2073.0299999999997,1.630325582146664
259,2077.81,1.5391516380046053
260,2087.4,1.6191027312426092
261,2097.03,1.518018799843441
262,2106.71,1.5250358376478075
263,2116.44,1.549796844655709
264,2126.21,1.5822198270264387
265,2136.02,1.4397217847599961
266,2145.88,1.5040827116970887
267,2155.79,1.582205607837716
268,2165.74,1.5249864793411716
269,2175.73,1.510999326207455
270,2185.7799999999997,1.4834151361179804
271,2187.7616199999998,1.5006903785980155
272,2195.86,1.57129889249879
273,2206.0,1.521477872007645
274,2216.1800000000003,1.4298098711595328
275,2226.41,1.378279894865212
276,2236.69,1.5057859431246823
277,2247.01,1.4295830110271854
278,2257.38,1.35099010348348
279,2262.5899999999997,1.4023696619885229
280,2273.03,1.4531227888201246
281,2283.52,1.509172940205518
282,2294.06,1.4196831161447026
283,2304.65,1.4178643166376783
284,2315.29,1.3307215416844451
285,2325.98,0.9695706912850032
286,2336.71,1.2133930605285943
287,2347.5,1.1788463592367349
288,2352.91,1.3051740159569425
289,2363.77,1.1725703490403903
290,2374.6800000000003,1.2234497066776298
291,2385.64,1.1221750888686604
292,2396.66,1.2260325005242403
293,2407.7200000000003,1.1667189318228532
294,2413.27,1.2111406572936763
295,2424.41,1.3111301278783551
296,2435.6,1.2563676230168253
297,2446.84,1.3507361427090865
298,2452.48,1.3329289123767334
299,2463.7999999999997,1.3251854713550608
300,2475.17,1.269867054887179
301,2486.6,1.3128696678838467
302,2492.33,1.237268481748318
303,2503.8300000000004,1.4058021291202936
304,2511.88643,1.2764369639443547
305,2515.3900000000003,1.220176419552327
306,2527.0,1.1992202129641676
307,2532.83,1.230642104918606
308,2544.52,1.2039678831257048
309,2556.26,1.3245956518298398
310,2562.16,1.2773925304801295
311,2573.98,1.3765532839795227
312,2585.8599999999997,1.3560700260753598
313,2597.8,1.3328127567676402
314,2603.7900000000004,1.279437618312595
315,2615.81,1.263302333800134
316,2627.88,1.342729039784709
317,2633.94,1.4100168880255146
318,2646.1,1.562093576904755
319,2652.2000000000003,1.6178794175431899
320,2664.44,1.4172980912176885
321,2676.7400000000002,1.5133817534886307
322,2682.91,1.5072925808229165
323,2695.29,1.4312042278891168
324,2707.73,1.493476863551761
325,2713.97,1.3978476775818975
326,2726.5,1.396234296139207
327,2732.79,1.48664510066638
328,2745.4,1.2466157040189474
329,2758.07,1.2859872959679588
330,2764.43,1.3504740871909826
331,2777.19,1.4288496620346594
332,2783.59,1.3373904456553123
333,2796.44,1.0490630033936545
334,2802.8900000000003,1.1430037775113437
335,2815.82,1.4240753200449439
336,2822.31,1.5303270865602623
337,2835.34,1.4665786100879352
338,2841.88,1.42418436710029
339,2854.9999999999995,1.3586168735226283
340,2868.17,1.547416370442003
341,2874.79,1.562663112249616
342,2884.0315,1.549028400952591
343,2888.0499999999997,1.5431003401864636
344,2894.7099999999996,1.5369423142816887
345,2908.0699999999997,1.7146532623165545
346,2928.23,1.6404781839021005
347,2948.5299999999997,1.6172311049431016
348,2968.9700000000003,1.669468025439558
349,2989.55,1.6802929453914697
350,3010.27,1.7186918647988365
351,3031.14,1.7258997836227623
352,3052.15,1.7291667019021435
353,3073.2999999999997,1.7484606196369796
354,3087.49,1.7709745644434725
355,3108.8900000000003,1.7784524812059073
356,3130.44,1.757430397384901
357,3152.14,1.7730463129804541
358,3166.6899999999996,1.783522256386689
359,3188.64,1.6831921710098405
360,3210.7400000000002,1.7700200850495513
361,3232.9999999999995,1.6704689984669252
362,3247.92,1.8088629404340058
363,3270.44,1.8934938528400818
364,3293.1,1.8799057647016133
365,3308.3,1.8824127055796045
366,3311.31121,1.8778119275936245
367,3323.58,1.8590657816301321
368,3331.24,1.894906212076344
369,3338.92,1.7778146410354705
370,3346.6099999999997,1.915007069251054
371,3354.33,1.8427434952360089
372,3362.06,1.7529369204774212
373,3369.81,1.849513344231748
374,3377.58,1.804486766498989
375,3385.36,1.8520281880226872
376,3393.1699999999996,1.9450706073157569
377,3400.99,2.0712220258652843
378,3408.83,1.8772914429277252
379,3416.69,1.8829138585030814
380,3424.57,1.9958082725913515
381,3432.46,2.062594685936079
382,3440.37,1.9802470977937205
383,3448.3,1.8281945081642768
384,3456.25,1.8634749170477474
385,3464.2200000000003,1.7767553244441323
386,3472.21,1.9584847303534316
387,3480.21,1.8206341355191882
388,3488.23,1.9077685391978592
389,3496.2700000000004,1.8828919413894445
390,3504.33,1.9684553420939441
391,3512.4100000000003,1.9029627413113581
392,3520.51,2.0124741390416867
393,3528.6299999999997,1.8073505352849297
394,3536.7599999999998,1.98764893078463
395,3544.91,2.068409324797244
396,3553.08,2.089025717322773
397,3560.4799999999996,2.180780167101098
398,3563.1400000000003,2.363095969318712
399,3565.8,2.242908771536326
400,3568.46,2.05206657375394
401,3571.12,2.2854003759715544
402,3573.7799999999997,2.351085178189168
403,3576.44,2.177102980406782
404,3579.1,1.8045777826243963
405,3581.7599999999998,1.5971675848420104
406,3584.4199999999996,1.8427813870596244
407,3587.09,1.6007891885336956
408,3589.75,1.9179819907513098
409,3592.41,1.9328197929689237
410,3595.07,2.038656595186538
411,3597.73,2.102320397404152
412,3600.39,1.9942181996217658
413,3603.0499999999997,2.0711830018393798
414,3605.7099999999996,1.7510908040569941
415,3608.3700000000003,1.764978606274608
416,3611.03,1.873665408492222
417,3613.69,1.7894642107098362
418,3616.35,2.1508790129274504
419,3619.0099999999998,1.8622398151450643
420,3621.67,1.6396026173626783
421,3624.33,1.7520664195802924
422,3626.99,2.0447992217979065
423,3629.6499999999996,1.9453700240155205
424,3632.3100000000004,2.0294258262331346
425,3634.9700000000003,1.9052676284507486
426,3637.63,1.8772244306683628
427,3640.29,2.163501232885977
428,3642.95,1.9730970351035906
429,3645.61,1.9064368373212048
430,3648.27,1.9641806395388188
431,3650.93,2.046628441756433
432,3653.5899999999997,2.1014222439740466
433,3656.25,2.284055046191661
434,3658.9100000000003,2.025529848409275
435,3661.57,2.0821516506268893
436,3664.2400000000002,2.1485074521009606
437,3666.9,1.8691272543185744
438,3669.56,2.0462770565361885
439,3672.22,2.1867108587538024
440,3674.8799999999997,2.1189056609714165
441,3677.5400000000004,2.1876364631890306
442,3680.2000000000003,2.106992265406645
443,3682.86,2.112401067624259
444,3685.52,2.304876869841873
445,3688.18,2.446016672059487
446,3690.84,2.2098574742771007
447,3693.5,2.1556972764947147
448,3696.16,1.988025078712329
449,3698.8199999999997,2.009196880929943
450,3701.4799999999996,1.7381246831475572
451,3704.1400000000003,1.753742485365171
452,3706.8,2.036948287582785
453,3709.46,1.8478110898003992
454,3712.12,2.2636058920180133
455,3714.7799999999997,2.3161106942356273
456,3717.44,3.3730674964532414
457,3720.1,4.299385298670856
458,3722.7599999999998,5.68666910088847
459,3725.4199999999996,6.0348299031060835
460,3728.08,5.213521705323698
461,3730.7400000000002,4.052093507541311
462,3733.4,3.1513573097589256
463,3736.06,2.65993711197654
464,3738.72,2.3851119141941535
465,3741.39,2.163363715668225
466,3744.0499999999997,2.141947517885839
467,3746.7099999999996,2.164850320103453
468,3749.3700000000003,2.3548641223210676
469,3752.03,2.4486899245386815
470,3754.69,2.2414997267562953
471,3757.35,2.2610395289739094
472,3760.0099999999998,2.5227563311915233
473,3762.67,2.4391891334091373
474,3765.33,2.424472935626752
475,3767.99,2.5385937378443657
476,3770.6499999999996,2.4896235400619795
477,3773.3100000000004,2.6202133422795937
478,3775.9700000000003,2.696716144497208
479,3778.63,2.6065709467148217
480,3781.29,2.801481748932436
481,3783.95,2.94133155115005
482,3786.61,2.744471353367664
483,3789.27,2.3577181555852778
484,3791.93,2.083770957802892
485,3794.5899999999997,2.264599760020506
486,3797.25,2.3101365622381205
487,3799.9100000000003,2.1673153644557344
488,3801.8939600000003,2.416614707932314
489,3802.57,2.501564177146965
490,3805.23,2.890413020574895
491,3807.89,2.721571864002824
492,3810.5499999999997,2.8733587074307536
493,3813.21,2.8548425508586828
494,3815.87,2.8275553942866125
495,3818.5400000000004,2.858239237125925
496,3821.2000000000003,2.7088900805538545
497,3823.86,2.316558923981784
498,3826.52,2.142527767409713
499,3829.18,2.0275066108376425
500,3831.84,1.770224454265572
501,3834.5,1.8354702976935013
502,3837.16,2.2034391411214305
503,3839.8199999999997,2.2680279845493603
504,3842.4799999999996,2.45136582797729
505,3845.1400000000003,3.033419671405219
506,3847.8,2.9201275148331485
507,3850.46,3.0088133582610777
508,3853.12,3.0731342016890073
509,3855.7799999999997,3.2721880451169367
510,3858.44,3.133069888544866
511,3861.1,3.1574337319727954
512,3863.7599999999998,3.1898385754007244
513,3866.42,3.3718384188286543
514,3869.08,3.1898392622565837
515,3871.7400000000002,2.958382105684513
516,3874.4,2.7232709491124423
517,3877.06,2.6282517925403717
518,3879.72,2.542491635968301
519,3882.38,2.42841947939623
520,3885.04,2.2374303228241597
521,3887.7,2.2017131662520892
522,3890.36,2.5220260096800184
523,3893.03,2.7410448525193316
524,3895.69,2.8989236959472606
525,3898.35,3.03877153937519
526,3901.0099999999998,3.1479223828031193
527,3903.67,3.145243226231049
528,3906.33,2.9681180696589786
529,3908.99,3.1549889130869078
530,3911.6499999999996,3.3343077565148374
531,3914.31,3.1413455999427664
532,3916.9700000000003,2.9661704433706957
533,3919.63,2.873344286798625
534,3922.29,2.9985751302265546
535,3924.95,2.8604319736544843
536,3927.61,2.5285958170824134
537,3930.27,2.4494136605103427
538,3932.93,2.383144503938272
539,3935.59,2.2768203473662014
540,3938.25,2.467200190794131
541,3940.9100000000003,2.9513120342220605
542,3943.57,3.13452887764999
543,3946.23,3.181063721077919
544,3948.89,3.2127375645058485
545,3951.5499999999997,3.143300407933778
546,3954.21,3.0763002513617073
547,3956.87,2.746656094789637
548,3959.53,2.6584589382175663
549,3962.19,2.625568781645496
550,3964.85,2.3794686250734247
551,3967.51,2.2226134685013545
552,3970.18,2.191417311340667
553,3972.84,2.3823081547685963
554,3975.5,2.844343998196526
555,3978.16,2.899406841624455
556,3980.8199999999997,2.898919685052385
557,3983.48,3.132569528480314
558,3986.1400000000003,3.3369833719082433
559,3988.8,3.3879042153361727
560,3991.46,3.335279058764102
561,3994.12,3.4283489021920315
562,3996.7799999999997,3.536768745619961
563,3999.44,3.4073965890478903
564,4002.1,3.4463794324758195
565,4004.7599999999998,3.269011275903749
566,4007.42,3.363544119331679
567,4010.08,3.684172962759608
568,4012.7400000000002,3.5947578061875376
569,4015.4,3.4658736496154665
570,4018.06,3.411785493043396
571,4020.72,3.5798973364713254
572,4023.3799999999997,3.565279179899255
573,4026.04,3.3179850233271844
574,4028.7000000000003,3.4476018667551136
575,4031.36,3.354775710183043
576,4034.02,3.4783015536109723
577,4036.6800000000003,3.429818397038902
578,4039.34,3.5789262404668314
579,4042.0,3.4963330838947604
580,4044.67,3.6595539267340733
581,4047.33,3.4707337701620027
582,4049.99,3.531643613589932
583,4052.6499999999996,3.4137234570178614
584,4055.31,3.424931300445791
585,4057.9700000000003,3.44320414387372
586,4060.63,3.3952079873016494
587,4063.29,3.383026830729579
