,lambda (Angstroms),Total Flux (erg/s/cm^2/Angstrom)
0,102.05000000000001,0.01645128740119781
1,103.95,0.019243995453793586
2,104.712855,0.02036527508740361
3,105.88,0.018933875966014008
4,108.10000000000001,0.01621124420620759
5,110.11,0.01374615871032549
6,113.98,0.008999949332119565
7,117.97999999999999,0.004094306600646412
8,120.22644299999999,0.0013392455103440185
9,121.01,0.001294780479555753
10,124.97,0.0010700592218538156
11,127.0,0.0009548612424311884
12,127.88000000000001,0.0009049232982972017
13,130.86,0.0007358151177195666
14,132.07,0.0006671508835993367
15,133.91,0.000562735333807911
16,137.03,0.00038568394197523257
17,138.038426,0.00032845845375558194
18,139.9,0.00032472864279327313
19,143.16,0.0003182140662909413
20,147.17,0.0003102338735586375
21,150.94,0.0003027013934132047
22,155.17,0.00029425375359960244
23,158.489319,0.00028763399733811387
24,159.14999999999998,0.00028560602537591593
25,162.10999999999999,0.00027652441893920537
26,165.89,0.0002649406586274602
27,170.14000000000001,0.00025191397522880487
28,172.91,0.00024344049704850488
29,176.93,0.00023114335523918858
30,179.81,0.00022234373216833508
31,181.89000000000001,0.00021599030045605204
32,181.970086,0.00021574583531199445
33,186.13000000000002,0.00021997992838512136
34,190.9,0.00022487230319901747
35,194.0,0.00022806589213110923
36,198.07000000000002,0.00023226381792808146
37,202.21,0.00023656200999674592
38,205.03,0.00023951405194206818
39,208.929613,0.00024355440255886888
40,209.79999999999998,0.000248831558045466
41,216.17999999999998,0.0002877114340973948
42,220.20000000000002,0.0003122247921677326
43,222.75,0.00032779491906309577
44,226.89000000000001,0.0003530952946579212
45,230.04,0.00037400480517572285
46,233.78,0.0004000876986889225
47,239.78,0.0004396307449133069
48,239.88329199999998,0.0004402629081714944
49,245.93,0.00041090625540711386
50,252.24,0.0003820268178822723
51,256.93,0.0003575086864414632
52,259.9,0.00034578455862073763
53,264.13,0.0003268283138457646
54,269.04,0.0003040257018256423
55,274.04,0.00028070069502307375
56,275.42287,0.0002742707022812528
57,279.13,0.00029503104712335157
58,284.32,0.0003242336776591271
59,290.28000000000003,0.0003566015463283417
60,295.67,0.0003875719732624129
61,301.17,0.0004180217042155469
62,308.19,0.0004581229197957288
63,316.227766,0.0005042541461114268
64,318.28000000000003,0.0004972150995168321
65,327.95,0.0004636959317516136
66,337.92,0.0004287112027113622
67,348.19000000000005,0.00039254923239607814
68,357.12,0.0003616440811092736
69,363.078055,0.0003415676501278723
70,366.28000000000003,0.00035287892306451484
71,374.81,0.00038205906641510076
72,385.31,0.000415515358358964
73,395.2,0.00045204044464704094
74,405.33,0.00048793389086526325
75,413.82,0.0005167442008941584
76,416.86938299999997,0.0005267528642030981
77,421.51,0.000536367873542454
78,430.34000000000003,0.0005547937240501028
79,441.37999999999994,0.0005800487704718967
80,450.62,0.0005998633600857896
81,460.06,0.000618869512678338
82,469.68999999999994,0.0006397829951006093
83,478.630092,0.0006600720873895823
84,479.53000000000003,0.0006583388516543782
85,489.57,0.0006351312603969711
86,499.82,0.0006164168677387617
87,505.61,0.0006041027019737827
88,511.46,0.0006207509272371462
89,519.77,0.0006058139846625394
90,529.43,0.0005878324402256317
91,540.52,0.0005597465819642129
92,549.5408739999999,0.0005625953804785996
93,550.57,0.000564572604791757
94,559.52,0.0005814484765878523
95,569.92,0.0005958774555464435
96,580.51,0.0005856683444090859
97,589.9499999999999,0.0006163546206945764
98,599.53,0.0006197320411198938
99,610.68,0.000639474406541845
100,620.6,0.0006840819341638857
101,630.68,0.0007071075122314434
102,630.957344,0.0007072261437014015
103,639.46,0.0007263286767420182
104,649.85,0.0007905974144586805
105,657.37,0.0008344222153854658
106,664.99,0.0008729992391969159
107,674.24,0.0008932992560284007
108,685.1899999999999,0.000907153361899185
109,694.72,0.001075097062807731
110,704.39,0.0010666957557548076
111,715.8299999999999,0.001215927433760449
112,724.43596,0.001264104668671242
113,725.7900000000001,0.0012710753062237417
114,734.2,0.0013219124705354914
115,744.41,0.0014620726754847144
116,754.77,0.0015592249004870602
117,765.27,0.001642393304205654
118,774.13,0.0017838143286767723
119,784.9000000000001,0.001914953148490987
120,795.82,0.0020074520883583244
121,805.0300000000001,0.0021040800596200623
122,814.3499999999999,0.0021942853855874238
123,825.6800000000001,0.0024013179202666303
124,831.763771,0.002181493912413002
125,835.24,0.0020493199458251573
126,844.91,0.0025390399836776297
127,854.7,0.0026137435928374744
128,864.5899999999999,0.0028086186780867974
129,874.61,0.0030115163822524407
130,884.7299999999999,0.0032797295625075617
131,894.9799999999999,0.003470726361679003
132,905.34,0.00346439768454887
133,915.8199999999999,0.00545168757872611
134,924.3,0.039454115951113804
135,935.0,0.08805620689268788
136,945.83,0.1717344594531783
137,954.58,0.25209962611100756
138,954.992586,0.25291138206914204
139,965.63,0.2738519139804797
140,974.57,0.03959144374870746
141,985.85,0.21363427446298142
142,994.98,0.2440969053336659
143,1004.18,0.3884548218736766
144,1015.8100000000001,0.3866820409345814
145,1025.21,0.17053001652980967
146,1034.7,0.2597197736998859
147,1044.27,0.5410548144920491
148,1053.93,0.5348743368590604
149,1066.14,0.4058025371800963
150,1076.0,0.5026475186023251
151,1085.96,0.38223697955216274
152,1096.0,0.5448085241240874
153,1096.4782,0.5439370704438319
154,1106.15,0.5263073290310444
155,1113.81,0.5014657208953753
156,1124.12,0.44695781477543445
157,1134.52,0.6042201509881032
158,1145.02,0.5460261231258937
159,1155.61,0.5959197375962939
160,1166.31,0.618243181584328
161,1174.39,0.4076181043341706
162,1185.26,0.6083561393949118
163,1196.22,0.3919800167882627
164,1204.52,0.26628839857337333
165,1215.6599999999999,0.1997547606319435
166,1224.0900000000001,0.4209299591197125
167,1235.41,0.6747193058435018
168,1243.98,0.7500762146264414
169,1255.49,0.7097633396079622
170,1258.92541,0.6658708930377869
171,1264.19,0.5986115783123659
172,1275.89,0.8148793115520603
173,1284.73,0.8671480144442737
174,1293.64,0.6503132205268102
175,1305.6100000000001,0.644350666072036
176,1314.66,0.8532886785352184
177,1323.77,0.8148862937329633
178,1336.02,0.7032661520394811
179,1345.2800000000002,0.8812479740736323
180,1354.6,0.8552695988423461
181,1363.99,0.7500824268013828
182,1373.45,0.8037068579507426
183,1386.1599999999999,0.8167553372222397
184,1395.77,0.7065146752080057
185,1405.44,0.7414940159283344
186,1415.18,0.755272359838986
187,1424.9899999999998,0.7908682069399604
188,1434.8700000000001,0.7854309572312579
189,1441.49,0.8396653589446575
190,1445.43977,0.8524257869054876
191,1448.15,0.861181642629917
192,1454.83,0.8338775981499669
193,1464.92,0.7605066841076469
194,1475.07,0.7657894723604173
195,1485.29,0.789060263290793
196,1495.59,0.8111572572812891
197,1505.96,0.7622647539493904
198,1512.91,0.6654593197973464
199,1516.3999999999999,0.7263021532950971
200,1523.4,0.7000398210556283
201,1533.95,0.5986249246090005
202,1544.5900000000001,0.679399031605008
203,1555.29,0.6414189408961058
204,1566.07,0.651830053247324
205,1573.3,0.7032800298057014
206,1584.21,0.7483692471296151
207,1595.19,0.7675621671311342
208,1606.25,0.7570310901927736
209,1613.66,0.7657917736364217
210,1624.85,0.7196504016707568
211,1636.1100000000001,0.776439332382697
212,1643.66,0.7927046211815558
213,1655.06,0.7263033572487068
214,1659.58691,0.7583272943172358
215,1666.53,0.8074452699174102
216,1670.37,0.7048979425967399
217,1678.0800000000002,0.8130420963357068
218,1685.8300000000002,0.8612005612484165
219,1693.6100000000001,0.8037280345414336
220,1705.35,0.7693434140350094
221,1713.22,0.7246514124689483
222,1725.09,0.722984928277189
223,1733.06,0.7818547546454854
224,1745.07,0.7640645095618266
225,1753.12,0.826267258277609
226,1765.28,0.7501120550954866
227,1773.42,0.7729150289521908
228,1785.72,0.790901164878169
229,1793.96,0.8572804666692307
230,1806.3899999999999,0.8533533389098736
231,1814.73,0.778277468635293
232,1823.11,0.8019207095344553
233,1835.7499999999998,0.765836940437249
234,1844.22,0.7001044064773332
235,1857.0,0.7017263764882276
236,1865.57,0.7297153704626692
237,1874.19,0.8037811784042896
238,1882.8400000000001,0.7347768947262174
239,1895.89,0.7049587401598771
240,1904.6399999999999,0.7536181844161624
241,1905.46072,0.7507623827748118
242,1913.43,0.7230271441247723
243,1926.69,0.7114763695040607
244,1935.5900000000001,0.7364604648189677
245,1944.5200000000002,0.7729336493315653
246,1953.5,0.7213555158403141
247,1967.04,0.8019155403980489
248,1976.1200000000001,0.8281892708991001
249,1985.24,0.7800674869970721
250,1994.4,0.7570722886919651
251,2003.6100000000001,0.7836580723830093
252,2012.85,0.7535826452717441
253,2026.81,0.7963884185971487
254,2036.1599999999999,0.7501108518774161
255,2045.56,0.7872695671538347
256,2055.0,0.7518356680271743
257,2064.49,0.7552944508966648
258,2074.02,0.8149087193630764
259,2078.8,0.7728852981951275
260,2083.5899999999997,0.805579173426409
261,2093.21,0.7605162094858926
262,2102.87,0.7657891311422972
263,2112.58,0.774643534794853
264,2127.22,0.7890528632679135
265,2137.04,0.7279699273120017
266,2146.9,0.7500681769530111
267,2156.81,0.7836078085901715
268,2166.77,0.7587591222234831
269,2176.77,0.7535208214537156
270,2186.8199999999997,0.7397785026800994
271,2187.7616199999998,0.7433636827381926
272,2196.91,0.7782016900024568
273,2207.05,0.7570108010613905
274,2217.2400000000002,0.7179790264746584
275,2227.47,0.6920224633713933
276,2232.6099999999997,0.7466789389969278
277,2242.91,0.7117520959897304
278,2253.27,0.6800198702077338
279,2263.67,0.7010047559092044
280,2274.12,0.722618555965009
281,2284.61,0.7431945675042807
282,2295.16,0.7019384962687533
283,2305.75,0.700644536516693
284,2316.3900000000003,0.6663603911189667
285,2327.09,0.5092668629464413
286,2332.4500000000003,0.6166227017310454
287,2343.22,0.5987130936545875
288,2354.03,0.6522383970615968
289,2364.9,0.5965156176938069
290,2375.81,0.6163414498094841
291,2386.78,0.5715266991503622
292,2392.2799999999997,0.6139458781271014
293,2403.33,0.5865841504349141
294,2414.42,0.6046999342261936
295,2425.56,0.6437777323718074
296,2436.76,0.6165167477426218
297,2442.38,0.6562179611697626
298,2453.65,0.6460265966366446
299,2464.98,0.6433677493287274
300,2476.35,0.6189882135042776
301,2487.78,0.6395593949050283
302,2493.52,0.6011801427825707
303,2505.0299999999997,0.671725747150256
304,2510.8,0.5974833036403988
305,2511.88643,0.6011844764759039
306,2516.59,0.6172063929258306
307,2522.39,0.5882129484872299
308,2534.0299999999997,0.5966955551656244
309,2545.73,0.5847462551774126
310,2557.4799999999996,0.6297398496336958
311,2563.38,0.6141491940840847
312,2575.21,0.6523556796515596
313,2587.1,0.6452059585524281
314,2593.06,0.636508296336211
315,2605.0299999999997,0.6138080663482711
316,2617.05,0.6056818308048263
317,2623.09,0.6358329596998008
318,2635.19,0.6539829152675477
319,2647.36,0.7092101630575872
320,2653.46,0.7192489852859555
321,2665.71,0.6533050241871868
322,2678.01,0.686002857532913
323,2684.19,0.681469770872473
324,2696.58,0.6541471942182897
325,2702.79,0.6726331042245466
326,2715.27,0.639758517570454
327,2727.8,0.6415696253608564
328,2734.09,0.6750678264783049
329,2746.71,0.585587224268798
330,2753.04,0.5980086209418424
331,2765.75,0.6193431087324262
332,2772.1200000000003,0.6501876009610663
333,2784.92,0.6183957787517407
334,2797.77,0.5006703509869099
335,2804.2200000000003,0.5390721343267418
336,2817.17,0.6469112954509006
337,2823.66,0.6760068743463286
338,2836.69,0.6489203265816791
339,2843.23,0.6357900999216017
340,2856.36,0.617382841045942
341,2862.94,0.6724590099414605
342,2876.16,0.6666476410658912
343,2882.79,0.6668264044059047
344,2884.0315,0.6661482767785004
345,2896.09,0.6595630390429686
346,2909.46,0.7120179086410151
347,2929.6299999999997,0.686842162776587
348,2949.9399999999996,0.677986316593814
349,2970.38,0.6911740701154347
350,2990.97,0.6917471232959715
351,3011.71,0.7019780761354243
352,3032.5800000000004,0.6993434286792709
353,3046.58,0.6981419968447647
354,3067.7,0.700365748820138
355,3088.96,0.7058199004771663
356,3110.37,0.6999737517931106
357,3131.93,0.6925709027679708
358,3146.39,0.6977887698874736
359,3168.2,0.6952090202938606
360,3190.1600000000003,0.6645240703591635
361,3212.27,0.6853285200833825
362,3227.1,0.6609419863615448
363,3249.47,0.6895221354945513
364,3272.0,0.7078608842637352
365,3287.1,0.7034142499279462
366,3309.88,0.7040669981286567
367,3311.31121,0.7041093598142247
368,3325.16,0.7045186928939177
369,3332.83,0.7063462594937393
370,3340.5099999999998,0.6732203256588802
371,3348.2099999999996,0.7265821909546596
372,3355.93,0.7005377553810772
373,3363.66,0.6555068193728141
374,3371.42,0.6511923820605086
375,3379.19,0.7028014443135222
376,3386.98,0.7128001056971742
377,3394.79,0.7048671662114646
378,3402.6099999999997,0.7332339262910742
379,3410.46,0.6766986850666413
380,3418.32,0.6879009434075278
381,3426.2,0.7041382008790525
382,3434.1,0.7274412574812157
383,3442.0099999999998,0.688569013648698
384,3449.95,0.6903777685121381
385,3457.8999999999996,0.6811281229408972
386,3465.87,0.6673707765002946
387,3473.8599999999997,0.7054944291903306
388,3481.8700000000003,0.6802219810110048
389,3489.9,0.7059645319623176
390,3497.94,0.6822308824789494
391,3506.0099999999998,0.6983279316915388
392,3514.09,0.6748457804694475
393,3522.19,0.7068702283779945
394,3530.31,0.68153737541718
395,3538.4500000000003,0.7089751215870038
396,3546.6,0.7223823673221468
397,3554.78,0.7276327117532474
398,3562.97,0.7145853557496672
399,3568.73,0.5347006053735228
400,3571.4,0.4408107893137476
401,3574.0699999999997,0.7158240732539723
402,3576.74,1.062837957194197
403,3579.3999999999996,0.7282461415691027
404,3582.07,0.18412922550932745
405,3584.7400000000002,-0.007999105550447784
406,3587.41,0.462303293389777
407,3590.07,0.41597067776468255
408,3592.74,1.3246282617049074
409,3595.41,1.322658145645132
410,3598.0800000000004,0.8913380295853568
411,3600.75,0.2631873135255816
412,3603.4100000000003,0.15869569790048718
413,3606.08,0.4306135818407119
414,3608.75,0.6158319657809367
415,3611.42,1.0806304497211614
416,3614.08,0.20437433409606703
417,3616.7500000000005,0.3546753180362918
418,3619.42,0.20827090197651657
419,3622.09,0.36034298591674135
420,3624.76,0.523712769856966
421,3627.42,-0.10637594576812834
422,3630.09,0.6364401381720964
423,3632.7599999999998,0.2710399221123212
424,3635.43,-0.041551303947454044
425,3638.09,-0.21928960957254848
426,3640.76,0.8635453743676762
427,3643.43,1.3156290583079011
428,3646.1,0.6154165422481258
429,3648.7599999999998,0.38268382662303135
430,3651.43,0.27440561056325613
431,3654.1,0.6578345945034809
432,3656.7699999999995,1.0777754784437057
433,3659.44,0.9189697623839305
434,3662.1,0.760582246758836
435,3664.77,0.3164089306990608
436,3667.44,1.1828250146392856
437,3670.1099999999997,1.0631888985795104
438,3672.77,0.5612494829544159
439,3675.4399999999996,0.7920153668946406
440,3678.11,1.0522655508348655
441,3680.78,1.16225443477509
442,3683.45,0.2828079187153149
443,3686.11,0.7627069030902205
444,3688.7799999999997,0.6263402870304453
445,3691.45,0.47302677097067003
446,3694.1200000000003,0.8369487549108948
447,3696.78,1.0420327392858004
448,3699.4500000000003,0.43787292322602517
449,3702.12,0.6175408071662498
450,3704.79,0.5494950911064747
451,3707.46,0.5066636750466994
452,3710.12,0.642125959421605
453,3712.7900000000004,0.8432682433618297
454,3715.46,0.9971111273020545
455,3718.13,0.46282911124227927
456,3720.79,0.8127207956171849
457,3723.46,1.3106665795574095
458,3726.13,1.4788784634976344
459,3728.7999999999997,2.163989347437859
460,3731.4700000000003,1.887398231378084
461,3734.13,1.6218201157529897
462,3736.8,0.9311920996932143
463,3739.47,0.673950883633439
464,3742.14,0.7368771675736637
465,3744.7999999999997,0.7841001519485694
466,3747.47,1.028821535888794
467,3750.1400000000003,1.021635419829019
468,3752.81,0.7589812037692437
469,3755.4700000000003,0.5759887881441492
470,3758.14,0.9848291720843739
471,3760.81,1.0878499560245987
472,3763.48,0.9550851399648235
473,3766.1499999999996,1.0102167239050481
474,3768.8100000000004,0.6948157082799539
475,3771.48,0.4762716922201786
476,3774.15,0.8071854761604034
477,3776.82,0.9846480601006281
478,3779.48,0.6739907444755338
479,3782.15,0.9384935284157585
480,3784.8199999999997,1.0902499123559832
481,3787.4900000000002,0.922094996296208
482,3790.1600000000003,0.7506923802364327
483,3792.82,0.22023116461133832
484,3795.4900000000002,0.7561860485515631
485,3798.16,1.1227853324917878
486,3800.83,0.5524825164320126
487,3801.8939600000003,0.5009308482874504
488,3803.49,0.42359851526239967
489,3806.1600000000003,0.9715210233850606
490,3808.8300000000004,1.0833399315077217
491,3811.5,1.1466988396303825
492,3814.17,1.1999017477530438
493,3816.83,1.0132106562198144
494,3819.5,1.1660295643424754
495,3822.1699999999996,1.3124514724651366
496,3824.8399999999997,0.5756683805877976
497,3827.5,0.8004734890545684
498,3830.17,0.7609483971772294
499,3832.84,0.8897348052998904
500,3835.5099999999998,0.7097307134225513
501,3838.18,0.6288319215452124
502,3840.8399999999997,0.9069785300119833
503,3843.5099999999998,1.0985347381346442
504,3846.1800000000003,0.4135573462573052
505,3848.85,0.7955092543799663
506,3851.51,1.237697462846737
507,3854.18,1.4110653709693983
508,3856.85,1.1726012790920592
509,3859.52,0.8464296872147201
510,3862.18,1.134754095681491
511,3864.8500000000004,0.934593203804152
512,3867.52,1.411300911926813
513,3870.19,1.350437820049474
514,3872.86,1.2671767281721351
515,3875.52,1.3038906366389058
516,3878.19,0.8854628447615669
517,3880.8599999999997,1.3138864528842278
518,3883.53,1.2026943610068888
519,3886.19,1.2091952694736599
520,3888.86,0.8158037775963207
521,3891.53,0.3498611857189817
522,3894.2,0.3050616938416427
523,3896.87,1.2052719019643037
524,3899.5299999999997,1.0446418104310746
525,3902.2000000000003,1.1305377185537357
526,3904.87,0.5319696266763966
527,3907.54,0.9321677347990577
528,3910.2,1.0016534432658286
529,3912.87,1.4739913513884895
530,3915.54,1.3126062595111505
531,3918.2099999999996,1.2649911676338115
532,3920.88,1.1893080757564725
533,3923.54,1.0846959842232433
534,3926.21,1.3588228923459045
535,3928.88,1.5028438004685654
536,3931.5499999999997,0.7743470085912264
537,3934.21,0.5232110170579972
538,3936.8799999999997,1.2018495251806582
539,3939.55,0.5847787333033193
540,3942.2200000000003,0.7825942414259802
541,3944.89,0.8943348495486413
542,3947.55,0.8638093580154121
543,3950.22,1.342977066138073
544,3952.89,1.226135974260734
545,3955.5600000000004,1.307937882383395
546,3958.2200000000003,0.9126634908501661
547,3960.8900000000003,1.299989698972827
548,3963.56,1.2679236070954878
549,3966.23,0.871049815218149
550,3968.9,0.97357842334081
551,3971.56,0.47941403180758085
552,3974.2300000000005,0.7195291399302418
553,3976.9,0.7396642480529029
554,3979.57,0.6263471561755639
555,3982.23,1.2193669646423348
556,3984.9,1.1577178727649957
557,3987.5699999999997,0.9001808808876567
558,3990.24,1.0017846890103177
559,3992.8999999999996,1.3030605974770886
560,3995.57,1.2172405055997495
561,3998.2400000000002,1.9134934137224107
562,4000.91,1.1490543218450715
563,4003.58,1.1025812299677324
564,4006.24,1.1059511384345035
565,4008.91,1.2373950465571644
566,4011.58,1.1064409546798253
567,4014.2499999999995,1.5525398628024865
568,4016.9100000000003,1.4372997712692572
569,4019.58,1.2029296793919182
570,4022.25,1.4608565875145794
571,4024.92,1.5331124956372404
572,4027.5899999999997,1.2165264037599013
573,4030.25,1.0519983122266723
574,4032.9199999999996,1.157164220349333
575,4035.59,1.460049128471994
576,4038.26,1.2502830365946553
577,4040.92,1.210842945061426
578,4043.59,1.3960408531840869
579,4046.2599999999998,1.3007727613067481
580,4048.93,1.234969669429409
581,4051.6000000000004,1.16686457755207
582,4054.26,0.778262186018841
583,4056.9300000000003,0.876244494141502
584,4059.6,1.304806302264163
585,4062.27,1.362693210386824
