,lambda (Angstroms),Total Flux (erg/s/cm^2/Angstrom)
0,102.00000000000001,4.458572e-11
1,103.9,6.473806e-11
2,104.712855,7.619681325511519e-11
3,106.07000000000001,9.532838e-11
4,108.05,1.422868e-10
5,110.05,2.366935e-10
6,113.91999999999999,4.551735e-10
7,117.92,8.132268e-10
8,120.22644299999999,3.010565302710416e-09
9,120.95,3.699895e-09
10,124.91,5.958973e-09
11,126.94,7.297714e-09
12,128.12,8.205792e-09
13,131.1,1.084395e-08
14,132.01,1.358874e-08
15,133.85,1.611265e-08
16,136.96,2.405478e-08
17,138.038426,2.6303440197122214e-08
18,140.15,3.070635e-08
19,143.09,1.01195e-07
20,147.10000000000002,3.177724e-07
21,150.87,4.085151e-07
22,155.1,5.273847e-07
23,158.489319,6.56904459869322e-07
24,159.07999999999998,6.794768e-07
25,162.02999999999997,8.112898e-07
26,166.19,1.035556e-06
27,170.06,1.282818e-06
28,172.82,1.507301e-06
29,176.85,1.841525e-06
30,180.14,2.128975e-06
31,181.8,2.345256e-06
32,181.970086,2.364276308210849e-06
33,186.04,2.819405e-06
34,190.81,3.51692e-06
35,193.91,4.029026e-06
36,197.97,4.733347e-06
37,202.12,5.573898e-06
38,204.93,6.254443e-06
39,208.929613,6.971236000981367e-06
40,210.19,7.197117e-06
41,216.07999999999998,9.314651e-06
42,220.09,1.074452e-05
43,223.15,1.172658e-05
44,226.78,1.349464e-05
45,229.94,2.208714e-05
46,234.21,3.964157e-05
47,239.88329199999998,5.423531601080854e-05
48,240.22000000000003,5.510145e-05
49,245.80999999999997,5.850548e-05
50,252.11999999999998,6.953162e-05
51,256.81,6.429174e-05
52,259.78000000000003,7.783272e-05
53,264.0,8.713225e-05
54,268.91,9.444271e-05
55,273.90999999999997,0.0001016652
56,275.42287,0.00010397561107485267
57,279.0,0.0001094385
58,284.19,0.0001175306
59,290.14000000000004,0.0001216703
60,296.21000000000004,0.0001340278
61,301.03000000000003,0.0001413064
62,308.04,0.0001556576
63,316.227766,0.00017370614658495534
64,318.13,0.0001778993
65,327.79999999999995,0.000198224
66,337.76,0.0002173546
67,348.02,0.0002361446
68,356.95,0.0002541897
69,363.078055,0.0002684853472559017
70,366.09999999999997,0.000275535
71,374.63000000000005,0.000292545
72,385.13,0.0003028207
73,395.01,0.0003335633
74,405.14,0.0003582414
75,413.62,0.0003751329
76,416.86938299999997,0.00037941664490717084
77,422.28000000000003,0.0003865496
78,430.14,0.0004000938
79,441.17,0.0004247895
80,451.45,0.0004397125
81,459.84,0.0004520544
82,469.47,0.0004690031
83,478.630092,0.00048658620248911256
84,480.4,0.0004899836
85,490.46,0.0004956623
86,499.58000000000004,0.0005214204
87,506.53,0.0005214119
88,512.4,0.0005703664
89,519.52,0.0005836909
90,530.4,0.0005945401
91,540.26,0.0005931705
92,549.5408739999999,0.0006216148550844178
93,550.31,0.0006239721
94,560.54,0.0006670834
95,569.65,0.0007098494
96,580.24,0.0007114895
97,589.67,0.0007606366
98,600.63,0.0007659008
99,610.39,0.0007484589
100,620.3100000000001,0.0008753344
101,630.38,0.0009061109
102,630.957344,0.000907660778559844
103,640.63,0.000933627
104,649.54,0.0009912228
105,658.58,0.001028412
106,664.67,0.001074426
107,675.4699999999999,0.001094392
108,684.8700000000001,0.001084364
109,694.39,0.001279881
110,705.6800000000001,0.001250765
111,715.49,0.001419667
112,724.43596,0.0014735547325461851
113,725.4499999999999,0.001479663
114,735.54,0.001538785
115,745.7700000000001,0.001691113
116,754.41,0.001799575
117,764.9,0.001850014
118,775.54,0.002061477
119,784.52,0.002193687
120,795.44,0.002312952
121,804.65,0.002433136
122,815.84,0.002541863
123,825.2900000000001,0.002793551
124,831.763771,0.002475040788918221
125,834.84,0.00232369
126,844.51,0.002979706
127,854.2900000000001,0.003084474
128,864.18,0.003351066
129,874.1899999999999,0.00363217
130,884.31,0.00400103
131,894.5500000000001,0.004267616
132,904.91,0.004238143
133,915.39,0.007066041
134,925.99,0.05459641
135,934.56,0.1213871
136,945.38,0.241644
137,954.13,0.367429
138,954.992586,0.3680310131458333
139,965.1700000000001,0.375134
140,974.0999999999999,0.05048718
141,985.38,0.2619134
142,994.5,0.3274787
143,1006.02,0.5690891
144,1015.3299999999999,0.5823388
145,1024.72,0.2625196
146,1034.2,0.3648966
147,1046.18,0.8340156
148,1055.86,0.830172
149,1065.63,0.5945263
150,1075.49,0.7658983
151,1085.44,0.5510392
152,1095.48,0.8436769
153,1096.4782,0.8410431680039447
154,1105.62,0.8169227
155,1115.8500000000001,0.7623899
156,1126.1699999999998,0.6716979
157,1133.98,0.9620168
158,1144.47,0.8613394
159,1155.06,0.962016
160,1165.75,0.9958087
161,1173.83,0.6268611
162,1184.69,0.984409
163,1195.65,0.5823523
164,1203.94,0.3682832
165,1215.0800000000002,0.31929
166,1226.32,0.6857743
167,1234.82,1.159247
168,1246.25,1.297698
169,1254.8899999999999,1.208304
170,1258.92541,1.1097347970358582
171,1263.59,0.9957972
172,1275.28,1.422907
173,1284.12,1.535232
174,1296.0,1.084372
175,1304.99,1.069465
176,1314.03,1.500275
177,1326.1899999999998,1.426185
178,1335.3799999999999,1.18625
179,1344.64,1.578235
180,1353.9599999999998,1.528181
181,1366.49,1.309705
182,1375.96,1.42619
183,1385.5,1.449357
184,1395.1,1.253654
185,1404.77,1.312726
186,1414.51,1.331002
187,1424.31,1.416373
188,1434.1899999999998,1.400141
189,1440.81,1.514157
190,1445.43977,1.548701350054135
191,1447.46,1.563775
192,1454.1399999999999,1.503731
193,1464.22,1.352604
194,1474.3700000000001,1.368266
195,1484.5900000000001,1.429478
196,1494.88,1.479679
197,1505.24,1.377761
198,1512.1899999999998,1.180796
199,1515.67,1.309709
200,1526.18,1.247891
201,1536.76,1.042728
202,1543.85,1.225118
203,1554.5500000000002,1.15127
204,1565.3300000000002,1.164593
205,1576.18,1.262347
206,1583.45,1.36829
207,1594.43,1.403382
208,1605.48,1.387314
209,1616.61,1.413107
210,1624.07,1.312726
211,1635.3300000000002,1.436056
212,1646.67,1.469504
213,1654.27,1.334048
214,1659.58691,1.4111761357164048
215,1665.73,1.500289
216,1673.4199999999998,1.274021
217,1677.28,1.510677
218,1685.0200000000002,1.626202
219,1696.6999999999998,1.510686
220,1704.53,1.439383
221,1716.3500000000001,1.337138
222,1724.27,1.340213
223,1736.22,1.466146
224,1744.24,1.432767
225,1756.3300000000002,1.574618
226,1764.4299999999998,1.406615
227,1776.6599999999999,1.456046
228,1784.8700000000001,1.500281
229,1793.1,1.652633
230,1805.53,1.645033
231,1813.87,1.483093
232,1826.44,1.535241
233,1834.8700000000001,1.459406
234,1843.34,1.321814
235,1856.12,1.318792
236,1864.69,1.380946
237,1873.29,1.553004
238,1886.28,1.40659
239,1894.98,1.35261
240,1903.7299999999998,1.452704
241,1905.46072,1.444129069090908
242,1916.93,1.387304
243,1925.77,1.37459
244,1934.66,1.426193
245,1943.5900000000001,1.500282
246,1957.07,1.396925
247,1966.1000000000001,1.581879
248,1975.17,1.637485
249,1984.29,1.535242
250,1993.45,1.486541
251,2007.27,1.54944
252,2016.53,1.4729
253,2025.84,1.578244
254,2035.19,1.476313
255,2044.59,1.567375
256,2054.02,1.48995
257,2063.5,1.489951
258,2073.0299999999997,1.629944
259,2077.81,1.538773
260,2087.4,1.61873
261,2097.03,1.517652
262,2106.71,1.524675
263,2116.44,1.549442
264,2126.21,1.581871
265,2136.02,1.439379
266,2145.88,1.503746
267,2155.79,1.581875
268,2165.74,1.524662
269,2175.73,1.510681
270,2185.7799999999997,1.483103
271,2187.7616199999998,1.5003794630178566
272,2195.86,1.570984
273,2206.0,1.521158
274,2216.1800000000003,1.429485
275,2226.41,1.37795
276,2236.69,1.505451
277,2247.01,1.429243
278,2257.38,1.350645
279,2262.5899999999997,1.402022
280,2273.03,1.45277
281,2283.52,1.508815
282,2294.06,1.41932
283,2304.65,1.417496
284,2315.29,1.330348
285,2325.98,0.9691919
286,2336.71,1.213009
287,2347.5,1.178457
288,2352.91,1.304782
289,2363.77,1.172173
290,2374.6800000000003,1.223047
291,2385.64,1.121767
292,2396.66,1.225619
293,2407.7200000000003,1.1663
294,2413.27,1.210719
295,2424.41,1.310703
296,2435.6,1.255935
297,2446.84,1.350298
298,2452.48,1.332488
299,2463.7999999999997,1.324739
300,2475.17,1.269415
301,2486.6,1.312412
302,2492.33,1.236808
303,2503.8300000000004,1.405336
304,2511.88643,1.2759668785060607
305,2515.3900000000003,1.219707
306,2527.0,1.198753
307,2532.83,1.230176
308,2544.52,1.203504
309,2556.26,1.324134
310,2562.16,1.276932
311,2573.98,1.376095
312,2585.8599999999997,1.355614
313,2597.8,1.332359
314,2603.7900000000004,1.278985
315,2615.81,1.262852
316,2627.88,1.342281
317,2633.94,1.40957
318,2646.1,1.561649
319,2652.2000000000003,1.617436
320,2664.44,1.416857
321,2676.7400000000002,1.512943
322,2682.91,1.506855
323,2695.29,1.430769
324,2707.73,1.493044
325,2713.97,1.397416
326,2726.5,1.395805
327,2732.79,1.486217
328,2745.4,1.24619
329,2758.07,1.285564
330,2764.43,1.350052
331,2777.19,1.42843
332,2783.59,1.336972
333,2796.44,1.048647
334,2802.8900000000003,1.142589
335,2815.82,1.423663
336,2822.31,1.529916
337,2835.34,1.46617
338,2841.88,1.423777
339,2854.9999999999995,1.358212
340,2868.17,1.547014
341,2874.79,1.562262
342,2884.0315,1.5486290451357463
343,2888.0499999999997,1.542701
344,2894.7099999999996,1.536543
345,2908.0699999999997,1.714254
346,2928.23,1.640079
347,2948.5299999999997,1.616832
348,2968.9700000000003,1.669069
349,2989.55,1.679894
350,3010.27,1.718293
351,3031.14,1.725501
352,3052.15,1.728768
353,3073.2999999999997,1.748062
354,3087.49,1.770576
355,3108.8900000000003,1.778054
356,3130.44,1.757032
357,3152.14,1.772648
358,3166.6899999999996,1.783124
359,3188.64,1.682794
360,3210.7400000000002,1.769622
361,3232.9999999999995,1.670071
362,3247.92,1.808465
363,3270.44,1.893096
364,3293.1,1.879508
365,3308.3,1.882015
366,3311.31121,1.8774142337264401
367,3323.58,1.858669
368,3331.24,1.89451
369,3338.92,1.777419
370,3346.6099999999997,1.914612
371,3354.33,1.842349
372,3362.06,1.752543
373,3369.81,1.84912
374,3377.58,1.804094
375,3385.36,1.851636
376,3393.1699999999996,1.944679
377,3400.99,2.070831
378,3408.83,1.876901
379,3416.69,1.882524
380,3424.57,1.995419
381,3432.46,2.062206
382,3440.37,1.979859
383,3448.3,1.827807
384,3456.25,1.863088
385,3464.2200000000003,1.776369
386,3472.21,1.958099
387,3480.21,1.820249
388,3488.23,1.907384
389,3496.2700000000004,1.882508
390,3504.33,1.968072
391,3512.4100000000003,1.90258
392,3520.51,2.012092
393,3528.6299999999997,1.806969
394,3536.7599999999998,1.987268
395,3544.91,2.068029
396,3553.08,2.088646
397,3560.4799999999996,2.180401
398,3563.1400000000003,2.362717
399,3565.8,2.24253
400,3568.46,2.051688
401,3571.12,2.285022
402,3573.7799999999997,2.350707
403,3576.44,2.176725
404,3579.1,1.8042
405,3581.7599999999998,1.59679
406,3584.4199999999996,1.842404
407,3587.09,1.600412
408,3589.75,1.917605
409,3592.41,1.932443
410,3595.07,2.03828
411,3597.73,2.101944
412,3600.39,1.993842
413,3603.0499999999997,2.070807
414,3605.7099999999996,1.750715
415,3608.3700000000003,1.764603
416,3611.03,1.87329
417,3613.69,1.789089
418,3616.35,2.150504
419,3619.0099999999998,1.861865
420,3621.67,1.639228
421,3624.33,1.751692
422,3626.99,2.044425
423,3629.6499999999996,1.944996
424,3632.3100000000004,2.029052
425,3634.9700000000003,1.904894
426,3637.63,1.876851
427,3640.29,2.163128
428,3642.95,1.972724
429,3645.61,1.906064
430,3648.27,1.963808
431,3650.93,2.046256
432,3653.5899999999997,2.10105
433,3656.25,2.283683
434,3658.9100000000003,2.025158
435,3661.57,2.08178
436,3664.2400000000002,2.148136
437,3666.9,1.868756
438,3669.56,2.045906
439,3672.22,2.18634
440,3674.8799999999997,2.118535
441,3677.5400000000004,2.187266
442,3680.2000000000003,2.106622
443,3682.86,2.112031
444,3685.52,2.304507
445,3688.18,2.445647
446,3690.84,2.209488
447,3693.5,2.155328
448,3696.16,1.987656
449,3698.8199999999997,2.008828
450,3701.4799999999996,1.737756
451,3704.1400000000003,1.753374
452,3706.8,2.03658
453,3709.46,1.847443
454,3712.12,2.263238
455,3714.7799999999997,2.315743
456,3717.44,3.3727
457,3720.1,4.299018
458,3722.7599999999998,5.686302
459,3725.4199999999996,6.034463
460,3728.08,5.213155
461,3730.7400000000002,4.051727
462,3733.4,3.150991
463,3736.06,2.659571
464,3738.72,2.384746
465,3741.39,2.162998
466,3744.0499999999997,2.141582
467,3746.7099999999996,2.164485
468,3749.3700000000003,2.354499
469,3752.03,2.448325
470,3754.69,2.241135
471,3757.35,2.260675
472,3760.0099999999998,2.522392
473,3762.67,2.438825
474,3765.33,2.424109
475,3767.99,2.53823
476,3770.6499999999996,2.48926
477,3773.3100000000004,2.61985
478,3775.9700000000003,2.696353
479,3778.63,2.606208
480,3781.29,2.801119
481,3783.95,2.940969
482,3786.61,2.744109
483,3789.27,2.357356
484,3791.93,2.083409
485,3794.5899999999997,2.264238
486,3797.25,2.309775
487,3799.9100000000003,2.166954
488,3801.8939600000003,2.416253490992498
489,3802.57,2.501203
490,3805.23,2.890052
491,3807.89,2.721211
492,3810.5499999999997,2.872998
493,3813.21,2.854482
494,3815.87,2.827195
495,3818.5400000000004,2.857879
496,3821.2000000000003,2.70853
497,3823.86,2.316199
498,3826.52,2.142168
499,3829.18,2.027147
500,3831.84,1.769865
501,3834.5,1.835111
502,3837.16,2.20308
503,3839.8199999999997,2.267669
504,3842.4799999999996,2.451007
505,3845.1400000000003,3.033061
506,3847.8,2.919769
507,3850.46,3.008455
508,3853.12,3.072776
509,3855.7799999999997,3.27183
510,3858.44,3.132712
511,3861.1,3.157076
512,3863.7599999999998,3.189481
513,3866.42,3.371481
514,3869.08,3.189482
515,3871.7400000000002,2.958025
516,3874.4,2.722914
517,3877.06,2.627895
518,3879.72,2.542135
519,3882.38,2.428063
520,3885.04,2.237074
521,3887.7,2.201357
522,3890.36,2.52167
523,3893.03,2.740689
524,3895.69,2.898568
525,3898.35,3.038416
526,3901.0099999999998,3.147567
527,3903.67,3.144888
528,3906.33,2.967763
529,3908.99,3.154634
530,3911.6499999999996,3.333953
531,3914.31,3.140991
532,3916.9700000000003,2.965816
533,3919.63,2.87299
534,3922.29,2.998221
535,3924.95,2.860078
536,3927.61,2.528242
537,3930.27,2.44906
538,3932.93,2.382791
539,3935.59,2.276467
540,3938.25,2.466847
541,3940.9100000000003,2.950959
542,3943.57,3.134176
543,3946.23,3.180711
544,3948.89,3.212385
545,3951.5499999999997,3.142948
546,3954.21,3.075948
547,3956.87,2.746304
548,3959.53,2.658107
549,3962.19,2.625217
550,3964.85,2.379117
551,3967.51,2.222262
552,3970.18,2.191066
553,3972.84,2.381957
554,3975.5,2.843993
555,3978.16,2.899056
556,3980.8199999999997,2.898569
557,3983.48,3.132219
558,3986.1400000000003,3.336633
559,3988.8,3.387554
560,3991.46,3.334929
561,3994.12,3.427999
562,3996.7799999999997,3.536419
563,3999.44,3.407047
564,4002.1,3.44603
565,4004.7599999999998,3.268662
566,4007.42,3.363195
567,4010.08,3.683824
568,4012.7400000000002,3.594409
569,4015.4,3.465525
570,4018.06,3.411437
571,4020.72,3.579549
572,4023.3799999999997,3.564931
573,4026.04,3.317637
574,4028.7000000000003,3.447254
575,4031.36,3.354428
576,4034.02,3.477954
577,4036.6800000000003,3.429471
578,4039.34,3.578579
579,4042.0,3.495986
580,4044.67,3.659207
581,4047.33,3.470387
582,4049.99,3.531297
583,4052.6499999999996,3.413377
584,4055.31,3.424585
585,4057.9700000000003,3.442858
586,4060.63,3.394862
587,4063.29,3.382681
588,4065.95,3.318361
589,4068.6099999999997,3.346867
590,4071.27,3.525211
591,4073.93,3.514492
592,4076.59,3.357101
593,4079.25,3.289614
594,4081.9100000000003,3.222614
595,4084.57,3.183388
596,4087.23,3.158051
597,4089.89,3.007726
598,4092.5499999999997,3.031846
599,4095.21,2.898333
600,4097.87,2.777244
601,4100.53,2.596465
602,4103.19,2.720478
603,4105.849999999999,3.007485
604,4108.51,2.858866
605,4111.17,3.072782
606,4113.83,3.175841
607,4116.49,3.161954
608,4119.15,3.30619
609,4121.82,3.399975
610,4124.48,3.307637
611,4127.14,3.310561
612,4129.8,3.414839
613,4132.46,3.430433
614,4135.12,3.465517
615,4137.78,3.588555
616,4140.4400000000005,3.515221
617,4143.1,3.488177
618,4145.76,3.459916
619,4148.42,3.49695
620,4151.08,3.330057
621,4153.74,3.523263
622,4156.400000000001,3.694299
623,4159.06,3.502556
624,4161.72,3.443838
625,4164.38,3.485015
626,4167.04,3.598307
627,4169.7,3.451637
628,4172.36,3.421426
629,4175.0199999999995,3.505239
630,4177.679999999999,3.495006
631,4180.34,3.423864
632,4183.0,3.461629
633,4185.66,3.437022
634,4188.32,3.454322
635,4190.9800000000005,3.495497
636,4193.64,3.560792
637,4196.3,3.444577
638,4198.97,3.442125
639,4201.63,3.54689
640,4204.29,3.472581
641,4206.95,3.644346
642,4209.61,3.706232
643,4212.27,3.450899
644,4214.93,3.545187
645,4217.59,3.40534
646,4220.25,3.150494
647,4222.91,3.301794
648,4225.57,3.45748
649,4228.2300000000005,3.446517
650,4230.89,3.419229
651,4233.55,3.384634
652,4236.21,3.422642
653,4238.87,3.579789
654,4241.53,3.410461
655,4244.19,3.477706
656,4246.849999999999,3.291566
657,4249.51,3.311058
658,4252.17,3.334204
659,4254.83,3.383419
660,4257.49,3.371969
661,4260.15,3.422647
662,4262.81,3.361494
663,4265.47,3.385371
664,4268.13,3.344197
665,4270.79,3.409979
666,4273.45,3.365638
667,4276.12,3.476234
668,4278.78,3.331027
669,4281.4400000000005,3.252088
670,4284.1,3.161211
671,4286.76,3.189718
672,4289.42,3.19118
673,4292.08,3.071798
674,4294.74,3.109318
675,4297.400000000001,3.098843
676,4300.06,3.093483
677,4302.72,3.076916
678,4305.38,3.084226
679,4308.04,3.077892
680,4310.7,3.187773
681,4313.36,3.140995
682,4316.0199999999995,3.208727
683,4318.679999999999,3.226757
684,4321.34,3.277922
685,4324.0,3.272563
686,4326.66,3.184609
687,4329.32,3.265254
688,4331.9800000000005,3.257946
689,4334.64,3.282066
690,4337.3,3.31374
691,4339.96,3.254292
692,4342.62,3.177303
693,4345.280000000001,3.162929
694,4347.9400000000005,3.167558
695,4350.6,3.117369
696,4353.27,3.360506
697,4355.93,3.415569
698,4358.59,3.420443
699,4361.25,3.435062
700,4363.91,3.482571
701,4365.15832,3.475939886616545
702,4366.570000000001,3.468441
703,4369.2300000000005,3.470147
704,4371.89,3.383412
705,4374.55,3.383169
706,4377.21,3.213354
707,4379.87,3.359781
708,4382.53,3.320312
709,4385.19,3.351742
710,4387.849999999999,3.395354
711,4390.51,3.39706
712,4393.17,3.50012
713,4395.83,3.38025
714,4398.49,3.442134
715,4401.15,3.495005
716,4403.81,3.266228
717,4406.47,3.325676
718,4409.13,3.519371
719,4411.79,3.532771
720,4414.45,3.411195
721,4417.110000000001,3.432393
722,4419.77,3.430444
723,4422.43,3.536428
724,4425.09,3.602942
725,4427.75,3.549098
726,4430.42,3.408504
727,4433.08,3.405824
728,4435.740000000001,3.591964
729,4438.400000000001,3.524477
730,4441.06,3.444564
731,4443.72,3.455285
732,4446.38,3.518632
733,4449.04,3.585389
734,4451.7,3.605611
735,4454.36,3.581005
736,4457.0199999999995,3.540317
737,4459.679999999999,3.485011
738,4462.34,3.632658
739,4465.0,3.599036
740,4467.66,3.622913
741,4470.32,3.597332
742,4472.98,3.655075
743,4475.64,3.702098
744,4478.3,3.611952
745,4480.96,3.646306
746,4483.62,3.704292
747,4486.280000000001,3.613903
748,4488.9400000000005,3.531797
749,4491.6,3.685046
750,4494.26,3.813689
751,4496.92,3.760088
752,4499.58,3.658978
753,4502.24,3.786646
754,4504.9,3.703566
755,4507.570000000001,3.606582
756,4510.2300000000005,3.589284
757,4512.89,3.640936
758,4515.55,3.463324
759,4518.21,3.426535
760,4520.87,3.392426
761,4523.53,3.448464
762,4526.19,3.408264
763,4528.849999999999,3.509861
764,4531.51,3.535201
765,4534.17,3.373425
766,4536.83,3.466252
767,4539.49,3.41923
768,4542.15,3.451147
769,4544.81,3.524971
770,4547.47,3.442377
771,4550.13,3.322508
772,4552.79,3.432145
773,4555.45,3.462357
774,4558.110000000001,3.541784
775,4560.77,3.539592
776,4563.43,3.578331
777,4566.09,3.723541
778,4568.75,3.765447
779,4571.41,3.681392
780,4574.07,3.51718
781,4576.73,3.620727
782,4579.389999999999,3.701372
783,4582.05,3.514989
784,4584.72,3.594156
785,4587.38,3.640936
786,4590.04,3.564677
787,4592.7,3.719632
788,4595.36,3.560537
789,4598.0199999999995,3.497434
790,4600.679999999999,3.531301
791,4603.34,3.392671
792,4606.0,3.437257
793,4608.66,3.532764
794,4611.32,3.563464
795,4613.98,3.642159
796,4616.64,3.781278
797,4619.3,3.78006
798,4621.96,3.490374
799,4624.62,3.706482
800,4627.28,3.478437
801,4629.9400000000005,3.590024
802,4632.6,3.748146
803,4635.26,3.596116
804,4637.92,3.653615
805,4640.58,3.539105
806,4643.24,3.57492
807,4645.9,3.630228
808,4648.5599999999995,3.659221
809,4651.219999999999,3.622919
810,4653.88,3.683099
811,4656.54,3.718671
812,4659.21,3.570767
813,4661.87,3.637768
814,4664.53,3.599761
815,4667.19,3.508397
816,4669.849999999999,3.544943
817,4672.51,3.62437
818,4675.17,3.567846
819,4677.83,3.58612
820,4680.49,3.695514
821,4683.15,3.677973
822,4685.81,3.601958
823,4688.47,3.591482
