,lambda (Angstroms),Total Flux (erg/s/cm^2/Angstrom)
0,102.00000000000001,1.129322e-07
1,103.9,1.444708e-07
2,104.712855,1.6072415412442393e-07
3,106.07000000000001,1.878608e-07
4,108.05,2.493271e-07
5,110.05,3.696566e-07
6,113.91999999999999,5.712107e-07
7,117.92,8.276327e-07
8,120.22644299999999,2.6825520315963253e-06
9,120.95,3.264461e-06
10,124.91,4.363059e-06
11,126.94,4.873033e-06
12,128.12,5.244955e-06
13,131.1,6.092593e-06
14,132.01,7.324878e-06
15,133.85,7.994331e-06
16,136.96,1.061256e-05
17,138.038426,1.1097053867598737e-05
18,140.15,1.20457e-05
19,143.09,3.538241e-05
20,147.10000000000002,9.566447e-05
21,150.87,0.0001076021
22,155.1,0.0001221103
23,158.489319,0.00013670344726422117
24,159.07999999999998,0.0001392467
25,162.02999999999997,0.0001519807
26,166.19,0.0001728974
27,170.06,0.0001917741
28,172.82,0.0002083634
29,176.85,0.0002295057
30,180.14,0.0002464864
31,181.8,0.0002581167
32,181.970086,0.0002590892108310849
33,186.04,0.00028236
34,190.81,0.0003146122
35,193.91,0.0003371461
36,197.97,0.0003637363
37,202.12,0.0003942553
38,204.93,0.0004176351
39,208.929613,0.0004318189747256273
40,210.19,0.0004362887
41,216.07999999999998,0.0005055756
42,220.09,0.0005430116
43,223.15,0.0005633667
44,226.78,0.0006050346
45,229.94,0.0009348975
46,234.21,0.001558781
47,239.88329199999998,0.0019568724069311118
48,240.22000000000003,0.001980499
49,245.80999999999997,0.001922269
50,252.11999999999998,0.002102838
51,256.81,0.001814599
52,259.78000000000003,0.002117268
53,264.0,0.002258416
54,268.91,0.002295016
55,273.90999999999997,0.002326982
56,275.42287,0.00233658976478389
57,279.0,0.002359307
58,284.19,0.002397581
59,290.14000000000004,0.00232703
60,296.21000000000004,0.00240334
61,301.03000000000003,0.002397626
62,308.04,0.002464868
63,316.227766,0.0025495695872229927
64,318.13,0.002569248
65,327.79999999999995,0.002610862
66,337.76,0.002622983
67,348.02,0.002629073
68,356.95,0.002647139
69,363.078055,0.002671856158232787
70,366.09999999999997,0.002684045
71,374.63000000000005,0.002678053
72,385.13,0.002586876
73,395.01,0.002665666
74,405.14,0.002683969
75,413.62,0.002659435
76,416.86938299999997,0.0026458131061856812
77,422.28000000000003,0.002623131
78,430.14,0.002592821
79,441.17,0.002592918
80,451.45,0.002551383
81,459.84,0.002504935
82,469.47,0.002476202
83,478.630092,0.002471367181084355
84,480.4,0.002470433
85,490.46,0.002397713
86,499.58000000000004,0.002408802
87,506.53,0.002375713
88,512.4,0.002628969
89,519.52,0.002617016
90,530.4,0.002575101
91,540.26,0.002476241
92,549.5408739999999,0.0025674419786433826
93,550.31,0.002575
94,560.54,0.002708838
95,569.65,0.002817009
96,580.24,0.002740141
97,589.67,0.002909388
98,600.63,0.002862869
99,610.39,0.002804059
100,620.3100000000001,0.003241789
101,630.38,0.003309877
102,630.957344,0.0033142052775601955
103,640.63,0.00338672
104,649.54,0.003571133
105,658.58,0.003645813
106,664.67,0.003835341
107,675.4699999999999,0.003915571
108,684.8700000000001,0.003800138
109,694.39,0.004526694
110,705.6800000000001,0.004263689
111,715.49,0.005032809
112,724.43596,0.005212977580558235
113,725.4499999999999,0.0052334
114,735.54,0.005442543
115,745.7700000000001,0.005885549
116,754.41,0.006205663
117,764.9,0.006263138
118,775.54,0.007027343
119,784.52,0.007291021
120,795.44,0.007794455
121,804.65,0.008218474
122,815.84,0.008585912
123,825.2900000000001,0.009327935
124,831.763771,0.008300825473829848
125,834.84,0.00781276
126,844.51,0.009949208
127,854.2900000000001,0.01027538
128,864.18,0.01111228
129,874.1899999999999,0.01187941
130,884.31,0.0127877
131,894.5500000000001,0.01351442
132,904.91,0.01367089
133,915.39,0.01839905
134,925.99,0.1037022
135,934.56,0.222223
136,945.38,0.4147518
137,954.13,0.5872038
138,954.992586,0.5919792448628259
139,965.1700000000001,0.6483234
140,974.0999999999999,0.107349
141,985.38,0.5233535
142,994.5,0.5659768
143,1006.02,0.8507356
144,1015.3299999999999,0.8294438
145,1024.72,0.3722012
146,1034.2,0.5751528
147,1046.18,1.116308
148,1055.86,1.090908
149,1065.63,0.8468323
150,1075.49,1.018104
151,1085.44,0.7939465
152,1095.48,1.073488
153,1096.4782,1.0691971181854043
154,1105.62,1.0299
155,1115.8500000000001,0.9835355
156,1126.1699999999998,0.8745695
157,1133.98,1.134482
158,1144.47,1.027539
159,1155.06,1.095959
160,1165.75,1.12667
161,1173.83,0.7582221
162,1184.69,1.090923
163,1195.65,0.7443904
164,1203.94,0.531858
165,1215.0800000000002,0.3826426
166,1226.32,0.7529923
167,1234.82,1.139716
168,1246.25,1.249656
169,1254.8899999999999,1.187942
170,1258.92541,1.1102501530149396
171,1263.59,1.020445
172,1275.28,1.329838
173,1284.12,1.395704
174,1296.0,1.083423
175,1304.99,1.073471
176,1314.03,1.360803
177,1326.1899999999998,1.29656
178,1335.3799999999999,1.142328
179,1344.64,1.373383
180,1353.9599999999998,1.326773
181,1366.49,1.177044
182,1375.96,1.238203
183,1385.5,1.249651
184,1395.1,1.066091
185,1404.77,1.103543
186,1414.51,1.152916
187,1424.31,1.18247
188,1434.1899999999998,1.179766
189,1440.81,1.246776
190,1445.43977,1.262927979548872
191,1447.46,1.269976
192,1454.1399999999999,1.229686
193,1464.22,1.12926
194,1474.3700000000001,1.13186
195,1484.5900000000001,1.155565
196,1494.88,1.177034
197,1505.24,1.10866
198,1512.1899999999998,0.9835418
199,1515.67,1.053888
200,1526.18,1.029896
201,1536.76,0.8908307
202,1543.85,0.9790374
203,1554.5500000000002,0.9242667
204,1565.3300000000002,0.9479596
205,1576.18,1.02754
206,1583.45,1.083426
207,1594.43,1.113762
208,1605.48,1.088413
209,1616.61,1.085899
210,1624.07,1.020448
211,1635.3300000000002,1.09595
212,1646.67,1.126659
213,1654.27,1.022813
214,1659.58691,1.07582899526178
215,1665.73,1.137083
216,1673.4199999999998,0.9858151
217,1677.28,1.190659
218,1685.0200000000002,1.243923
219,1696.6999999999998,1.147613
220,1704.53,1.106109
221,1716.3500000000001,1.068541
222,1724.27,1.066086
223,1736.22,1.150262
224,1744.24,1.121479
225,1756.3300000000002,1.212821
226,1764.4299999999998,1.085909
227,1776.6599999999999,1.134481
228,1784.8700000000001,1.147611
229,1793.1,1.255443
230,1805.53,1.229698
231,1813.87,1.150254
232,1826.44,1.158217
233,1834.8700000000001,1.10355
234,1843.34,1.006443
235,1856.12,1.03226
236,1864.69,1.080909
237,1873.29,1.144959
238,1886.28,1.068533
239,1894.98,1.046628
240,1903.7299999999998,1.085903
241,1905.46072,1.0829818855393936
242,1916.93,1.063624
243,1925.77,1.037036
244,1934.66,1.020451
245,1943.5900000000001,1.121481
246,1957.07,1.061186
247,1966.1000000000001,1.168948
248,1975.17,1.187949
249,1984.29,1.129265
250,1993.45,1.098483
251,2007.27,1.111205
252,2016.53,1.075946
253,2025.84,1.106099
254,2035.19,1.07843
255,2044.59,1.131867
256,2054.02,1.063624
257,2063.5,1.063624
258,2073.0299999999997,1.171644
259,2077.81,1.144957
260,2087.4,1.174339
261,2097.03,1.108655
262,2106.71,1.093448
263,2116.44,1.108651
264,2126.21,1.126659
265,2136.02,1.022818
266,2145.88,1.075946
267,2155.79,1.11121
268,2165.74,1.061184
269,2175.73,1.056318
270,2185.7799999999997,1.053884
271,2187.7616199999998,1.0646513917678568
272,2195.86,1.108655
273,2206.0,1.073482
274,2216.1800000000003,1.004134
275,2226.41,0.9769374
276,2236.69,1.067629
277,2247.01,1.013825
278,2257.38,0.9583325
279,2262.5899999999997,0.9767692
280,2273.03,1.012373
281,2283.52,1.05172
282,2294.06,0.9805295
283,2304.65,1.000034
284,2315.29,0.9518705
285,2325.98,0.7364483
286,2336.71,0.8624098
287,2347.5,0.8133507
288,2352.91,0.9237563
289,2363.77,0.8149427
290,2374.6800000000003,0.8604092
291,2385.64,0.7660809
292,2396.66,0.8295457
293,2407.7200000000003,0.800623
294,2413.27,0.8255027
295,2424.41,0.9084251
296,2435.6,0.8767511
297,2446.84,0.9321005
298,2452.48,0.9241694
299,2463.7999999999997,0.9148392
300,2475.17,0.8728264
301,2486.6,0.8841287
302,2492.33,0.8181232
303,2503.8300000000004,0.9558931
304,2511.88643,0.8574937735490524
305,2515.3900000000003,0.814702
306,2527.0,0.7899438
307,2532.83,0.8089116
308,2544.52,0.8025995
309,2556.26,0.8832866
310,2562.16,0.8480132
311,2573.98,0.9099194
312,2585.8599999999997,0.8966432
313,2597.8,0.8774463
314,2603.7900000000004,0.8424249
315,2615.81,0.8206054
316,2627.88,0.8907572
317,2633.94,0.9355441
318,2646.1,1.048772
319,2652.2000000000003,1.086398
320,2664.44,0.9541316
321,2676.7400000000002,1.012104
322,2682.91,1.015167
323,2695.29,0.950974
324,2707.73,0.9926303
325,2713.97,0.9249152
326,2726.5,0.9220209
327,2732.79,0.9773435
328,2745.4,0.8085057
329,2758.07,0.8458966
330,2764.43,0.8905151
331,2777.19,0.9424885
332,2783.59,0.8523088
333,2796.44,0.6415445
334,2802.8900000000003,0.6959012
335,2815.82,0.9272583
336,2822.31,1.012789
337,2835.34,0.9798776
338,2841.88,0.9451402
339,2854.9999999999995,0.8895012
340,2868.17,1.013436
341,2874.79,1.021221
342,2884.0315,1.0157618243212667
343,2888.0499999999997,1.013388
344,2894.7099999999996,1.007173
345,2908.0699999999997,1.123993
346,2928.23,1.070903
347,2948.5299999999997,1.053761
348,2968.9700000000003,1.083292
349,2989.55,1.090818
350,3010.27,1.108561
351,3031.14,1.108583
352,3052.15,1.113767
353,3073.2999999999997,1.129314
354,3087.49,1.141561
355,3108.8900000000003,1.14426
356,3130.44,1.126063
357,3152.14,1.1392
358,3166.6899999999996,1.146311
359,3188.64,1.079802
360,3210.7400000000002,1.128228
361,3232.9999999999995,1.065262
362,3247.92,1.153882
363,3270.44,1.205656
364,3293.1,1.200333
365,3308.3,1.199536
366,3311.31121,1.2021150383030101
367,3323.58,1.212623
368,3331.24,1.213637
369,3338.92,1.151997
370,3346.6099999999997,1.224076
371,3354.33,1.172657
372,3362.06,1.139028
373,3369.81,1.193701
374,3377.58,1.143558
375,3385.36,1.163114
376,3393.1699999999996,1.238758
377,3400.99,1.319319
378,3408.83,1.19597
379,3416.69,1.205272
380,3424.57,1.283662
381,3432.46,1.326839
382,3440.37,1.259465
383,3448.3,1.160244
384,3456.25,1.193778
385,3464.2200000000003,1.130541
386,3472.21,1.243528
387,3480.21,1.148212
388,3488.23,1.214511
389,3496.2700000000004,1.187872
390,3504.33,1.244907
391,3512.4100000000003,1.209228
392,3520.51,1.261489
393,3528.6299999999997,1.148837
394,3536.7599999999998,1.243459
395,3544.91,1.28827
396,3553.08,1.304304
397,3560.4,1.325014
398,3563.06,1.515648
399,3565.72,1.481296
400,3568.3900000000003,1.168677
401,3571.05,1.177428
402,3573.71,1.411188
403,3576.37,1.39089
404,3579.03,1.053883
405,3581.69,0.9163806
406,3584.35,1.092671
407,3587.0099999999998,1.093249
408,3589.6699999999996,1.283474
409,3592.3300000000004,1.184903
410,3594.9900000000002,1.321972
411,3597.65,1.219303
412,3600.31,1.212168
413,3602.97,1.240782
414,3605.63,1.199946
415,3608.29,1.010783
416,3610.95,1.196403
417,3613.6099999999997,1.152361
418,3616.27,1.345237
419,3618.9300000000003,1.017148
420,3621.59,1.032625
421,3624.25,1.106198
422,3626.91,1.24939
423,3629.5699999999997,1.224706
424,3632.23,1.301943
425,3634.89,1.18657
426,3637.5499999999997,1.255129
427,3640.21,1.324363
428,3642.88,1.29943
429,3645.54,1.087511
430,3648.2,1.345281
431,3650.86,1.364566
432,3653.52,1.261222
433,3656.18,1.273878
434,3658.8399999999997,1.258764
435,3661.4999999999995,1.33952
436,3664.1600000000003,1.333904
437,3666.82,1.108533
438,3669.48,1.311052
439,3672.14,1.378381
440,3674.7999999999997,1.415577
441,3677.46,1.392315
442,3680.12,1.3489
443,3682.7799999999997,1.332363
444,3685.4399999999996,1.263804
445,3688.1000000000004,1.454607
446,3690.76,1.213977
447,3693.42,1.282488
448,3696.08,1.263733
449,3698.74,1.236421
450,3701.4,1.133294
451,3704.06,1.154314
452,3706.72,1.261444
453,3709.38,1.20248
454,3712.04,1.335644
455,3714.7000000000003,1.4913
456,3717.36,2.200465
457,3720.0299999999997,3.060063
458,3722.69,3.688035
459,3725.35,3.446007
460,3728.0099999999998,2.610239
461,3730.6699999999996,1.821576
462,3733.3300000000004,1.412273
463,3735.9900000000002,1.353984
464,3738.65,1.325274
465,3741.31,1.350344
466,3743.97,1.277351
467,3746.63,1.39217
468,3749.29,1.469744
469,3751.95,1.494767
470,3754.6099999999997,1.421219
471,3757.27,1.43995
472,3759.9300000000003,1.542161
473,3762.59,1.307847
474,3765.25,1.410082
475,3767.91,1.466854
476,3770.5699999999997,1.407889
477,3773.23,1.616435
478,3775.89,1.758904
479,3778.55,1.739475
480,3781.21,1.764522
481,3783.87,1.672097
482,3786.53,1.599321
483,3789.19,1.312261
484,3791.85,1.200696
485,3794.5099999999998,1.323736
486,3797.18,1.434546
487,3799.8399999999997,1.413526
488,3801.8939600000003,1.6113192593384187
489,3802.4999999999995,1.66968
490,3805.1600000000003,1.875863
491,3807.82,1.701116
492,3810.48,1.74323
493,3813.14,1.723704
494,3815.7999999999997,1.699694
495,3818.46,1.767458
496,3821.12,1.66585
497,3823.7799999999997,1.365845
498,3826.44,1.34832
499,3829.1,1.25445
500,3831.76,1.180805
501,3834.42,1.265998
502,3837.08,1.562049
503,3839.74,1.598763
504,3842.4,1.593581
505,3845.06,1.915257
506,3847.7200000000003,1.829704
507,3850.38,1.819869
508,3853.04,1.760495
509,3855.7000000000003,1.905303
510,3858.36,1.841397
511,3861.02,1.896481
512,3863.68,1.79533
513,3866.3399999999997,1.999874
514,3869.0,1.824476
515,3871.6600000000003,1.656454
516,3874.3300000000004,1.630362
517,3876.9900000000002,1.564215
518,3879.65,1.488931
519,3882.31,1.359094
520,3884.97,1.273637
521,3887.63,1.32226
522,3890.29,1.650517
523,3892.95,1.697332
524,3895.61,1.847636
525,3898.27,1.984054
526,3900.9300000000003,1.994011
527,3903.59,1.976751
528,3906.25,1.832161
529,3908.91,1.928514
530,3911.5699999999997,2.020698
531,3914.23,1.837369
532,3916.89,1.879097
533,3919.55,1.833922
534,3922.21,1.884329
535,3924.87,1.59187
536,3927.53,1.391811
537,3930.19,1.548551
538,3932.85,1.540934
539,3935.5099999999998,1.517961
540,3938.1699999999996,1.627043
541,3940.8300000000004,1.930471
542,3943.4900000000002,2.048834
543,3946.15,2.040349
544,3948.81,1.995487
545,3951.48,1.947819
546,3954.14,1.890012
547,3956.7999999999997,1.602809
548,3959.46,1.38631
549,3962.12,1.346728
550,3964.7799999999997,1.299142
551,3967.44,1.230921
552,3970.1,1.31756
553,3972.76,1.51046
554,3975.42,1.740194
555,3978.08,1.779801
556,3980.74,1.810417
557,3983.4,1.937964
558,3986.06,2.05975
559,3988.7200000000003,2.000376
560,3991.38,1.93594
561,3994.04,2.023254
562,3996.7000000000003,2.053002
563,3999.36,2.035959
564,4002.02,2.031765
565,4004.68,1.93317
566,4007.3399999999997,1.99293
567,4010.0000000000005,2.17315
568,4012.6600000000003,2.103049
569,4015.32,2.075833
570,4017.98,2.059152
571,4020.64,2.104304
572,4023.3,2.096132
573,4025.97,1.94794
574,4028.63,1.964767
575,4031.29,1.945795
576,4033.95,2.063989
577,4036.61,2.065869
578,4039.27,2.061121
579,4041.9300000000003,2.029012
580,4044.59,2.150532
581,4047.25,2.145446
582,4049.91,2.048901
583,4052.5699999999997,1.967132
584,4055.23,1.970121
585,4057.8900000000003,1.982055
586,4060.55,2.098224
587,4063.21,2.069537
588,4065.87,1.947197
589,4068.53,1.917788
590,4071.19,2.054882
591,4073.85,1.989264
592,4076.5099999999998,1.985191
593,4079.1699999999996,1.867841
594,4081.8300000000004,1.832453
595,4084.4900000000002,1.770331
596,4087.15,1.751263
597,4089.81,1.667951
598,4092.4700000000003,1.699748
599,4095.13,1.632323
600,4097.79,1.59638
601,4100.45,1.519528
602,4103.12,1.565733
603,4105.78,1.785946
604,4108.44,1.745712
605,4111.099999999999,1.722185
606,4113.76,1.876659
607,4116.42,1.895221
608,4119.08,1.974772
609,4121.74,1.944953
610,4124.4,1.849372
611,4127.06,1.843321
612,4129.72,1.97352
613,4132.38,1.938036
614,4135.04,2.013441
615,4137.7,2.085037
616,4140.360000000001,2.056159
617,4143.02,2.041116
618,4145.68,2.093934
619,4148.34,2.035091
620,4151.0,1.915957
621,4153.66,2.022821
622,4156.32,2.138894
623,4158.98,2.039793
624,4161.639999999999,2.038853
625,4164.3,2.041842
626,4166.96,2.050159
627,4169.62,2.056403
628,4172.28,1.927531
629,4174.94,2.076099
630,4177.6,1.962509
631,4180.2699999999995,1.953195
632,4182.93,2.057793
633,4185.59,1.996443
634,4188.25,1.927764
635,4190.91,1.913156
636,4193.57,1.920991
637,4196.2300000000005,1.975038
638,4198.89,1.977425
639,4201.55,2.0179
640,4204.21,2.039572
641,4206.87,2.077298
642,4209.530000000001,2.120232
643,4212.1900000000005,1.972002
644,4214.85,2.009633
645,4217.51,1.93324
646,4220.17,1.867815
647,4222.83,1.863332
648,4225.49,1.965929
649,4228.15,2.028703
650,4230.8099999999995,1.971305
651,4233.469999999999,1.92343
652,4236.13,1.904531
653,4238.79,2.041119
654,4241.45,1.99739
655,4244.11,2.014892
656,4246.77,1.935702
657,4249.43,1.868276
658,4252.09,1.91068
659,4254.75,1.930568
660,4257.42,1.89481
661,4260.08,1.96819
662,4262.74,1.871234
663,4265.4,1.872995
664,4268.06,1.899439
665,4270.72,1.896716
666,4273.38,1.849347
667,4276.04,2.047502
668,4278.7,1.894258
669,4281.360000000001,1.843128
670,4284.02,1.807789
671,4286.68,1.794337
672,4289.34,1.854966
673,4292.0,1.786287
674,4294.66,1.770521
675,4297.32,1.677399
676,4299.98,1.730698
677,4302.639999999999,1.78718
678,4305.3,1.812468
679,4307.96,1.78788
680,4310.62,1.886162
681,4313.28,1.808877
682,4315.94,1.848629
683,4318.6,1.794944
684,4321.26,1.79668
685,4323.92,1.755747
686,4326.58,1.733883
687,4329.24,1.807673
688,4331.900000000001,1.849812
689,4334.57,1.921424
690,4337.2300000000005,1.961271
691,4339.89,1.793998
692,4342.55,1.706733
693,4345.21,1.710012
694,4347.87,1.82753
695,4350.530000000001,1.754681
696,4353.1900000000005,1.928175
697,4355.85,1.911735
698,4358.51,1.911494
699,4361.17,1.858678
700,4363.83,1.911808
701,4365.15832,1.9145769978947362
702,4366.49,1.917353
703,4369.15,1.940833
704,4371.8099999999995,1.906723
705,4374.469999999999,1.93835
706,4377.13,1.824159
707,4379.79,1.899492
708,4382.45,1.861018
709,4385.11,1.944282
710,4387.7699999999995,1.929553
711,4390.43,1.924515
712,4393.09,2.015566
713,4395.75,1.898312
714,4398.41,1.887922
715,4401.070000000001,2.010577
716,4403.7300000000005,1.857646
717,4406.39,1.862419
718,4409.05,1.991992
719,4411.72,1.989476
720,4414.38,1.914192
721,4417.04,1.91641
722,4419.7,1.955053
723,4422.360000000001,2.012933
724,4425.02,2.02988
725,4427.68,1.915495
726,4430.34,1.883892
727,4433.0,1.910024
728,4435.66,2.025614
729,4438.32,1.933408
730,4440.98,1.901515
731,4443.639999999999,1.900623
732,4446.3,1.950886
733,4448.96,2.028846
734,4451.62,1.984201
735,4454.28,1.969135
736,4456.94,1.943727
737,4459.6,1.9384
738,4462.26,2.093236
739,4464.92,2.086366
740,4467.58,2.035236
741,4470.24,1.99575
742,4472.900000000001,2.0983
743,4475.56,2.161989
744,4478.22,2.059971
745,4480.88,1.968439
746,4483.54,2.075809
747,4486.21,2.06247
748,4488.87,1.972312
749,4491.530000000001,2.057288
750,4494.1900000000005,2.181966
751,4496.85,2.190283
752,4499.51,2.005725
753,4502.17,2.120496
754,4504.83,2.013608
755,4507.49,1.968481
756,4510.15,1.959442
757,4512.8099999999995,2.102875
758,4515.469999999999,1.920438
759,4518.13,1.844383
760,4520.79,1.834475
761,4523.45,1.865717
762,4526.11,1.928587
763,4528.7699999999995,1.915257
764,4531.43,1.934711
765,4534.09,1.862368
766,4536.75,1.87987
767,4539.41,1.878737
768,4542.070000000001,1.88662
769,4544.7300000000005,1.918465
770,4547.39,1.914343
771,4550.05,1.888718
772,4552.71,1.969354
773,4555.37,1.908389
774,4558.03,1.937245
775,4560.69,1.966728
776,4563.360000000001,1.944421
777,4566.02,2.019946
778,4568.68,2.077465
779,4571.34,2.030072
780,4574.0,1.959754
781,4576.66,1.940565
782,4579.32,1.960309
783,4581.98,1.866897
784,4584.639999999999,1.940807
785,4587.3,2.026434
786,4589.96,1.942303
787,4592.62,1.973183
788,4595.28,1.922849
789,4597.94,1.954501
790,4600.6,1.925622
791,4603.26,1.8635
792,4605.92,1.868948
793,4608.58,1.898816
794,4611.24,1.896358
795,4613.900000000001,1.924876
796,4616.56,2.013178
797,4619.22,2.047723
798,4621.88,1.864249
799,4624.54,2.035791
800,4627.2,1.932013
801,4629.86,1.90851
802,4632.5199999999995,2.005129
803,4635.18,1.885295
804,4637.84,1.915429
805,4640.51,1.970866
806,4643.17,1.93878
807,4645.83,1.908889
808,4648.49,2.002253
809,4651.15,1.939312
810,4653.8099999999995,2.009438
811,4656.469999999999,1.996251
812,4659.13,1.961659
813,4661.79,1.930297
814,4664.45,1.909252
815,4667.11,1.966433
816,4669.7699999999995,1.932588
817,4672.43,1.976124
818,4675.09,1.96465
819,4677.75,1.931239
820,4680.41,2.02928
821,4683.07,1.957492
822,4685.7300000000005,1.874324
823,4688.39,1.901251
824,4691.05,1.903639
825,4693.71,1.949103
