,lambda (Angstroms),Total Flux (erg/s/cm^2/Angstrom)
0,102.00000000000001,0.03735336064962139
1,103.9,0.04372277915829092
2,104.712855,0.04644773373053053
3,106.07000000000001,0.042651644338150975
4,108.05,0.03711335847255622
5,110.05,0.03151913037246473
6,113.91999999999999,0.020694299034590777
7,117.92,0.009505843003647669
8,120.22644299999999,0.003054460971184715
9,120.95,0.0029608139300193394
10,124.91,0.002448285714289573
11,126.94,0.002185550471247803
12,128.12,0.0020328276519840935
13,131.1,0.0016471381651604927
14,132.01,0.001529362442254769
15,133.85,0.001291219493021766
16,136.96,0.0008887098147850581
17,138.038426,0.0007491347427823687
18,140.15,0.000739487027150592
19,143.09,0.0007261186173711531
20,147.10000000000002,0.0007080052686820204
21,150.87,0.0006908631382259032
22,155.1,0.0006716464498815064
23,158.489319,0.0006562832098502304
24,159.07999999999998,0.0006521572460180657
25,162.02999999999997,0.0006315702925294335
26,166.19,0.0006025775863251249
27,170.06,0.0005756446360163092
28,172.82,0.0005564847815557585
29,176.85,0.0005285150635390847
30,180.14,0.0005056958214212544
31,181.8,0.0004942534067022273
32,181.970086,0.000493077860191121
33,186.04,0.0005027314022685565
34,190.81,0.0005142095951525445
35,193.91,0.0005217280117270441
36,197.97,0.0005316083394794532
37,202.12,0.0005418283062485412
38,204.93,0.0005488597327692972
39,208.929613,0.0005586160518527966
40,210.19,0.0005761409105252967
41,216.07999999999998,0.0006590994707313787
42,220.09,0.0007155671181840769
43,223.15,0.0007585480814422451
44,226.78,0.0008101383698171311
45,229.94,0.000862102286253671
46,234.21,0.0009382630289701346
47,239.88329199999998,0.0010307234553284398
48,240.22000000000003,0.0010277826958276404
49,245.80999999999997,0.0009679849765105898
50,252.11999999999998,0.0009076688914317718
51,256.81,0.0008494028568169289
52,259.78000000000003,0.0008293643742996403
53,264.0,0.0007909516713626181
54,268.91,0.000742748609153902
55,273.90999999999997,0.000693440017474966
56,275.42287,0.0006786455930418958
57,279.0,0.0007272878782758842
58,284.19,0.00079802826526654
59,290.14000000000004,0.0008739901825294311
60,296.21000000000004,0.0009596184150984638
61,301.03000000000003,0.0010250790465618472
62,308.04,0.001124047682362328
63,316.227766,0.001240930432064881
64,318.13,0.001228304703469213
65,327.79999999999995,0.0011631306745832886
66,337.76,0.0010941984679955106
67,348.02,0.001022273167233402
68,356.95,0.000961362357310826
69,363.078055,0.0009214759039418013
70,366.09999999999997,0.0009493786209243261
71,374.63000000000005,0.001025250260680769
72,385.13,0.0011079816719870572
73,395.01,0.001206901646054308
74,405.14,0.0013014822561050415
75,413.62,0.001376890368664787
76,416.86938299999997,0.0014035966237216306
77,422.28000000000003,0.0014331308679376002
78,430.14,0.0014792174069181419
79,441.17,0.0015495800279048308
80,451.45,0.0016070647638742927
81,459.84,0.0016541433336003416
82,469.47,0.00171096260922154
83,478.630092,0.001766470752290417
84,480.4,0.0017602602341510612
85,490.46,0.0017113283942577738
86,499.58000000000004,0.0016875787284698228
87,506.53,0.001649842270988874
88,512.4,0.001666931575245972
89,519.52,0.0016416052756395893
90,530.4,0.001593392579611859
91,540.26,0.0015384981363367283
92,549.5408739999999,0.0015165614238444492
93,550.31,0.0015175597398809667
94,560.54,0.0015425961829227675
95,569.65,0.0015692661959345764
96,580.24,0.001552195373628875
97,589.67,0.0015846810952206817
98,600.63,0.0015705806390856024
99,610.39,0.0015358943007755315
100,620.3100000000001,0.0016452426667554598
101,630.38,0.001658227005507262
102,630.957344,0.0016587568048671377
103,640.63,0.0017077594828523517
104,649.54,0.0017865753932146417
105,658.58,0.0018452943123700967
106,664.67,0.0019058122935268133
107,675.4699999999999,0.001951499639420498
108,684.8700000000001,0.0019638587367724093
109,694.39,0.0021820486268564723
110,705.6800000000001,0.0021798209597397784
111,715.49,0.0023720865155932086
112,724.43596,0.0024472800010570854
113,725.4499999999999,0.002454762353236866
114,735.54,0.002527556905488253
115,745.7700000000001,0.0026937471660959528
116,754.41,0.002813916881799816
117,764.9,0.0028785704579263813
118,775.54,0.003104451293006139
119,784.52,0.003248829729003905
120,795.44,0.003382891980796288
121,804.65,0.003515556080522281
122,815.84,0.0036394461984304094
123,825.2900000000001,0.0039039395124815103
124,831.763771,0.0035942016475108327
125,834.84,0.003433763391361735
126,844.51,0.004061213309928077
127,854.2900000000001,0.004137090278240263
128,864.18,0.004374466296298292
129,874.1899999999999,0.004625999823169966
130,884.31,0.004964964399787483
131,894.5500000000001,0.005201300485218646
132,904.91,0.005141223079463456
133,915.39,0.007938162182521913
134,925.99,0.05543721779439401
135,934.56,0.12220259121550194
136,945.38,0.24242752792686573
137,954.13,0.3681866796111941
138,954.992586,0.3687861445975735
139,965.1700000000001,0.3758843794098474
140,974.0999999999999,0.051233389810958915
141,985.38,0.26265434294920503
142,994.5,0.3282153846354465
143,1006.02,0.5698204057128042
144,1015.3299999999999,0.5830657586841759
145,1024.72,0.26324217430191793
146,1034.2,0.36561474789682685
147,1046.18,0.8347281541908151
148,1055.86,0.8308800344016505
149,1065.63,0.5952297725896526
150,1075.49,0.7665971687548216
151,1085.44,0.5517334228971574
152,1095.48,0.8443664350166602
153,1096.4782,0.8417322369406934
154,1105.62,0.8175984093275899
155,1115.8500000000001,0.7630506594488248
156,1126.1699999999998,0.6723435780461996
157,1133.98,0.9626510646978952
158,1144.47,0.861958334861312
159,1155.06,0.9626194588871065
160,1165.75,0.9963965367752787
161,1173.83,0.6274371288553939
162,1184.69,0.9849691583096082
163,1195.65,0.5828964416262001
164,1203.94,0.3688152268173083
165,1215.0800000000002,0.31980574708618004
166,1226.32,0.6862736212174293
167,1234.82,1.1597338995195305
168,1246.25,1.2981681959892977
169,1254.8899999999999,1.2087615696987277
170,1258.92541,1.1101864694823604
171,1263.59,0.9962493573154078
172,1275.28,1.4233603724527522
173,1284.12,1.535686291341899
174,1296.0,1.0848275262291232
175,1304.99,1.0699214607102807
176,1314.03,1.5007324003887745
177,1326.1899999999998,1.426643664381085
178,1335.3799999999999,1.1867096196515894
179,1344.64,1.5786955821983653
180,1353.9599999999998,1.5286425509819452
181,1366.49,1.310167853434548
182,1375.96,1.4266538378101385
183,1385.5,1.4498218294620004
184,1395.1,1.2541198273506666
185,1404.77,1.3131928325156044
186,1414.51,1.3314698449568136
187,1424.31,1.416841863634827
188,1434.1899999999998,1.4006108906285792
189,1440.81,1.5146275787559718
190,1445.43977,1.549172410059587
191,1447.46,1.5642462362532032
192,1454.1399999999999,1.5042028190259469
193,1464.22,1.3530766984195477
194,1474.3700000000001,1.3687395839200487
195,1484.5900000000001,1.4299524755274495
196,1494.88,1.4801543732417504
197,1505.24,1.3782372770629512
198,1512.1899999999998,1.1812728833908803
199,1515.67,1.3101861869910523
200,1526.18,1.2483691038984674
201,1536.76,1.0432070269127827
202,1543.85,1.2255976454545117
203,1554.5500000000002,1.1517505789377984
204,1565.3300000000002,1.1650745194003993
205,1576.18,1.2628294659699004
206,1583.45,1.3687731002150867
207,1594.43,1.4038660581259732
208,1605.48,1.38779902214376
209,1616.61,1.4135929931408608
210,1624.07,1.3132126439619187
211,1635.3300000000002,1.4365436263004052
212,1646.67,1.4699926156182062
213,1654.27,1.334537278653064
214,1659.58691,1.4116658782242932
215,1665.73,1.500782656318564
216,1673.4199999999998,1.274519555677697
217,1677.28,1.5111780149138807
218,1685.0200000000002,1.6267079461284042
219,1696.6999999999998,1.5111993875477374
220,1704.53,1.439901376101965
221,1716.3500000000001,1.3376639067163927
222,1724.27,1.340743952610324
223,1736.22,1.4666845660487682
224,1744.24,1.4333106756534815
225,1756.3300000000002,1.5751693782870206
226,1764.4299999999998,1.4071715388603594
227,1776.6599999999999,1.4566103306889933
228,1784.8700000000001,1.5008505613441923
229,1793.1,1.6532078047415477
230,1805.53,1.6456157239917453
231,1813.87,1.4836810374709608
232,1826.44,1.5358370459162534
233,1834.8700000000001,1.4600074167351726
234,1843.34,1.3224208130384048
235,1856.12,1.3194069552763392
236,1864.69,1.3815664152903533
237,1873.29,1.5536298944176021
238,1886.28,1.4072241704481787
239,1894.98,1.3532497132862094
240,1903.7299999999998,1.4533492879796308
241,1905.46072,1.4447754597257845
242,1916.93,1.3879409716140592
243,1925.77,1.3752197118606984
244,1934.66,1.4268154110453843
245,1943.5900000000001,1.5008970773805075
246,1957.07,1.3975290070778716
247,1966.1000000000001,1.582475591289088
248,1975.17,1.6380741426507417
249,1984.29,1.5358236529504419
250,1993.45,1.4871151304005794
251,2007.27,1.5500027808766603
252,2016.53,1.4734551762028913
253,2025.84,1.5787915304671685
254,2035.19,1.4768528518818833
255,2044.59,1.5679071322346445
256,2054.02,1.4904743879502338
257,2063.5,1.4904676026038695
258,2073.0299999999997,1.630452776195552
259,2077.81,1.539277850672807
260,2087.4,1.6192269749901456
261,2097.03,1.5181410664579211
262,2106.71,1.5251561168637433
263,2116.44,1.549915126207612
264,2126.21,1.5823361027019183
265,2136.02,1.4398360463466617
266,2145.88,1.5041949489294517
267,2155.79,1.5823158104502881
268,2165.74,1.525094639121562
269,2175.73,1.5111054349432733
270,2185.7799999999997,1.4835191814906405
271,2187.7616199999998,1.5007940171247351
272,2195.86,1.5714038566650534
273,2206.0,1.5215844960101934
274,2216.1800000000003,1.4299181615460437
275,2226.41,1.3783898598202826
276,2236.69,1.5058975908329097
277,2247.01,1.4296963480362472
278,2257.38,1.3511051379779733
279,2262.5899999999997,1.4024855493180304
280,2273.03,1.4532403850934996
281,2283.52,1.5092922536073574
282,2294.06,1.4198041548596032
283,2304.65,1.4179870888502377
284,2315.29,1.3308460555792603
285,2325.98,0.9696969550466709
286,2336.71,1.2135210807047923
287,2347.5,1.1789761456489798
288,2352.91,1.3053046879425898
289,2363.77,1.1727027987205205
290,2374.6800000000003,1.2235839422368397
291,2385.64,1.122311118491547
292,2396.66,1.2261703340323205
293,2407.7200000000003,1.1668585757638044
294,2413.27,1.2112812097249017
295,2424.41,1.3112725038378068
296,2435.6,1.2565118306891
297,2446.84,1.3508821902787818
298,2452.48,1.333075883168978
299,2463.7999999999997,1.325334295140081
300,2475.17,1.270017739849572
301,2486.6,1.313022223845129
302,2492.33,1.237421975664424
303,2503.8300000000004,1.4059575054937248
304,2511.88643,1.2765936590904527
305,2515.3900000000003,1.220332892736436
306,2527.0,1.1993759506188901
307,2532.83,1.230797473224808
308,2544.52,1.204122510834273
309,2556.26,1.32474953577312
310,2562.16,1.2775460406401724
311,2573.98,1.3767060453060305
312,2585.8599999999997,1.3562220347671463
313,2597.8,1.3329640090235204
314,2603.7900000000004,1.27958849108346
315,2615.81,1.2634524450668452
316,2627.88,1.3428783863796119
317,2633.94,1.410165850700686
318,2646.1,1.5622417692063402
319,2652.2000000000003,1.6180272233909199
320,2664.44,1.4174451216235846
321,2676.7400000000002,1.5135280046515076
322,2682.91,1.507438441097222
323,2695.29,1.4313493038521559
324,2707.73,1.4936211514023479
325,2713.97,1.3979915701091967
326,2726.5,1.396377394852276
327,2732.79,1.4867878008885065
328,2745.4,1.2467576053585967
329,2758.07,1.286128394623945
330,2764.43,1.3506147829213102
331,2777.19,1.428989549379546
332,2783.59,1.3375299275404164
333,2796.44,1.0492016711915393
334,2802.8900000000003,1.1431420366817915
335,2815.82,1.4242127600599253
336,2822.31,1.530464115413683
337,2835.34,1.4667148134505803
338,2841.88,1.42432015613372
339,2854.9999999999995,1.3587518313635045
340,2868.17,1.5475504939226707
341,2874.79,1.5627968163328214
342,2884.0315,1.5491615195582058
343,2888.0499999999997,1.5432334535819516
344,2894.7099999999996,1.5370754190422515
345,2908.0699999999997,1.714786349755406
346,2928.23,1.6406112452028008
347,2948.5299999999997,1.6173641399241356
348,2968.9700000000003,1.6696010339194107
349,2989.55,1.6804259271886262
350,3010.27,1.718824819731782
351,3031.14,1.7260327114970162
352,3052.15,1.729299602536191
353,3073.2999999999997,1.748593492849306
354,3087.49,1.7711074192579632
355,3108.8900000000003,1.778585308274543
356,3130.44,1.7575631965132015
357,3152.14,1.773179083973939
358,3166.6899999999996,1.7836550085155853
359,3188.64,1.6833248946797874
360,3210.7400000000002,1.7701527800660684
361,3232.9999999999995,1.6706016646225668
362,3247.92,1.808995587245341
363,3270.44,1.8936264704534425
364,3293.1,1.8800383529354845
365,3308.3,1.8825452741061393
366,3311.31121,1.8779444922160193
367,3323.58,1.8591980421735095
368,3331.24,1.8950382827684586
369,3338.92,1.7779465213806271
370,3346.6099999999997,1.915138759001405
371,3354.33,1.8428749936480118
372,3362.06,1.753068227303228
373,3369.81,1.8496444589756638
374,3377.58,1.8046176886653185
375,3385.36,1.8521589173635828
376,3393.1699999999996,1.9452011430876759
377,3400.99,2.0713523678203787
378,3408.83,1.8774215905703004
379,3416.69,1.8830438113374417
380,3424.57,1.995938030121802
381,3432.46,2.062724247914772
382,3440.37,1.9803764637249608
383,3448.3,1.828323677552369
384,3456.25,1.8636038893969964
385,3464.2200000000003,1.776884099258843
386,3472.21,1.9586133071379088
387,3480.21,1.8207625140255843
388,3488.23,1.9078967189304787
389,3496.2700000000004,1.8830199218525927
390,3504.33,1.9685831227919255
391,3512.4100000000003,1.9030903217484776
392,3520.51,2.0126015187222492
393,3528.6299999999997,1.8074777137132396
394,3536.7599999999998,1.9877759077128396
395,3544.91,2.068536099729659
396,3553.08,2.0891522897636974
397,3560.4799999999996,2.180906556134797
398,3563.1400000000003,2.363222292424949
399,3565.8,2.2430350287151013
400,3568.46,2.0521927650052536
401,3571.12,2.2855265012954056
402,3573.7799999999997,2.3512112375855576
403,3576.44,2.1772289738757094
404,3579.1,1.8047037101658618
405,3581.7599999999998,1.5972934464560138
406,3584.4199999999996,1.8429071827461658
407,3587.09,1.6009149180449276
408,3589.75,1.9181076543350797
409,3592.41,1.9329453906252316
410,3595.07,2.0387821269153834
411,3597.73,2.102445863205536
412,3600.39,1.9943435994956877
413,3603.0499999999997,2.0713083357858397
414,3605.7099999999996,1.751216072075992
415,3608.3700000000003,1.7651038083661441
416,3611.03,1.8737905446562961
417,3613.69,1.7895892809464482
418,3616.35,2.1510040172366005
419,3619.0099999999998,1.8623647535267525
420,3621.67,1.6397274898169043
421,3624.33,1.7521912261070565
422,3626.99,2.0449239623972084
423,3629.6499999999996,1.9454946986873607
424,3632.3100000000004,2.0295504349775126
425,3634.9700000000003,1.905392171267665
426,3637.63,1.877348907557817
427,3640.29,2.163625643847969
428,3642.95,1.9732213801381209
429,3645.61,1.906561116428273
430,3648.27,1.964304852718425
431,3650.93,2.046752589008577
432,3653.5899999999997,2.101546325298729
433,3656.25,2.284179061588881
434,3658.9100000000003,2.025653797879033
435,3661.57,2.082275534169186
436,3664.2400000000002,2.148631269467947
437,3666.9,1.8692510057580993
438,3669.56,2.0464007420482515
439,3672.22,2.1868344783384033
440,3674.8799999999997,2.1190292146285556
441,3677.5400000000004,2.1877599509187076
442,3680.2000000000003,2.10711568720886
443,3682.86,2.1125244234990115
444,3685.52,2.305000159789164
445,3688.18,2.4461398960793157
446,3690.84,2.2099806323694677
447,3693.5,2.15582036865962
448,3696.16,1.988148104949772
449,3698.8199999999997,2.009319841239924
450,3701.4799999999996,1.7382475775300763
451,3704.1400000000003,1.7538653138202283
452,3706.8,2.03707105011038
453,3709.46,1.8479337864005323
454,3712.12,2.2637285226906845
455,3714.7799999999997,2.3162332589808363
456,3717.44,3.3731899952709887
457,3720.1,4.299507731561141
458,3722.7599999999998,5.686791467851293
459,3725.4199999999996,6.034952204141445
460,3728.08,5.213643940431597
461,3730.7400000000002,4.052215676721748
462,3733.4,3.151479413011901
463,3736.06,2.6600591493020533
464,3738.72,2.385233885592205
465,3741.39,2.1634856208909667
466,3744.0499999999997,2.142069357181119
467,3746.7099999999996,2.164972093471271
468,3749.3700000000003,2.3549858297614232
469,3752.03,2.448811566051575
470,3754.69,2.241621302341727
471,3757.35,2.261161038631879
472,3760.0099999999998,2.5228777749220312
473,3762.67,2.4393105112121836
474,3765.33,2.4245942475023354
475,3767.99,2.5387149837924876
476,3770.6499999999996,2.4897447200826393
477,3773.3100000000004,2.6203344563727917
478,3775.9700000000003,2.6968371926629437
479,3778.63,2.606691928953096
480,3781.29,2.8016026652432475
481,3783.95,2.9414524015334
482,3786.61,2.744592137823552
483,3789.27,2.3578388741137037
484,3791.93,2.0838916104038563
485,3794.5899999999997,2.2647203466940082
486,3797.25,2.3102570829841604
487,3799.9100000000003,2.167435819274312
488,3801.8939600000003,2.4167351135789192
489,3802.57,2.501684569529287
490,3805.23,2.8905333607665264
491,3807.89,2.7216921520037656
492,3810.5499999999997,2.873478943241005
493,3813.21,2.854962734478244
494,3815.87,2.8276755257154833
495,3818.5400000000004,2.8583593161679
496,3821.2000000000003,2.709010107405139
497,3823.86,2.3166788986423783
498,3826.52,2.1426476898796176
499,3829.18,2.0276264811168567
500,3831.84,1.770344272354096
501,3834.5,1.8355900635913351
502,3837.16,2.2035588548285743
503,3839.8199999999997,2.2681476460658136
504,3842.4799999999996,2.451485437303053
505,3845.1400000000003,3.033539228540292
506,3847.8,2.920247019777531
507,3850.46,3.0089328110147706
508,3853.12,3.07325360225201
509,3855.7799999999997,3.272307393489249
510,3858.44,3.133189184726488
511,3861.1,3.157552975963727
512,3863.7599999999998,3.189957767200966
513,3866.42,3.3719575584382055
514,3869.08,3.1899583496754444
515,3871.7400000000002,2.958501140912684
516,3874.4,2.723389932149923
517,3877.06,2.6283707233871625
518,3879.72,2.5426105146244016
519,3882.38,2.4285383058616405
520,3885.04,2.2375490970988796
521,3887.7,2.2018318883361188
522,3890.36,2.522144679573358
523,3893.03,2.741163470025775
524,3895.69,2.8990422612630145
525,3898.35,3.0388900525002533
526,3901.0099999999998,3.1480408437374927
527,3903.67,3.1453616349747318
528,3906.33,2.968236426211971
529,3908.99,3.1551072174492103
530,3911.6499999999996,3.3344260086864494
531,3914.31,3.1414637999236885
532,3916.9700000000003,2.9662885911609274
533,3919.63,2.8734623823981673
534,3922.29,2.9986931736354063
535,3924.95,2.8605499648726456
536,3927.61,2.5287137561098847
537,3930.27,2.4495315473471235
538,3932.93,2.383262338584363
539,3935.59,2.276938129821602
540,3938.25,2.467317921058841
541,3940.9100000000003,2.951429712296081
542,3943.57,3.13464650353332
543,3946.23,3.181181294770559
544,3948.89,3.212855086007798
545,3951.5499999999997,3.1434178772450374
546,3954.21,3.0764176684822764
547,3956.87,2.7467734597195155
548,3959.53,2.658576250956755
549,3962.19,2.625686042193994
550,3964.85,2.3795858334312334
551,3967.51,2.222730624668473
552,3970.18,2.1915344151208895
553,3972.84,2.3824252063581284
554,3975.5,2.844460997595368
555,3978.16,2.8995237888326066
556,3980.8199999999997,2.899036580069846
557,3983.48,3.132686371307085
558,3986.1400000000003,3.3371001625443246
559,3988.8,3.388020953781564
560,3991.46,3.3353957450188028
561,3994.12,3.428465536256042
562,3996.7799999999997,3.536885327493281
563,3999.44,3.4075131187305203
564,4002.1,3.4464959099677595
565,4004.7599999999998,3.2691277012049986
566,4007.42,3.363660492442238
567,4010.08,3.6842892836794774
568,4012.7400000000002,3.5948740749167167
569,4015.4,3.4659898661539557
570,4018.06,3.4119016573911947
571,4020.72,3.580013448628434
572,4023.3799999999997,3.565395239865673
573,4026.04,3.318101031102912
574,4028.7000000000003,3.4477178223401515
575,4031.36,3.3548916135773905
576,4034.02,3.47841740481463
577,4036.6800000000003,3.429934196051869
578,4039.34,3.5790419872891084
579,4042.0,3.4964487785263474
580,4044.67,3.659669568978764
581,4047.33,3.4708493602160035
582,4049.99,3.5317591514532425
583,4052.6499999999996,3.413838942690482
584,4055.31,3.4250467339277213
585,4057.9700000000003,3.4433195251649606
586,4060.63,3.3953233164021994
587,4063.29,3.3831421076394386
