,lambda (Angstroms),Total Flux (erg/s/cm^2/Angstrom)
0,100.05,128.83795306732767
1,101.91000000000001,128.4795483005438
2,104.05,128.06719012800752
3,104.712855,127.93946411097176
4,105.98,126.65689003335851
5,107.95,124.66290281571717
6,109.96000000000001,122.62842854797145
7,114.09,118.44814062469294
8,118.1,114.38931385172762
9,120.22644299999999,112.23697874459927
10,121.11999999999999,111.47870312312632
11,125.08999999999999,108.10974712228065
12,127.13000000000001,106.37859592789144
13,128.01,105.63182482442946
14,130.99,103.10298631497854
15,131.9,102.33075710571669
16,134.04,100.51474555866136
17,136.85,98.13016964874289
18,138.038426,97.12166715396684
19,140.03,95.91364224128041
20,142.97,94.13033253584237
21,146.97,91.7040608277634
22,151.09,89.20500096844204
23,154.95999999999998,86.85758309087564
24,158.489319,84.71681138125425
25,158.94,84.51013967678993
26,161.89,83.15733907465723
27,166.05,81.2496609374125
28,169.92,79.47496997800457
29,173.07,78.03045408081206
30,177.11,76.17780512060325
31,179.98,74.86169063649456
32,181.970086,73.94908401307227
33,182.07000000000002,73.91412909317441
34,185.88,72.58120032632691
35,191.09,70.75848146142526
36,194.19,69.67394624430531
37,197.79999999999998,68.41098749146578
38,201.94,66.96260820150582
39,205.23,65.81160147107883
40,208.929613,64.51729160391329
41,210.01,64.23312573480369
42,215.89000000000001,62.68655463540739
43,219.89999999999998,61.63183522918697
44,222.96,60.82698700399159
45,227.10999999999999,59.73544447635819
46,229.74,59.043695838370425
47,234.01000000000002,57.92059063525415
48,239.88329199999998,56.37578388944692
49,240.01000000000002,56.35010178628592
50,246.17,55.10154798168934
51,251.9,53.94014971867296
52,257.18,52.8699607432996
53,260.15,52.26797944470061
54,263.77000000000004,51.53425139724425
55,269.3,50.41339059545023
56,274.3,49.3999540658234
57,275.42287,49.17236257062732
58,278.76,48.65326042889985
59,283.94,47.847493469237776
60,289.89,46.92195033989931
61,295.96,45.97774079460462
62,300.77,45.22952861787073
63,307.77,44.14065434834294
64,316.227766,42.82501952351338
65,317.86,42.63538136874244
66,328.27000000000004,41.42591434947216
67,338.25,40.26640610276373
68,347.71999999999997,39.166151284015456
69,356.64,38.12979722086659
70,363.078055,37.38180344809135
71,365.79,37.145840112551284
72,375.17,36.32969668535861
73,384.8,35.49180103496716
74,394.67,34.6330232529814
75,404.79,33.75249324850392
76,414.22,32.93199938075637
77,416.86938299999997,32.701479497181985
78,421.92,32.365889203913476
79,429.77000000000004,31.844292774096644
80,440.79,31.112064414115007
81,451.06,30.429670107882227
82,460.5,29.802425487386277
83,470.14,29.16189179197306
84,478.630092,28.59776420208814
85,479.99,28.528269346366024
86,490.03999999999996,28.014688055527444
87,500.29999999999995,27.49037522937056
88,506.09000000000003,27.194491098382624
89,511.96,26.894518919204344
90,520.27,26.46985622918686
91,529.95,25.975182975553867
92,539.8,25.471822242975453
93,549.5408739999999,24.97403838680418
94,549.8299999999999,24.962767227764356
95,560.06,24.563965454837778
96,570.47,24.15814667204219
97,579.74,23.796768959647757
98,590.52,23.3765265623196
99,600.11,23.002674373146352
100,609.86,22.62258523854669
101,619.77,22.23625891042963
102,629.84,21.843695158175155
103,630.957344,21.800137151562392
104,640.0799999999999,21.518212113504298
105,650.4799999999999,21.19681326075982
106,658.01,20.96410822798199
107,665.63,20.72862171944448
108,674.89,20.44245267228589
109,684.28,20.152266075336772
110,695.4000000000001,19.80862006113289
111,705.07,19.50978013336878
112,716.53,19.15562724177813
113,724.43596,18.911304800384897
114,726.49,18.864186330705007
115,734.91,18.671036989503705
116,745.13,18.43660009321887
117,755.5000000000001,18.198721013247905
118,764.24,17.998234091966204
119,774.88,17.754164003130214
120,785.65,17.50711246041624
121,794.75,17.29836880749783
122,805.81,17.04466430205068
123,815.14,16.83064558421354
124,824.58,16.614111073526566
125,831.763771,16.44930573965573
126,834.13,16.40872852126955
127,845.7299999999999,16.209860666987176
128,855.52,16.04200499066089
129,865.43,15.872100145883921
130,875.4499999999999,15.700311672402165
131,885.59,15.526471787869726
132,895.8399999999999,15.3507418711325
133,904.1299999999999,15.208605677689711
134,914.6,15.029256564542903
135,925.19,14.850681933345419
136,935.91,14.671536531951363
137,944.5699999999999,14.531562090610644
138,954.992586,14.361002497361442
139,955.5,14.352886899834242
140,964.34,14.20856288153851
141,975.51,13.996414043771168
142,984.54,13.866137079595779
143,995.94,13.678548636816217
144,1005.15,13.541441901544307
145,1014.4499999999999,13.38602640322414
146,1023.84,13.20201400185571
147,1035.7,13.01644549905171
148,1045.28,12.893568686803622
149,1054.95,12.732751591507274
150,1064.71,12.553956363162667
151,1074.56,12.4038900417698
152,1084.51,12.221873112545534
153,1094.54,12.078558395056149
154,1096.4782,12.046051582869104
155,1104.6699999999998,11.933570479650117
156,1114.89,11.792276142123711
157,1125.21,11.644509067909185
158,1135.62,11.528037534675349
159,1146.1200000000001,11.376513902422195
160,1154.07,11.277966435716236
161,1164.75,11.138363645424459
162,1175.52,10.955800746113368
163,1183.67,10.88078313603116
164,1194.63,10.691445471012633
165,1205.6799999999998,10.517272816974796
166,1214.04,10.38680531584752
167,1225.27,10.278461483771054
168,1233.76,10.215468172949219
169,1245.18,10.079393015165314
170,1253.81,9.957766946980106
171,1258.92541,9.877465330839025
172,1265.4099999999999,9.801244065280548
173,1274.18,9.770193129124806
174,1285.9699999999998,9.672222054292861
175,1294.8899999999999,9.541938618202872
176,1303.8600000000001,9.451628082134798
177,1315.9299999999998,9.388113547425592
178,1325.0500000000002,9.295504711423266
179,1334.2300000000002,9.181394755447245
180,1343.48,9.140575859501913
181,1355.9099999999999,9.014652004950507
182,1365.3100000000002,8.89876790907092
183,1374.78,8.825744873222021
184,1384.31,8.739420417399423
185,1393.8999999999999,8.622799741603123
186,1403.5600000000002,8.540323025837505
187,1416.55,8.417283851531572
188,1426.3700000000001,8.335801115836087
189,1436.26,8.238324640171294
190,1442.89,8.1937859830775
191,1445.43977,8.17688143917686
192,1446.21,8.174052567213645
193,1456.24,8.099746906192216
194,1466.3300000000002,8.010990749292295
195,1476.5,7.944201997887717
196,1483.31,7.9106020156787515
197,1493.59,7.85195612183027
198,1503.94,7.770989682790211
199,1510.89,7.692780210198094
200,1517.8600000000001,7.667661038979815
201,1524.8700000000001,7.609100270509204
202,1535.44,7.50471744658134
203,1546.08,7.4686874774619
204,1553.2199999999998,7.406137467921223
205,1563.98,7.336108707044795
206,1574.8200000000002,7.283079151663708
207,1585.74,7.228686101777968
208,1596.73,7.16500930670065
209,1604.1,7.111574262959083
210,1615.22,7.040391426811697
211,1626.42,6.946700896159654
212,1633.92,6.919787811348018
213,1645.25,6.852280339625906
214,1656.65,6.747436722712219
215,1659.58691,6.7411248906081145
216,1664.3,6.740647508957372
217,1671.9800000000002,6.6599237398219255
218,1675.8400000000001,6.688288913667915
219,1683.5700000000002,6.6746869905667445
220,1695.24,6.597617574966402
221,1703.07,6.54840034393378
222,1714.8700000000001,6.476805108022549
223,1726.76,6.420294934973015
224,1734.7299999999998,6.407382212836362
225,1746.75,6.345013319475939
226,1754.82,6.335707389407836
227,1766.98,6.243996604943381
228,1775.14,6.220554537736971
229,1783.33,6.190538158151125
230,1795.69,6.160229057823769
231,1803.98,6.119506470306473
232,1816.49,6.032643508081941
233,1824.8700000000001,6.001878883426338
234,1833.29,5.948553675598156
235,1845.9999999999998,5.859990497510721
236,1854.52,5.823933181751086
237,1863.08,5.795218082818873
238,1876.0,5.76398031807539
239,1884.6599999999999,5.6966147112117245
240,1893.3500000000001,5.644732591968623
241,1905.46072,5.602610390449865
242,1906.48,5.600368926986716
243,1915.28,5.561214964694276
244,1924.12,5.528134180300506
245,1933.0,5.507929973805406
246,1946.4,5.474724569860098
247,1955.3799999999999,5.423494358111675
248,1968.94,5.40911066576105
249,1978.03,5.3883862682339725
250,1982.58,5.352886729207767
251,1996.3300000000002,5.293135306875827
252,2005.5400000000002,5.272936443044761
253,2014.8,5.226491976587034
254,2024.1000000000001,5.213316088027978
255,2033.44,5.162264477367591
256,2042.83,5.146227664080544
257,2056.99,5.07886334020998
258,2066.48,5.046797421669607
259,2076.02,5.038579300502576
260,2085.6,4.999358457234214
261,2095.23,4.94609711133919
262,2104.9,4.9140247433428375
263,2114.62,4.882529072719824
264,2124.3799999999997,4.854942279995481
265,2134.18,4.791361565169808
266,2144.04,4.767591367192141
267,2153.93,4.746447727638477
268,2163.87,4.699469385458152
269,2173.86,4.660379640651164
270,2183.9,4.618786793217515
271,2187.7616199999998,4.611741417113581
272,2193.98,4.6074521233593755
273,2204.1,4.572082139311798
274,2214.28,4.530226953184885
275,2224.5,4.494342332338417
276,2234.77,4.495461943092505
277,2245.08,4.457725319127037
278,2255.44,4.426105226762124
279,2265.85,4.414171365997768
280,2276.31,4.403397936833966
281,2286.82,4.39068603927072
282,2297.38,4.351631973308029
283,2302.67,4.339613456646795
284,2313.3,4.303183954924881
285,2323.98,4.208978984803524
286,2334.7000000000003,4.23897067996261
287,2345.48,4.207929873042364
288,2356.31,4.211518497722673
289,2367.1800000000003,4.162762387683425
290,2372.64,4.16288269846408
291,2383.5899999999997,4.1174400189857225
292,2394.59,4.118316971107918
293,2405.65,4.080993521150782
294,2416.75,4.0663811364740905
295,2422.32,4.074491576775967
296,2433.5,4.036947322660163
297,2444.74,4.035423766465027
298,2456.02,4.004795675550334
299,2467.36,3.981643882556308
300,2473.04,3.958663552379407
301,2484.46,3.9516634899462693
302,2495.9300000000003,3.906780759113687
303,2507.45,3.920592259881662
304,2511.88643,3.88382088144595
305,2513.23,3.873497562802423
306,2519.02,3.8778451554415034
307,2524.83,3.8499742808703563
308,2536.48,3.8358035809127187
309,2542.33,3.821788571921116
310,2554.0600000000004,3.828965103122568
311,2565.85,3.806734732693338
312,2577.7,3.812722260633424
313,2583.64,3.8029697991957967
314,2595.5699999999997,3.781402758294972
315,2607.55,3.7510267993685775
316,2613.56,3.7401803526951536
317,2625.6200000000003,3.7399658249278485
318,2637.7400000000002,3.728192195529861
319,2643.82,3.753512963620639
320,2656.02,3.7370239653817414
321,2662.1499999999996,3.6955028154469507
322,2674.43,3.698130548367141
323,2686.7799999999997,3.675787296051535
324,2692.9700000000003,3.6536765444860597
325,2705.4,3.645435023329543
326,2717.89,3.6108006005423436
327,2724.15,3.606036763741072
328,2736.73,3.6115489885078476
329,2743.04,3.5473805336810074
330,2755.7,3.533995989606872
331,2762.0499999999997,3.539830700359576
332,2774.8,3.543945703839415
333,2787.6099999999997,3.511599105688573
334,2794.04,3.409325547600366
335,2806.9300000000003,3.423046480608611
336,2813.3999999999996,3.4955426880999503
337,2826.39,3.489258585057057
338,2832.9100000000003,3.4591570745228255
339,2845.98,3.431968802639022
340,2852.54,3.418957457684336
341,2865.71,3.4283534497493933
342,2872.31,3.4114125703742517
343,2884.0315,3.399196521742615
344,2885.57,3.3983923194825683
345,2892.22,3.38478931873687
346,2912.27,3.4023109277667554
347,2932.46,3.370977492570416
348,2952.79,3.3502927131478515
349,2973.25,3.339206478372363
350,2986.98,3.3328140553289884
351,3007.68,3.322051887594257
352,3028.5299999999997,3.3040734867599983
353,3049.52,3.2845736416995144
354,3070.66,3.264977863539504
355,3091.95,3.252908752279966
356,3113.38,3.2285630967942027
357,3127.7500000000005,3.2148488858595123
358,3149.43,3.2012322085412044
359,3171.26,3.181309298123369
360,3193.24,3.1406195546060074
361,3207.9800000000005,3.1457362553591492
362,3230.22,3.1141674011359415
363,3252.61,3.1085691138132043
364,3267.62,3.106290714987199
365,3290.27,3.0877266169586166
366,3311.31121,3.0705638526662486
367,3313.08,3.0697654298169725
368,3320.72,3.075177221342308
369,3328.37,3.071765666783252
370,3336.04,3.0755867200554143
371,3343.7299999999996,3.0454768811587956
372,3351.44,3.058040050093394
373,3359.17,3.0367711268592115
374,3366.9100000000003,3.0333142575406375
375,3374.68,3.003602949968891
376,3382.4500000000003,3.0104702423971443
377,3390.25,3.0410867965722255
378,3398.07,3.037678758578524
379,3405.9,3.0141911745004317
380,3413.75,3.014336398253558
381,3421.6200000000003,3.0350719298379016
382,3429.51,3.0255827692534645
383,3437.4100000000003,3.028636062584636
384,3445.34,2.9831278176626346
385,3453.28,3.023440626656242
386,3461.24,2.9720129434810683
387,3469.2200000000003,2.9784129681371123
388,3477.22,2.957187200624375
389,3485.2300000000005,2.9672613870272455
390,3493.27,2.966325735176944
391,3501.32,2.965448037242252
392,3509.39,2.943912847138778
393,3517.48,2.9280995648665216
394,3525.59,2.9457641904254834
395,3533.7200000000003,2.9583336238156637
396,3534.23,3.485729573511727
397,3536.87,2.3722341072325235
398,3539.52,2.666632694868929
399,3542.16,1.9965294285897257
400,3544.81,3.722480416226131
401,3547.45,3.432826049946928
402,3550.1,3.5284378375833336
403,3552.75,3.5780976252197387
404,3555.39,2.660625558940535
405,3558.04,2.9620091465769414
406,3560.68,3.558416680297738
407,3563.33,2.6136076679341436
408,3565.9800000000005,2.112445085570548
409,3568.6200000000003,3.1723798892913453
410,3571.2699999999995,2.4631722769277515
411,3573.9100000000003,3.880022310648547
412,3576.56,3.376895098284953
413,3579.2000000000003,2.9622086320057495
414,3581.85,3.333383519642155
415,3584.5,3.102025307278561
416,3587.14,3.3445459409993576
417,3589.79,3.594736728635763
418,3592.43,2.8387743623565598
419,3595.08,2.478025749992965
420,3597.73,2.137347697629371
421,3600.37,2.1150159213501674
422,3603.02,3.4593513589865728
423,3605.66,2.5536101927073696
424,3608.31,2.9435751803437746
425,3610.95,2.6457935140645716
426,3613.6000000000004,2.397496901700977
427,3616.2499999999995,2.6316294893373833
428,3618.8900000000003,2.4622022230581786
429,3621.54,2.652232410694585
430,3624.1800000000003,3.0600270444153814
431,3626.83,3.144034832051787
432,3629.48,2.6473408196881927
433,3632.12,2.7463864534089892
434,3634.77,2.991685041045395
435,3637.41,3.1338306747661915
436,3640.06,2.9019695624025967
437,3642.71,3.3261232500390023
438,3645.35,2.912880483759799
439,3648.0,3.006172871396205
440,3650.64,2.8807554051170015
441,3653.29,2.835592792753407
442,3655.93,2.6059095264742034
443,3658.5800000000004,2.537347614110608
444,3661.2299999999996,2.830983201747015
445,3663.8700000000003,3.6343509354678107
446,3666.52,3.5535847231042164
447,3669.1600000000003,2.1031689568250127
448,3671.81,2.8030560444614188
449,3674.46,2.7817643320978247
450,3677.1,3.103110565818621
451,3679.75,2.7417032534550265
452,3682.39,3.607178987175823
453,3685.04,3.0842287748122286
454,3687.68,3.1077744085330252
455,3690.33,2.413277396169431
456,3692.98,2.4664835838058363
457,3695.62,2.747459317526633
458,3698.27,2.7860477051630386
459,3700.91,2.3290766388838353
460,3703.5600000000004,2.8434760265202406
461,3706.2099999999996,2.752423414156647
462,3708.8500000000004,3.3458492478774424
463,3711.5,2.9041415355138485
464,3714.1400000000003,3.5317596692346447
465,3716.79,2.8780390568710503
466,3719.4300000000003,2.6833932905918467
467,3722.08,3.230570878228253
468,3724.73,3.494374665864658
469,3727.37,3.455375299585455
470,3730.02,4.16691508722186
471,3732.66,3.021090720942657
472,3735.31,3.2605545085790624
473,3737.96,2.980168296215468
474,3740.6,3.004685929936265
475,3743.25,2.69905001757267
476,3745.89,2.539347151293467
477,3748.5400000000004,3.4421041389298725
478,3751.1800000000003,2.309074072650669
479,3753.8300000000004,3.269171560287074
480,3756.48,3.1851753479234803
481,3759.1200000000003,2.8107962816442766
482,3761.77,2.8375589692806824
483,3764.4100000000003,2.7702961030014785
484,3767.06,2.7517643906378844
485,3769.71,2.36576597827429
486,3772.35,2.582313011995087
487,3775.0,2.8609236996314924
488,3777.64,2.8170610333522887
489,3780.29,3.1771948209886944
490,3782.93,3.5031854547094907
491,3785.58,3.2055462423458962
492,3788.23,3.357526029982302
493,3790.87,3.1199716637030983
494,3793.5200000000004,3.026596451339504
495,3796.1600000000003,2.3377905850603007
496,3798.8100000000004,2.311261072696706
497,3801.46,2.556967960333112
498,3801.8939600000003,2.5806377058745937
499,3804.1000000000004,2.7015290818511764
500,3806.75,3.0396959609051266
501,3809.3900000000003,2.5126069204154766
502,3812.04,3.130758599469427
503,3814.69,3.1228182785233773
504,3817.33,3.307642238033728
505,3819.98,3.4251699170876777
506,3822.62,3.4416468765980284
507,3825.27,2.7979860556519784
508,3827.91,2.906869515162329
509,3830.56,3.128098194216279
510,3833.21,2.943184873270229
511,3835.85,2.9175018327805797
512,3838.5000000000005,3.2787235118345297
513,3841.1400000000003,3.22606647134488
514,3843.7900000000004,3.10156515039883
515,3846.44,3.323326829452781
516,3849.08,3.230142788963131
517,3851.73,3.3756824680170814
518,3854.37,3.049847427527432
519,3857.02,3.351910106581382
520,3859.66,3.286674066091732
521,3862.31,3.355708745145683
522,3864.96,3.233905424199633
523,3867.6,3.299377383709983
524,3870.25,3.281336062763933
525,3872.89,2.7256724222742834
526,3875.54,2.9745997013282337
527,3878.19,3.040372380382184
528,3880.83,2.7698997398925345
529,3883.4800000000005,2.9706780189464843
530,3886.1200000000003,3.326045978456835
531,3888.7699999999995,3.7668446575107852
532,3891.4100000000003,3.5597996170211355
533,3894.06,3.1435502960750856
534,3896.71,3.160138975129036
535,3899.35,3.276456934639386
536,3902.0,3.4295556136933367
537,3904.64,3.517173573203687
538,3907.29,3.7389662522576375
539,3909.94,3.1613329313115868
540,3912.58,3.4509238908219375
541,3915.23,3.6949875698758876
542,3917.87,3.5323585293862383
543,3920.52,3.0794402084401886
544,3923.16,3.001564167950539
545,3925.81,3.432043847004489
546,3928.4599999999996,3.3402895260584398
547,3931.1000000000004,3.0302954855687894
548,3933.7499999999995,3.24525116462274
549,3936.3900000000003,3.27509012413309
550,3939.04,3.1412408031870402
551,3941.69,3.441577482240991
552,3944.33,3.295728441751341
553,3946.98,2.943657120805291
554,3949.62,3.3791690803156413
555,3952.27,3.605760759369592
556,3954.91,2.9059337188799423
557,3957.56,3.400811397933892
558,3960.21,3.6726660769878423
559,3962.85,2.8691390364981926
560,3965.5,2.440784115552143
561,3968.14,2.7030528750624936
562,3970.79,2.9056193541164435
563,3973.4399999999996,3.0691010331703943
564,3976.0800000000004,3.2027339926807437
565,3978.7299999999996,3.2603186717346944
566,3981.3700000000003,3.7489056312450444
567,3984.02,3.6375453102989947
568,3986.67,3.448269989352945
569,3989.31,3.8600689488632955
570,3991.96,3.808119627917246
571,3994.6,3.5463695874275962
572,3997.25,3.477230266481546
573,3999.89,3.3709362259918967
574,4002.54,3.7581909050458466
575,4005.19,3.8418725840997974
576,4007.83,3.2038095436101477
577,4010.48,3.473249222664098
578,4013.12,3.6863681821744483
579,4015.77,3.4494768612283986
580,4018.4199999999996,3.592349540282348
581,4021.0600000000004,3.8112714997926984
582,4023.7099999999996,3.4536471788466496
583,4026.3500000000004,3.3203451383569993
584,4029.0,3.3179568174109497
585,4031.6400000000003,3.3802297769212997
586,4034.29,3.5457814559752503
587,4036.94,3.6322231350292
588,4039.58,3.633049094539551
589,4042.23,3.4423927735935007
590,4044.87,3.6071747331038515
591,4047.52,3.5309784121578014
592,4050.17,3.487278091211752
593,4052.81,3.363261050722102
594,4055.46,3.4625967297760525
595,4058.1,3.2704176892864028
596,4060.75,3.179385368340353
597,4063.39,3.3806783278507035
598,4066.0400000000004,3.143442006904653
599,4068.6899999999996,3.5464116859586037
600,4071.3300000000004,3.430581645468954
601,4073.98,3.316086324522904
602,4076.6200000000003,3.4183212840332544
603,4079.27,3.5902089630872047
604,4081.92,3.3012166421411546
605,4084.56,3.5761296016515054
606,4087.21,3.3364152807054555
607,4089.85,3.226481240215806
608,4092.5,3.1730899192697564
