,lambda (Angstroms),Total Flux (erg/s/cm^2/Angstrom)
0,100.05999999999999,5.958982e-13
1,101.92,9.95957e-13
2,104.05,1.500409e-12
3,104.712855,1.7707827710103108e-12
4,105.99000000000001,2.291721e-12
5,107.96,3.557892e-12
6,109.97,6.211233e-12
7,114.09,1.283052e-11
8,118.1,2.438908e-11
9,120.22644299999999,8.788650668648798e-11
10,121.13000000000001,1.148675e-10
11,125.10000000000001,1.982548e-10
12,127.13000000000001,2.501664e-10
13,128.01,2.859321e-10
14,131.0,3.964207e-10
15,131.9,5.026185e-10
16,134.05,6.154893e-10
17,136.85,9.554529e-10
18,138.038426,1.074199792589528e-09
19,140.04000000000002,1.274196e-09
20,142.97,4.075656e-09
21,146.98,1.291876e-08
22,151.1,1.762848e-08
23,154.97,2.405463e-08
24,158.489319,3.181007723471358e-08
25,158.95,3.282527e-08
26,161.9,4.08534e-08
27,166.06,5.48489e-08
28,169.93,7.114852e-08
29,173.08,8.674466e-08
30,177.11999999999998,1.107134e-07
31,179.99,1.322009e-07
32,181.970086,1.4746556298181837e-07
33,182.07999999999998,1.483129e-07
34,185.89000000000001,1.858755e-07
35,191.1,2.433316e-07
36,194.2,2.865729e-07
37,197.81,3.485286e-07
38,201.95999999999998,4.24791e-07
39,204.76999999999998,4.899757e-07
40,208.929613,5.674260302147998e-07
41,210.02,5.877286e-07
42,215.9,7.965771e-07
43,219.92000000000002,9.444724e-07
44,222.98,1.054862e-06
45,227.12,1.24515e-06
46,229.75,2.099928e-06
47,234.01999999999998,3.734219e-06
48,239.88329199999998,5.405727454067217e-06
49,240.03,5.447551e-06
50,246.18,5.98706e-06
51,251.92,7.399623e-06
52,257.19,7.034194e-06
53,260.16999999999996,8.694089e-06
54,263.79,1.000499e-05
55,268.69,1.114822e-05
56,273.69,1.233706e-05
57,275.42287,1.2763243886208251e-05
58,278.78,1.35889e-05
59,283.96000000000004,1.50039e-05
60,289.90999999999997,1.603946e-05
61,295.98,1.812155e-05
62,300.79,1.941764e-05
63,307.79,2.209077e-05
64,316.227766,2.5622874040122884e-05
65,317.88,2.631451e-05
66,328.28999999999996,3.042278e-05
67,338.27000000000004,3.453048e-05
68,347.74,3.883323e-05
69,356.66,4.337239e-05
70,363.078055,4.716290731153552e-05
71,365.81,4.87764e-05
72,375.2,5.335706e-05
73,384.82000000000005,5.664998e-05
74,394.69,6.459496e-05
75,404.82,7.148429e-05
76,414.24999999999994,7.659657e-05
77,416.86938299999997,7.794964120391688e-05
78,421.95000000000005,8.057409e-05
79,429.79,8.495735e-05
80,440.82000000000005,9.272492e-05
81,451.09000000000003,9.844357e-05
82,459.47,0.0001030875
83,470.17,0.000109196
84,478.630092,0.00011566955933128931
85,480.02000000000004,0.0001167331
86,490.07,0.0001208392
87,500.33,0.0001297832
88,506.13,0.0001334131
89,511.99,0.0001607672
90,520.3100000000001,0.0001679523
91,529.98,0.0001758747
92,539.83,0.0001770951
93,549.5408739999999,0.00020022003757009938
94,549.87,0.0002010038
95,560.09,0.0002260481
96,570.5,0.0002490102
97,579.77,0.0002518886
98,590.5500000000001,0.0002865517
99,600.15,0.0002979852
100,609.9,0.0003156473
101,619.8100000000001,0.0003751373
102,629.88,0.000402898
103,630.957344,0.00040489693604125007
104,640.12,0.0004218976
105,650.52,0.0004701102
106,658.0500000000001,0.000501411
107,665.67,0.0005360589
108,674.93,0.0005548958
109,684.32,0.0005625879
110,695.4399999999999,0.0007017762
111,705.11,0.0006905613
112,716.5699999999999,0.0008245125
113,724.43596,0.000863065329347242
114,726.54,0.0008733777
115,734.95,0.0009230215
116,745.1800000000001,0.001047608
117,755.54,0.001132946
118,764.29,0.001205613
119,774.9200000000001,0.001349599
120,785.7,0.001473014
121,794.8,0.001567504
122,805.86,0.001668013
123,815.1899999999999,0.001758749
124,824.63,0.001959768
125,831.763771,0.001744699370688692
126,834.1800000000001,0.001671855
127,845.78,0.0021439
128,855.5799999999999,0.002250071
129,865.48,0.002461553
130,875.51,0.002686553
131,885.64,0.002973076
132,895.9,0.003193124
133,904.1899999999999,0.003252292
134,914.6600000000001,0.005166624
135,925.25,0.03717192
136,935.96,0.08495882
137,944.62,0.168348
138,954.992586,0.24104702805094996
139,955.5600000000001,0.2450239
140,964.4,0.2819755
141,975.57,0.0439731
142,984.6,0.2467163
143,995.9999999999999,0.267424
144,1005.22,0.4019785
145,1014.52,0.3919261
146,1023.9,0.1664195
147,1035.76,0.2781039
148,1045.34,0.5536114
149,1055.02,0.5523477
150,1064.78,0.4387239
151,1074.63,0.5348043
152,1084.57,0.4238532
153,1094.6100000000001,0.5770372
154,1096.4782,0.5741355147107603
155,1104.74,0.5613033
156,1114.96,0.544771
157,1125.28,0.4956773
158,1135.69,0.6444786
159,1146.2,0.5891218
160,1154.14,0.6370908
161,1164.82,0.6671334
162,1175.6,0.4636637
163,1183.75,0.660989
164,1194.7,0.4510387
165,1205.76,0.3222531
166,1214.1100000000001,0.2138965
167,1225.3500000000001,0.4593996
168,1233.84,0.7181303
169,1245.26,0.8039038
170,1253.89,0.7748338
171,1258.92541,0.7274132170033621
172,1265.49,0.6655917
173,1274.2600000000002,0.8814689
174,1286.05,0.9358613
175,1294.97,0.7399623
176,1303.94,0.7365558
177,1316.01,0.9401738
178,1325.1299999999999,0.9061553
179,1334.32,0.8057521
180,1343.57,0.9776989
181,1356.0,0.953235
182,1365.3999999999999,0.853492
183,1374.86,0.9103474
184,1384.39,0.9294011
185,1393.99,0.8169612
186,1403.6499999999999,0.8574354
187,1413.3799999999999,0.8773995
188,1426.46,0.9124491
189,1436.3500000000001,0.9124385
190,1442.98,0.970968
191,1445.43977,0.9860306090454808
192,1446.3000000000002,0.9912983
193,1456.3300000000002,0.968738
194,1466.4199999999998,0.8978503
195,1476.5900000000001,0.9019858
196,1483.4,0.9251389
197,1493.69,0.9510408
198,1504.0400000000002,0.9040861
199,1510.98,0.805749
200,1517.9599999999998,0.8693684
201,1524.96,0.8456596
202,1535.53,0.7382452
203,1546.18,0.8264209
204,1553.31,0.7837954
205,1564.08,0.8002075
206,1574.9199999999998,0.8613924
207,1585.84,0.9103461
208,1596.83,0.9380165
209,1604.2,0.9230114
210,1615.3200000000002,0.933686
211,1626.52,0.8855369
212,1634.03,0.9510348
213,1645.35,0.9731999
214,1656.76,0.89785
215,1659.58691,0.9332770285274864
216,1664.4,0.993595
217,1672.09,0.8835
218,1675.9399999999998,1.007406
219,1683.6799999999998,1.057304
220,1695.35,0.9935878
221,1703.17,0.9598518
222,1714.98,0.9166479
223,1726.8700000000001,0.9187393
224,1734.84,0.9867251
225,1746.8600000000001,0.9687517
226,1754.93,1.0428
227,1763.03,0.9532288
228,1775.2499999999998,0.9890138
229,1783.44,1.009719
230,1795.8,1.091956
231,1804.0900000000001,1.084431
232,1816.6,1.007397
233,1824.98,1.033253
234,1833.41,0.9935815
235,1846.12,0.9145454
236,1854.6399999999999,0.9272689
237,1863.2,0.9642594
238,1876.11,1.04521
239,1884.77,0.9687411
240,1893.4699999999998,0.9380177
241,1905.46072,0.9908522095384621
242,1906.6,0.9958722
243,1915.3999999999999,0.9664821
244,1924.24,0.9510406
245,1933.1200000000001,0.9687411
246,1946.52,1.033246
247,1955.51,0.975445
248,1969.06,1.076982
249,1978.1499999999999,1.104604
250,1982.71,1.050035
251,1996.4499999999998,1.026132
252,2005.6699999999998,1.054888
253,2014.93,1.021396
254,2024.23,1.069549
255,2033.5700000000002,1.026134
256,2042.96,1.074493
257,2057.12,1.033239
258,2066.61,1.038008
259,2076.15,1.117385
260,2085.73,1.122557
261,2095.36,1.064635
262,2105.0299999999997,1.069554
263,2114.75,1.086938
264,2124.51,1.104613
265,2134.32,1.021404
266,2144.17,1.064637
267,2154.0699999999997,1.104601
268,2164.01,1.069546
269,2174.0,1.064635
270,2184.03,1.059744
271,2187.7616199999998,1.0801331570555532
272,2194.11,1.11482
273,2204.2400000000002,1.084435
274,2214.42,1.02619
275,2224.64,0.9986925
276,2234.9,1.085536
277,2245.22,1.037162
278,2255.58,0.990958
279,2266.0,1.014508
280,2276.46,1.050657
281,2286.96,1.090605
282,2297.52,1.027728
283,2302.81,1.039894
284,2313.44,0.993555
285,2324.12,0.7823509
286,2334.85,0.9175241
287,2345.63,0.8786765
288,2356.45,0.9773275
289,2367.33,0.8835999
290,2372.79,0.92335
291,2383.7400000000002,0.8425273
292,2394.74,0.9095092
293,2405.7999999999997,0.875015
294,2416.9,0.902084
295,2422.47,0.9780206
296,2433.66,0.9431155
297,2444.8900000000003,1.006425
298,2456.17,0.995435
299,2467.5099999999998,0.9890712
300,2473.2000000000003,0.9491659
301,2484.6099999999997,0.9717849
302,2496.08,0.9221315
303,2507.6,1.042361
304,2511.88643,0.9429580960471471
305,2513.39,0.9080901
306,2519.18,0.9230972
307,2524.99,0.8878874
308,2536.64,0.9090657
309,2542.4900000000002,0.9009521
310,2554.22,0.9815934
311,2566.01,0.9509847
312,2577.86,1.014855
313,2583.8,1.0058
314,2595.73,0.9902624
315,2607.7099999999996,0.9549568
316,2613.72,0.9377612
317,2625.79,1.000756
318,2637.9,1.046089
319,2643.98,1.155294
320,2656.19,1.193794
321,2662.31,1.069176
322,2674.6,1.127943
323,2686.9500000000003,1.133765
324,2693.14,1.073123
325,2705.5699999999997,1.116573
326,2718.06,1.049847
327,2724.33,1.050156
328,2736.9,1.110433
329,2743.21,0.9410826
330,2755.8700000000003,0.976953
331,2762.2200000000003,1.025635
332,2774.98,1.082015
333,2787.78,1.001103
334,2794.2099999999996,0.7863268
335,2807.1099999999997,0.8489188
336,2813.58,1.078915
337,2826.5699999999997,1.159393
338,2833.08,1.120363
339,2846.16,1.090475
340,2852.7200000000003,1.034527
341,2865.89,1.164127
342,2872.49,1.169829
343,2884.0315,1.165738121417798
344,2885.7500000000005,1.165129
345,2892.4,1.162818
346,2912.45,1.284985
347,2932.6400000000003,1.23392
348,2952.97,1.21807
349,2966.6,1.250089
350,2987.16,1.259896
351,3007.8700000000003,1.284484
352,3028.72,1.288619
353,3049.71,1.298773
354,3070.85,1.31807
355,3092.14,1.334573
356,3113.57,1.342004
357,3127.95,1.327456
358,3149.63,1.344129
359,3171.46,1.35475
360,3193.44,1.28611
361,3208.18,1.341402
362,3230.42,1.276373
363,3252.81,1.375334
364,3267.83,1.437759
365,3290.48,1.43588
366,3311.31121,1.4371695076071898
367,3313.29,1.437292
368,3320.9300000000003,1.437793
369,3328.58,1.47175
370,3336.25,1.513517
371,3343.94,1.412956
372,3351.65,1.439707
373,3359.38,1.470341
374,3367.12,1.444
375,3374.89,1.314367
376,3382.6699999999996,1.36414
377,3390.46,1.482565
378,3398.28,1.476231
379,3406.11,1.443121
380,3413.9599999999996,1.47047
381,3421.8399999999997,1.522652
382,3429.72,1.485069
383,3437.6299999999997,1.509722
384,3445.55,1.330596
385,3453.5,1.549504
386,3461.46,1.407154
387,3469.4399999999996,1.4471
388,3477.44,1.385634
389,3485.45,1.441431
390,3493.4900000000002,1.42216
391,3501.5400000000004,1.439142
392,3509.61,1.449607
393,3517.7000000000003,1.404123
394,3525.81,1.443963
395,3531.22,0.9624477
396,3533.87,1.882412
397,3536.5099999999998,1.631179
398,3539.1600000000003,1.245576
399,3541.8100000000004,1.363142
400,3544.4500000000003,1.902654
401,3547.1000000000004,1.761335
402,3549.75,1.455052
403,3552.3900000000003,1.595306
404,3555.04,1.470466
405,3557.68,1.433819
406,3560.33,1.035875
407,3562.98,1.545993
408,3565.62,1.448792
409,3568.27,1.457153
410,3570.91,1.679451
411,3573.56,1.239999
412,3576.21,1.306126
413,3578.85,1.573252
414,3581.5000000000005,1.725182
415,3584.1400000000003,1.659277
416,3586.7900000000004,1.316216
417,3589.44,1.353993
418,3592.0800000000004,1.409164
419,3594.73,1.423853
420,3597.37,1.676225
421,3600.02,1.446316
422,3602.67,1.18671
423,3605.31,1.657803
424,3607.96,1.437668
425,3610.6,1.103574
426,3613.25,1.456622
427,3615.9,1.472376
428,3618.54,1.485005
429,3621.19,1.694138
430,3623.83,1.526828
431,3626.4800000000005,1.601852
432,3629.1299999999997,1.584337
433,3631.7700000000004,1.708615
434,3634.42,1.688186
435,3637.06,1.296045
436,3639.71,1.523504
437,3642.36,1.349232
438,3645.0,1.574349
439,3647.65,1.276775
440,3650.29,1.457095
441,3652.94,1.485004
442,3655.59,1.498377
443,3658.23,1.368439
444,3660.88,1.738152
445,3663.52,1.438456
446,3666.17,1.748774
447,3668.8199999999997,1.563818
448,3671.4599999999996,1.449325
449,3674.1099999999997,1.524349
450,3676.7499999999995,1.529836
451,3679.4,1.451955
452,3682.05,1.743883
453,3684.69,1.512573
454,3687.34,1.585874
455,3689.98,1.777536
456,3692.63,1.71704
457,3695.28,1.422943
458,3697.92,1.489705
459,3700.57,1.773363
460,3703.21,1.607526
461,3705.86,1.452331
462,3708.5099999999998,1.462039
463,3711.1499999999996,1.466868
464,3713.7999999999997,1.410195
465,3716.4399999999996,1.93987
466,3719.0899999999997,1.921352
467,3721.7400000000002,2.085906
468,3724.38,2.374149
469,3727.03,2.851528
470,3729.67,3.091907
471,3732.32,2.670433
472,3734.9700000000003,2.128886
473,3737.61,1.739942
474,3740.26,1.85215
475,3742.9,1.935077
476,3745.55,1.762683
477,3748.2,1.759923
478,3750.8399999999997,1.796079
479,3753.49,1.730728
480,3756.1299999999997,1.856698
481,3758.7799999999997,1.823112
482,3761.43,1.85835
483,3764.0699999999997,1.875085
484,3766.7200000000003,1.761021
485,3769.36,1.68011
486,3772.01,1.591891
487,3774.6600000000003,1.788398
488,3777.3,1.880034
489,3779.9500000000003,2.057997
490,3782.59,2.28133
491,3785.2400000000002,2.13359
492,3787.89,2.087692
493,3790.5299999999997,2.183057
494,3793.18,2.08287
495,3795.8199999999997,1.816913
496,3798.47,1.707455
497,3801.12,1.582771
498,3801.8939600000003,1.6242564286666923
499,3803.7599999999998,1.724279
500,3806.41,2.062257
501,3809.0499999999997,2.154865
502,3811.7000000000003,2.225627
503,3814.3500000000004,2.103982
504,3816.9900000000002,2.176666
505,3819.6400000000003,2.184932
506,3822.28,2.176073
507,3824.9300000000003,2.062855
508,3827.58,1.957499
509,3830.22,1.834204
510,3832.87,1.590636
511,3835.5099999999998,1.515771
512,3838.16,1.462826
513,3840.81,1.630106
514,3843.45,1.939023
515,3846.1,2.100977
516,3848.74,2.260467
517,3851.39,2.237187
518,3854.0400000000004,2.189284
519,3856.6800000000003,2.425901
520,3859.3300000000004,2.544749
521,3861.9700000000003,2.540684
522,3864.6200000000003,2.726821
523,3867.27,2.616515
524,3869.91,2.74703
525,3872.56,2.537231
526,3875.2,2.29264
527,3877.85,2.196776
528,3880.5,2.123812
529,3883.14,2.045721
530,3885.79,1.94071
531,3888.43,1.734775
532,3891.08,1.879908
533,3893.7300000000005,2.018492
534,3896.37,1.925333
535,3899.0200000000004,2.152917
536,3901.6600000000003,2.215295
537,3904.31,2.38295
538,3906.96,2.395538
539,3909.6,2.414999
540,3912.25,2.68409
541,3914.89,2.801761
542,3917.54,2.507911
543,3920.19,2.470785
544,3922.83,2.330041
545,3925.48,2.561634
546,3928.12,2.064707
547,3930.77,1.903967
548,3933.42,1.792472
549,3936.06,1.847173
550,3938.7100000000005,2.083497
551,3941.35,2.084224
552,3943.9999999999995,2.218204
553,3946.65,2.359357
554,3949.29,2.378097
555,3951.94,2.558784
556,3954.58,2.391914
557,3957.23,2.250282
558,3959.88,2.285269
559,3962.52,2.105869
560,3965.17,1.73051
561,3967.81,1.639292
562,3970.46,1.596496
563,3973.11,1.61648
564,3975.75,1.838778
565,3978.4,2.133181
566,3981.04,2.173317
567,3983.6899999999996,2.426024
568,3986.3399999999997,2.44848
569,3988.9799999999996,2.373085
570,3991.63,2.696652
571,3994.27,2.608538
572,3996.92,2.74731
573,3999.57,2.749278
574,4002.21,2.82588
575,4004.86,2.932008
576,4007.51,2.79379
577,4010.15,2.514428
578,4012.8,2.830445
579,4015.44,3.125801
580,4018.09,2.952026
581,4020.74,2.814059
582,4023.3799999999997,3.06421
583,4026.0299999999997,2.943346
584,4028.6699999999996,2.984549
585,4031.3199999999997,2.896891
586,4033.9700000000003,2.89792
587,4036.61,2.736659
588,4039.26,2.873112
589,4041.9,2.992569
590,4044.55,2.730924
591,4047.2000000000003,2.876179
592,4049.84,2.710846
593,4052.4900000000002,2.753037
594,4055.13,2.734782
595,4057.78,2.844701
596,4060.43,3.024134
597,4063.0699999999997,2.978281
598,4065.72,2.796738
599,4068.3599999999997,2.659066
600,4071.0099999999998,2.699973
601,4073.66,2.747741
602,4076.2999999999997,2.761877
603,4078.9500000000003,2.639698
604,4081.59,2.683313
605,4084.2400000000002,2.689479
606,4086.8900000000003,2.624597
607,4089.53,2.780329
608,4092.1800000000003,2.549823
609,4094.82,2.564647
610,4097.469999999999,2.262654
611,4100.12,2.24163
612,4102.759999999999,2.174128
613,4105.41,1.980024
614,4108.05,2.167708
615,4110.7,2.262779
616,4113.35,2.54888
617,4115.99,2.6512
618,4118.64,2.80009
619,4121.28,2.82776
620,4123.93,2.843292
621,4126.58,2.777031
622,4129.22,2.829073
623,4131.87,2.844041
624,4134.51,2.662324
625,4137.16,2.673972
626,4139.8099999999995,2.938582
627,4142.45,2.861433
628,4145.099999999999,2.934011
629,4147.74,2.803106
630,4150.39,2.810494
631,4153.04,2.862741
632,4155.68,2.89395
633,4158.33,2.987674
634,4160.97,2.960021
635,4163.62,2.954188
636,4166.27,3.107589
637,4168.91,3.057663
638,4171.56,2.822238
639,4174.2,2.859275
640,4176.849999999999,2.789317
641,4179.5,2.875428
642,4182.139999999999,2.725194
643,4184.79,2.703198
644,4187.429999999999,2.802072
645,4190.08,2.961707
646,4192.7300000000005,2.953556
647,4195.37,2.753357
648,4198.02,2.711593
649,4200.66,2.627865
650,4203.31,2.705017
651,4205.96,2.866406
652,4208.6,2.898368
653,4211.25,2.855476
654,4213.89,2.926815
655,4216.54,2.918915
656,4219.19,2.884263
657,4221.83,2.920046
658,4224.48,2.827847
659,4227.12,2.788289
660,4229.7699999999995,2.677638
661,4232.42,2.755574
662,4235.0599999999995,2.969887
663,4237.71,2.942596
664,4240.35,2.890978
665,4243.0,2.884863
666,4245.650000000001,2.899331
667,4248.29,2.913467
668,4250.9400000000005,2.846329
669,4253.58,2.879481
670,4256.23,2.971231
671,4258.88,2.988988
672,4261.5199999999995,2.960207
673,4264.17,2.947358
674,4266.8099999999995,2.805581
675,4269.46,2.826064
676,4272.11,2.884545
677,4274.75,2.791827
678,4277.4,2.775594
679,4280.04,2.881768
680,4282.6900000000005,2.824184
681,4285.34,2.739253
682,4287.9800000000005,2.778701
683,4290.63,2.814972
684,4293.27,2.69904
685,4295.92,2.645905
686,4298.57,2.617706
687,4301.21,2.500928
688,4303.86,2.429217
689,4306.5,2.55525
690,4309.15,2.598226
691,4311.8,2.586348
692,4314.44,2.686318
693,4317.09,2.802034
694,4319.73,2.874406
695,4322.38,2.84533
696,4325.030000000001,2.803253
697,4327.67,2.638295
698,4330.32,2.575136
699,4332.96,2.623292
700,4335.61,2.640297
701,4338.26,2.628545
702,4340.9,2.433764
703,4343.55,2.49234
704,4346.19,2.520322
705,4348.84,2.597067
706,4351.49,2.550761
707,4354.13,2.646628
708,4356.78,2.748654
709,4359.42,2.935806
710,4362.07,2.985391
711,4364.72,2.981313
712,4365.15832,2.981428889151515
713,4367.360000000001,2.982011
714,4370.009999999999,3.034916
715,4372.650000000001,2.970736
716,4375.3,2.905571
717,4377.95,2.915246
718,4380.59,2.98624
719,4383.24,2.800687
720,4385.88,2.709503
721,4388.53,2.747153
722,4391.18,3.016681
723,4393.82,2.961054
724,4396.47,2.935987
725,4399.11,2.927192
726,4401.76,2.951966
727,4404.41,2.815063
728,4407.05,2.88847
729,4409.7,3.007192
730,4412.34,2.963155
731,4414.99,2.953751
732,4417.64,2.899019
733,4420.28,2.979536
734,4422.93,2.979029
735,4425.57,2.988686
736,4428.22,3.056315
737,4430.87,3.012577
738,4433.51,2.957733
739,4436.16,3.027304
740,4438.8,3.026686
741,4441.45,3.125421
742,4444.1,3.008004
743,4446.74,3.054344
744,4449.389999999999,3.143933
745,4452.04,3.178073
746,4454.679999999999,2.928878
747,4457.33,3.055777
748,4459.969999999999,2.954255
749,4462.62,3.06618
750,4465.27,2.787525
751,4467.91,2.826942
752,4470.56,2.957349
753,4473.2,3.081285
754,4475.85,3.148005
755,4478.5,3.287089
756,4481.14,3.163671
757,4483.79,3.02279
758,4486.43,3.129747
759,4489.08,3.168368
760,4491.73,3.200628
761,4494.37,3.113141
762,4497.0199999999995,3.07332
763,4499.66,3.220062
764,4502.3099999999995,3.218177
765,4504.96,3.233521
766,4507.6,3.252325
767,4510.25,3.399242
768,4512.89,3.210977
769,4515.54,3.243238
770,4518.1900000000005,3.205954
771,4520.83,3.236976
772,4523.48,3.108312
773,4526.12,2.853885
774,4528.7699999999995,3.033883
775,4531.42,2.841909
776,4534.0599999999995,2.919105
777,4536.71,2.848678
778,4539.349999999999,2.944514
779,4542.0,3.021948
780,4544.65,3.139855
781,4547.29,2.996983
782,4549.9400000000005,3.122534
783,4552.58,3.118126
784,4555.2300000000005,3.119342
785,4557.88,3.272993
786,4560.52,3.063145
787,4563.17,3.238224
788,4565.81,3.1997
789,4568.46,3.199381
790,4571.11,3.144555
791,4573.75,3.166491
792,4576.4,3.274876
793,4579.04,3.119943
794,4581.69,3.100077
795,4584.34,3.085943
796,4586.98,3.066591
797,4589.63,3.057313
798,4592.2699999999995,3.182471
799,4594.92,3.0279
800,4597.570000000001,3.214726
801,4600.21,3.081283
802,4602.86,3.223501
803,4605.5,3.23228
804,4608.15,3.234781
805,4610.8,3.112414
806,4613.44,3.050301
807,4616.09,3.295552
808,4618.73,3.324694
809,4621.38,3.131842
810,4624.03,3.371359
811,4626.67,3.36197
