,lambda (Angstroms),Total Flux (erg/s/cm^2/Angstrom)
0,100.0,0.011150225303589353
1,102.10000000000001,0.013711386588930709
2,104.0,0.016028627754732516
3,104.712855,0.016898026152731536
4,105.93,0.015659446488549934
5,107.89999999999999,0.013654753599675041
6,109.89999999999999,0.011619532425562828
7,114.03,0.007416800718704519
8,118.04,0.0033361823841934752
9,120.22644299999999,0.0011112356858240737
10,121.06,0.0010719867948448696
11,125.03,0.0008850547653033804
12,127.06,0.0007894700589210014
13,127.94,0.0007480344955737143
14,130.92,0.0006077184579881737
15,132.13,0.0005507450792959031
16,133.97,0.0004641075100597567
17,137.09,0.00031720221441546503
18,138.038426,0.00027254570547596905
19,139.96,0.0002693532104001864
20,142.89,0.00026450359458526674
21,146.9,0.0002578903829633117
22,151.01,0.00025108490588903864
23,154.89,0.00024468336524709715
24,158.489319,0.00023875398973475465
25,158.86,0.00023781264185823158
26,162.19,0.0002293622730507267
27,165.96,0.00021983008269658449
28,169.83,0.00021006806125002466
29,172.98999999999998,0.0002020563655696297
30,177.01999999999998,0.00019201040401520183
31,179.89000000000001,0.0001848558722928176
32,181.970086,0.00017967740491886238
33,181.98,0.00017968620684666314
34,185.79,0.00018314439513443276
35,190.99,0.00018793621044057505
36,194.09,0.00019087753060385217
37,198.16,0.00019482124655692892
38,201.84,0.00019859395551204495
39,205.11999999999998,0.00020193330205899623
40,208.929613,0.00020595815825531817
41,209.9,0.00021103091702770452
42,215.78,0.0002425160891212961
43,219.79,0.00026416398950655166
44,222.85,0.0002807157874838289
45,226.99,0.00030363288433543943
46,230.15,0.00032547975367145125
47,233.89000000000001,0.0003588851290881235
48,239.88329199999998,0.0004029674913698926
49,239.89,0.0004029557436199114
50,246.04000000000002,0.00038678973449946864
51,251.78,0.0003821393619870555
52,257.05,0.00036777613314726144
53,260.02,0.00037307783845007226
54,264.25,0.00040876094539649935
55,269.15999999999997,0.0004231136189442436
56,274.17,0.00044004326405100474
57,275.42287,0.0004350247646201256
58,279.26,0.0004522887254799114
59,283.8,0.000563399654023175
60,289.74,0.0006653134882846257
61,295.81,0.0007249788180770508
62,301.31,0.0007481435905413571
63,308.33,0.0009234680492139803
64,316.227766,0.0011153987605690284
65,317.7,0.0011399758503792207
66,328.11,0.0013380914603441378
67,338.08,0.0014868978989944956
68,348.34999999999997,0.0016488118408138712
69,357.28000000000003,0.0023981651018116336
70,363.078055,0.0034555843416124842
71,365.61,0.00393184812093415
72,374.97999999999996,0.004511677210627984
73,384.6,0.004354134917442786
74,395.38,0.007060864767698873
75,404.59000000000003,0.009778274182435289
76,414.01,0.010977485795553316
77,416.86938299999997,0.011067307782126952
78,421.71,0.011214505376006422
79,429.55,0.011867964392513754
80,440.57,0.015501923290716662
81,450.83,0.01763417743731937
82,460.27,0.017412636457195544
83,469.90999999999997,0.019586026727492822
84,478.630092,0.023407581808489206
85,479.74999999999994,0.02389447965353175
86,489.79,0.022666421437106378
87,500.05,0.029785848737850975
88,505.84,0.027688793939733156
89,511.7,0.04423146089707851
90,520.01,0.0450307092956348
91,529.6800000000001,0.04521777180033268
92,539.53,0.04087632881907871
93,549.5408739999999,0.04266616083753427
94,549.56,0.04266960583018415
95,559.78,0.05850023649260568
96,570.18,0.06882849145240842
97,579.45,0.07172102276754028
98,590.22,0.07735200989418214
99,599.81,0.07024391551576946
100,609.5600000000001,0.07121064829058453
101,619.46,0.09421019464655059
102,629.53,0.09355183172782112
103,630.957344,0.09547934109649427
104,639.7600000000001,0.1073798812660502
105,650.15,0.10838188363753419
106,657.68,0.10399480797413424
107,665.2900000000001,0.11964840162639538
108,674.55,0.1305687249141665
109,685.51,0.11829302115973574
110,695.05,0.14086518705232065
111,704.72,0.12078016558285484
112,716.17,0.15694688638684828
113,724.43596,0.16277009735672796
114,726.13,0.1639628835218144
115,734.5400000000001,0.16971002948908878
116,744.76,0.17049986775134132
117,755.12,0.174870675030885
118,765.62,0.1628557513277198
119,774.49,0.1860706240660936
120,785.26,0.17771513346770418
121,794.35,0.19483521466182113
122,805.4,0.20494276209801396
123,814.73,0.2111590616074872
124,824.1600000000001,0.22009011041502552
125,831.763771,0.19558909928188495
126,835.63,0.1831252038103745
127,845.31,0.2267456005132702
128,855.09,0.22883178974408835
129,864.9999999999999,0.24180033926120575
130,875.01,0.24798938130624562
131,885.14,0.2537411943847924
132,895.39,0.2596342784968463
133,905.76,0.26022403364240704
134,914.14,0.25783202748231054
135,924.73,0.5970583461893008
136,935.44,0.9592335359297979
137,944.09,1.339310439595092
138,954.992586,1.605807599293906
139,955.02,1.606477717702624
140,966.08,1.7858838389508886
141,975.0200000000001,0.7046387203215472
142,984.0400000000001,1.5166047881026816
143,995.4399999999999,1.499211851595468
144,1004.65,1.9091702871014822
145,1013.9399999999999,1.9492187090179722
146,1025.68,1.29682271475528
147,1035.18,1.7212741009992687
148,1044.75,2.4537994753524233
149,1054.4199999999998,2.403475832718673
150,1064.18,2.0599151747967075
151,1074.02,2.305940503285218
152,1083.96,2.017681814786823
153,1093.99,2.420093111000213
154,1096.4782,2.4025683350711633
155,1104.11,2.3488136308139302
156,1114.3300000000002,2.316513197255004
157,1124.6399999999999,2.088575715846733
158,1135.05,2.4936081812725233
159,1145.55,2.3704685988489693
160,1156.1499999999999,2.4312619632594763
161,1164.16,2.442516704667794
162,1174.94,1.741182973379611
163,1185.81,2.386823194242084
164,1194.03,1.99915182400193
165,1205.07,1.7054549544823072
166,1216.22,1.3361420264801518
167,1224.66,1.9853185392749328
168,1235.99,2.487876515574088
169,1244.55,2.6171359645697425
170,1256.07,2.5634608398536147
171,1258.92541,2.5182766383462485
172,1264.78,2.4256365431486864
173,1273.54,2.791410874421969
174,1285.3300000000002,2.8761723202795038
175,1294.24,2.4764496572252748
176,1306.2099999999998,2.4993451098897945
177,1315.27,2.882849452508053
178,1324.38,2.7849777970171403
179,1333.56,2.605076144173389
180,1345.8999999999999,2.8761996108300454
181,1355.23,2.817223963658782
182,1364.63,2.623121319134679
183,1374.0900000000001,2.665776676879571
184,1383.6100000000001,2.6780730368934584
185,1396.4099999999999,2.156923520945744
186,1406.0900000000001,2.151931887010285
187,1415.84,2.557539255721987
188,1425.6499999999999,2.5340736267026838
189,1435.53,2.6051070003305417
190,1442.16,2.678087251054499
191,1445.43977,2.690222524084199
192,1445.49,2.690408376678453
193,1455.5100000000002,2.623138694703949
194,1465.59,2.4935740146337895
195,1475.7500000000002,2.5166413371027554
196,1485.98,2.5516706617934566
197,1496.2800000000002,2.5575319887058927
198,1506.6599999999999,2.4480773181574547
199,1513.61,2.2637425387440016
200,1517.1000000000001,2.364932649513361
201,1524.1,2.332549871686861
202,1534.6699999999998,2.0550732071688467
203,1545.3,1.9853395445551767
204,1556.02,1.9580558847980227
205,1566.8000000000002,2.122448226945213
206,1574.03,2.2533874564187
207,1584.94,2.32185480269197
208,1595.93,2.3487091515043654
209,1603.3,2.3058153854213224
210,1614.41,2.295206738042406
211,1625.6000000000001,2.248139093202616
212,1636.87,2.3595684509019517
213,1644.42,2.3704256905319414
214,1655.8200000000002,2.305832052357356
215,1659.58691,2.3593311572332274
216,1663.47,2.4144810719556427
217,1671.14,2.2378528497427315
218,1678.8600000000001,2.476471639119045
219,1686.6100000000001,2.493580435448894
220,1694.39,2.3923942387322774
221,1706.1399999999999,2.3325409622001123
222,1714.01,2.2224727863441003
223,1725.8899999999999,2.20210753994392
224,1733.8600000000001,2.3218633872663577
225,1745.8799999999999,2.284689173316007
226,1753.94,2.3595840414990494
227,1766.09,2.263783857680683
228,1774.25,2.248144749042175
229,1786.54,2.295251597673638
230,1794.79,2.364987509895735
231,1803.07,2.375942429071367
232,1815.57,2.2173573263775745
233,1823.95,2.2637872687316563
234,1836.6,2.217338200805538
235,1845.07,2.0789171640202238
236,1853.59,2.0837351388241347
237,1866.44,2.122496117254916
238,1875.05,2.237888112919432
239,1883.71,2.0741551201731725
240,1896.7700000000002,1.994585147278698
241,1905.46072,2.1216484677282876
242,1905.52,2.122515143941607
243,1914.32,2.0362585147410113
244,1923.15,1.976275876577232
245,1936.4799999999998,2.0789078939358756
246,1945.4199999999998,2.1273362229070885
247,1954.4,1.9762665399273898
248,1967.95,2.1273114915560183
249,1977.03,2.19198077869904
250,1986.1599999999999,2.088557050903422
251,1995.33,2.0410033111568926
252,2004.54,2.107807559459451
253,2013.79,2.0693637958110975
254,2023.08,2.1420510202118326
255,2037.1100000000001,2.0222768284295194
256,2046.51,2.059850019965247
257,2055.96,1.8785901965623348
258,2065.4500000000003,1.9491283612085106
259,2074.98,2.1175395139037745
260,2079.7599999999998,1.9945430857698148
261,2084.56,2.064581651660399
262,2094.18,1.9716207774661116
263,2103.85,2.0083118883331843
264,2113.56,2.0268529872493453
265,2123.31,2.0409740742145948
266,2133.11,1.9762191462412042
267,2142.96,1.9580632033291743
268,2152.85,2.022265248466232
269,2162.79,1.9762092786646503
270,2172.77,1.9716002969121567
271,2182.8,1.9267483002210233
272,2187.7616199999998,1.9556060041834304
273,2192.87,1.9853200346876456
274,2203.0,1.9580454477479998
275,2213.1600000000003,1.9003728679546332
276,2223.38,1.8613673024538255
277,2233.64,1.9090957464813905
278,2243.9500000000003,1.8699452024194212
279,2254.31,1.8231856702679177
280,2264.7200000000003,1.85337815002688
281,2275.17,1.8671636393142146
282,2285.67,1.8766851405120148
283,2296.22,1.788962653620281
284,2306.82,1.802268178639013
285,2317.4700000000003,1.7580527155682104
286,2322.81,1.5245809876059488
287,2333.53,1.6957675412097983
288,2344.3,1.6849131067241139
289,2355.12,1.7210526841488947
290,2365.9900000000002,1.6673352734841413
291,2376.92,1.668191877111947
292,2382.4,1.6082771824989894
293,2393.39,1.6617818004193539
294,2404.44,1.6210434326322773
295,2415.54,1.6331760767556662
296,2426.69,1.6605107327895212
297,2432.28,1.615744064379588
298,2443.51,1.657989739470188
299,2454.79,1.6399234264712537
300,2466.12,1.629465125382785
301,2477.5,1.5968938362047818
302,2483.21,1.6158411963799668
303,2494.67,1.444182926258709
304,2506.1899999999996,1.6100536704300097
305,2511.88643,1.5251575240007254
306,2511.9700000000003,1.5239120196681022
307,2517.76,1.5815174858690328
308,2523.5600000000004,1.5459479511480303
309,2535.21,1.5468118770963621
310,2546.91,1.5193937984350299
311,2552.78,1.5552152572604983
312,2564.5699999999997,1.5417311703017713
313,2576.3999999999996,1.5785150796553131
314,2582.34,1.5644865320272523
315,2594.2599999999998,1.5545774330833992
316,2606.2400000000002,1.5269953286079496
317,2612.2400000000002,1.5134407754482924
318,2624.3,1.5282666635973807
319,2636.4100000000003,1.532698547136805
320,2642.4900000000002,1.5687649866016857
321,2654.69,1.5660618618437154
322,2666.94,1.5032967324760813
323,2673.09,1.5246891654874322
324,2685.43,1.5219950278224035
325,2697.82,1.4848248855477106
326,2704.04,1.4886333121055324
327,2716.5299999999997,1.462308160611512
328,2722.79,1.4627075834816026
329,2735.36,1.48053442461212
330,2747.98,1.411432261132974
331,2754.32,1.4118206766276025
332,2767.0299999999997,1.422443504851061
333,2773.41,1.4493099166579586
334,2786.21,1.4302917365840226
335,2792.6299999999997,1.313871144703189
336,2805.5200000000004,1.3576969563318582
337,2811.99,1.4286263598413609
338,2824.97,1.429496163172635
339,2838.01,1.3849539609723127
340,2844.55,1.3758373580282859
341,2857.6800000000003,1.3672041475305687
342,2864.27,1.3962075399768783
343,2877.49,1.3810643211817664
344,2884.0315,1.3814603520361013
345,2884.12,1.3814657179324719
346,2897.44,1.3696506928008794
347,2910.81,1.3895446675749494
348,2930.99,1.3685386295002098
349,2951.3,1.3448545911801921
350,2971.7599999999998,1.3429435525771607
351,2992.36,1.3288355137099834
352,3013.1000000000004,1.3209144745786603
353,3027.0099999999998,1.312674448333882
354,3047.99,1.3018174087497374
355,3069.1200000000003,1.2911163688825795
356,3090.39,1.2775683287512756
357,3111.81,1.2700412883369585
358,3133.39,1.2509332476207602
359,3147.85,1.245942220338266
360,3169.67,1.2300881791692462
361,3191.64,1.2005291377172131
362,3206.37,1.2040211099252944
363,3228.6,1.1859500679827046
364,3250.98,1.1899090257571017
365,3273.51,1.1856299832484851
366,3288.62,1.175571954739599
367,3311.31121,1.1660197086996258
368,3311.42,1.1659739080030342
369,3319.05,1.1934786328079334
370,3326.7000000000003,1.2049693568914823
371,3334.37,1.1970420802536812
372,3342.06,1.1488548028945298
373,3349.7599999999998,1.1923685251747034
374,3357.48,1.1364942467335268
375,3365.22,1.1368939675709997
376,3372.98,1.1242906876871228
377,3380.7599999999998,1.1324504070818955
378,3388.55,1.1672441261159932
379,3396.36,1.1622478444287405
380,3404.19,1.1257955620201379
381,3412.04,1.1235722788901847
382,3419.9,1.1370479953995567
383,3427.79,1.1479007108269033
384,3435.69,1.1456834258935746
385,3443.6099999999997,1.112320140238896
386,3451.5499999999997,1.1412418538628673
387,3459.5,1.0978195671261632
388,3467.48,1.095675279307434
389,3475.47,1.1011439911280296
390,3483.48,1.081410702227275
391,3491.52,1.1146114122444952
392,3499.56,1.0896531222617152
393,3507.63,1.08006383119691
394,3515.72,1.068090539410755
395,3523.8199999999997,1.0908412472639244
396,3531.94,1.0812509543957438
397,3540.09,1.0966246604455379
398,3548.25,1.1123153661346565
399,3556.43,1.0974150711024255
400,3564.62,1.1003517757095191
401,3572.8399999999997,1.0806954792345873
402,3576.45,0.8460335490308765
403,3579.1499999999996,0.9520718516485996
404,3581.85,1.1122391542663228
405,3584.55,0.7682796568840461
406,3587.25,0.4232665595017692
407,3589.9500000000003,0.8195629621194923
408,3592.65,1.6257867647372155
409,3595.35,1.5041356673549389
410,3598.0499999999997,1.4210805699726619
411,3600.75,0.9323370725903851
412,3603.4500000000003,0.8633089752081082
413,3606.15,1.0465382778258314
414,3608.85,1.0778421804435547
415,3611.55,1.1101760830612777
416,3614.25,0.6671057856790009
417,3616.95,1.3831968882967243
418,3619.6499999999996,1.1033607909144472
419,3622.35,0.8686968935321706
420,3625.05,1.2113795961498937
421,3627.75,1.017372498767617
422,3630.4500000000003,1.16271840138534
423,3633.15,1.0214933040030632
424,3635.85,1.0789502066207866
425,3638.5499999999997,0.4763704092385096
426,3641.2499999999995,0.47313681185623274
427,3643.9500000000003,1.191327914473956
428,3646.65,1.194655817091679
429,3649.35,1.2875387197094024
430,3652.05,1.0821186223271255
431,3654.75,0.8766995249448487
432,3657.45,1.0840204275625718
433,3660.1499999999996,0.746069430180295
434,3662.8500000000004,1.1866502327980182
435,3665.55,1.1379901354157413
436,3668.25,1.2481490380334648
437,3670.9500000000003,1.3408729406511877
438,3673.65,1.215338843268911
439,3676.35,0.7616889458866342
440,3679.0499999999997,1.2885666485043572
441,3681.7499999999995,0.9115685511220805
442,3684.4500000000003,0.8919141537398037
443,3687.15,1.0548543563575268
444,3689.85,1.19821925897525
445,3692.55,0.8466612615929732
446,3695.25,1.0802140642106965
447,3697.95,0.8571220668284195
448,3700.6499999999996,0.7991101694461428
449,3703.3500000000004,0.9030873720638658
450,3706.05,0.9065743746815891
451,3708.75,0.9281305772993123
452,3711.45,0.9164013799170354
453,3714.15,1.3845373825347584
454,3716.85,1.412751285152482
455,3719.5499999999997,2.102236187770205
456,3722.2499999999995,4.7397140903879285
457,3724.9500000000003,7.120101993005651
458,3727.65,8.979332895623376
459,3730.35,7.598459798241098
460,3733.05,4.296857700858821
461,3735.75,2.372480603476544
462,3738.45,1.3545795060942674
463,3741.1499999999996,1.0829064087119904
464,3743.8500000000004,0.8304119113297136
465,3746.55,1.0264002139474369
466,3749.25,1.0674521165651598
467,3751.95,1.0168890191828832
468,3754.65,0.9379552218006062
469,3757.35,0.9792448244183295
470,3760.0499999999997,1.1884677270360526
471,3762.7500000000005,1.3717756296537758
472,3765.4500000000003,1.2501245322714991
473,3768.15,1.1085824348892221
474,3770.85,0.9958867375069453
475,3773.55,1.2737412401246686
476,3776.25,1.2052681427423917
477,3778.95,1.105728045360115
478,3781.6499999999996,1.248141947977838
479,3784.3500000000004,1.3093238505955613
480,3787.05,1.4155197532132844
481,3789.75,1.3434806558310075
482,3792.45,1.163501558448731
483,3795.15,1.257810461066454
484,3797.85,1.1216563636841772
485,3800.5499999999997,1.0523122663019004
486,3801.8939600000003,1.0680913037545385
487,3803.2500000000005,1.0840121791103932
488,3805.9500000000003,1.1239541020188735
489,3808.65,1.0968510249273535
490,3811.35,1.2471099478358336
491,3814.0499999999997,1.2266628707443141
492,3816.75,1.3466487936527942
493,3819.44,1.3515697168467984
494,3822.14,1.275488639755279
495,3824.8399999999997,1.239507562663759
496,3827.54,1.4297904855722392
497,3830.24,1.3115474084807193
498,3832.94,1.1836353313891996
499,3835.6400000000003,0.9560252542976798
500,3838.34,0.92820777720616
501,3841.04,1.1935411001146403
502,3843.74,1.1294270230231205
503,3846.44,1.0710179459316005
504,3849.14,1.0804488688400808
505,3851.84,1.0827477917485608
506,3854.54,1.2776257146570413
507,3857.2400000000002,1.1826826375655215
508,3859.94,1.2448945604740016
509,3862.64,1.373995483382482
510,3865.3399999999997,1.511417406290962
511,3868.04,1.805994329199442
512,3870.74,1.5886072521079222
513,3873.44,1.3372221750164026
514,3876.1400000000003,1.3722510979248828
515,3878.84,1.060397020833363
516,3881.54,1.0871839437418431
517,3884.24,1.3050458666503233
518,3886.94,1.4905727895588035
519,3889.64,1.432084712467284
520,3892.34,1.3479996353757642
521,3895.04,1.3459385582842442
522,3897.7400000000002,1.3212124811927244
523,3900.44,1.1612824041012046
524,3903.14,1.2138263270096847
525,3905.8399999999997,1.3286612499181651
526,3908.54,1.3294531728266452
527,3911.2400000000002,1.5310690957351254
528,3913.94,1.4762270186436055
529,3916.6400000000003,1.6443179415520859
530,3919.34,1.414409864460566
531,3922.04,1.2928387873690463
532,3924.74,1.1872757102775264
533,3927.4399999999996,1.0611876331860066
534,3930.14,1.1089755560944867
535,3932.84,1.1503444790029669
536,3935.54,1.0593644019114472
537,3938.2400000000002,0.9918417248199274
538,3940.94,1.1134922477284077
539,3943.64,1.0498531706368879
540,3946.3399999999997,1.123319093545368
541,3949.04,1.0680810164538481
542,3951.7400000000002,1.3533059393623283
543,3954.44,1.3036148622708088
544,3957.1400000000003,1.264385785179289
545,3959.84,1.1572377080877692
546,3962.54,1.0872586309962493
547,3965.24,1.3016335539047295
548,3967.9399999999996,1.4243144768132097
549,3970.64,1.30615039972169
550,3973.34,1.38643132263017
551,3976.04,1.2106522455386504
552,3978.7400000000002,1.1439231684471305
553,3981.44,1.0710910913556106
554,3984.14,1.2411640142640907
555,3986.8399999999997,1.1375819371725713
556,3989.54,1.1727698600810514
557,3992.2400000000002,1.0596777829895314
558,3994.94,1.1511337058980118
559,3997.64,1.1288646288064919
560,4000.34,1.217228551714972
561,4003.04,1.2896644746234525
562,4005.74,1.1653983975319326
563,4008.4399999999996,1.1794263204404127
564,4011.1400000000003,1.2642242433488928
565,4013.84,1.218179166257373
566,4016.54,1.2885540891658531
567,4019.2400000000002,1.0649870120743337
568,4021.94,1.2823719349828138
569,4024.64,1.650809857891294
570,4027.3399999999997,1.432789780799774
571,4030.0399999999995,1.3745407037082542
572,4032.7400000000002,1.6331366266167344
573,4035.44,1.3486255495252149
574,4038.14,1.324612472433695
575,4040.84,1.2763483953421753
576,4043.54,1.2830843182506553
577,4046.24,1.2108862411591355
578,4048.9399999999996,1.3957001640676157
579,4051.6400000000003,1.070770086976096
580,4054.34,1.245122009884576
581,4057.04,1.2575649327930565
582,4059.7400000000002,1.0293218557015364
583,4062.44,0.9529235786100168
584,4065.14,1.156281701518497
585,4067.8399999999997,1.364632624426977
586,4070.5400000000004,1.2077945473354574
587,4073.23,1.2922034705294616
