,lambda (Angstroms),Total Flux (erg/s/cm^2/Angstrom)
0,100.11000000000001,4.7089251997019134e-05
1,101.97,5.655625953324484e-05
2,104.10000000000001,6.739671456905181e-05
3,104.712855,7.051604326197876e-05
4,106.04,6.488290503505943e-05
5,108.01,5.6522055944467366e-05
6,110.02,4.7995139420208496e-05
7,113.89,3.157287674544131e-05
8,117.89000000000001,1.459938459875685e-05
9,120.22644299999999,4.7763547470609855e-06
10,120.91,4.670458776539635e-06
11,124.87,3.9283789982433075e-06
12,126.9,3.542666796742918e-06
13,128.08,3.322131605230376e-06
14,131.06,2.755285769037688e-06
15,131.97,2.6210854442271695e-06
16,134.10999999999999,2.213049215551885e-06
17,136.92,1.7388341213567641e-06
18,138.038426,1.5286850706329838e-06
19,140.10999999999999,1.532050526220981e-06
20,143.04000000000002,2.204250577833691e-06
21,147.04999999999998,3.5186061334538167e-06
22,151.17000000000002,3.646993452445068e-06
23,155.04999999999998,3.818690014990227e-06
24,158.489319,3.997848904089266e-06
25,159.03,4.024001127150889e-06
26,161.98000000000002,4.150224603338689e-06
27,166.14000000000001,4.381452444335721e-06
28,170.01,4.5715679334363245e-06
29,173.17,4.712154629962916e-06
30,177.2,4.984840382178791e-06
31,180.07999999999998,5.171683118253659e-06
32,181.970086,5.291357948490268e-06
33,182.17000000000002,5.306833021733062e-06
34,185.98,5.646469842062078e-06
35,191.19,6.135887588496244e-06
36,193.85,6.502035148096029e-06
37,197.91,6.9386916338009634e-06
38,202.05999999999997,7.48320487904123e-06
39,204.86999999999998,7.920519037866567e-06
40,208.929613,8.286623423102643e-06
41,210.12,8.4146913784082e-06
42,216.01,9.899202954834933e-06
43,220.02,1.0865732148633099e-05
44,223.09,1.1485498651116983e-05
45,227.23,1.2649840227756487e-05
46,229.85999999999999,1.742051289600815e-05
47,234.14000000000001,2.7369131192630634e-05
48,239.88329199999998,3.496350753575973e-05
49,240.14000000000001,3.529319967816775e-05
50,245.73999999999998,3.6950222572930054e-05
51,252.04000000000002,4.316279207953765e-05
52,256.73,4.250514237890109e-05
53,260.3,4.878645409931205e-05
54,263.92,6.203635772056912e-05
55,268.83,7.002083238365537e-05
56,273.82,7.836510408809533e-05
57,275.42287,7.822574745465999e-05
58,278.90999999999997,7.804630967229343e-05
59,284.1,9.87753750436606e-05
60,290.05,0.00011414241574879251
61,296.12,0.00012068193519083466
62,300.93,0.00012726656789531949
63,307.94,0.0001563870107764917
64,316.227766,0.0001798303632227203
65,318.03,0.00018487107822002944
66,327.7,0.0002258935976024678
67,337.65000000000003,0.0002525665591180067
68,347.91,0.00027923476013804984
69,356.84000000000003,0.0004257897110258651
70,363.078055,0.000637025523456001
71,365.99,0.0007357006915636985
72,375.38,0.0008085176471645556
73,385.01,0.0007258202166465846
74,394.89000000000004,0.0012205574047548344
75,405.01000000000005,0.0016883714067442565
76,414.45000000000005,0.0018342862860703578
77,416.86938299999997,0.0018198987035466796
78,422.15000000000003,0.0017884738143799325
79,429.99999999999994,0.0018344381483486013
80,441.03000000000003,0.0023573234672880175
81,451.31,0.0025905990727909363
82,459.7,0.002428989800433883
83,470.4,0.0026571160454612404
84,478.630092,0.003112026988829046
85,480.25,0.003201542420062579
86,490.31,0.0028798595253846687
87,499.43,0.003778327376332726
88,506.37,0.0033521151905410067
89,512.24,0.005498212821578846
90,520.56,0.005447918264549004
91,530.24,0.005275052501081592
92,540.1,0.004510499254409207
93,549.5408739999999,0.004559636248539069
94,550.14,0.004562757854525338
95,560.36,0.00625453844507607
96,569.47,0.007314350012582642
97,580.0600000000001,0.007398764610814761
98,589.48,0.0077833703469192515
99,600.44,0.006716976952832757
100,610.1999999999999,0.0066861107770769
101,620.11,0.008732914199029714
102,630.19,0.008416814165052354
103,630.957344,0.008500322214548847
104,640.4300000000001,0.00953126635166283
105,649.34,0.009378811562188805
106,658.3700000000001,0.008732849206526576
107,664.46,0.010026641222475307
108,675.26,0.010743450265537094
109,684.65,0.009336048211310257
110,695.78,0.011095354447354489
111,705.4599999999999,0.009060796441506164
112,715.27,0.01183435490562062
113,724.43596,0.012139895476080223
114,725.22,0.012166029654142048
115,735.31,0.01233512040804445
116,745.54,0.01208228144990982
117,754.17,0.012166019200769854
118,764.6600000000001,0.011019440777423591
119,775.3000000000001,0.012478352662609077
120,784.28,0.011538871133376528
121,795.19,0.012564513573919165
122,804.4,0.013036212517768632
123,815.59,0.013186925534237203
124,825.0300000000001,0.013525324951168687
125,831.763771,0.011601142607385836
126,834.59,0.010793526128649616
127,844.25,0.013463322812334887
128,854.0300000000001,0.013309068957929292
129,865.91,0.013904085686933538
130,875.9300000000001,0.014065130756346212
131,884.04,0.014162614390371838
132,894.2700000000001,0.014293618518125493
133,904.63,0.014064962062947379
134,915.1099999999999,0.013712985069678397
135,925.7,0.03229350758315945
136,934.27,0.052372569154503425
137,945.0899999999999,0.07346890063664366
138,954.992586,0.08747411800890233
139,956.03,0.0889413354972843
140,964.87,0.09596312923193535
141,976.05,0.03358219130811172
142,985.0799999999999,0.07587561490810031
143,994.1899999999999,0.07587681845138891
144,1005.7099999999999,0.09956257028659031
145,1015.01,0.10094920369521643
146,1024.4,0.06443382704005507
147,1033.8799999999999,0.08358043032110622
148,1045.85,0.12447988183737017
149,1055.53,0.12025277497667135
150,1065.3,0.09864935805218503
151,1075.15,0.11094376107099872
152,1085.1,0.09377766401893742
153,1095.14,0.11457844690308863
154,1096.4782,0.11389789075148377
155,1105.28,0.10942162642996915
156,1115.5,0.10595020375936408
157,1125.83,0.09334659084475055
158,1136.24,0.11378885775267632
159,1144.12,0.10594814027279689
160,1154.7,0.10816931680361865
161,1165.39,0.10767059309043195
162,1176.17,0.07329930917760197
163,1184.33,0.10282475107661006
164,1195.28,0.08148970678667607
165,1206.3400000000001,0.0666973122527336
166,1214.71,0.05334522368590735
167,1225.94,0.08000339877486089
168,1234.44,0.10330073991966099
169,1245.8600000000001,0.10841831458714536
170,1254.5,0.10449589542138922
171,1258.92541,0.10132719675161811
172,1266.11,0.09618287673829282
173,1274.8899999999999,0.11352478812363019
174,1283.72,0.11670718951685674
175,1295.6000000000001,0.09662685139132234
176,1304.58,0.09596113280821636
177,1313.6200000000001,0.11352709423457741
178,1325.78,0.10816669615322233
179,1334.97,0.09865058760325086
180,1344.22,0.11094159906274638
181,1353.54,0.10742210053328674
182,1366.06,0.09752219250873366
183,1375.53,0.09933367400294152
184,1385.07,0.09887746550819419
185,1394.67,0.07872232702291389
186,1404.3400000000001,0.07836021854867839
187,1414.07,0.0912219600839099
188,1423.8700000000001,0.09059386163018623
189,1433.74,0.09206653318750742
190,1440.36,0.09486362423203286
191,1445.43977,0.09536609449343048
192,1447.01,0.09552141524147487
193,1453.69,0.0920652361260799
194,1463.76,0.08572505745960876
195,1473.9099999999999,0.08611859880373168
196,1484.1299999999999,0.08711611015712444
197,1494.4099999999999,0.08711770151846272
198,1504.77,0.0822434028903951
199,1511.72,0.07466230381075513
200,1518.7,0.07835991473508794
201,1525.71,0.07640019566339352
202,1536.28,0.06578174706313533
203,1543.3700000000001,0.064581418002035
204,1554.07,0.06281943941899218
205,1564.8400000000001,0.06731337084521917
206,1575.6899999999998,0.07146554228204023
207,1586.61,0.0738075037281311
208,1593.94,0.07431873469881298
209,1604.98,0.07262891616079496
210,1616.1100000000001,0.07196080763469528
211,1623.57,0.06935888862259251
212,1634.82,0.07296299011238395
213,1646.16,0.0731302716140937
214,1653.75,0.06967925261920631
215,1659.58691,0.0715211369056343
216,1665.22,0.07329870883982201
217,1672.8999999999999,0.06638923626700859
218,1676.76,0.0746621699999435
219,1684.5,0.07552679748515496
220,1696.1799999999998,0.0714651387806679
221,1704.01,0.06904033635291672
222,1715.8200000000002,0.06502748777415022
223,1723.74,0.06413611543343639
224,1735.68,0.06762506698039052
225,1743.7,0.06608552473638483
226,1755.7800000000002,0.06856536641873039
227,1763.8899999999999,0.06458089426176204
228,1776.11,0.063988266079499
229,1784.3100000000002,0.06517825400956802
230,1796.6799999999998,0.06762472597236723
231,1804.9699999999998,0.06731374398947357
232,1813.31,0.06210138205493399
233,1825.87,0.0631108742014787
234,1834.3000000000002,0.06125008235397647
235,1847.02,0.05663667465525424
236,1855.54,0.056637282894789344
237,1864.11,0.05755713118267853
238,1877.0300000000002,0.060826933677372616
239,1885.6899999999998,0.05598954205229915
240,1894.3999999999999,0.05346866047557975
241,1903.14,0.05663685892787281
242,1905.46072,0.05618859096737656
243,1916.33,0.054089067622783024
244,1925.1799999999998,0.052372856590559555
245,1934.06,0.05484174552093872
246,1942.99,0.05586100438898893
247,1956.4599999999998,0.05165307759757083
248,1965.49,0.055730806340963154
249,1974.56,0.05729367503449232
250,1983.6799999999998,0.05408857366569254
251,1992.83,0.05261516225949539
252,2006.65,0.054213275031774665
253,2015.9099999999999,0.05261506348845384
254,2025.21,0.05446358189526985
255,2034.56,0.050946130239756915
256,2043.95,0.05213225853438083
257,2053.39,0.04754427676667579
258,2062.87,0.048764734949107595
259,2072.39,0.05297852308167624
260,2077.1600000000003,0.04967117713549478
261,2086.75,0.05129850518080291
262,2096.38,0.04865314317624787
263,2106.06,0.049215331109363894
264,2115.7799999999997,0.04955689899261676
265,2125.5499999999997,0.04978453681354068
266,2135.36,0.04743570458460144
267,2145.22,0.04710818229333325
268,2155.12,0.04865271995220192
269,2165.06,0.04732559756120742
270,2175.06,0.04689134509541818
271,2185.1,0.04561483257976579
272,2187.7616199999998,0.04600929296402892
273,2195.18,0.04710873663488563
274,2205.32,0.04603572671291046
275,2215.5,0.04437040683069081
276,2225.72,0.043063136988226676
277,2236.0,0.044370337205395835
278,2246.32,0.043063047462320515
279,2256.6800000000003,0.04160022775900071
280,2267.1,0.04227668811531419
281,2277.5699999999997,0.04266885852132208
282,2282.82,0.04276657373923434
283,2293.35,0.040379644204875505
284,2303.94,0.04060218473014996
285,2314.57,0.03917004529517993
286,2325.26,0.03306296591984319
287,2335.9900000000002,0.03730364658426196
288,2346.77,0.03691130729837514
289,2357.6,0.037893318062182726
290,2363.04,0.03620403346893372
291,2373.95,0.03623664431225234
292,2384.9,0.034638395195326493
293,2395.91,0.03597272613803392
294,2406.97,0.03486422713043576
295,2412.52,0.035122842646514434
296,2423.66,0.03580976371842731
297,2434.84,0.034547844830095716
298,2446.08,0.03563106600139739
299,2457.37,0.03509581722239348
300,2463.04,0.03478992285773872
301,2474.41,0.03387491415824585
302,2485.83,0.03430015550844739
303,2497.3,0.03045918690834332
304,2503.06,0.03427121263313849
305,2511.88643,0.03254655226748328
306,2514.61,0.03201437035797106
307,2520.4100000000003,0.033231388126938176
308,2526.2200000000003,0.03226750589205868
309,2537.88,0.03230003140691325
310,2543.73,0.03150794915664733
311,2555.4700000000003,0.032422944640729034
312,2567.27,0.03200878010173108
313,2573.18,0.03284627782838551
314,2585.06,0.0325026332586147
315,2596.9900000000002,0.03216260866961085
316,2602.9799999999996,0.0314464663654924
317,2614.99,0.03104699174571568
318,2627.07,0.031437297099012704
319,2633.12,0.0314537747718146
320,2645.2799999999997,0.032366930094338754
321,2657.4900000000002,0.03217697539762987
322,2663.61,0.03060388304350551
323,2675.9100000000003,0.031133428312177146
324,2682.08,0.030864165938819747
325,2694.45,0.030052351180565127
326,2706.8900000000003,0.030084816395384243
327,2713.13,0.029413863995100587
328,2725.66,0.029444509175300226
329,2731.94,0.029869426759630134
330,2744.55,0.02803405190905691
331,2757.2200000000003,0.027999597035404035
332,2763.57,0.028207714592807683
333,2776.3300000000004,0.02889658968453533
334,2782.73,0.02831785722270594
335,2795.57,0.025323302283660722
336,2802.02,0.026348589802598285
337,2814.95,0.02826372482893359
338,2827.9500000000003,0.028292529828342638
339,2834.4599999999996,0.02722211732420055
340,2847.5499999999997,0.02700138228899012
341,2854.11,0.026768219765614994
342,2867.29,0.027357624695785086
343,2873.8999999999996,0.026934412153176917
344,2884.0315,0.02690958378879102
345,2887.16,0.026901918231357506
346,2893.8199999999997,0.02648592817892885
347,2907.17,0.027008778073835366
348,2927.3199999999997,0.026437307915211126
349,2947.6200000000003,0.025937997755406058
350,2968.0499999999997,0.025802517594577606
351,2988.6200000000003,0.025491427432647054
352,3009.3399999999997,0.025241827269535673
353,3030.2000000000003,0.02499418710532219
354,3051.2,0.024693936940006603
355,3072.35,0.024339576773510188
356,3086.53,0.02409002666188281
357,3107.93,0.023744546493418353
358,3129.47,0.02335219632385179
359,3151.16,0.023178636153104407
360,3173.01,0.022795165981097473
361,3187.65,0.022147885865848895
362,3209.75,0.02218756569187392
363,3232.0,0.02177165551671812
364,3246.9199999999996,0.021697485399265328
365,3269.42,0.021536545222141486
366,3292.08,0.021279885043758093
367,3307.28,0.021060904924101096
368,3311.31121,0.021184058753859838
369,3322.55,0.021527403201090877
370,3330.2,0.021343122049876182
371,3337.8799999999997,0.020822340894146918
372,3345.5800000000004,0.020643229735407942
373,3353.29,0.02056188857516411
374,3361.02,0.02057445741191057
375,3368.77,0.020350246245647317
376,3376.5299999999997,0.019762565077879206
377,3384.32,0.020328483905596526
378,3392.1200000000003,0.02057626273180899
379,3399.94,0.020923491555011747
380,3407.77,0.019901800376709647
381,3415.63,0.020053729193892977
382,3423.5,0.02048594800957145
383,3431.4,0.020498516820735363
384,3439.31,0.020464175630394415
385,3447.24,0.019780524437043756
386,3455.18,0.019343043242188242
387,3463.1499999999996,0.01913318204281816
388,3471.13,0.01936648084194322
389,3479.1299999999997,0.01915671963805857
390,3487.15,0.019125998431164207
391,3495.19,0.019447907221260136
392,3503.25,0.019017426008346352
393,3511.32,0.01881139479392771
394,3519.4199999999996,0.018910763574994504
395,3527.5299999999997,0.01892162235455644
396,3535.66,0.019241721131108665
397,3543.8199999999997,0.019254279903146324
398,3551.98,0.01935566867518398
399,3560.1699999999996,0.019189307442707068
400,3568.38,0.018764246207220444
401,3576.61,0.01797328496872411
402,3584.85,0.017819943728722924
403,3593.11,0.017667962485712025
404,3601.4,0.018216351238186556
405,3609.7000000000003,0.01814401998915623
406,3618.02,0.018198278737116193
407,3626.36,0.018849287482066445
408,3630.28,0.01584321689216297
409,3633.02,0.024549186479832476
410,3635.76,0.019337516067501986
411,3638.5,0.01738901565517149
412,3641.2400000000002,0.013038105242840999
413,3643.98,0.019764294830510506
414,3646.72,0.014347544418180013
415,3649.46,0.016583944005849522
416,3652.2,0.02213144359351903
417,3654.94,0.018012913181188535
418,3657.68,0.021818612768858044
419,3660.4199999999996,0.01554812235652755
420,3663.16,0.014479931944197057
421,3665.9,0.011256351531866564
422,3668.6400000000003,0.014263111119536072
423,3671.38,0.02121825070720558
424,3674.1200000000003,0.017453610294875087
425,3676.86,0.018205519882544593
426,3679.6,0.008886135470214104
427,3682.34,0.01667945905788361
428,3685.08,0.016037128645553116
429,3687.82,0.016392108233222624
430,3690.56,0.02128517782089213
431,3693.2999999999997,0.02118391740856164
432,3696.04,0.015061526996231147
433,3698.7799999999997,0.018507546583900657
434,3701.52,0.024185816171570163
435,3704.27,0.017077225757734814
436,3707.01,0.01704178534540432
437,3709.75,0.01658517493307383
438,3712.49,0.02182398452074334
439,3715.23,0.021377324108412844
440,3717.97,0.026402753696082353
441,3720.71,0.03982257328375186
442,3723.45,0.08003321287142136
443,3726.1899999999996,0.14360604245909087
444,3728.93,0.17400634204676038
445,3731.67,0.1370652416344299
446,3734.4100000000003,0.0712175312220994
447,3737.15,0.031543950809768906
448,3739.8900000000003,0.020019280397438412
449,3742.63,0.021842109985107917
450,3745.37,0.019775149572777425
451,3748.11,0.019728139160446932
452,3750.85,0.02186742874811644
453,3753.59,0.017868968335785947
454,3756.33,0.020599777923455454
455,3759.0699999999997,0.020487667511124963
456,3761.81,0.020735417098794468
457,3764.5499999999997,0.020970506686463976
458,3767.29,0.015345776274133485
459,3770.0299999999997,0.021442495861802992
460,3772.7699999999995,0.0194189354494725
461,3775.51,0.016526645037142008
462,3778.25,0.015974734624811512
463,3780.9900000000002,0.01974445421248102
464,3783.73,0.02155101380015053
465,3786.48,0.01885826338631518
466,3789.22,0.018744332973984687
467,3791.9599999999996,0.016590772561654196
468,3794.7,0.017477412149323704
469,3797.44,0.01902826173699321
470,3800.1800000000003,0.01817110132466272
471,3801.8939600000003,0.018723121293305854
472,3802.92,0.019053580944504184
473,3805.6600000000003,0.01958524061808766
474,3808.4,0.017340530291671135
475,3811.14,0.014464159965254611
476,3813.88,0.024102529638838088
477,3816.62,0.01800130931242156
478,3819.36,0.01760383898600504
479,3822.1,0.013885488659588514
480,3824.8399999999997,0.01896680833317199
481,3827.58,0.020147668006755465
482,3830.3199999999997,0.01797130768033894
483,3833.06,0.016731317353922418
484,3835.7999999999997,0.015161847027505894
485,3838.5399999999995,0.01875162670108937
486,3841.28,0.020433406374672846
487,3844.0200000000004,0.015585006048256321
488,3846.76,0.022657695721839795
489,3849.5,0.01612860539542327
490,3852.2400000000002,0.019856545069006748
491,3854.98,0.019966864742590223
492,3857.7200000000003,0.0173939244161737
493,3860.46,0.019026514089757175
494,3863.2,0.027637953763340647
495,3865.94,0.039027033436924125
496,3868.69,0.0455730931093163
497,3871.4300000000003,0.038562102782899774
498,3874.17,0.028757202456483253
499,3876.91,0.021512932130066727
500,3879.65,0.018131301803650204
501,3882.39,0.019299511477233678
502,3885.13,0.026221901150817156
503,3887.87,0.02642444082440063
504,3890.61,0.026957910497984103
505,3893.35,0.024661300171567584
506,3896.0899999999997,0.021033739845151056
507,3898.83,0.016503619518734535
508,3901.5699999999997,0.01572982919231801
509,3904.31,0.01580523886590148
510,3907.05,0.01730183853948496
511,3909.7900000000004,0.020326688213068433
512,3912.53,0.019588877886651913
513,3915.27,0.020805907560235388
514,3918.01,0.018666617233818864
515,3920.75,0.020239896907402338
516,3923.4900000000002,0.019111476580985814
517,3926.23,0.01941709625456929
518,3928.97,0.020415315928152766
519,3931.71,0.015540335601736241
520,3934.45,0.017069485275319717
521,3937.19,0.01640492494890319
522,3939.93,0.01877876462248667
523,3942.6699999999996,0.019326694296070143
524,3945.41,0.01816573396965362
525,3948.15,0.018469543643237094
526,3950.9,0.020561713315629268
527,3953.64,0.019579782989212747
528,3956.38,0.015856562662796222
529,3959.12,0.0157202123363797
530,3961.8599999999997,0.019037282009963172
531,3964.6,0.024151321683546646
532,3967.3399999999997,0.030417281357130125
533,3970.0800000000004,0.0308314010307136
534,3972.82,0.028243640704297076
535,3975.5600000000004,0.01892518037788055
536,3978.3,0.017222610051464023
537,3981.04,0.0200047797250475
538,3983.78,0.016767089398630978
539,3986.52,0.014321109072214453
540,3989.26,0.015202138745797929
541,3992.0,0.019592478419381408
542,3994.74,0.01915304809296488
543,3997.48,0.018879997766548355
544,4000.22,0.014864167440131831
545,4002.96,0.017397507113715308
546,4005.7,0.019579836787298785
547,4008.4399999999996,0.018100606460882258
548,4011.18,0.019876416134465735
549,4013.92,0.019438795808049213
550,4016.6600000000003,0.018288675481632686
551,4019.4,0.018458665155216162
552,4022.1400000000003,0.015291144828799638
553,4024.88,0.01868110450238311
554,4027.62,0.01933573417596659
555,4030.36,0.015376503849550065
556,4033.1099999999997,0.01688785352194224
557,4035.8500000000004,0.020903483195525714
558,4038.59,0.01968104286910919
559,4041.3300000000004,0.019784122542692666
560,4044.07,0.01721571221627614
