,lambda (Angstroms),Total Flux (erg/s/cm^2/Angstrom)
0,102.05000000000001,3.5405000499052766
1,103.95,3.5304090027584816
2,104.712855,3.5263574207749167
3,105.88,3.493796044029217
4,108.10000000000001,3.4318617887556497
5,110.11,3.375786179267579
6,113.98,3.267819707277547
7,117.97999999999999,3.15622645461137
8,120.22644299999999,3.093554484889931
9,121.01,3.07522723829955
10,124.97,2.9826036041663486
11,127.0,2.935122296808829
12,127.88000000000001,2.9145392671145833
13,130.86,2.844837643689312
14,132.07,2.81653597829879
15,133.91,2.773498734544221
16,137.03,2.700522539674722
17,138.038426,2.676935651026051
18,139.9,2.6458126452858104
19,143.16,2.5913098606016205
20,147.17,2.5242681248469787
21,150.94,2.4612388321502743
22,155.17,2.3905189665486457
23,158.489319,2.3350244618851512
24,159.14999999999998,2.3266737201748247
25,162.10999999999999,2.2892605166615065
26,165.89,2.2414828583038955
27,170.14000000000001,2.1877645890177115
28,172.91,2.1527529338901874
29,176.93,2.101941795509979
30,179.81,2.065539796193727
31,181.89000000000001,2.0392494652058284
32,181.970086,2.038237211785605
33,186.13000000000002,1.9981240487528613
34,190.9,1.9521279939229628
35,194.0,1.9222353937310543
36,198.07000000000002,1.8829893075639408
37,202.21,1.8430682553519193
38,205.03,1.8158756788577453
39,208.929613,1.778272614023496
40,209.79999999999998,1.7719626910497284
41,216.17999999999998,1.7257106947699516
42,220.20000000000002,1.6965676027759165
43,222.75,1.6780813336869238
44,226.89000000000001,1.6480683539237837
45,230.04,1.625234050285264
46,233.78,1.5981241023288082
47,239.78,1.5546299060435322
48,239.88329199999998,1.5538810903729523
49,245.93,1.5201011097347388
50,252.24,1.4848520018112037
51,256.93,1.4586495325546618
52,259.9,1.442060299931841
53,264.13,1.418430952800248
54,269.04,1.3910022354709044
55,274.04,1.363070647004506
56,275.42287,1.3553455169536899
57,279.13,1.3394524335992726
58,284.32,1.317202177781047
59,290.28000000000003,1.2916496569494045
60,295.67,1.2685426156154866
61,301.17,1.2449628492639373
62,308.19,1.2148677292251238
63,316.227766,1.1804096073458776
64,318.28000000000003,1.173838608477421
65,327.95,1.1428761155779057
66,337.92,1.1109526232888296
67,348.19000000000005,1.0780684199301922
68,357.12,1.0494753911569272
69,363.078055,1.0303987969816522
70,366.28000000000003,1.0227215150511877
71,374.81,1.0022682384299757
72,385.31,0.9770888229718714
73,395.2,0.9533772240954952
74,405.33,0.9290886993676196
75,413.82,0.9087311019483236
76,416.86938299999997,0.9014188532310826
77,421.51,0.8929211485679268
78,430.34000000000003,0.8767521509124371
79,441.37999999999994,0.8565385435006246
80,450.62,0.8396193101632377
81,460.06,0.8223326223298038
82,469.68999999999994,0.8046995280701248
83,478.630092,0.7883305696667648
84,479.53000000000003,0.7870634342854691
85,489.57,0.7729225196159007
86,499.82,0.7584908074590307
87,505.61,0.7503369072391401
88,511.46,0.7421276006428776
89,519.77,0.7304275894153666
90,529.43,0.716826236319487
91,540.52,0.70120398995341
92,549.5408739999999,0.6885221717477062
93,550.57,0.6874191575546994
94,559.52,0.6778262546578964
95,569.92,0.666674013335913
96,580.51,0.6552931274471817
97,589.9499999999999,0.6451879129887661
98,599.53,0.6349050691127468
99,610.68,0.6229528524536011
100,620.6,0.6123461744634016
101,630.68,0.6015461195959407
102,630.957344,0.6012484488997238
103,639.46,0.5940161540055912
104,649.85,0.5852194245718743
105,657.37,0.5788498993969416
106,664.99,0.57238984253564
107,674.24,0.5645213809465273
108,685.1899999999999,0.5551966469891452
109,694.72,0.5472370341381997
110,704.39,0.5389816788063381
111,715.8299999999999,0.5293744312657489
112,724.43596,0.5220831093838714
113,725.7900000000001,0.521233141833807
114,734.2,0.5159614994865392
115,744.41,0.5096400050169078
116,754.77,0.5031805713037457
117,765.27,0.4966185512566223
118,774.13,0.4911526989787638
119,784.9000000000001,0.48446777307328553
120,795.82,0.47764927602427704
121,805.0300000000001,0.4719171244115144
122,814.3499999999999,0.4661089338934962
123,825.6800000000001,0.45914549165217133
124,831.763771,0.4550754005217684
125,835.24,0.45330481484684565
126,844.91,0.4492368831248175
127,854.7,0.44469737673095444
128,864.5899999999999,0.44023090994389574
129,874.61,0.4357111943456824
130,884.7299999999999,0.4312096623542735
131,894.9799999999999,0.42656964255171
132,905.34,0.4216804522166311
133,915.8199999999999,0.41872832220971745
134,924.3,0.44873396806671867
135,935.0,0.49229294899477427
136,945.83,0.5708668201116754
137,954.58,0.6471079482070481
138,954.992586,0.6477252446709736
139,965.63,0.6637491599888438
140,974.57,0.42535661852757917
141,985.85,0.5941858291670574
142,994.98,0.6204285707396138
143,1004.18,0.7605342439562096
144,1015.8100000000001,0.7533860728158845
145,1025.21,0.5328893650154497
146,1034.7,0.6176928407573511
147,1044.27,0.8946046240924403
148,1053.93,0.8839592909698659
149,1066.14,0.7492440248801523
150,1076.0,0.8415317107405473
151,1085.96,0.716517656092427
152,1096.0,0.8744487090374946
153,1096.4782,0.8733562311444938
154,1106.15,0.8520709931612584
155,1113.81,0.8243342565355845
156,1124.12,0.7659296435315768
157,1134.52,0.9192612569901917
158,1145.02,0.8570987109628319
159,1155.61,0.9029897913980945
160,1166.31,0.9212691263987849
161,1174.39,0.7075901799320166
162,1185.26,0.9042198538065496
163,1196.22,0.6837013541437054
164,1204.52,0.5548727168077923
165,1215.6599999999999,0.4841286700701934
166,1224.0900000000001,0.7021177154025129
167,1235.41,0.9516286215901592
168,1243.98,1.023746463642114
169,1255.49,0.979083336806408
170,1258.92541,0.9338924629038767
171,1264.19,0.8652120271260773
172,1275.89,1.0783214676377857
173,1284.73,1.1282039049132988
174,1293.64,0.9089639496106767
175,1305.6100000000001,0.8997702187495786
176,1314.66,1.1062652782906865
177,1323.77,1.0654037441933928
178,1336.02,0.9504768430197544
179,1345.2800000000002,1.125959024826457
180,1354.6,1.0974648129947582
181,1363.99,0.9897429085849243
182,1373.45,1.0408137115969551
183,1386.1599999999999,1.050431259195572
184,1395.77,0.9375964781115993
185,1405.44,0.969965503389225
186,1415.18,0.9811146360887157
187,1424.9899999999998,1.0140623762100713
188,1434.8700000000001,1.0059581237532917
189,1441.49,1.0584055256496603
190,1445.43977,1.0700997544764546
191,1448.15,1.0783449285230802
192,1454.83,1.0497821888003904
193,1464.92,0.9745100419737529
194,1475.07,0.977880291796313
195,1485.29,0.9992253543762698
196,1495.59,1.0193815458218232
197,1505.96,0.9685350500247735
198,1512.91,0.8704200452234722
199,1516.3999999999999,0.9306052669851209
200,1523.4,0.9030239427248173
201,1533.95,0.79962113687536
202,1544.5900000000001,0.8783903759996985
203,1555.29,0.8383941117732346
204,1566.07,0.8467739764123672
205,1573.3,0.8968616226406537
206,1584.21,0.9398950966863806
207,1595.19,0.9570190834895046
208,1606.25,0.944403999158225
209,1613.66,0.9517684353341037
210,1624.85,0.9035185604094186
211,1636.1100000000001,0.9581857982421302
212,1643.66,0.973028459932803
213,1655.06,0.9044791232803087
214,1659.58691,0.9356500663246895
215,1666.53,0.9838499974886747
216,1670.37,0.8807949292867879
217,1678.0800000000002,0.987919634537687
218,1685.8300000000002,1.0350533619948166
219,1693.6100000000001,0.9765521311066186
220,1705.35,0.9406151986352251
221,1713.22,0.8948825927110455
222,1725.09,0.8916466074099005
223,1733.06,0.949462607001297
224,1745.07,0.9300843494219582
225,1753.12,0.9912226934258153
226,1765.28,0.9134596441198402
227,1773.42,0.9351863130877155
228,1785.72,0.9515460915035467
229,1793.96,1.016835865986998
230,1806.3899999999999,1.0112651915730777
231,1814.73,0.9350865715721048
232,1823.11,0.9576217737773622
233,1835.7499999999998,0.9198666909461514
234,1844.22,0.8530142181154271
235,1857.0,0.8529463630060224
236,1865.57,0.8798021956908739
237,1874.19,0.9527282311335135
238,1882.8400000000001,0.8825802082308256
239,1895.89,0.8510365280134758
240,1904.6399999999999,0.8985390106263639
241,1905.46072,0.8955746899495882
242,1913.43,0.8670717599399299
243,1926.69,0.8542436318533407
244,1935.5900000000001,0.87837037831106
245,1944.5200000000002,0.9139833240265018
246,1953.5,0.8615401351714815
247,1967.04,0.9407958334903038
248,1976.1200000000001,0.9661948754943589
249,1985.24,0.9171945498420442
250,1994.4,0.8933169565333597
251,2003.6100000000001,0.9190155286542131
252,2012.85,0.888050000032789
253,2026.81,0.9295109879597283
254,2036.1599999999999,0.8823327232832873
255,2045.56,0.918585924036384
256,2055.0,0.882242657133111
257,2064.49,0.8847872556593757
258,2074.02,0.9434834865292705
259,2078.8,0.9009996015930791
260,2083.5899999999997,0.9332320497427955
261,2093.21,0.8872423783858583
262,2102.87,0.8915847393725512
263,2112.58,0.8995037657887821
264,2127.22,0.9125028035574347
265,2137.04,0.8504738939186486
266,2146.9,0.8716223166234927
267,2156.81,0.9042073047578744
268,2166.77,0.8783991583217938
269,2176.77,0.8721975442293436
270,2186.8199999999997,0.8574870955664311
271,2187.7616199999998,0.8609815681154339
272,2196.91,0.8952184945830294
273,2207.05,0.8733613719177168
274,2217.2400000000002,0.8336600784305832
275,2227.47,0.8070313682859928
276,2232.6099999999997,0.8613501278027871
277,2242.91,0.825746538507647
278,2253.27,0.7933336242263219
279,2263.67,0.8136351932875399
280,2274.12,0.8345623915269367
281,2284.61,0.8544491731088767
282,2295.16,0.8124999297046315
283,2305.75,0.8105101696429293
284,2316.3900000000003,0.775526938759406
285,2327.09,0.6177303828896976
286,2332.4500000000003,0.7247340507904791
287,2343.22,0.7061168157702213
288,2354.03,0.7589318640925063
289,2364.9,0.7024948874286063
290,2375.81,0.7216038941072493
291,2386.78,0.6760683757997071
292,2392.2799999999997,0.7181261853993897
293,2403.33,0.6900384337769337
294,2414.42,0.7074255654970208
295,2425.56,0.745771426395287
296,2436.76,0.7177745623073679
297,2442.38,0.75710652193468
298,2453.65,0.7461746786962112
299,2464.98,0.7427714104715573
300,2476.35,0.7176448255894465
301,2487.78,0.7374650157211505
302,2493.52,0.6987086253760919
303,2505.0299999999997,0.7684979821928822
304,2510.8,0.6938764293547309
305,2511.88643,0.6975062199116332
306,2516.59,0.7132994032338641
307,2522.39,0.6840239066219919
308,2534.0299999999997,0.6919404637664412
309,2545.73,0.6794221964631815
310,2557.4799999999996,0.7238443921201645
311,2563.38,0.7079668214287771
312,2575.21,0.7455980178221479
313,2587.1,0.7378700897678097
314,2593.06,0.7288825946287133
315,2605.0299999999997,0.705600267310763
316,2617.05,0.6968895029530552
317,2623.09,0.7267469085503468
318,2635.19,0.744308444929027
319,2647.36,0.7989438694520467
320,2653.46,0.8086860506016291
321,2665.71,0.7421463758610368
322,2678.01,0.774246064080687
323,2684.19,0.7694124459666576
324,2696.58,0.7414873475147441
325,2702.79,0.7596712671768602
326,2715.27,0.7261897820533831
327,2727.8,0.7273915598901486
328,2734.09,0.7605838802886526
329,2746.71,0.6704895714538546
330,2753.04,0.6826031422205526
331,2765.75,0.7033195467141911
332,2772.1200000000003,0.7338542678490829
333,2784.92,0.701439985671158
334,2797.77,0.5830896664534754
335,2804.2200000000003,0.6211777883247552
336,2817.17,0.7283871950275576
337,2823.66,0.7571671672670316
338,2836.69,0.7294469747062218
339,2843.23,0.7159987099059382
340,2856.36,0.6969529432656135
341,2862.94,0.7517091288335239
342,2876.16,0.7452548755216357
343,2882.79,0.7451112240497886
344,2884.0315,0.7443727226683987
345,2896.09,0.7373724261008872
346,2909.46,0.7893670944646536
347,2929.6299999999997,0.7634970883986225
348,2949.9399999999996,0.7539421631531547
349,2970.38,0.7664263629553523
350,2990.97,0.7662906993510102
351,3011.71,0.7758077723401287
352,3032.5800000000004,0.7724547703769126
353,3046.58,0.7707714524332124
354,3067.7,0.7722682447924304
355,3088.96,0.7769906179722113
356,3110.37,0.7704075277454526
357,3131.93,0.7622625741121543
358,3146.39,0.7669827217217324
359,3168.2,0.763652262410868
360,3190.1600000000003,0.7322114396934639
361,3212.27,0.7522548535695203
362,3227.1,0.7273578647763006
363,3249.47,0.7551680287476882
364,3272.0,0.7727312850854334
365,3287.1,0.7677649021604425
366,3309.88,0.7676335528206217
367,3311.31121,0.7676266516334512
368,3325.16,0.7676989227333081
369,3332.83,0.7693398112633965
370,3340.5099999999998,0.7360269559714901
371,3348.2099999999996,0.7892014130355944
372,3355.93,0.7629690824557094
373,3363.66,0.7177500080538297
374,3371.42,0.713246702185966
375,3379.19,0.7646666524961077
376,3386.98,0.77447571516226
377,3394.79,0.766352690184423
378,3402.6099999999997,0.7945291213845912
379,3410.46,0.7378028211187755
380,3418.32,0.7488137770309651
381,3426.2,0.7648592452991654
382,3434.1,0.7879700259233763
383,3442.0099999999998,0.7489052627255925
384,3449.95,0.7505207680618248
385,3457.8999999999996,0.7410776295760624
386,3465.87,0.7271263034463106
387,3473.8599999999997,0.7650554896725695
388,3481.8700000000003,0.7395880882548391
389,3489.9,0.7651351991931193
390,3497.94,0.7412058663094048
391,3506.0099999999998,0.7571065019597064
392,3514.09,0.7334276937880133
393,3522.19,0.7652549979723308
394,3530.31,0.739724514512659
395,3538.4500000000003,0.7669641434089979
396,3546.6,0.780173028483342
397,3554.78,0.7852242820917023
398,3562.97,0.7719775918780677
399,3568.73,0.5919526504091379
400,3571.4,0.49799784993656115
401,3574.0699999999997,0.7729461494639843
402,3576.74,1.1198950489914075
403,3579.3999999999996,0.7852384923408253
404,3582.07,0.24105659186824857
405,3584.7400000000002,0.048863276395671756
406,3587.41,0.519100690923095
407,3590.07,0.4727033342725128
408,3592.74,1.381295933799936
409,3595.41,1.3792608333273593
410,3598.0800000000004,0.9478757328547823
411,3600.75,0.3196600323822056
412,3603.4100000000003,0.21510367573162342
413,3606.08,0.4869565752590466
414,3608.75,0.6721099747864697
415,3611.42,1.1368434743138929
416,3614.08,0.26052261766331086
417,3616.7500000000005,0.41075861719073403
418,3619.42,0.2642892167181572
419,3622.09,0.4162963162455804
420,3624.76,0.5796011157730036
421,3627.42,-0.05055234087757856
422,3630.09,0.6921987586498446
423,3632.7599999999998,0.3267335581772678
424,3635.43,0.014077347704691004
425,3638.09,-0.16372569894589115
426,3640.76,0.919044300581532
427,3643.43,1.3710630001089554
428,3646.1,0.6707854996363785
429,3648.7599999999998,0.43798804298579624
430,3651.43,0.32964484251321946
431,3654.1,0.7130088420406426
432,3656.7699999999995,1.1328847415680658
433,3659.44,0.9740140410954891
434,3662.1,0.8155617844449068
435,3664.77,0.3713234839723301
436,3667.44,1.2376745834997533
437,3670.1099999999997,1.1179734830271766
438,3672.77,0.6159693263765944
439,3675.4399999999996,0.8466702259040174
440,3678.11,1.1068554254314407
441,3680.78,1.2167793249588637
442,3683.45,0.33726782448628706
443,3686.11,0.8171020678357048
444,3688.7799999999997,0.6806704673631281
445,3691.45,0.5272919668905512
446,3694.1200000000003,0.8911489664179745
447,3696.78,1.0961682097673924
448,3699.4500000000003,0.49194340929481556
449,3702.12,0.6715463088222386
450,3704.79,0.6034356083496619
451,3707.46,0.5605392078770851
452,3710.12,0.6959367512265029
453,3712.7900000000004,0.897014050753926
454,3715.46,1.0507919502813494
455,3718.13,0.5164449498087724
456,3720.79,0.8662718931581903
457,3723.46,1.3641526926856136
458,3726.13,1.5322995922130367
459,3728.7999999999997,2.21734549174046
460,3731.4700000000003,1.940689391267883
461,3734.13,1.6750465346173011
462,3736.8,0.9843535341447242
463,3739.47,0.7270473336721474
464,3742.14,0.7899086331995705
465,3744.7999999999997,0.8370668765489884
466,3747.47,1.0817232760764115
467,3750.1400000000003,1.0744721756038347
468,3752.81,0.811752975131258
469,3755.4700000000003,0.6286958184806758
470,3758.14,1.037471218008099
471,3760.81,1.1404270175355222
472,3763.48,1.0075972170629455
473,3766.1499999999996,1.0626638165903683
474,3768.8100000000004,0.7471980599397864
475,3771.48,0.5285890594672096
476,3774.15,0.8594378589946328
477,3776.82,1.0368354585220558
478,3779.48,0.7261134018714738
479,3782.15,0.990551201398897
480,3784.8199999999997,1.1422426009263202
481,3787.4900000000002,0.9740227004537434
482,3790.1600000000003,0.8025550999811666
483,3792.82,0.2720291433305844
484,3795.4900000000002,0.8079190428580076
485,3798.16,1.1744533423854309
486,3800.83,0.604085541912854
487,3801.8939600000003,0.552507978331646
488,3803.49,0.4751480717615506
489,3806.1600000000003,1.023024452365309
490,3808.8300000000004,1.1347972329690674
491,3811.5,1.1981100135728258
492,3814.17,1.2512667941765843
493,3816.83,1.0645297478866955
494,3819.5,1.2173025284904542
495,3822.1699999999996,1.3636783090942126
496,3824.8399999999997,0.626849089697971
497,3827.5,0.8516082434080824
498,3830.17,0.8120370240118409
499,3832.84,0.9407773046155993
500,3835.5099999999998,0.7607270852193577
501,3838.18,0.6797821658231162
502,3840.8399999999997,0.9578828195332276
503,3843.5099999999998,1.149392900136986
504,3846.1800000000003,0.46436938074074446
505,3848.85,0.846275161344503
506,3851.51,1.2884174150546142
507,3854.18,1.461739195658373
508,3856.85,1.2232289762621313
509,3859.52,0.8970112568658897
510,3862.18,1.185289710576001
511,3864.8500000000004,0.9850826911797596
512,3867.52,1.461744271783518
513,3870.19,1.4008350523872763
514,3872.86,1.317527832991035
515,3875.52,1.3541957867011463
516,3878.19,0.9357218673049047
517,3880.8599999999997,1.364099347908663
518,3883.53,1.2528611285124216
519,3886.19,1.259316082222533
520,3888.86,0.8658784628262914
521,3891.53,0.39988974343004985
522,3894.2,0.3550441240338083
523,3896.87,1.2552082046375665
524,3899.5299999999997,1.0945321583476781
525,3902.2000000000003,1.1803819389514367
526,3904.87,0.581767719555195
527,3907.54,0.9819197001589535
528,3910.2,1.051359453869065
529,3912.87,1.5236512344728232
530,3915.54,1.3622200150765817
531,3918.2099999999996,1.3145587956803402
532,3920.88,1.2388295762840986
533,3923.54,1.1341715299942101
534,3926.21,1.4082523105979685
535,3928.88,1.5522270912017269
536,3931.5499999999997,0.8236841718054854
537,3934.21,0.5725022255155968
538,3936.8799999999997,1.2510946061193553
539,3939.55,0.6339776867231137
540,3942.2200000000003,0.8317470673268721
541,3944.89,0.9434415479306306
542,3947.55,0.9128701016407419
543,3950.22,1.3919916822445004
544,3952.89,1.2751044628482588
545,3955.5600000000004,1.3568602434520172
546,3958.2200000000003,0.9615398971621287
547,3960.8900000000003,1.3488199777658871
548,3963.56,1.3167077583696454
549,3966.23,0.919787838973404
550,3968.9,1.0222703195771625
551,3971.56,0.5280599732872738
552,3974.2300000000005,0.7681289538910323
553,3976.9,0.7882179344947907
554,3979.57,0.6748547150985492
555,3982.23,1.2678285688086606
556,3984.9,1.2061333494124191
557,3987.5699999999997,0.9485502300161774
558,3990.24,1.0501079106199358
559,3992.8999999999996,1.3513378643300473
560,3995.57,1.2654716449338057
561,3998.2400000000002,1.961678425537564
562,4000.91,1.1971932061413226
563,4003.58,1.150673986745081
564,4006.24,1.1539979404551926
565,4008.91,1.2853957210589508
566,4011.58,1.1543955016627092
567,4014.2499999999995,1.6004482822664678
568,4016.9100000000003,1.485162235976579
569,4019.58,1.2507460165803377
570,4022.25,1.508626797184096
571,4024.92,1.5808365777878546
572,4027.5899999999997,1.264204358391613
573,4030.25,1.0996303121017243
574,4032.9199999999996,1.2047500927054826
575,4035.59,1.5075888733092413
576,4038.26,1.2977766539129998
577,4040.92,1.258290607623111
578,4043.59,1.4434423882268694
579,4046.2599999999998,1.348128168830628
580,4048.93,1.2822789494343865
581,4051.6000000000004,1.214127730038145
582,4054.26,0.8254793837482562
583,4056.9300000000003,0.9234155643520148
584,4059.6,1.3519312449557732
585,4062.27,1.4097720255595314
586,4064.93,1.4389999792696428
587,4067.6,1.7578007598734016
588,4070.2700000000004,1.18837654047716
589,4072.94,1.0664703210809183
590,4075.6,0.9536228747910297
591,4078.27,1.3050600553947882
592,4080.94,1.4756268359985465
593,4083.6099999999997,1.212846616602305
594,4086.2799999999997,1.1884713972060634
595,4088.9399999999996,1.436104350916175
596,4091.61,1.2037941315199334
597,4094.28,1.1969559121236917
598,4096.95,1.2920956927274503
