,lambda (Angstroms),Total Flux (erg/s/cm^2/Angstrom)
0,100.05999999999999,0.018152344961281115
1,101.92,0.021821269839751356
2,104.05,0.026022780587723223
3,104.712855,0.02733028876006522
4,105.99000000000001,0.025228301489946172
5,107.96,0.021985979810306314
6,109.97,0.018677824189294073
7,114.09,0.011896928091683428
8,118.1,0.005297075341600742
9,120.22644299999999,0.0017972722365139522
10,121.13000000000001,0.0017284609648063895
11,125.10000000000001,0.0014261216763626241
12,127.13000000000001,0.0012715250217711857
13,128.01,0.0012045077660478851
14,131.0,0.0009768013974999898
15,131.9,0.0009082610919476734
16,134.05,0.0007445257767487526
17,136.85,0.0005312892801564387
18,138.038426,0.0004407836129316176
19,140.04000000000002,0.0004354002761499681
20,142.97,0.0004275223983250051
21,146.98,0.0004167457383803016
22,151.1,0.0004056690833719577
23,154.97,0.0003952665577018871
24,158.489319,0.000385808571053396
25,158.95,0.0003839057838339275
26,161.9,0.00037172269247758065
27,166.06,0.00035454514321039336
28,169.93,0.00033856834709745725
29,173.08,0.00032556630717576487
30,177.11999999999998,0.00030889464109378514
31,179.99,0.00029705561573757644
32,181.970086,0.00028888801090251
33,182.07999999999998,0.00028903502896285684
34,185.89000000000001,0.00029413937519262297
35,191.1,0.0003011254251800459
36,194.2,0.00030529124633628613
37,197.81,0.0003101540127721013
38,201.95999999999998,0.000315749212721584
39,204.76999999999998,0.00031955131658159525
40,208.929613,0.0003251604884484406
41,210.02,0.00033398675450293293
42,215.9,0.00038168247260984936
43,219.92000000000002,0.0004142958808043739
44,222.98,0.0004391188249957281
45,227.12,0.000472743745678149
46,229.75,0.0004948383990295418
47,234.01999999999998,0.0005309572024821835
48,239.88329199999998,0.000579980646764699
49,240.03,0.0005790464681483103
50,246.18,0.000538671962246085
51,251.92,0.0005018981113373414
52,257.19,0.0004664730305430768
53,260.16999999999996,0.00044830792320021013
54,263.79,0.0004255361032333714
55,268.69,0.0003940811750185904
56,273.69,0.00036200658826881376
57,275.42287,0.000350904533292645
58,278.78,0.0003755747703181264
59,283.96000000000004,0.0004137815922382053
60,289.90999999999997,0.00045707802876802467
61,295.98,0.0005022733154967657
62,300.79,0.0005377332401368386
63,307.79,0.0005901250484072149
64,316.227766,0.0006535878057437262
65,317.88,0.000645683678736553
66,328.28999999999996,0.0005956338255609068
67,338.27000000000004,0.0005478204814405458
68,347.74,0.0005028554671299434
69,356.66,0.0004609882430063346
70,363.078055,0.0004313887686523491
71,365.81,0.0004440949026321575
72,375.2,0.0004868022092980748
73,384.82000000000005,0.0005291556554882907
74,394.69,0.0005771762481179608
75,404.82,0.0006251968806446639
76,414.24999999999994,0.0006685982211408937
77,416.86938299999997,0.0006805868929969632
78,421.95000000000005,0.0006955885406285719
79,429.79,0.0007190712995418964
80,440.82000000000005,0.0007537097206916379
81,451.09000000000003,0.000784447739803863
82,459.47,0.0008095066954280544
83,470.17,0.0008416821135878215
84,478.630092,0.0008687658155161295
85,480.02000000000004,0.0008653897521629804
86,490.07,0.0008373944321987177
87,500.33,0.000813566236294903
88,506.13,0.0007986699436787114
89,511.99,0.0008073062007940763
90,520.3100000000001,0.0007879157969032634
91,529.98,0.0007649505619724751
92,539.83,0.0007347083762363567
93,549.5408739999999,0.0007268151203244621
94,549.87,0.0007272567133930721
95,560.09,0.0007416759917527571
96,570.5,0.0007538155403559196
97,579.77,0.0007470565674982171
98,590.5500000000001,0.0007705124528913095
99,600.15,0.0007719655020354366
100,609.9,0.0007794912066349403
101,619.8100000000001,0.0008286784703868461
102,629.88,0.0008459700932911543
103,630.957344,0.0008468489898691887
104,640.12,0.0008766898307616534
105,650.52,0.0009394765717215053
106,658.0500000000001,0.0009813296103203214
107,665.67,0.0010266558712928283
108,674.93,0.0010584693621859273
109,684.32,0.0010793202298410246
110,695.4399999999999,0.0012340916497904047
111,705.11,0.0012364278981636515
112,716.5699999999999,0.0013864386804136423
113,724.43596,0.0014360145491670918
114,726.54,0.0014480045340820504
115,734.95,0.001504353879577909
116,745.1800000000001,0.0016370970657161531
117,755.54,0.0017306954047574244
118,764.29,0.001810339042461201
119,774.9200000000001,0.0019628006606087606
120,785.7,0.0020948108782598137
121,794.8,0.002196556581471741
122,805.86,0.002305884051529315
123,815.1899999999999,0.002404059140646599
124,824.63,0.002612604936066445
125,831.763771,0.0024032242765527037
126,834.1800000000001,0.0023261799765567186
127,845.78,0.0027780616642363223
128,855.5799999999999,0.0028671981417587463
129,865.48,0.0030614717976232353
130,875.51,0.0032690374853324095
131,885.64,0.0035379523513836496
132,895.9,0.003740166249279575
133,904.1899999999999,0.0037849244338368088
134,914.6600000000001,0.005681057306251071
135,925.25,0.03766794559267581
136,935.96,0.08543622929311104
137,944.62,0.1688103563375339
138,954.992586,0.241491354587528
139,955.5600000000001,0.24546807064503398
140,964.4,0.28241724193998013
141,975.57,0.044411773089815997
142,984.6,0.24715249218408794
143,995.9999999999999,0.2678570601436339
144,1005.22,0.40240902703723164
145,1014.52,0.39235407195159805
146,1023.9,0.16684489488673326
147,1035.76,0.2785260364656995
148,1045.34,0.5540309044527566
149,1055.02,0.5527645449657745
150,1064.78,0.4391380634995613
151,1074.63,0.5352157573067129
152,1084.57,0.42426192638722926
153,1094.6100000000001,0.5774431679937067
154,1096.4782,0.574540969434469
155,1104.74,0.5617016505036321
156,1114.96,0.5451605624514906
157,1125.28,0.4960579884105806
158,1135.69,0.6448503369797789
159,1146.2,0.5894844995602088
160,1154.14,0.6374466720519892
161,1164.82,0.6674800884515126
162,1175.6,0.46400111886226747
163,1183.75,0.6613194107776341
164,1194.7,0.45135969500748246
165,1205.76,0.3225645846496855
166,1214.1100000000001,0.21420080458751506
167,1225.3500000000001,0.4596942394499348
168,1233.84,0.7184176390034885
169,1245.26,0.8041813190861249
170,1253.89,0.7751038982554027
171,1258.92541,0.7276789853717165
172,1265.49,0.665857869880009
173,1274.2600000000002,0.8817356062817051
174,1286.05,0.9361287273964141
175,1294.97,0.7402302729725976
176,1303.94,0.7368243216069437
177,1316.01,0.9404430598473624
178,1325.1299999999999,0.9064251176561959
179,1334.32,0.8060224797464568
180,1343.57,0.9779698455065127
181,1356.0,0.9535067057657012
182,1365.3999999999999,0.8537642807002443
183,1374.86,0.9106202593045826
184,1384.39,0.9296745421903482
185,1393.99,0.8172352293575413
186,1403.6499999999999,0.8577100201945292
187,1413.3799999999999,0.8776747153129447
188,1426.46,0.9127251153282453
189,1436.3500000000001,0.9127151202327808
190,1442.98,0.9712450257451235
191,1445.43977,0.9863077852381299
192,1446.3000000000002,0.9915755203514269
193,1456.3300000000002,0.969015735228311
194,1466.4199999999998,0.8981285531852161
195,1476.5900000000001,0.9022645752488163
196,1483.4,0.9254180248312271
197,1493.69,0.9513204530548699
198,1504.0400000000002,0.9043662843585337
199,1510.98,0.806029540614324
200,1517.9599999999998,0.8696492989234615
201,1524.96,0.8459408582592728
202,1535.53,0.738527000856348
203,1546.18,0.8267032475601181
204,1553.31,0.7840781135693089
205,1564.08,0.8004907664331214
206,1574.9199999999998,0.8616762228902921
207,1585.84,0.9106304834541579
208,1596.83,0.9383014476113818
209,1604.2,0.9232967259406574
210,1615.3200000000002,0.9339718967712606
211,1626.52,0.8858233717085586
212,1634.03,0.9513216572245505
213,1645.35,0.9734873383218913
214,1656.76,0.8981380240392638
215,1659.58691,0.9335651976824643
216,1664.4,0.9938849734876376
217,1672.09,0.8837928563172031
218,1675.9399999999998,1.0077002996063875
219,1683.6799999999998,1.0576012011799683
220,1695.35,0.9938893760331581
221,1703.17,0.9601563075971636
222,1714.98,0.9169568349335964
223,1726.8700000000001,0.9190526922604539
224,1734.84,0.9870414800565056
225,1746.8600000000001,0.969072586117803
226,1754.93,1.0431239114018853
227,1763.03,0.9535557479323771
228,1775.2499999999998,0.989345328969736
229,1783.44,1.0100535992394553
230,1795.8,1.0922952327600572
231,1804.0900000000001,1.0847733405178073
232,1816.6,1.0077440302704557
233,1824.98,1.0336031717674334
234,1833.41,0.9939348320084266
235,1846.12,0.9149034967371362
236,1854.6399999999999,0.927630190717357
237,1863.2,0.9646238996927902
238,1876.11,1.0455793393975614
239,1884.77,0.9691136858610253
240,1893.4699999999998,0.9383935473197015
241,1905.46072,0.9912325519429657
242,1906.6,0.9962519918760537
243,1915.3999999999999,0.9668576394970444
244,1924.24,0.9514118677890394
245,1933.1200000000001,0.969108076752039
246,1946.52,1.0336065015385476
247,1955.51,0.9758011573468094
248,1969.06,1.0773316096495846
249,1978.1499999999999,1.1049492171353579
250,1982.71,1.0503780136298713
251,1996.4499999999998,1.0264683741199179
252,2005.6699999999998,1.0552199187864557
253,2014.93,1.021723444123998
254,2024.23,1.0698719501325449
255,2033.5700000000002,1.0264524368120964
256,2042.96,1.0748068993304032
257,2057.12,1.033546056865997
258,2066.61,1.0383104710618154
259,2076.15,1.1176828610963894
260,2085.73,1.1228502318019677
261,2095.36,1.0649235783463016
262,2105.0299999999997,1.06983790556164
263,2114.75,1.0872172086157343
264,2124.51,1.104887492340833
265,2134.32,1.0216737519046872
266,2144.17,1.064901992139546
267,2154.0699999999997,1.1048612082131604
268,2164.01,1.0698014049577793
269,2174.0,1.0648855775411539
270,2184.03,1.0599897307955328
271,2187.7616199999998,1.0803770846394316
272,2194.11,1.115066373434321
273,2204.2400000000002,1.0846852762355053
274,2214.42,1.026444198300269
275,2224.64,0.9989506357758964
276,2234.9,1.0857980886623873
277,2245.22,1.037428064665173
278,2255.58,0.9912280560788228
279,2266.0,1.0147820706087676
280,2276.46,1.050935100549576
281,2286.96,1.090887145901248
282,2297.52,1.028014214369215
283,2302.81,1.0401822524559146
284,2313.44,0.9938473478928926
285,2324.12,0.7826473625934502
286,2334.85,0.9178246965575874
287,2345.63,0.8789812497853038
288,2356.45,0.9776364184238838
289,2367.33,0.883913010178759
290,2372.79,0.9236652137616284
291,2383.7400000000002,0.8428467324855148
292,2394.74,0.9098328704729806
293,2405.7999999999997,0.8753429315767415
294,2416.9,0.902416208091366
295,2422.47,0.9783549540541101
296,2433.66,0.9434541652431775
297,2444.8900000000003,1.0067679918431085
298,2456.17,0.9957823377066188
299,2467.5099999999998,0.9894229066864245
300,2473.2000000000003,0.949519798881759
301,2484.6099999999997,0.9721431948305758
302,2496.08,0.9224942138956878
303,2507.6,1.0427281522243792
304,2511.88643,0.9433268997112184
305,2513.39,0.9084586794663758
306,2519.18,0.92346491611804
307,2524.99,0.8882542497874993
308,2536.64,0.9094308126531105
309,2542.4900000000002,0.9013163403581601
310,2554.22,0.9819558912949514
311,2566.01,0.951345433285128
312,2577.86,1.0152139663286897
313,2583.8,1.0061580806138166
314,2595.73,0.9906187017285585
315,2607.7099999999996,0.9553113153877879
316,2613.72,0.9381148192351976
317,2625.79,1.0011078194745047
318,2637.9,1.046439013749402
319,2643.98,1.1556431071590942
320,2656.19,1.1941412865229666
321,2662.31,1.0695223739682491
322,2674.6,1.1282875414033016
323,2686.9500000000003,1.1341076998917392
324,2693.14,1.0734647768993044
325,2705.5699999999997,1.1169129234589223
326,2718.06,1.0501850610719252
327,2724.33,1.0504931261506705
328,2736.9,1.1107682518348536
329,2743.21,0.9414169109491889
330,2755.8700000000003,0.9772854232134497
331,2762.2200000000003,1.0259664763633753
332,2774.98,1.082344573716611
333,2787.78,1.0014306651054372
334,2794.2099999999996,0.7866535063265429
335,2807.1099999999997,0.8492435828043441
336,2813.58,1.07923881806104
337,2826.5699999999997,1.1597148811189186
338,2833.08,1.1206839104112045
339,2846.16,1.0907939600491612
340,2852.7200000000003,1.0348449818859344
341,2865.89,1.1644430181039687
342,2872.49,1.1701440339763323
343,2884.0315,1.1660514344382034
344,2885.7500000000005,1.1654423077762741
345,2892.4,1.1631312874833013
346,2912.45,1.2852982262992263
347,2932.6400000000003,1.2342331646879303
348,2952.97,1.2183831026494143
349,2966.6,1.2504020610564495
350,2987.16,1.260208998316071
351,3007.8700000000003,1.2847969351179562
352,3028.72,1.288931871492621
353,3049.71,1.2990858074400655
354,3070.85,1.3183827429297736
355,3092.14,1.3348856779617457
356,3113.57,1.3423166125664971
357,3127.95,1.327768568684851
358,3149.63,1.3444415025267087
359,3171.46,1.3550624359108303
360,3193.44,1.2864223688372158
361,3208.18,1.3417143238570026
362,3230.42,1.2766852559899786
363,3252.81,1.3756461876652182
364,3267.83,1.4380711418305643
365,3290.48,1.4361920727123945
366,3311.31121,1.4374815167515882
367,3313.29,1.4376038937129592
368,3320.9300000000003,1.4381044480384835
369,3328.58,1.472061001780664
370,3336.25,1.5138275543561575
371,3343.94,1.4132661057649638
372,3351.65,1.440016656007083
373,3359.38,1.470650205082515
374,3367.12,1.4443087535746038
375,3374.89,1.3146753003166618
376,3382.6699999999996,1.364447846475376
377,3390.46,1.4828723920507467
378,3398.28,1.476537935876087
379,3406.11,1.443427479118084
380,3413.9599999999996,1.4707760211933931
381,3421.8399999999997,1.522957561518672
382,3429.72,1.4853741018439508
383,3437.6299999999997,1.510026640419199
384,3445.55,1.3309001784111034
385,3453.5,1.5498077146529776
386,3461.46,1.407457250311508
387,3469.4399999999996,1.4474027848033513
388,3477.44,1.3859363181285074
389,3485.45,1.44173285087032
390,3493.4900000000002,1.4224613818621021
391,3501.5400000000004,1.4394429122705403
392,3509.61,1.449907441512292
393,3517.7000000000003,1.4044229695873558
394,3525.81,1.4442624964957331
395,3531.22,0.9627468809068699
396,3533.87,1.8827110263208278
397,3536.5099999999998,1.6314778723181294
398,3539.1600000000003,1.2458747177320872
399,3541.8100000000004,1.3634405631460453
400,3544.4500000000003,1.902952409143347
401,3547.1000000000004,1.761633254557305
402,3549.75,1.4553500999712627
403,3552.3900000000003,1.5956039459685643
404,3555.04,1.4707637913825224
405,3557.68,1.4341166373798238
406,3560.33,1.036172482793782
407,3562.98,1.5462903282077398
408,3565.62,1.4490891742050414
409,3568.27,1.4574500196189992
410,3570.91,1.679747865616301
411,3573.56,1.240295711030259
412,3576.21,1.3064225564442167
413,3578.85,1.5735484024415185
414,3581.5000000000005,1.7254782478554764
415,3584.1400000000003,1.6595730938527777
416,3586.7900000000004,1.316511939266736
417,3589.44,1.354288784680694
418,3592.0800000000004,1.4094596306779956
419,3594.73,1.4241484760919534
420,3597.37,1.676520322089255
421,3600.02,1.446611167503213
422,3602.67,1.1870050129171708
423,3605.31,1.6580978589144724
424,3607.96,1.4379627043284304
425,3610.6,1.103868550325732
426,3613.25,1.45691639573969
427,3615.9,1.4726702411536479
428,3618.54,1.4852990871509495
429,3621.19,1.6944319325649073
430,3623.83,1.527121778562209
431,3626.4800000000005,1.602145623976167
432,3629.1299999999997,1.584630469390125
433,3631.7700000000004,1.7089083153874265
434,3634.42,1.6884791608013845
435,3637.06,1.2963380067986858
436,3639.71,1.523796852212644
437,3642.36,1.349524697626602
438,3645.0,1.5746415436239036
439,3647.65,1.2770673890378614
440,3650.29,1.457387235035163
441,3652.94,1.485296080449121
442,3655.59,1.498668925863079
443,3658.23,1.3687307718603805
444,3660.88,1.7384436172743385
445,3663.52,1.43874746327164
446,3666.17,1.749065308685598
447,3668.8199999999997,1.564109154099556
448,3671.4599999999996,1.4496160000968576
449,3674.1099999999997,1.5246398455108154
450,3676.7499999999995,1.530126691508117
451,3679.4,1.4522455369220753
452,3682.05,1.7441733823360333
453,3684.69,1.5128632283333345
454,3687.34,1.5861640737472926
455,3689.98,1.777825919744594
456,3692.63,1.717329765158552
457,3695.28,1.4232326105725102
458,3697.92,1.4899944565698118
459,3700.57,1.7736523019837696
460,3703.21,1.6078151479810712
461,3705.86,1.4526199933950292
462,3708.5099999999998,1.4623278388089873
463,3711.1499999999996,1.4671566848062887
464,3713.7999999999997,1.4104835302202468
465,3716.4399999999996,1.940158376217548
466,3719.0899999999997,1.921640221631506
467,3721.7400000000002,2.086194067045464
468,3724.38,2.3744369130427656
469,3727.03,2.851815758456724
470,3729.67,3.092194604454025
471,3732.32,2.670720449867983
472,3734.9700000000003,2.1291732952819413
473,3737.61,1.7402291412792428
474,3740.26,1.8524369866932007
475,3742.9,1.9353638326905023
476,3745.55,1.7629696781044601
477,3748.2,1.760209523518418
478,3750.8399999999997,1.7963653695157198
479,3753.49,1.7310142149296777
480,3756.1299999999997,1.8569840609269792
481,3758.7799999999997,1.8233979063409373
482,3761.43,1.8586357517548953
483,3764.0699999999997,1.8753705977521966
484,3766.7200000000003,1.7613064431661547
485,3769.36,1.6803952891634564
486,3772.01,1.5921761345774141
487,3774.6600000000003,1.7886829799913722
488,3777.3,1.8803188259886738
489,3779.9500000000003,2.0582816714026317
490,3782.59,2.2816145173999334
491,3785.2400000000002,2.133874362813891
492,3787.89,2.0879762082278495
493,3790.5299999999997,2.1833410542251506
494,3793.18,2.083153899639109
495,3795.8199999999997,1.8171967456364104
496,3798.47,1.7077385910503682
497,3801.12,1.5830544364643262
498,3801.8939600000003,1.624539819982561
499,3803.7599999999998,1.724562305142705
500,3806.41,2.0625401827665057
501,3809.0499999999997,2.1551480608521034
502,3811.7000000000003,2.225909938475904
503,3814.3500000000004,2.104264816099705
504,3816.9900000000002,2.1769486941853025
505,3819.6400000000003,2.185214571809103
506,3822.28,2.176355449894701
507,3824.9300000000003,2.0631373275185014
508,3827.58,1.9577812051423022
509,3830.22,1.8344860832278997
510,3832.87,1.5909179608517006
511,3835.5099999999998,1.5160528389372983
512,3838.16,1.4631077165610988
513,3840.81,1.6303875941848995
514,3843.45,1.939304472270497
515,3846.1,2.1012583498942976
516,3848.74,2.2607482279798954
517,3851.39,2.2374681056036962
518,3854.0400000000004,2.1895649832274966
519,3856.6800000000003,2.4261818613130948
520,3859.3300000000004,2.545029738936895
521,3861.9700000000003,2.540964617022493
522,3864.6200000000003,2.727101494646294
523,3867.27,2.6167953722700945
524,3869.91,2.747310250355692
525,3872.56,2.537511127979492
526,3875.2,2.2929200060650903
527,3877.85,2.1970558836888907
528,3880.5,2.1240917613126915
529,3883.14,2.0460006393982892
530,3885.79,1.9409895170220899
531,3888.43,1.7350543951076876
532,3891.08,1.8801872727314881
533,3893.7300000000005,2.018771150355289
534,3896.37,1.9256120284408866
535,3899.0200000000004,2.153195906064687
536,3901.6600000000003,2.2155737841502847
537,3904.31,2.3832286617740857
538,3906.96,2.3958165393978863
539,3909.6,2.415277417483484
540,3912.25,2.6843682951072845
541,3914.89,2.8020391731928824
542,3917.54,2.508189050816683
543,3920.19,2.4710629284404835
544,3922.83,2.330318806526081
545,3925.48,2.5619116841498824
546,3928.12,2.0649845622354794
547,3930.77,1.9042444398592802
548,3933.42,1.792749317483081
549,3936.06,1.8474501955686786
550,3938.7100000000005,2.083774073192479
551,3941.35,2.084500951278077
552,3943.9999999999995,2.218480828901878
553,3946.65,2.3596337065256785
554,3949.29,2.3783735846112757
555,3951.94,2.559060462235077
556,3954.58,2.392190340320674
557,3957.23,2.2505582179444747
558,3959.88,2.2855450955682755
559,3962.52,2.1061449736538735
560,3965.17,1.730785851277674
561,3967.81,1.6395677293632716
562,3970.46,1.5967716069870723
563,3973.11,1.616755484610873
564,3975.75,1.8390533626964707
565,3978.4,2.1334562403202715
566,3981.04,2.173592118405869
567,3983.6899999999996,2.4262989960296695
568,3986.3399999999997,2.4487548736534706
569,3988.9799999999996,2.373359751739068
570,3991.63,2.6969266293628684
571,3994.27,2.6088125074484663
572,3996.92,2.747584385072267
573,3999.57,2.7495522626960676
574,4002.21,2.8261541407816657
575,4004.86,2.9322820184054663
576,4007.51,2.7940638960292667
577,4010.15,2.5147017741148643
578,4012.8,2.8307186517386653
579,4015.44,3.1260745298242627
580,4018.09,2.9522994074480633
581,4020.74,2.8143322850718637
