,lambda (Angstroms),Total Flux (erg/s/cm^2/Angstrom)
0,100.11000000000001,0.00021187685203008614
1,101.97,0.00025447049667010177
2,104.10000000000001,0.0003032462941957332
3,104.712855,0.0003172805826640597
4,106.04,0.0002919256340077674
5,108.01,0.00025428993812510314
6,110.02,0.00021589376167593824
7,113.89,0.0001419620283994859
8,117.89000000000001,6.554722296940582e-05
9,120.22644299999999,2.1003883034761267e-05
10,120.91,2.0427965844428357e-05
11,124.87,1.6962947042094883e-05
12,126.9,1.518138478534313e-05
13,128.08,1.4149468773536693e-05
14,131.06,1.1533542560669596e-05
15,131.97,1.0773616349022262e-05
16,134.10999999999999,8.894092869983481e-06
17,136.92,6.487691246105439e-06
18,138.038426,5.508500326468082e-06
19,140.10999999999999,5.461558017994413e-06
20,143.04000000000002,6.062603600251609e-06
21,147.04999999999998,7.279577100542175e-06
22,151.17000000000002,7.307911036002805e-06
23,155.04999999999998,7.385382567456022e-06
24,158.489319,7.481018276217403e-06
25,159.03,7.486996072179003e-06
26,161.98000000000002,7.503146215024098e-06
27,166.14000000000001,7.579151999510742e-06
28,170.01,7.6248662004634615e-06
29,173.17,7.647543834833123e-06
30,177.2,7.769858219804559e-06
31,180.07999999999998,7.849239532141466e-06
32,181.970086,7.898389594132523e-06
33,182.17000000000002,7.916265097798778e-06
34,185.98,8.301649789279348e-06
35,191.19,8.853625648233096e-06
36,193.85,9.251712666432127e-06
37,197.91,9.737118852104338e-06
38,202.05999999999997,1.0331462455685537e-05
39,204.86999999999998,1.0802517170399553e-05
40,208.929613,1.1217366608771896e-05
41,210.12,1.1432235202836896e-05
42,216.01,1.3346233796757196e-05
43,220.02,1.4605164168848949e-05
44,223.09,1.5448788930026422e-05
45,227.23,1.6915011024904188e-05
46,229.85999999999999,2.1877458032036684e-05
47,234.14000000000001,3.2138165366837854e-05
48,239.88329199999998,4.015133107357895e-05
49,240.14000000000001,4.0465603551754866e-05
50,245.73999999999998,4.178625157818525e-05
51,252.04000000000002,4.762039935791943e-05
52,256.73,4.668103570505488e-05
53,260.3,5.274790844690425e-05
54,263.92,6.578036974256104e-05
55,268.83,7.346991572644912e-05
56,273.82,8.151445339642904e-05
57,275.42287,8.127881726563597e-05
58,278.90999999999997,8.13230085253204e-05
59,284.1,0.00010238490769647269
60,290.05,0.00011813352086956634
61,296.12,0.000125062308358756
62,300.93,0.0001319554055289376
63,307.94,0.00016152539849421263
64,316.227766,0.00018550024393649325
65,318.03,0.00019045630199013256
66,327.7,0.00023102458921110504
67,337.65000000000003,0.0002572301660310302
68,347.91,0.0002834164206212243
69,356.84000000000003,0.0004295518996163933
70,363.078055,0.0006404946897915144
71,365.99,0.0007392766120366433
72,375.38,0.0008124378122404998
73,385.01,0.0007300934249096306
74,394.89000000000004,0.0012251928213967555
75,405.01000000000005,0.0016933778303491545
76,414.45000000000005,0.00183963878731661
77,416.86938299999997,0.0018253399012296027
78,422.15000000000003,0.0017940311647096966
79,429.99999999999994,0.001840168167568706
80,441.03000000000003,0.002363296102796078
81,451.31,0.002596797827559214
82,459.7,0.0024353731019524736
83,470.4,0.002663734704575582
84,478.630092,0.003118826677351418
85,480.25,0.0032082953902816042
86,490.31,0.0028863223642310084
87,499.43,0.0037845271934972675
88,506.37,0.00335811485743453
89,512.24,0.005504043197104809
90,520.56,0.005453508690470519
91,530.24,0.005280363754867163
92,540.1,0.004515526144841429
93,549.5408739999999,0.00456439086325231
94,550.14,0.0045675068453640225
95,560.36,0.006259191502842316
96,569.47,0.007318917556621891
97,580.0600000000001,0.007403232748666424
98,589.48,0.007787750061136632
99,600.44,0.0067212537877474055
100,610.1999999999999,0.006690295996846049
101,620.11,0.00873700639563371
102,630.19,0.008420811742735589
103,630.957344,0.008504312589329193
104,640.4300000000001,0.009535376582482734
105,649.34,0.009383034529849617
106,658.3700000000001,0.008737186429369591
107,664.46,0.010031055501138876
108,675.26,0.010748001194916918
109,684.65,0.009340717950896157
110,695.78,0.011100165013095195
111,705.4599999999999,0.009065729486777736
112,715.27,0.01183941207529279
113,724.43596,0.012145068621215279
114,725.22,0.012171208443639218
115,735.31,0.01234037183620003
116,745.54,0.012087606524594192
117,754.17,0.012171406403464341
118,764.6600000000001,0.011024903498406156
119,775.3000000000001,0.012483891981740845
120,784.28,0.011544475100194372
121,795.19,0.012570196082636239
122,804.4,0.013041961329958843
123,815.59,0.013192754904067414
124,825.0300000000001,0.013531222280259093
125,831.763771,0.011607088413393137
126,834.59,0.010799427578923272
127,844.25,0.013469072655506991
128,854.0300000000001,0.013314665310681813
129,865.91,0.01390949559120092
130,875.9300000000001,0.014070383403557948
131,884.04,0.014167739756673264
132,894.2700000000001,0.014298583331564719
133,904.63,0.014069764283263201
134,915.1099999999999,0.013717622813552785
135,925.7,0.03229797912421754
136,934.27,0.05237690619526542
137,945.0899999999999,0.07347306786489646
138,954.992586,0.08747812982283201
139,956.03,0.08894534473777932
140,964.87,0.09596711654370912
141,976.05,0.03358615088650272
142,985.0799999999999,0.07587955208645139
143,994.1899999999999,0.0758807330312501
144,1005.7099999999999,0.0995664562896564
145,1015.01,0.10095306662847395
146,1024.4,0.06443766668024781
147,1033.8799999999999,0.08358424644497799
148,1045.85,0.12448366826816576
149,1055.53,0.12025653739502104
150,1065.3,0.09865309623483261
151,1075.15,0.11094747481949423
152,1085.1,0.0937813530852184
153,1095.14,0.11458211106389886
154,1096.4782,0.11390155159272218
155,1105.28,0.10942521893486114
156,1115.5,0.10595371691713835
157,1125.83,0.09335002380137748
158,1136.24,0.11379220988704344
159,1144.12,0.10595143122758598
160,1154.7,0.10817252561628395
161,1165.39,0.10767371890694379
162,1176.17,0.07330235129920884
163,1184.33,0.10282772984474525
164,1195.28,0.0814926005400423
165,1206.3400000000001,0.06670012013730123
166,1214.71,0.05334796658658308
167,1225.94,0.08000605448687402
168,1234.44,0.10330332963847447
169,1245.8600000000001,0.10842081564215413
170,1254.5,0.1044983293962515
171,1258.92541,0.10132959636801385
172,1266.11,0.09618528032231767
173,1274.8899999999999,0.11352719655633586
174,1283.72,0.1167096028258553
175,1295.6000000000001,0.09662927126095051
176,1304.58,0.09596355763697366
177,1313.6200000000001,0.11352952405559832
178,1325.78,0.1081691326895005
179,1334.97,0.09865302921462889
180,1344.22,0.11094404578235874
181,1353.54,0.10742455239979035
182,1366.06,0.09752465128930149
183,1375.53,0.09933613801323682
184,1385.07,0.09887993478687389
185,1394.67,0.07872480160311246
186,1404.3400000000001,0.07836269846905275
187,1414.07,0.09122444537759455
188,1423.8700000000001,0.09059635233583808
189,1433.74,0.09206902934378337
190,1440.36,0.09486612404414786
191,1445.43977,0.09536859711080554
192,1447.01,0.09552391858663688
193,1453.69,0.09206774256735956
194,1463.76,0.08572756856823942
195,1473.9099999999999,0.08612111461679259
196,1484.1299999999999,0.08711863070705994
197,1494.4099999999999,0.08712022683308226
198,1504.77,0.08224593300677792
199,1511.72,0.07466483714839808
200,1518.7,0.07836245130789574
201,1525.71,0.07640273548527088
202,1536.28,0.06578429178410902
203,1543.3700000000001,0.0645839660091575
204,1554.07,0.06282199238546479
205,1564.8400000000001,0.06731592880348625
206,1575.6899999999998,0.07146810526918103
207,1586.61,0.07381007177658995
208,1593.94,0.0743213061446584
209,1604.98,0.07263149272357733
210,1616.1100000000001,0.07196338935612875
211,1623.57,0.06936147380166635
212,1634.82,0.07296558050572777
213,1646.16,0.07313286726342165
214,1653.75,0.06968185178642841
215,1659.58691,0.07152373877820971
216,1665.22,0.07330132977919904
217,1672.8999999999999,0.06639188320153863
218,1676.76,0.07466482999974576
219,1684.5,0.07552948368319738
220,1696.1799999999998,0.07146786451300552
221,1704.01,0.06904308858812519
222,1715.8200000000002,0.06503027998367604
223,1723.74,0.06413893445046374
224,1735.68,0.06762792641175733
225,1743.7,0.06608841131373173
226,1755.7800000000002,0.06856829388428673
227,1763.8899999999999,0.06458384917792918
228,1776.11,0.06399126235774556
229,1784.3100000000002,0.06518127804305607
230,1796.6799999999998,0.06762779187565252
231,1804.9699999999998,0.06731683795263106
232,1813.31,0.06210450424720297
233,1825.87,0.06311403890665418
234,1834.3000000000002,0.06125327559289412
235,1847.02,0.05663991094864407
236,1855.54,0.05664054802655205
237,1864.11,0.057560425322053396
238,1877.0300000000002,0.06083027154817677
239,1885.6899999999998,0.05599290923534615
240,1894.3999999999999,0.05347205714010889
241,1903.14,0.05664028517542765
242,1905.46072,0.056192025070070914
243,1916.33,0.05409245430252362
244,1925.1799999999998,0.052376204657518
245,1934.06,0.05484505484422422
246,1942.99,0.05586427475045019
247,1956.4599999999998,0.05165628918906875
248,1965.49,0.05573397853433419
249,1974.56,0.057296807655215436
250,1983.6799999999998,0.05409166649561642
251,1992.83,0.05261821516772925
252,2006.65,0.054216267642986
253,2015.9099999999999,0.052618015698042274
254,2025.21,0.05446649352871432
255,2034.56,0.050949001078906125
256,2043.95,0.052135088404713724
257,2053.39,0.04754706545004105
258,2062.87,0.04876748227098418
259,2072.39,0.052981228867543105
260,2077.1600000000003,0.04967386210972651
261,2086.75,0.05130114831361308
262,2096.38,0.04865574429311543
263,2106.06,0.049217889992137526
264,2115.7799999999997,0.04955941546677542
265,2125.5499999999997,0.04978701066093306
266,2135.36,0.04743813563070648
267,2145.22,0.04711057031999965
268,2155.12,0.048655064784908615
269,2165.06,0.04732789902543338
270,2175.06,0.04689360292938182
271,2185.1,0.04561704660894606
272,2187.7616199999998,0.04601149538049131
273,2195.18,0.04711096485698534
274,2205.32,0.04603799020809706
275,2215.5,0.044372705738108635
276,2225.72,0.04306547144702006
277,2236.0,0.04437270742428125
278,2246.32,0.0430654535804423
279,2256.6800000000003,0.0416026699155032
280,2267.1,0.04227916651891386
281,2277.5699999999997,0.042671373345949344
282,2282.82,0.04276910682655453
283,2293.35,0.04038221392193978
284,2303.94,0.04060479128567481
285,2314.57,0.03917268882830969
286,2325.26,0.03306564663929433
287,2335.9900000000002,0.037306364629178836
288,2346.77,0.036914062842688146
289,2357.6,0.03789611127982226
290,2363.04,0.03620684561020173
291,2373.95,0.03623949440513554
292,2384.9,0.03464128337896921
293,2395.91,0.035975652621152654
294,2406.97,0.03486719208696091
295,2412.52,0.035125826909314956
296,2423.66,0.03581278673292291
297,2434.84,0.03455090673543071
298,2446.08,0.03563416700628828
299,2457.37,0.03509895750077067
300,2463.04,0.034793082859824256
301,2474.41,0.03387811371210635
302,2485.83,0.03430339478801324
303,2497.3,0.030462466087544944
304,2503.06,0.0342745118491232
305,2511.88643,0.03254988218715955
306,2514.61,0.03201769661086977
307,2520.4100000000003,0.03323470657122178
308,2526.2200000000003,0.03227081651426405
309,2537.88,0.03230332633110964
310,2543.73,0.03151123620491296
311,2555.4700000000003,0.03242621588328064
312,2567.27,0.0320120354577899
313,2573.18,0.03284952522773479
314,2585.06,0.03250586466376615
315,2596.9900000000002,0.03216582401324881
316,2602.9799999999996,0.0314496736447158
317,2614.99,0.031050182855720556
318,2627.07,0.03144047194555715
319,2633.12,0.03145694147316571
320,2645.2799999999997,0.032370080424524404
321,2657.4900000000002,0.03218010928933441
322,2663.61,0.0306070086957748
323,2675.9100000000003,0.031136537404797163
324,2682.08,0.03086726672468887
325,2694.45,0.030055435312543063
326,2706.8900000000003,0.030087883779229094
327,2713.13,0.029416922977952634
328,2725.66,0.029447551288851025
329,2731.94,0.02987246041833561
330,2744.55,0.0280370685907561
331,2757.2200000000003,0.028002596659318157
332,2763.57,0.02821070566763458
333,2776.3300000000004,0.028899563580408995
334,2782.73,0.02832082250217673
335,2795.57,0.025326250276473245
336,2802.02,0.026351529111692286
337,2814.95,0.02826664673020116
338,2827.9500000000003,0.02829543422754187
339,2834.4599999999996,0.02722501295890248
340,2847.5499999999997,0.027004260300455548
341,2854.11,0.026771088945267477
342,2867.29,0.027360476131032898
343,2873.8999999999996,0.026937254689296135
344,2884.0315,0.026912412684740594
345,2887.16,0.026904747041108776
346,2893.8199999999997,0.026488756805179817
347,2907.17,0.027011606332259155
348,2927.3199999999997,0.026440135618450065
349,2947.6200000000003,0.02594082489932726
350,2968.0499999999997,0.025805344175599234
351,2988.6200000000003,0.02549425344691174
352,3009.3399999999997,0.025244652712910536
353,3030.2000000000003,0.024997011973949858
354,3051.2,0.024696761230029715
355,3072.35,0.024342400480795858
356,3086.53,0.02409284997847264
357,3107.93,0.023747369220382585
358,3129.47,0.02335501845733307
359,3151.16,0.023181457688969835
360,3173.01,0.022797986914938638
361,3187.65,0.022150706396320025
362,3209.75,0.022190385613432635
363,3232.0,0.02177447482523153
364,3246.9199999999996,0.021700304296693982
365,3269.42,0.021539363499636685
366,3292.08,0.021282702696911425
367,3307.28,0.02106372215845494
368,3311.31121,0.021186875877143373
369,3322.55,0.021530214404908956
370,3330.2,0.02134592922444282
371,3337.8799999999997,0.020825144023661132
372,3345.5800000000004,0.020646028809335745
373,3353.29,0.020564683588238503
374,3361.02,0.02057724835359756
375,3368.77,0.020353033105412918
376,3376.5299999999997,0.01976534785045642
377,3384.32,0.020331262575184368
378,3392.1200000000003,0.020579037293140468
379,3399.94,0.020926261997552865
380,3407.77,0.019904566695193412
381,3415.63,0.0200564913725184
382,3423.5,0.020488706043071542
383,3431.4,0.02050127069330913
384,3439.31,0.02046692533677487
385,3447.24,0.019783269966696902
386,3455.18,0.019345784589847086
387,3463.1499999999996,0.019135919192681716
388,3471.13,0.019369213788744493
389,3479.1299999999997,0.019159448371263568
390,3487.15,0.01912872294023894
391,3495.19,0.019450627495670614
392,3503.25,0.01902014203755858
393,3511.32,0.0188141065726747
394,3519.4199999999996,0.018913471087475264
395,3527.5299999999997,0.018924325595503978
396,3535.66,0.019244420089988987
397,3543.8199999999997,0.01925697456415845
398,3551.98,0.019358359038327905
399,3560.1699999999996,0.019191993492181807
400,3568.38,0.018766927932492006
401,3576.61,0.017975962359258506
402,3584.85,0.017822616779253158
403,3593.11,0.017670631185704104
404,3601.4,0.018219015571839494
405,3609.7000000000003,0.01814667995120304
406,3618.02,0.01820093431702287
407,3626.36,0.01885193866929901
408,3630.28,0.015845866014733357
409,3633.02,0.024551834159246142
410,3635.76,0.01934016230375893
411,3638.5,0.017391660448271708
412,3641.2400000000002,0.013040748592784493
413,3643.98,0.019766936737297278
414,3646.72,0.01435018488181006
415,3649.46,0.016586583026322845
416,3652.2,0.022134081170835627
417,3654.94,0.01801554931534841
418,3657.68,0.021821247459861196
419,3660.4199999999996,0.015550755604373977
420,3663.16,0.01448256374888676
421,3665.9,0.011258981893399543
422,3668.6400000000003,0.014265740037912329
423,3671.38,0.021220878182425112
424,3674.1200000000003,0.017456236326937897
425,3676.86,0.018208144471450676
426,3679.6,0.008888758615963463
427,3682.34,0.016682080760476246
428,3685.08,0.016039748904989028
429,3687.82,0.016394727049501814
430,3690.56,0.021287795194014598
431,3693.2999999999997,0.02118653333852738
432,3696.04,0.015064141483040163
433,3698.7799999999997,0.018510159627552945
434,3701.52,0.02418842777206573
435,3704.27,0.017079835909806666
436,3707.01,0.017044394054319446
437,3709.75,0.01658778219883223
438,3712.49,0.021826590343345012
439,3715.23,0.021379928487857795
440,3717.97,0.02640535663237058
441,3720.71,0.03982517477688337
442,3723.45,0.08003581292139614
443,3726.1899999999996,0.14360864106590893
444,3728.93,0.17400893921042174
445,3731.67,0.1370678373549345
446,3734.4100000000003,0.07122012549944728
447,3737.15,0.03154654364396007
448,3739.8900000000003,0.02002187178847285
449,3742.63,0.021844699932985632
450,3745.37,0.019777738077498414
451,3748.11,0.019730726222011198
452,3750.85,0.021870014366523985
453,3753.59,0.017871552511036764
454,3756.33,0.02060236065554955
455,3759.0699999999997,0.02049024880006233
456,3761.81,0.020737996944575114
457,3764.5499999999997,0.0209730850890879
458,3767.29,0.015348353233600684
459,3770.0299999999997,0.021445071378113467
460,3772.7699999999995,0.01942150952262625
461,3775.51,0.016529217667139034
462,3778.25,0.015977305811651816
463,3780.9900000000002,0.0197470239561646
464,3783.73,0.021553582100677385
465,3786.48,0.01886083023841832
466,3789.22,0.018746898382931098
467,3791.9599999999996,0.016593336527443884
468,3794.7,0.01747997467195667
469,3797.44,0.01903082281646945
470,3800.1800000000003,0.018173660960982236
471,3801.8939600000003,0.018725680026883434
472,3802.92,0.019056139250268833
473,3805.6600000000003,0.019587797781394474
474,3808.4,0.017343086312520115
475,3811.14,0.014466714843645754
476,3813.88,0.024105083374771394
477,3816.62,0.018003861905897034
478,3819.36,0.017606390437022678
479,3822.1,0.013888038968148317
480,3824.8399999999997,0.018969357499273958
481,3827.58,0.020150216030399598
482,3830.3199999999997,0.01797385456152524
483,3833.06,0.016733863092650878
484,3835.7999999999997,0.015164391623776521
485,3838.5399999999995,0.01875417015490216
486,3841.28,0.020435948686027803
487,3844.0200000000004,0.015587547217153443
488,3846.76,0.022660235748279082
489,3849.5,0.016131144279404725
490,3852.2400000000002,0.019859082810530365
491,3854.98,0.019969401341656003
492,3857.7200000000003,0.017396459872781645
493,3860.46,0.019029048403907286
494,3863.2,0.027640486935032925
495,3865.94,0.039029565466158565
496,3868.69,0.04557562399192335
497,3871.4300000000003,0.038564632523048994
498,3874.17,0.028759731054174634
499,3876.91,0.021515459585300274
500,3879.65,0.018133828116425915
501,3882.39,0.019302036647551556
502,3885.13,0.026224425178677194
503,3887.87,0.026426963709802836
504,3890.61,0.026960432240928475
505,3893.35,0.024663820772054118
506,3896.0899999999997,0.021036259303179757
507,3898.83,0.0165061378343054
508,3901.5699999999997,0.01573234636543104
509,3904.31,0.01580775489655668
510,3907.05,0.017304353427682318
511,3909.7900000000004,0.020329201958807958
512,3912.53,0.0195913904899336
513,3915.27,0.020808419021059243
514,3918.01,0.018669127552184882
515,3920.75,0.020242406083310523
516,3923.4900000000002,0.019113984614436166
517,3926.23,0.019419603145561803
518,3928.97,0.020417821676687445
519,3931.71,0.015542840207813085
520,3934.45,0.017071988738938726
521,3937.19,0.016407427270064365
522,3939.93,0.01878126580119001
523,3942.6699999999996,0.019329194332315648
524,3945.41,0.018168232863441287
525,3948.15,0.018472041394566926
526,3950.9,0.020564209920331714
527,3953.64,0.019582278451457356
528,3956.38,0.015859056982582997
529,3959.12,0.015722705513708635
530,3961.8599999999997,0.019039774044834274
531,3964.6,0.024153812575959915
532,3967.3399999999997,0.030419771107085557
533,3970.0800000000004,0.0308338896382112
534,3972.82,0.02824612816933684
535,3975.5600000000004,0.01892766670046248
536,3978.3,0.017225095231588116
537,3981.04,0.020007263762713758
538,3983.78,0.0167695722938394
539,3986.52,0.014323590824965041
540,3989.26,0.015204619356090682
541,3992.0,0.019594957887216324
542,3994.74,0.019155526418341964
543,3997.48,0.0188824749494676
544,4000.22,0.014866643480593245
545,4002.96,0.017399982011718884
546,4005.7,0.019582310542844525
547,4008.4399999999996,0.018103079073970164
548,4011.18,0.019878887605095808
549,4013.92,0.01944126613622145
550,4016.6600000000003,0.01829114466734709
551,4019.4,0.018461133198472725
552,4022.1400000000003,0.015293611729598368
553,4024.88,0.01868357026072401
554,4027.62,0.01933819879184965
555,4030.36,0.015378967322975291
556,4033.1099999999997,0.016890315848740074
557,4035.8500000000004,0.020905944379865714
558,4038.59,0.019683502910991357
559,4041.3300000000004,0.019786581442116997
560,4044.07,0.017218169973242638
