,lambda (Angstroms),Total Flux (erg/s/cm^2/Angstrom)
0,100.05999999999999,0.060507816536213274
1,101.92,0.0727375661301806
2,104.05,0.08674260195557645
3,104.712855,0.09110096252941889
4,105.99000000000001,0.08409433829447321
5,107.96,0.07328659935938595
6,109.97,0.062259413949820694
7,114.09,0.03965642694234021
8,118.1,0.01765691774842795
9,120.22644299999999,0.005990907249977992
10,121.13000000000001,0.005761536281330464
11,125.10000000000001,0.004753738458614213
12,127.13000000000001,0.004238416155515685
13,128.01,0.004015025219651383
14,131.0,0.003256003733351665
15,131.9,0.003027535800382411
16,134.05,0.002481751153020808
17,136.85,0.001770962037798029
18,138.038426,0.0014692762033058757
19,140.04000000000002,0.0014513312807092266
20,142.97,0.00142506515121935
21,146.98,0.0013891223174943383
22,151.1,0.0013521891447865254
23,154.97,0.0013174990648696233
24,158.489319,0.0012859543466644387
25,158.95,0.0012796093538164249
26,161.9,0.0012389803169919353
27,166.06,0.0011816891632679778
28,169.93,0.0011283951437781907
29,173.08,0.0010850186197125494
30,177.11999999999998,0.0010293904723792837
31,179.99,0.0009898769170252548
32,181.970086,0.0009626159500280757
33,182.07999999999998,0.0009631040331095226
34,185.89000000000001,0.0009800308744754096
35,191.1,0.0010031836435334864
36,194.2,0.0010169688176876201
37,197.81,0.0010330334758403374
38,201.95999999999998,0.0010515061967386133
39,204.76999999999998,0.0010640277786386507
40,208.929613,0.001082544300757634
41,210.02,0.0011119178149431095
42,215.9,0.0012704162287994975
43,219.92000000000002,0.0013787825004145796
44,222.98,0.0014612680719857602
45,227.12,0.00157290713559383
46,229.75,0.0016445614980984723
47,234.01999999999998,0.0017611441639406112
48,239.88329199999998,0.001920655458489506
49,240.03,0.0019174439414943675
50,246.18,0.001781603400820283
51,251.92,0.0016557279174578047
52,257.19,0.0015384969824769226
53,260.16999999999996,0.0014740735363340336
54,263.79,0.0013951087007779046
55,268.69,0.0012875914033953014
56,273.69,0.001177902154229379
57,275.42287,0.001139900875240997
58,278.78,0.0012202084677270877
59,283.96000000000004,0.001344262874127351
60,289.90999999999997,0.001486168022560082
61,295.98,0.001631960768322552
62,300.79,0.001747136307122795
63,307.79,0.001915538364690716
64,316.227766,0.0021188393130521332
65,317.88,0.00209087840578851
66,328.28999999999996,0.0019144595985363553
67,338.27000000000004,0.001745497151468486
68,347.74,0.0015855740204331443
69,356.66,0.0014354252333544486
70,363.078055,0.0013279157784475805
71,365.81,0.0013665047421071916
72,375.2,0.0014981742243269157
73,384.82000000000005,0.0016316688982943022
74,394.69,0.0017731992537265357
75,404.82,0.001917192925482213
76,414.24999999999994,0.002049935407136312
77,416.86938299999997,0.002086740480514071
78,421.95000000000005,0.002130622258761906
79,429.79,0.0021986705151396547
80,440.82000000000005,0.002296007588972126
81,451.09000000000003,0.002385124136012876
82,459.47,0.0024578181514268477
83,470.17,0.0025508163786260715
84,478.630092,0.0026259904132807563
85,480.02000000000004,0.002612255273876601
86,490.07,0.0025093566406623915
87,500.33,0.0024090599876496763
88,506.13,0.002350935912262371
89,511.99,0.002315897202646921
90,520.3100000000001,0.0022344972896775443
91,529.98,0.002139460906574917
92,539.83,0.002035806020787855
93,549.5408739999999,0.001955536980084642
94,549.87,0.0019551801779769066
95,560.09,0.0019448077391758568
96,570.5,0.0019316946678530652
97,579.77,0.0019024484916607236
98,590.5500000000001,0.001899754209637698
99,600.15,0.0018779195401181215
100,609.9,0.0018617936554498008
101,619.8100000000001,0.0018869412012894869
102,629.88,0.001879804977637181
103,630.957344,0.0018780704488010453
104,640.12,0.0019378717025388445
105,650.52,0.002034664772405018
106,658.0500000000001,0.002101139701067738
107,665.67,0.0021713821376427604
108,674.93,0.0022334743406197573
109,684.32,0.0022850289994700815
110,695.4399999999999,0.002476161032634682
111,705.11,0.0025101166272121717
112,716.5699999999999,0.002697599768045474
113,724.43596,0.002772896062080075
114,726.54,0.002788800480273501
115,734.95,0.0028607960985930292
116,745.1800000000001,0.0030125715523871763
117,755.54,0.003125444015858081
118,764.29,0.0032213664748706704
119,774.9200000000001,0.0033936045353625353
120,785.7,0.003545670260866045
121,794.8,0.0036643459382391373
122,805.86,0.00379424983843105
123,815.1899999999999,0.0039097828021553305
124,824.63,0.004135891120221483
125,831.763771,0.003939782390235397
126,834.1800000000001,0.003852938255189062
127,845.78,0.004257772214121074
128,855.5799999999999,0.004307161472529153
129,865.48,0.004461282325410784
130,875.51,0.004628167951108032
131,885.64,0.004855997171278832
132,895.9,0.0050165981642652496
133,904.1899999999999,0.005027733446122696
134,914.6600000000001,0.006881401687503571
135,925.25,0.03882533864225271
136,935.96,0.08655018431037012
137,944.62,0.1698891877917797
138,954.992586,0.24252811650621006
139,955.5600000000001,0.24650446881677993
140,964.4,0.2834479731332672
141,975.57,0.045435343632719984
142,984.6,0.24817027394695979
143,995.9999999999999,0.26886753381211304
144,1005.22,0.40341359012410544
145,1014.52,0.39335267317199357
146,1023.9,0.16783748295577758
147,1035.76,0.27951102155233176
148,1045.34,0.5550097481758552
149,1055.02,0.5537371832192486
150,1064.78,0.4401044449985376
151,1074.63,0.5361758243557095
152,1084.57,0.4252156212907642
153,1094.6100000000001,0.5783904266456886
154,1096.4782,0.5754870304564559
155,1104.74,0.5626311350121069
156,1114.96,0.5460695415049687
157,1125.28,0.496946261368602
158,1135.69,0.6457177232659298
159,1146.2,0.5903307985340293
160,1154.14,0.6382770401732973
161,1164.82,0.6682890281717087
162,1175.6,0.4647884295408915
163,1183.75,0.6620903692587803
164,1194.7,0.45210868335827487
165,1205.76,0.3232913821656183
166,1214.1100000000001,0.21491084862505028
167,1225.3500000000001,0.4603817314997827
168,1233.84,0.719088096678295
169,1245.26,0.8048288636204163
170,1253.89,0.7757341275180089
171,1258.92541,0.7282991115645433
172,1265.49,0.6664789329333631
173,1274.2600000000002,0.882357920939017
174,1286.05,0.9367527246547137
175,1294.97,0.7408555432419922
176,1303.94,0.7374508720231456
177,1316.01,0.9410713328245416
178,1325.1299999999999,0.9070546921873197
179,1334.32,0.8066533658215226
180,1343.57,0.9786020516883754
181,1356.0,0.9541406858856706
182,1365.3999999999999,0.8543996023341479
183,1374.86,0.9112569310152752
184,1384.39,0.9303125739678272
185,1393.99,0.8178746311918043
186,1403.6499999999999,0.858350800648431
187,1413.3799999999999,0.8783168843764826
188,1426.46,0.9133691510941511
189,1436.3500000000001,0.9133605674426024
190,1442.98,0.9718914191504114
191,1445.43977,0.9869545296876444
192,1446.3000000000002,0.9922223678380898
193,1456.3300000000002,0.9696637840943698
194,1466.4199999999998,0.8987778106173872
195,1476.5900000000001,0.9029150508293878
196,1483.4,0.9260693161040904
197,1493.69,0.951972976849566
198,1504.0400000000002,0.9050200478617791
199,1510.98,0.8066841353810796
200,1517.9599999999998,0.8703047297448716
201,1524.96,0.8465971275309094
202,1535.53,0.7391845361878266
203,1546.18,0.827362058533727
204,1553.31,0.7847377785643628
205,1564.08,0.801151721443738
206,1574.9199999999998,0.8623384763009738
207,1585.84,0.911294044847193
208,1596.83,0.9389663253712723
209,1604.2,0.9239624864688579
210,1615.3200000000002,0.9346389892375352
211,1626.52,0.8864918056951957
212,1634.03,0.951990990748502
213,1645.35,0.9741580277396376
214,1656.76,0.8988100801308793
215,1659.58691,0.9342375923774126
216,1664.4,0.9945615782921253
217,1672.09,0.8844761877240103
218,1675.9399999999998,1.0083869986879581
219,1683.6799999999998,1.0582946705998943
220,1695.35,0.9945930534438603
221,1703.17,0.9608668253238786
222,1714.98,0.917677683111988
223,1726.8700000000001,0.9197839408681797
224,1734.84,0.9877797001883518
225,1746.8600000000001,0.9698213203926767
226,1754.93,1.0438797046729513
227,1763.03,0.9543186264412568
228,1775.2499999999998,0.9901188965657868
229,1783.44,1.0108343307981844
230,1795.8,1.0930867758668579
231,1804.0900000000001,1.0855721350593581
232,1816.6,1.0085537675681855
233,1824.98,1.0344202392247779
234,1833.41,0.9947592733614218
235,1846.12,0.9157390557904541
236,1854.6399999999999,0.9284732023911901
237,1863.2,0.9654743989759673
238,1876.11,1.0464411313252047
239,1884.77,0.9699830528700844
240,1893.4699999999998,0.9392705243990049
241,1905.46072,0.9921200175534739
242,1906.6,0.9971381729201793
243,1915.3999999999999,0.9677338983234812
244,1924.24,0.9522781592967982
245,1933.1200000000001,0.9699643558401301
246,1946.52,1.034447671795158
247,1955.51,0.9766321911560313
248,1969.06,1.0781473654986156
249,1978.1499999999999,1.105754723784526
250,1982.71,1.0511783787662372
251,1996.4499999999998,1.0272532470663926
252,2005.6699999999998,1.0559943959548523
253,2014.93,1.0224874804133266
254,2024.23,1.0706255004418164
255,2033.5700000000002,1.027195456040321
256,2042.96,1.075539331101344
257,2057.12,1.034262522886657
258,2066.61,1.039016236872718
259,2076.15,1.1183778703212977
260,2085.73,1.1235344393398923
261,2095.36,1.0655969278210056
262,2105.0299999999997,1.0705003518721337
263,2114.75,1.087868695385781
264,2124.51,1.1055279744694433
265,2134.32,1.022303173015624
266,2144.17,1.06552030713182
267,2154.0699999999997,1.1054683607105344
268,2164.01,1.0703973498592643
269,2174.0,1.0654702584705127
270,2184.03,1.0605631026517761
271,2187.7616199999998,1.0809462490018145
272,2194.11,1.1156412447810697
273,2204.2400000000002,1.085269254118351
274,2214.42,1.0270373276675635
275,2224.64,0.9995529525863212
276,2234.9,1.086409628874624
277,2245.22,1.0380488822172438
278,2255.58,0.9918581869294092
279,2266.0,1.015421568695892
280,2276.46,1.0515840018319198
281,2286.96,1.0915454863374927
282,2297.52,1.028682047897383
283,2302.81,1.0408548415197147
284,2313.44,0.9945294929763089
285,2324.12,0.7833391086448344
286,2334.85,0.9185260885252913
287,2345.63,0.8796923326176794
288,2356.45,0.9783572280796127
289,2367.33,0.8846436005958633
290,2372.79,0.9244007125387612
291,2383.7400000000002,0.8435920749517158
292,2394.74,0.9105881015766017
293,2405.7999999999997,0.8761081052558051
294,2416.9,0.9031913603045536
295,2422.47,0.9791351135137003
296,2433.66,0.9442443841439251
297,2444.8900000000003,1.0075683061436949
298,2456.17,0.9965927923553961
299,2467.5099999999998,0.9902435556214149
300,2473.2000000000003,0.9503455629391967
301,2484.6099999999997,0.9729792161019192
302,2496.08,0.9233405463189593
303,2507.6,1.043584840747931
304,2511.88643,0.9441874415940513
305,2513.39,0.9093186982212526
306,2519.18,0.9243229203934668
307,2524.99,0.889110232624998
308,2536.64,0.9102827421770354
309,2542.4900000000002,0.9021662345272001
310,2554.22,0.9828017043165047
311,2566.01,0.9521871442837598
312,2577.86,1.0160515544289654
313,2583.8,1.0069936020460557
314,2595.73,0.9914500724285283
315,2607.7099999999996,0.956138517959293
316,2613.72,0.9389399307839921
317,2625.79,1.0019287315816825
318,2637.9,1.0472557124980064
319,2643.98,1.1564576905303143
320,2656.19,1.1949516217432223
321,2662.31,1.0703305798941636
322,2674.6,1.1290914713443387
323,2686.9500000000003,1.1349073329724644
324,2693.14,1.074262256331015
325,2705.5699999999997,1.1177060781964077
326,2718.06,1.0509738702397506
327,2724.33,1.0512797538355683
328,2736.9,1.1115505061161786
329,2743.21,0.9421969698306297
330,2755.8700000000003,0.9780610773781657
331,2762.2200000000003,1.0267399212112507
332,2774.98,1.0831135790553705
333,2787.78,1.002195217018124
334,2794.2099999999996,0.7874158210884761
335,2807.1099999999997,0.8500014093478137
336,2813.58,1.0799943935367993
337,2826.5699999999997,1.1604659370630623
338,2833.08,1.1214327013706817
339,2846.16,1.0915382001638707
340,2852.7200000000003,1.0355869396197817
341,2865.89,1.1651803936798961
342,2872.49,1.170879113254441
343,2884.0315,1.1667824981524828
344,2885.7500000000005,1.1661733592542471
345,2892.4,1.1638622916110049
346,2912.45,1.2860290876640874
347,2932.6400000000003,1.2349638822931015
348,2952.97,1.2191136754980474
349,2966.6,1.2511325368548312
350,2987.16,1.2609393277202363
351,3007.8700000000003,1.2855271170598541
352,3028.72,1.2896619049754037
353,3049.71,1.299815691466885
354,3070.85,1.319112476432579
355,3092.14,1.3356152598724853
356,3113.57,1.3430460418883237
357,3127.95,1.3284978956161702
358,3149.63,1.3451706750890293
359,3171.46,1.355791453036101
360,3193.44,1.2871512294573857
361,3208.18,1.3424430795233424
362,3230.42,1.2774138532999286
363,3252.81,1.3763746255507274
364,3267.83,1.4387994727685478
365,3290.48,1.4369202423746483
366,3311.31121,1.4382095380885178
367,3313.29,1.4383316457098638
368,3320.9300000000003,1.4388311601282777
369,3328.58,1.472786672602213
370,3336.25,1.5145521811871914
371,3343.94,1.4139896858832126
372,3351.65,1.4407391866902768
373,3359.38,1.4713716836083839
374,3367.12,1.4450291785820126
375,3374.89,1.3153946677222057
376,3382.6699999999996,1.3651661549179201
377,3390.46,1.4835896401691564
378,3398.28,1.477254119586957
379,3406.11,1.444142597060279
380,3413.9599999999996,1.4714900706446439
381,3421.8399999999997,1.5236705383955733
382,3429.72,1.4860860061465029
383,3437.6299999999997,1.5107374680639967
384,3445.55,1.331609928037012
385,3453.5,1.550516382176592
386,3461.46,1.4081648343716933
387,3469.4399999999996,1.4481092826778377
388,3477.44,1.3866417270950249
389,3485.45,1.4424371695677334
390,3493.4900000000002,1.423164606207007
391,3501.5400000000004,1.4401450409018013
392,3509.61,1.450608471707639
393,3517.7000000000003,1.4051228986245197
394,3525.81,1.4449613216524433
395,3531.22,0.9634449696895662
396,3533.87,1.8834087544027593
397,3536.5099999999998,1.632175241060431
398,3539.1600000000003,1.2465717257736244
399,3541.8100000000004,1.3641372104868177
400,3544.4500000000003,1.9036486971444895
401,3547.1000000000004,1.762329181857683
402,3549.75,1.456045666570876
403,3552.3900000000003,1.5962991532285478
404,3555.04,1.4714586379417411
405,3557.68,1.4348111245994128
406,3560.33,1.0368666093126062
407,3562.98,1.5469840940257995
408,3565.62,1.4497825806834714
409,3568.27,1.4581430653966645
410,3570.91,1.6804405520543364
411,3573.56,1.2409880367675297
412,3576.21,1.3071145214807227
413,3578.85,1.5742400081383947
414,3581.5000000000005,1.726169492851588
415,3584.1400000000003,1.6602639795092597
416,3586.7900000000004,1.3172024642224531
417,3589.44,1.3549789489356463
418,3592.0800000000004,1.4101494355933182
419,3594.73,1.4248379203065114
420,3597.37,1.6772094069641832
421,3600.02,1.4472998916773765
422,3602.67,1.1876933763905697
423,3605.31,1.6587858630482415
424,3607.96,1.4386503477614347
425,3610.6,1.1045558344191067
426,3613.25,1.4576033191323
427,3615.9,1.473356803845493
428,3618.54,1.4859852905031647
429,3621.19,1.6951177752163582
430,3623.83,1.5278072618740302
431,3626.4800000000005,1.6028307465872234
432,3629.1299999999997,1.5853152313004166
433,3631.7700000000004,1.7095927179580883
434,3634.42,1.6891632026712815
435,3637.06,1.2970216893289532
436,3639.71,1.5244801740421468
437,3642.36,1.35020765875534
438,3645.0,1.5753241454130118
439,3647.65,1.277749630126205
440,3650.29,1.4580691167838769
441,3652.94,1.48597760149707
442,3655.59,1.4993500862102636
443,3658.23,1.3694115728679352
444,3660.88,1.7391240575811284
445,3663.52,1.4394275442388003
446,3666.17,1.7497450289519936
447,3668.8199999999997,1.5647885136651867
448,3671.4599999999996,1.4502950003228585
449,3674.1099999999997,1.525318485036052
450,3676.7499999999995,1.5308049716937238
451,3679.4,1.4529234564069171
452,3682.05,1.7448509411201103
453,3684.69,1.513540427777782
454,3687.34,1.5868409124909753
455,3689.98,1.778502399148647
456,3692.63,1.7180058838618402
457,3695.28,1.4239083685750338
458,3697.92,1.4906698552327056
459,3700.57,1.7743273399458988
460,3703.21,1.6084898266035705
461,3705.86,1.4532943113167638
462,3708.5099999999998,1.463001796029957
463,3711.1499999999996,1.4678302826876288
464,3713.7999999999997,1.4111567674008223
465,3716.4399999999996,1.940831254058494
466,3719.0899999999997,1.9223127387716872
467,3721.7400000000002,2.0868662234848805
468,3724.38,2.3751087101425523
469,3727.03,2.8524871948557458
470,3729.67,3.0928656815134175
471,3732.32,2.6713911662266105
472,3734.9700000000003,2.129843650939804
473,3737.61,1.7408991375974758
474,3740.26,1.853106622310669
475,3742.9,1.9360331089683407
476,3745.55,1.763638593681534
477,3748.2,1.7608780783947273
478,3750.8399999999997,1.7970335650523992
479,3753.49,1.7316820497655925
480,3756.1299999999997,1.8576515364232642
481,3758.7799999999997,1.8240650211364575
482,3761.43,1.8593025058496506
483,3764.0699999999997,1.8760369925073224
484,3766.7200000000003,1.7619724772205156
485,3769.36,1.6810609638781875
486,3772.01,1.5928414485913809
487,3774.6600000000003,1.789347933304574
488,3777.3,1.880983419962246
489,3779.9500000000003,2.058945904675439
490,3782.59,2.282278391333111
491,3785.2400000000002,2.1345378760463043
492,3787.89,2.0886393607594975
493,3790.5299999999997,2.184003847417169
494,3793.18,2.083816332130363
495,3795.8199999999997,1.8178588187880345
496,3798.47,1.7084003035012276
497,3801.12,1.5837157882144208
498,3801.8939600000003,1.625201066386254
499,3803.7599999999998,1.7252233504756838
500,3806.41,2.063200942555019
501,3809.0499999999997,2.1558085361736783
502,3811.7000000000003,2.2265701282530137
503,3814.3500000000004,2.1049247203323493
504,3816.9900000000002,2.177608313951008
505,3819.6400000000003,2.1858739060303436
506,3822.28,2.177014499649003
507,3824.9300000000003,2.0637960917283382
508,3827.58,1.958439683807674
509,3830.22,1.8351442774263327
510,3832.87,1.5915758695056683
511,3835.5099999999998,1.5167104631243271
512,3838.16,1.4637650552036627
513,3840.81,1.6310446472829985
514,3843.45,1.9399612409016573
515,3846.1,2.101914832980993
516,3848.74,2.2614044265996514
517,3851.39,2.2381240186789872
518,3854.0400000000004,2.1902206107583226
519,3856.6800000000003,2.426837204376982
520,3859.3300000000004,2.5456847964563174
521,3861.9700000000003,2.5416193900749766
522,3864.6200000000003,2.727755982154312
523,3867.27,2.6174495742336474
524,3869.91,2.7479641678523063
525,3872.56,2.5381647599316417
526,3875.2,2.293573353550301
527,3877.85,2.1977089456296364
528,3880.5,2.1247445377089718
529,3883.14,2.0466531313276306
530,3885.79,1.9416417234069663
531,3888.43,1.7357063170256253
532,3891.08,1.8808389091049607
533,3893.7300000000005,2.019422501184297
534,3896.37,1.9262630948029553
535,3899.0200000000004,2.1538466868822908
536,3901.6600000000003,2.2162242805009496
537,3904.31,2.3838788725802855
538,3906.96,2.396466464659621
539,3909.6,2.4159270582782795
540,3912.25,2.685017650357615
541,3914.89,2.802688243976274
542,3917.54,2.50883783605561
543,3920.19,2.4717114281349453
544,3922.83,2.3309670217536045
545,3925.48,2.56255961383294
546,3928.12,2.0656322074515985
547,3930.77,1.9048917995309342
548,3933.42,1.79339639161027
549,3936.06,1.8480969852289286
550,3938.7100000000005,2.0844205773082645
551,3941.35,2.085147170926923
552,3943.9999999999995,2.2191267630062588
553,3946.65,2.3602793550855945
554,3949.29,2.3790189487042532
555,3951.94,2.559705540783589
556,3954.58,2.3928351344022474
557,3957.23,2.251202726481583
558,3959.88,2.286189318560919
559,3962.52,2.106788912179578
560,3965.17,1.7314295042589134
561,3967.81,1.6402110978775721
562,3970.46,1.5974146899569077
563,3973.11,1.6173982820362434
564,3975.75,1.8396958756549022
565,3978.4,2.134098467734238
566,3981.04,2.1742340613528968
567,3983.6899999999996,2.4269406534322324
568,3986.3399999999997,2.449396245511568
569,3988.9799999999996,2.3740008391302267
570,3991.63,2.697567431209562
571,3994.27,2.609453024828221
572,3996.92,2.748224616907557
573,3999.57,2.7501922089868924
574,4002.21,2.8267938026055512
575,4004.86,2.932921394684887
576,4007.51,2.7947029867642224
577,4010.15,2.5153405803828814
578,4012.8,2.831357172462217
579,4015.44,3.126712766080876
580,4018.09,2.952937358160211
581,4020.74,2.8149699502395467
582,4023.3799999999997,3.065120543858206
583,4026.0299999999997,2.9442561359375414
